20.00000 473.191
20.01000 473.053
20.02000 472.895
20.03000 473.145
20.04000 474.998
20.05000 477.015
20.06000 478.502
20.07000 483.508
20.08000 487.534
20.09000 484.714
20.10000 469.447
20.11000 453.919
20.12000 451.973
20.13000 466.567
20.14000 481.173
20.15000 488.181
20.16000 489.181
20.17000 490.117
20.18000 488.322
20.19000 485.079
20.20000 481.725
20.21000 476.462
20.22000 470.508
20.23000 465.025
20.24000 462.611
20.25000 461.124
20.26000 460.010
20.27000 461.042
20.28000 462.418
20.29000 463.537
20.30000 463.684
20.31000 463.737
20.32000 463.775
20.33000 454.194
20.34000 446.434
20.35000 444.365
20.36000 452.285
20.37000 460.391
20.38000 467.369
20.39000 473.024
20.40000 478.664
20.41000 479.322
20.42000 476.211
20.43000 473.148
20.44000 471.925
20.45000 471.645
20.46000 471.315
20.47000 470.178
20.48000 468.760
20.49000 467.460
20.50000 471.790
20.51000 476.830
20.52000 479.658
20.53000 470.245
20.54000 458.955
20.55000 451.145
20.56000 456.060
20.57000 462.147
20.58000 466.545
20.59000 475.609
20.60000 482.730
20.61000 483.380
20.62000 473.072
20.63000 462.585
20.64000 456.573
20.65000 455.604
20.66000 454.643
20.67000 454.487
20.68000 454.918
20.69000 455.295
20.70000 453.817
20.71000 451.420
20.72000 449.476
20.73000 454.396
20.74000 461.635
20.75000 468.239
20.76000 467.367
20.77000 465.085
20.78000 463.287
20.79000 464.057
20.80000 465.205
20.81000 465.163
20.82000 460.924
20.83000 456.318
20.84000 453.027
20.85000 460.480
20.86000 466.527
20.87000 467.303
20.88000 459.467
20.89000 451.509
20.90000 448.456
20.91000 450.714
20.92000 452.964
20.93000 460.199
20.94000 470.845
20.95000 481.235
20.96000 483.528
20.97000 481.954
20.98000 480.409
20.99000 479.290
21.00000 478.309
21.01000 477.418
21.02000 470.938
21.03000 464.134
21.04000 459.409
21.05000 465.309
21.06000 472.704
21.07000 476.582
21.08000 468.495
21.09000 459.418
21.10000 453.002
21.11000 450.766
21.12000 449.196
21.13000 449.814
21.14000 453.877
21.15000 457.983
21.16000 456.461
21.17000 449.088
21.18000 441.753
21.19000 441.258
21.20000 445.368
21.21000 449.481
21.22000 453.667
21.23000 457.889
21.24000 461.556
21.25000 457.748
21.26000 451.588
21.27000 446.023
21.28000 448.519
21.29000 452.209
21.30000 455.795
21.31000 458.869
21.32000 461.874
21.33000 462.447
21.34000 455.034
21.35000 446.995
21.36000 441.376
21.37000 449.971
21.38000 456.865
21.39000 461.318
21.40000 462.062
21.41000 462.768
21.42000 464.356
21.43000 466.825
21.44000 469.278
21.45000 474.508
21.46000 481.459
21.47000 487.913
21.48000 481.130
21.49000 468.451
21.50000 456.408
21.51000 452.454
21.52000 450.956
21.53000 449.609
21.54000 456.663
21.55000 464.332
21.56000 470.297
21.57000 468.199
21.58000 465.064
21.59000 461.669
21.60000 457.455
21.61000 453.179
21.62000 450.225
21.63000 458.634
21.64000 465.247
21.65000 466.799
21.66000 460.938
21.67000 455.012
21.68000 452.923
21.69000 454.512
21.70000 456.088
21.71000 458.779
21.72000 462.118
21.73000 465.637
21.74000 473.571
21.75000 483.403
21.76000 491.979
21.77000 485.415
21.78000 474.417
21.79000 464.580
21.80000 468.414
21.81000 474.081
21.82000 479.133
21.83000 481.385
21.84000 483.293
21.85000 485.704
21.86000 489.656
21.87000 493.715
21.88000 496.486
21.89000 507.819
21.90000 516.496
21.91000 520.471
21.92000 517.809
21.93000 515.101
21.94000 518.790
21.95000 528.368
21.96000 537.861
21.97000 542.027
21.98000 542.925
21.99000 543.922
22.00000 547.160
22.01000 551.328
22.02000 555.068
22.03000 553.926
22.04000 551.405
22.05000 549.162
22.06000 547.159
22.07000 545.459
22.08000 543.294
22.09000 539.086
22.10000 534.639
22.11000 533.406
22.12000 541.664
22.13000 550.543
22.14000 556.533
22.15000 537.127
22.16000 522.150
22.17000 514.629
22.18000 517.250
22.19000 519.926
22.20000 519.752
22.21000 517.057
22.22000 514.390
22.23000 509.618
22.24000 503.739
22.25000 498.034
22.26000 495.984
22.27000 495.401
22.28000 495.044
22.29000 497.132
22.30000 499.886
22.31000 502.322
22.32000 500.233
22.33000 497.722
22.34000 495.070
22.35000 491.822
22.36000 488.508
22.37000 484.678
22.38000 479.379
22.39000 473.989
22.40000 470.398
22.41000 469.698
22.42000 469.236
22.43000 467.843
22.44000 465.231
22.45000 462.620
22.46000 463.219
22.47000 466.550
22.48000 469.842
22.49000 468.050
22.50000 463.485
22.51000 458.963
22.52000 455.295
22.53000 451.957
22.54000 448.771
22.55000 447.135
22.56000 445.906
22.57000 444.825
22.58000 440.329
22.59000 435.952
22.60000 432.341
22.61000 431.852
22.62000 431.696
22.63000 431.594
22.64000 431.641
22.65000 431.697
22.66000 431.734
22.67000 430.977
22.68000 430.406
22.69000 433.627
22.70000 441.633
22.71000 449.629
22.72000 447.052
22.73000 435.821
22.74000 424.741
22.75000 427.408
22.76000 437.332
22.77000 446.364
22.78000 439.040
22.79000 425.598
22.80000 414.126
22.81000 421.897
22.82000 434.544
22.83000 445.605
22.84000 440.375
22.85000 433.575
22.86000 429.220
22.87000 434.458
22.88000 440.670
22.89000 444.524
22.90000 442.113
22.91000 439.364
22.92000 437.580
22.93000 438.332
22.94000 438.922
22.95000 438.777
22.96000 437.739
22.97000 436.698
22.98000 435.161
22.99000 433.233
23.00000 431.334
23.01000 429.878
23.02000 428.693
23.03000 427.561
23.04000 427.345
23.05000 427.459
23.06000 427.405
23.07000 425.787
23.08000 423.786
23.09000 422.046
23.10000 429.251
23.11000 436.613
23.12000 442.640
23.13000 443.621
23.14000 444.115
23.15000 442.922
23.16000 437.397
23.17000 431.654
23.18000 427.976
23.19000 432.612
23.20000 436.100
23.21000 435.295
23.22000 429.477
23.23000 423.661
23.24000 420.075
23.25000 418.181
23.26000 416.319
23.27000 416.470
23.28000 417.612
23.29000 419.195
23.30000 427.872
23.31000 439.022
23.32000 448.985
23.33000 448.417
23.34000 445.371
23.35000 442.739
23.36000 439.133
23.37000 435.944
23.38000 431.722
23.39000 423.731
23.40000 415.395
23.41000 410.546
23.42000 414.339
23.43000 418.537
23.44000 421.189
23.45000 434.854
23.46000 444.885
23.47000 444.023
23.48000 430.931
23.49000 417.860
23.50000 410.012
23.51000 405.979
23.52000 402.022
23.53000 405.827
23.54000 413.183
23.55000 420.252
23.56000 422.980
23.57000 424.247
23.58000 425.356
23.59000 425.134
23.60000 424.610
23.61000 424.160
23.62000 430.529
23.63000 436.758
23.64000 441.647
23.65000 441.822
23.66000 441.588
23.67000 441.256
23.68000 440.689
23.69000 440.113
23.70000 439.753
23.71000 424.426
23.72000 413.229
23.73000 416.405
23.74000 435.089
23.75000 453.714
23.76000 463.591
23.77000 467.309
23.78000 470.949
23.79000 465.864
23.80000 456.988
23.81000 448.858
23.82000 451.334
23.83000 457.256
23.84000 463.114
23.85000 468.454
23.86000 473.681
23.87000 478.140
23.88000 479.517
23.89000 480.313
23.90000 480.088
23.91000 476.398
23.92000 472.423
23.93000 468.293
23.94000 463.805
23.95000 459.303
23.96000 456.539
23.97000 458.161
23.98000 459.362
23.99000 461.996
24.00000 466.114
24.01000 470.217
24.02000 472.497
24.03000 473.540
24.04000 474.560
24.05000 468.212
24.06000 458.893
24.07000 450.004
24.08000 446.893
24.09000 445.594
24.10000 444.692
24.11000 446.844
24.12000 449.637
24.13000 452.005
24.14000 443.033
24.15000 434.241
24.16000 427.766
24.17000 428.878
24.18000 430.581
24.19000 431.933
24.20000 432.499
24.21000 433.037
24.22000 433.362
24.23000 429.777
24.24000 427.193
24.25000 423.689
24.26000 419.269
24.27000 414.935
24.28000 418.559
24.29000 427.390
24.30000 435.996
24.31000 432.222
24.32000 423.376
24.33000 415.223
24.34000 415.832
24.35000 419.095
24.36000 421.788
24.37000 420.279
24.38000 417.922
24.39000 415.938
24.40000 415.042
24.41000 414.412
24.42000 412.708
24.43000 407.608
24.44000 402.259
24.45000 401.718
24.46000 411.540
24.47000 421.714
24.48000 427.773
24.49000 413.433
24.50000 403.149
24.51000 399.154
24.52000 401.166
24.53000 403.124
24.54000 400.862
24.55000 395.937
24.56000 391.150
24.57000 392.308
24.58000 395.834
24.59000 399.044
24.60000 398.461
24.61000 396.769
24.62000 396.024
24.63000 401.953
24.64000 409.180
24.65000 415.220
24.66000 414.151
24.67000 412.541
24.68000 410.036
24.69000 404.803
24.70000 399.381
24.71000 394.349
24.72000 390.126
24.73000 385.929
24.74000 383.468
24.75000 382.257
24.76000 381.411
24.77000 384.378
24.78000 390.842
24.79000 397.225
24.80000 397.983
24.81000 395.321
24.82000 392.738
24.83000 395.662
24.84000 400.593
24.85000 404.690
24.86000 399.320
24.87000 391.282
24.88000 384.945
24.89000 390.103
24.90000 397.409
24.91000 403.472
24.92000 405.438
24.93000 406.666
24.94000 407.622
24.95000 407.779
24.96000 407.883
24.97000 406.117
24.98000 400.592
24.99000 394.960
25.00000 391.712
25.01000 394.209
25.02000 395.983
25.03000 399.913
25.04000 405.746
25.05000 411.367
25.06000 404.256
25.07000 389.671
25.08000 375.566
25.09000 381.203
25.10000 393.978
25.11000 405.459
25.12000 403.005
25.13000 396.765
25.14000 392.191
25.15000 398.409
25.16000 406.565
25.17000 413.285
25.18000 403.556
25.19000 394.042
25.20000 387.127
25.21000 387.599
25.22000 388.524
25.23000 391.942
25.24000 400.196
25.25000 408.574
25.26000 413.328
25.27000 393.833
25.28000 380.213
25.29000 382.073
25.30000 397.060
25.31000 411.712
25.32000 408.653
25.33000 395.563
25.34000 382.939
25.35000 383.636
25.36000 389.130
25.37000 393.948
25.38000 391.844
25.39000 387.928
25.40000 384.215
25.41000 381.773
25.42000 379.550
25.43000 377.732
25.44000 375.152
25.45000 372.973
25.46000 373.754
25.47000 382.660
25.48000 392.031
25.49000 395.507
25.50000 387.943
25.51000 380.126
25.52000 375.765
25.53000 386.786
25.54000 394.424
25.55000 393.221
25.56000 384.804
25.57000 376.552
25.58000 376.028
25.59000 379.728
25.60000 383.286
25.61000 386.800
25.62000 390.079
25.63000 392.694
25.64000 388.853
25.65000 383.381
25.66000 378.745
25.67000 379.084
25.68000 380.247
25.69000 381.191
25.70000 376.765
25.71000 372.713
25.72000 372.085
25.73000 380.531
25.74000 389.463
25.75000 398.454
25.76000 407.551
25.77000 416.651
25.78000 421.638
25.79000 406.982
25.80000 396.888
25.81000 390.950
25.82000 388.276
25.83000 385.640
25.84000 384.566
25.85000 384.316
25.86000 384.077
25.87000 385.480
25.88000 387.343
25.89000 388.654
25.90000 384.859
25.91000 379.820
25.92000 375.493
25.93000 375.234
25.94000 375.621
25.95000 375.933
25.96000 387.368
25.97000 397.515
25.98000 403.611
25.99000 399.338
26.00000 394.547
26.01000 389.394
26.02000 383.609
26.03000 377.812
26.04000 374.692
26.05000 363.353
26.06000 355.655
26.07000 360.610
26.08000 375.132
26.09000 389.298
26.10000 390.029
26.11000 383.914
26.12000 378.070
26.13000 381.550
26.14000 387.802
26.15000 393.497
26.16000 394.285
26.17000 393.921
26.18000 393.634
26.19000 393.766
26.20000 393.962
26.21000 394.118
26.22000 399.635
26.23000 404.486
26.24000 406.747
26.25000 402.607
26.26000 398.170
26.27000 392.647
26.28000 385.297
26.29000 377.919
26.30000 374.021
26.31000 370.781
26.32000 368.590
26.33000 367.740
26.34000 367.868
26.35000 367.989
26.36000 367.901
26.37000 367.709
26.38000 367.527
26.39000 369.982
26.40000 373.076
26.41000 376.102
26.42000 378.546
26.43000 380.858
26.44000 382.123
26.45000 377.852
26.46000 372.773
26.47000 368.750
26.48000 369.784
26.49000 370.966
26.50000 371.568
26.51000 370.782
26.52000 369.936
26.53000 371.917
26.54000 378.489
26.55000 385.125
26.56000 388.564
26.57000 383.964
26.58000 380.861
26.59000 378.037
26.60000 375.408
26.61000 372.911
26.62000 374.565
26.63000 378.189
26.64000 381.629
26.65000 378.440
26.66000 373.516
26.67000 369.282
26.68000 370.607
26.69000 373.141
26.70000 375.705
26.71000 378.418
26.72000 381.152
26.73000 383.300
26.74000 375.913
26.75000 369.378
26.76000 368.194
26.77000 379.345
26.78000 390.987
26.79000 394.072
26.80000 383.753
26.81000 373.274
26.82000 367.950
26.83000 363.372
26.84000 360.338
26.85000 361.205
26.86000 364.708
26.87000 368.035
26.88000 366.292
26.89000 362.224
26.90000 358.376
26.91000 363.389
26.92000 370.546
26.93000 376.856
26.94000 376.668
26.95000 375.119
26.96000 373.296
26.97000 370.133
26.98000 366.790
26.99000 364.188
27.00000 370.836
27.01000 376.700
27.02000 381.368
27.03000 383.370
27.04000 385.274
27.05000 387.404
27.06000 389.874
27.07000 392.347
27.08000 389.235
27.09000 380.586
27.10000 372.064
27.11000 375.300
27.12000 386.204
27.13000 396.629
27.14000 394.444
27.15000 386.675
27.16000 379.353
27.17000 373.797
27.18000 369.197
27.19000 364.953
27.20000 363.326
27.21000 362.225
27.22000 361.246
27.23000 360.837
27.24000 360.501
27.25000 360.242
27.26000 363.683
27.27000 366.625
27.28000 368.972
27.29000 370.040
27.30000 371.065
27.31000 368.990
27.32000 362.399
27.33000 355.771
27.34000 356.418
27.35000 363.987
27.36000 371.491
27.37000 373.824
27.38000 372.905
27.39000 371.767
27.40000 365.318
27.41000 356.598
27.42000 348.410
27.43000 349.659
27.44000 353.303
27.45000 356.655
27.46000 357.945
27.47000 358.835
27.48000 360.191
27.49000 363.657
27.50000 367.381
27.51000 370.229
27.52000 369.587
27.53000 368.891
27.54000 368.138
27.55000 367.269
27.56000 366.395
27.57000 364.869
27.58000 362.427
27.59000 359.979
27.60000 361.941
27.61000 367.931
27.62000 373.873
27.63000 376.596
27.64000 377.365
27.65000 378.033
27.66000 376.400
27.67000 373.816
27.68000 371.400
27.69000 373.288
27.70000 376.102
27.71000 377.451
27.72000 368.940
27.73000 358.592
27.74000 351.089
27.75000 355.986
27.76000 362.327
27.77000 367.131
27.78000 370.466
27.79000 373.008
27.80000 374.062
27.81000 372.131
27.82000 370.116
27.83000 366.275
27.84000 359.963
27.85000 353.641
27.86000 350.787
27.87000 350.980
27.88000 351.296
27.89000 358.916
27.90000 370.811
27.91000 382.276
27.92000 384.782
27.93000 383.716
27.94000 382.723
27.95000 373.383
27.96000 362.888
27.97000 353.796
27.98000 353.751
27.99000 355.325
28.00000 355.195
28.01000 347.914
28.02000 339.838
28.03000 333.778
28.04000 342.136
28.05000 349.352
28.06000 354.180
28.07000 354.389
28.08000 354.482
28.09000 353.865
28.10000 352.324
28.11000 350.781
28.12000 350.785
28.13000 352.095
28.14000 353.379
28.15000 353.321
28.16000 352.505
28.17000 351.851
28.18000 354.315
28.19000 357.980
28.20000 361.381
28.21000 365.238
28.22000 368.820
28.23000 371.296
28.24000 366.927
28.25000 361.381
28.26000 356.317
28.27000 353.198
28.28000 350.286
28.29000 348.122
28.30000 355.264
28.31000 361.229
28.32000 366.784
28.33000 371.571
28.34000 376.340
28.35000 377.849
28.36000 375.269
28.37000 372.681
28.38000 367.937
28.39000 361.463
28.40000 355.122
28.41000 354.929
28.42000 358.086
28.43000 361.196
28.44000 363.449
28.45000 365.383
28.46000 367.170
28.47000 363.547
28.48000 359.073
28.49000 354.909
28.50000 352.578
28.51000 350.550
28.52000 348.228
28.53000 344.760
28.54000 341.176
28.55000 338.539
28.56000 354.521
28.57000 367.654
28.58000 372.963
28.59000 364.172
28.60000 355.094
28.61000 349.858
28.62000 349.255
28.63000 348.664
28.64000 350.186
28.65000 353.348
28.66000 356.465
28.67000 357.756
28.68000 358.085
28.69000 358.251
28.70000 355.642
28.71000 352.038
28.72000 348.722
28.73000 348.239
28.74000 348.422
28.75000 347.735
28.76000 342.092
28.77000 335.665
28.78000 331.262
28.79000 334.465
28.80000 338.396
28.81000 341.259
28.82000 337.901
28.83000 335.077
28.84000 337.969
28.85000 350.799
28.86000 363.809
28.87000 370.618
28.88000 370.236
28.89000 369.845
28.90000 367.444
28.91000 363.555
28.92000 359.594
28.93000 352.938
28.94000 344.912
28.95000 337.589
28.96000 341.444
28.97000 349.173
28.98000 356.251
28.99000 351.378
29.00000 344.556
29.01000 338.663
29.02000 337.852
29.03000 337.813
29.04000 338.623
29.05000 342.511
29.06000 346.678
29.07000 349.681
29.08000 348.582
29.09000 347.595
29.10000 347.004
29.11000 347.077
29.12000 347.161
29.13000 350.544
29.14000 357.609
29.15000 364.652
29.16000 364.733
29.17000 359.803
29.18000 354.928
29.19000 351.955
29.20000 349.914
29.21000 347.915
29.22000 346.561
29.23000 345.421
29.24000 344.383
29.25000 340.652
29.26000 336.809
29.27000 333.500
29.28000 333.001
29.29000 332.911
29.30000 332.934
29.31000 333.352
29.32000 333.804
29.33000 334.127
29.34000 349.135
29.35000 361.056
29.36000 366.290
29.37000 360.698
29.38000 354.958
29.39000 351.425
29.40000 350.258
29.41000 349.096
29.42000 348.461
29.43000 348.197
29.44000 347.957
29.45000 348.471
29.46000 349.343
29.47000 350.061
29.48000 348.611
29.49000 346.460
29.50000 344.509
29.51000 345.559
29.52000 347.060
29.53000 348.915
29.54000 352.566
29.55000 356.466
29.56000 358.372
29.57000 353.550
29.58000 348.180
29.59000 344.394
29.60000 341.518
29.61000 339.364
29.62000 339.935
29.63000 344.760
29.64000 349.636
29.65000 352.245
29.66000 352.519
29.67000 352.792
29.68000 350.614
29.69000 346.832
29.70000 343.175
29.71000 343.086
29.72000 344.628
29.73000 346.271
29.74000 349.260
29.75000 352.667
29.76000 355.742
29.77000 352.531
29.78000 348.558
29.79000 346.913
29.80000 356.603
29.81000 367.802
29.82000 375.336
29.83000 370.940
29.84000 365.625
29.85000 361.920
29.86000 360.196
29.87000 358.949
29.88000 361.970
29.89000 371.417
29.90000 380.927
29.91000 384.381
29.92000 381.849
29.93000 379.335
29.94000 381.909
29.95000 387.702
29.96000 393.180
29.97000 390.405
29.98000 383.987
29.99000 377.951
30.00000 376.711
30.01000 376.914
30.02000 377.096
30.03000 376.783
30.04000 376.423
30.05000 375.370
30.06000 371.065
30.07000 366.346
30.08000 361.513
30.09000 356.319
30.10000 351.099
30.11000 347.503
30.12000 361.267
30.13000 372.036
30.14000 380.563
30.15000 385.835
30.16000 391.078
30.17000 388.948
30.18000 379.823
30.19000 370.770
30.20000 365.718
30.21000 363.220
30.22000 360.626
30.23000 355.741
30.24000 349.879
30.25000 344.784
30.26000 348.809
30.27000 355.481
30.28000 361.440
30.29000 359.023
30.30000 355.509
30.31000 351.783
30.32000 347.099
30.33000 342.297
30.34000 339.625
30.35000 343.407
30.36000 347.631
30.37000 350.507
30.38000 358.218
30.39000 364.088
30.40000 365.709
30.41000 361.386
30.42000 357.023
30.43000 354.560
30.44000 353.828
30.45000 353.103
30.46000 350.306
30.47000 346.339
30.48000 342.663
30.49000 345.502
30.50000 351.023
30.51000 356.085
30.52000 355.975
30.53000 354.418
30.54000 353.034
30.55000 351.612
30.56000 350.372
30.57000 350.124
30.58000 354.179
30.59000 358.734
30.60000 361.548
30.61000 359.267
30.62000 356.658
30.63000 354.903
30.64000 357.819
30.65000 360.081
30.66000 361.665
30.67000 362.332
30.68000 362.994
30.69000 362.553
30.70000 361.147
30.71000 359.755
30.72000 358.511
30.73000 357.381
30.74000 356.404
30.75000 358.600
30.76000 362.058
30.77000 365.330
30.78000 366.614
30.79000 367.362
30.80000 368.022
30.81000 370.083
30.82000 372.078
30.83000 374.364
30.84000 377.865
30.85000 381.502
30.86000 382.030
30.87000 373.773
30.88000 364.984
30.89000 359.147
30.90000 380.653
30.91000 397.059
30.92000 405.528
30.93000 403.699
30.94000 401.838
30.95000 405.872
30.96000 414.872
30.97000 423.762
30.98000 435.983
30.99000 449.720
31.00000 463.554
31.01000 479.233
31.02000 495.621
31.03000 511.219
31.04000 518.814
31.05000 524.324
31.06000 529.165
31.07000 549.236
31.08000 568.733
31.09000 589.002
31.10000 612.383
31.11000 636.092
31.12000 664.064
31.13000 703.668
31.14000 743.933
31.15000 770.331
31.16000 807.898
31.17000 835.708
31.18000 865.809
31.19000 898.771
31.20000 931.780
31.21000 978.768
31.22000 1037.090
31.23000 1094.601
31.24000 1131.277
31.25000 1155.916
31.26000 1180.795
31.27000 1209.997
31.28000 1240.802
31.29000 1271.171
31.30000 1297.338
31.31000 1322.450
31.32000 1344.380
31.33000 1356.421
31.34000 1365.336
31.35000 1374.203
31.36000 1382.886
31.37000 1391.551
31.38000 1394.320
31.39000 1381.559
31.40000 1367.975
31.41000 1359.185
31.42000 1330.534
31.43000 1309.285
31.44000 1282.191
31.45000 1248.070
31.46000 1213.926
31.47000 1177.201
31.48000 1138.462
31.49000 1100.330
31.50000 1062.610
31.51000 1026.273
31.52000 989.702
31.53000 949.194
31.54000 907.276
31.55000 866.507
31.56000 836.289
31.57000 808.624
31.58000 784.610
31.59000 736.275
31.60000 691.821
31.61000 650.098
31.62000 618.610
31.63000 588.097
31.64000 562.223
31.65000 548.152
31.66000 534.664
31.67000 526.055
31.68000 510.642
31.69000 499.340
31.70000 484.366
31.71000 465.145
31.72000 445.950
31.73000 433.104
31.74000 425.030
31.75000 417.098
31.76000 414.980
31.77000 415.780
31.78000 416.154
31.79000 409.788
31.80000 401.093
31.81000 393.036
31.82000 390.574
31.83000 389.417
31.84000 388.418
31.85000 385.541
31.86000 382.859
31.87000 377.979
31.88000 365.156
31.89000 351.614
31.90000 342.643
31.91000 344.902
31.92000 347.676
31.93000 349.422
31.94000 359.329
31.95000 366.589
31.96000 369.589
31.97000 367.851
31.98000 366.113
31.99000 364.781
32.00000 363.744
32.01000 362.727
32.02000 352.704
32.03000 338.815
32.04000 325.671
32.05000 323.622
32.06000 325.276
32.07000 327.196
32.08000 331.341
32.09000 335.986
32.10000 339.967
32.11000 342.261
32.12000 343.992
32.13000 345.120
32.14000 344.146
32.15000 342.992
32.16000 341.066
32.17000 337.308
32.18000 333.473
32.19000 331.092
32.20000 326.888
32.21000 323.846
32.22000 320.140
32.23000 315.727
32.24000 311.356
32.25000 312.349
32.26000 317.084
32.27000 321.717
32.28000 317.535
32.29000 309.527
32.30000 302.085
32.31000 302.555
32.32000 305.573
32.33000 308.607
32.34000 311.760
32.35000 314.938
32.36000 317.646
32.37000 323.957
32.38000 329.684
32.39000 332.792
32.40000 327.096
32.41000 320.686
32.42000 318.313
32.43000 325.192
32.44000 332.435
32.45000 336.865
32.46000 331.372
32.47000 327.358
32.48000 322.247
32.49000 316.011
32.50000 309.851
32.51000 311.817
32.52000 319.245
32.53000 326.496
32.54000 324.322
32.55000 318.132
32.56000 312.451
32.57000 313.491
32.58000 316.621
32.59000 319.421
32.60000 319.713
32.61000 319.483
32.62000 319.289
32.63000 317.141
32.64000 315.126
32.65000 313.600
32.66000 313.663
32.67000 313.847
32.68000 315.906
32.69000 322.112
32.70000 328.468
32.71000 332.298
32.72000 319.525
32.73000 310.319
32.74000 304.078
32.75000 300.756
32.76000 297.517
32.77000 301.729
32.78000 310.772
32.79000 319.578
32.80000 336.404
32.81000 355.809
32.82000 374.713
32.83000 387.365
32.84000 398.141
32.85000 409.525
32.86000 425.349
32.87000 442.061
32.88000 456.104
32.89000 469.869
32.90000 481.308
32.91000 490.750
32.92000 493.937
32.93000 496.672
32.94000 500.785
32.95000 507.845
32.96000 515.002
32.97000 519.248
32.98000 513.078
32.99000 508.651
33.00000 505.697
33.01000 504.133
33.02000 502.570
33.03000 501.080
33.04000 499.635
33.05000 498.231
33.06000 478.943
33.07000 453.397
33.08000 428.437
33.09000 410.401
33.10000 394.368
33.11000 379.095
33.12000 369.126
33.13000 360.179
33.14000 352.713
33.15000 340.021
33.16000 328.969
33.17000 318.992
33.18000 312.262
33.19000 305.754
33.20000 301.332
33.21000 301.215
33.22000 301.228
33.23000 301.236
33.24000 298.621
33.25000 296.769
33.26000 295.448
33.27000 294.608
33.28000 293.752
33.29000 291.882
33.30000 289.399
33.31000 286.993
33.32000 286.340
33.33000 286.404
33.34000 286.541
33.35000 287.506
33.36000 288.703
33.37000 289.862
33.38000 290.770
33.39000 291.632
33.40000 292.347
33.41000 289.091
33.42000 286.024
33.43000 283.069
33.44000 280.441
33.45000 277.833
33.46000 278.212
33.47000 284.540
33.48000 291.031
33.49000 294.761
33.50000 291.962
33.51000 289.985
33.52000 291.365
33.53000 295.675
33.54000 299.934
33.55000 301.152
33.56000 300.602
33.57000 300.070
33.58000 301.527
33.59000 303.643
33.60000 304.986
33.61000 298.104
33.62000 289.006
33.63000 280.391
33.64000 274.872
33.65000 269.903
33.66000 265.817
33.67000 269.665
33.68000 273.546
33.69000 277.637
33.70000 282.316
33.71000 287.031
33.72000 290.036
33.73000 289.754
33.74000 289.390
33.75000 289.184
33.76000 299.519
33.77000 306.724
33.78000 309.398
33.79000 308.269
33.80000 307.092
33.81000 303.528
33.82000 298.623
33.83000 293.897
33.84000 289.248
33.85000 284.908
33.86000 281.194
33.87000 283.799
33.88000 288.045
33.89000 291.934
33.90000 293.632
33.91000 294.956
33.92000 296.036
33.93000 297.211
33.94000 298.181
33.95000 300.196
33.96000 305.056
33.97000 310.076
33.98000 313.713
33.99000 314.781
34.00000 315.792
34.01000 316.354
34.02000 300.719
34.03000 289.908
34.04000 288.150
34.05000 293.705
34.06000 299.243
34.07000 303.941
34.08000 308.185
34.09000 312.262
34.10000 312.373
34.11000 311.103
34.12000 310.001
34.13000 310.515
34.14000 311.433
34.15000 311.753
34.16000 308.547
34.17000 304.763
34.18000 301.699
34.19000 308.075
34.20000 314.035
34.21000 317.521
34.22000 314.507
34.23000 311.150
34.24000 311.919
34.25000 320.081
34.26000 328.389
34.27000 332.923
34.28000 325.518
34.29000 320.428
34.30000 318.274
34.31000 318.403
34.32000 318.583
34.33000 320.843
34.34000 324.191
34.35000 327.398
34.36000 328.548
34.37000 328.936
34.38000 329.445
34.39000 331.051
34.40000 332.921
34.41000 334.052
34.42000 330.988
34.43000 327.266
34.44000 324.275
34.45000 324.222
34.46000 324.404
34.47000 325.052
34.48000 326.879
34.49000 328.764
34.50000 326.570
34.51000 317.327
34.52000 307.958
34.53000 302.940
34.54000 312.925
34.55000 319.714
34.56000 318.954
34.57000 312.542
34.58000 306.256
34.59000 304.659
34.60000 305.428
34.61000 306.163
34.62000 303.833
34.63000 300.687
34.64000 298.312
34.65000 302.657
34.66000 308.563
34.67000 313.478
34.68000 313.006
34.69000 311.722
34.70000 310.698
34.71000 303.276
34.72000 296.824
34.73000 289.988
34.74000 282.214
34.75000 274.397
34.76000 271.596
34.77000 277.163
34.78000 282.859
34.79000 285.854
34.80000 283.202
34.81000 281.401
34.82000 279.497
34.83000 277.518
34.84000 275.650
34.85000 277.492
34.86000 281.143
34.87000 284.617
34.88000 279.771
34.89000 272.722
34.90000 266.424
34.91000 266.369
34.92000 267.713
34.93000 269.008
34.94000 270.057
34.95000 271.069
34.96000 271.870
34.97000 273.497
34.98000 274.859
34.99000 274.118
35.00000 268.398
35.01000 262.467
35.02000 260.485
35.03000 264.856
35.04000 269.312
35.05000 271.610
35.06000 272.637
35.07000 273.350
35.08000 276.702
35.09000 281.887
35.10000 286.824
35.11000 284.142
35.12000 277.875
35.13000 271.930
35.14000 267.653
35.15000 264.203
35.16000 261.531
35.17000 265.043
35.18000 269.887
35.19000 273.286
35.20000 269.414
35.21000 264.538
35.22000 260.716
35.23000 267.445
35.24000 273.505
35.25000 276.454
35.26000 272.298
35.27000 267.865
35.28000 265.885
35.29000 267.712
35.30000 269.583
35.31000 270.529
35.32000 259.037
35.33000 251.409
35.34000 250.214
35.35000 253.333
35.36000 256.432
35.37000 259.014
35.38000 261.361
35.39000 263.580
35.40000 264.093
35.41000 264.079
35.42000 264.228
35.43000 265.610
35.44000 267.248
35.45000 268.812
35.46000 270.015
35.47000 271.171
35.48000 272.069
35.49000 263.577
35.50000 256.251
35.51000 251.588
35.52000 252.800
35.53000 254.224
35.54000 255.835
35.55000 257.725
35.56000 259.618
35.57000 264.540
35.58000 272.434
35.59000 280.200
35.60000 276.624
35.61000 265.719
35.62000 255.110
35.63000 252.114
35.64000 252.461
35.65000 252.787
35.66000 254.540
35.67000 256.533
35.68000 258.789
35.69000 262.951
35.70000 267.493
35.71000 271.117
35.72000 270.467
35.73000 269.278
35.74000 268.362
35.75000 259.541
35.76000 252.106
35.77000 250.758
35.78000 262.374
35.79000 274.417
35.80000 279.641
35.81000 275.029
35.82000 270.339
35.83000 265.558
35.84000 260.691
35.85000 255.829
35.86000 251.267
35.87000 246.892
35.88000 242.754
35.89000 244.248
35.90000 248.129
35.91000 251.770
35.92000 246.899
35.93000 240.222
35.94000 235.396
35.95000 243.436
35.96000 253.945
35.97000 261.503
35.98000 255.834
35.99000 248.570
36.00000 243.028
36.01000 246.864
36.02000 250.388
36.03000 252.109
36.04000 250.123
36.05000 248.025
36.06000 247.797
36.07000 250.170
36.08000 252.558
36.09000 255.926
36.10000 260.176
36.11000 264.377
36.12000 265.424
36.13000 264.573
36.14000 263.803
36.15000 264.801
36.16000 266.522
36.17000 268.130
36.18000 267.829
36.19000 267.073
36.20000 265.559
36.21000 258.992
36.22000 251.492
36.23000 245.969
36.24000 248.972
36.25000 252.956
36.26000 255.968
36.27000 259.435
36.28000 262.176
36.29000 261.734
36.30000 254.970
36.31000 248.033
36.32000 245.893
36.33000 250.174
36.34000 254.486
36.35000 254.363
36.36000 250.386
36.37000 246.491
36.38000 247.232
36.39000 250.664
36.40000 253.731
36.41000 249.332
36.42000 241.982
36.43000 235.141
36.44000 234.990
36.45000 236.476
36.46000 238.102
36.47000 240.622
36.48000 243.300
36.49000 245.622
36.50000 246.464
36.51000 247.143
36.52000 247.652
36.53000 251.834
36.54000 255.270
36.55000 258.631
36.56000 261.850
36.57000 265.065
36.58000 265.331
36.59000 261.795
36.60000 258.248
36.61000 255.078
36.62000 252.233
36.63000 249.343
36.64000 244.220
36.65000 237.846
36.66000 231.883
36.67000 233.749
36.68000 238.605
36.69000 243.105
36.70000 246.873
36.71000 250.094
36.72000 253.128
36.73000 255.023
36.74000 256.724
36.75000 259.328
36.76000 265.546
36.77000 272.141
36.78000 277.030
36.79000 272.866
36.80000 269.238
36.81000 266.779
36.82000 266.487
36.83000 266.242
36.84000 266.573
36.85000 267.618
36.86000 268.664
36.87000 268.651
36.88000 267.790
36.89000 267.023
36.90000 270.513
36.91000 276.303
36.92000 281.875
36.93000 283.577
36.94000 283.851
36.95000 284.104
36.96000 283.190
36.97000 282.110
36.98000 281.395
36.99000 282.827
37.00000 284.610
37.01000 285.679
37.02000 283.989
37.03000 282.025
37.04000 280.584
37.05000 278.136
37.06000 276.203
37.07000 274.399
37.08000 272.826
37.09000 271.258
37.10000 271.117
37.11000 272.681
37.12000 274.245
37.13000 274.388
37.14000 273.435
37.15000 272.341
37.16000 265.551
37.17000 255.792
37.18000 246.964
37.19000 253.691
37.20000 265.954
37.21000 277.220
37.22000 276.129
37.23000 272.503
37.24000 269.708
37.25000 271.598
37.26000 274.222
37.27000 274.583
37.28000 266.518
37.29000 257.656
37.30000 251.220
37.31000 254.135
37.32000 256.727
37.33000 258.202
37.34000 257.749
37.35000 257.264
37.36000 257.515
37.37000 258.612
37.38000 259.708
37.39000 261.260
37.40000 263.140
37.41000 264.915
37.42000 262.835
37.43000 258.816
37.44000 254.976
37.45000 253.960
37.46000 253.914
37.47000 253.872
37.48000 256.830
37.49000 260.077
37.50000 262.151
37.51000 257.861
37.52000 252.616
37.53000 248.385
37.54000 247.798
37.55000 247.538
37.56000 247.351
37.57000 257.270
37.58000 265.210
37.59000 266.773
37.60000 257.731
37.61000 248.527
37.62000 244.920
37.63000 247.493
37.64000 250.060
37.65000 248.628
37.66000 244.359
37.67000 240.170
37.68000 238.660
37.69000 238.452
37.70000 238.204
37.71000 237.359
37.72000 236.316
37.73000 235.367
37.74000 241.179
37.75000 247.659
37.76000 252.539
37.77000 249.082
37.78000 244.427
37.79000 241.109
37.80000 242.426
37.81000 244.138
37.82000 245.354
37.83000 243.398
37.84000 241.808
37.85000 243.596
37.86000 250.806
37.87000 258.087
37.88000 258.238
37.89000 250.823
37.90000 243.441
37.91000 242.574
37.92000 246.182
37.93000 249.646
37.94000 248.758
37.95000 245.827
37.96000 242.905
37.97000 240.102
37.98000 237.337
37.99000 234.832
38.00000 245.628
38.01000 257.661
38.02000 266.799
38.03000 261.425
38.04000 254.055
38.05000 249.444
38.06000 254.060
38.07000 259.418
38.08000 263.184
38.09000 258.629
38.10000 254.933
38.11000 252.560
38.12000 252.231
38.13000 251.926
38.14000 252.079
38.15000 252.698
38.16000 253.314
38.17000 255.787
38.18000 259.452
38.19000 263.052
38.20000 264.827
38.21000 265.776
38.22000 266.998
38.23000 271.799
38.24000 277.706
38.25000 283.030
38.26000 290.735
38.27000 297.928
38.28000 304.601
38.29000 308.768
38.30000 312.605
38.31000 315.097
38.32000 313.251
38.33000 311.076
38.34000 309.564
38.35000 321.191
38.36000 330.308
38.37000 341.577
38.38000 356.056
38.39000 370.566
38.40000 379.237
38.41000 382.198
38.42000 385.138
38.43000 400.885
38.44000 424.508
38.45000 448.101
38.46000 470.940
38.47000 493.450
38.48000 515.823
38.49000 536.517
38.50000 556.710
38.51000 574.815
38.52000 602.826
38.53000 629.022
38.54000 654.602
38.55000 677.325
38.56000 699.688
38.57000 726.543
38.58000 767.381
38.59000 809.222
38.60000 837.960
38.61000 870.352
38.62000 894.731
38.63000 915.158
38.64000 929.906
38.65000 944.609
38.66000 965.364
38.67000 991.803
38.68000 1018.024
38.69000 1033.743
38.70000 1042.770
38.71000 1051.494
38.72000 1053.078
38.73000 1051.644
38.74000 1049.489
38.75000 1038.890
38.76000 1025.863
38.77000 1014.243
38.78000 990.104
38.79000 967.021
38.80000 942.930
38.81000 914.336
38.82000 885.201
38.83000 859.336
38.84000 843.298
38.85000 827.925
38.86000 817.491
38.87000 770.260
38.88000 734.207
38.89000 693.704
38.90000 647.033
38.91000 600.333
38.92000 570.830
38.93000 556.845
38.94000 542.993
38.95000 522.259
38.96000 497.913
38.97000 473.425
38.98000 445.819
38.99000 416.941
39.00000 388.733
39.01000 367.962
39.02000 349.257
39.03000 332.663
39.04000 321.181
39.05000 312.049
39.06000 303.842
39.07000 299.611
39.08000 295.837
39.09000 292.417
39.10000 290.021
39.11000 287.691
39.12000 286.129
39.13000 271.975
39.14000 261.218
39.15000 253.248
39.16000 248.998
39.17000 244.769
39.18000 241.809
39.19000 239.950
39.20000 238.112
39.21000 237.967
39.22000 238.780
39.23000 239.487
39.24000 238.006
39.25000 235.662
39.26000 233.706
39.27000 235.830
39.28000 239.046
39.29000 241.883
39.30000 236.429
39.31000 230.463
39.32000 226.458
39.33000 230.587
39.34000 235.605
39.35000 237.599
39.36000 231.126
39.37000 224.149
39.38000 219.530
39.39000 221.830
39.40000 223.653
39.41000 227.003
39.42000 232.315
39.43000 237.627
39.44000 238.654
39.45000 236.106
39.46000 233.590
39.47000 235.134
39.48000 238.844
39.49000 242.381
39.50000 242.624
39.51000 241.614
39.52000 240.822
39.53000 242.210
39.54000 244.162
39.55000 245.873
39.56000 241.881
39.57000 237.623
39.58000 233.553
39.59000 230.234
39.60000 226.993
39.61000 225.941
39.62000 230.811
39.63000 236.010
39.64000 239.408
39.65000 230.694
39.66000 224.100
39.67000 219.451
39.68000 217.208
39.69000 214.981
39.70000 216.077
39.71000 219.842
39.72000 223.553
39.73000 227.253
39.74000 230.842
39.75000 234.165
39.76000 232.786
39.77000 229.678
39.78000 227.046
39.79000 228.946
39.80000 231.973
39.81000 234.613
39.82000 228.873
39.83000 222.800
39.84000 218.873
39.85000 223.209
39.86000 228.363
39.87000 231.327
39.88000 228.571
39.89000 225.517
39.90000 223.547
39.91000 225.846
39.92000 227.585
39.93000 228.059
39.94000 227.026
39.95000 225.994
39.96000 225.741
39.97000 226.090
39.98000 226.433
39.99000 224.893
40.00000 222.454
40.01000 220.082
40.02000 218.812
40.03000 217.934
40.04000 217.507
40.05000 221.174
40.06000 225.823
40.07000 229.852
40.08000 221.979
40.09000 213.697
40.10000 206.763
40.11000 204.829
40.12000 203.366
40.13000 204.163
40.14000 210.660
40.15000 217.432
40.16000 221.741
40.17000 221.593
40.18000 221.429
40.19000 219.639
40.20000 215.985
40.21000 212.339
40.22000 210.522
40.23000 210.066
40.24000 209.618
40.25000 213.726
40.26000 219.898
40.27000 225.361
40.28000 219.783
40.29000 210.423
40.30000 202.374
40.31000 205.662
40.32000 211.568
40.33000 216.655
40.34000 222.040
40.35000 226.640
40.36000 229.588
40.37000 226.617
40.38000 223.117
40.39000 219.797
40.40000 216.913
40.41000 214.048
40.42000 212.251
40.43000 218.825
40.44000 223.666
40.45000 224.038
40.46000 219.492
40.47000 214.977
40.48000 215.653
40.49000 220.049
40.50000 224.358
40.51000 229.883
40.52000 235.765
40.53000 240.987
40.54000 236.542
40.55000 228.899
40.56000 221.640
40.57000 217.544
40.58000 214.153
40.59000 211.250
40.60000 209.612
40.61000 208.383
40.62000 208.070
40.63000 210.916
40.64000 214.031
40.65000 215.687
40.66000 213.914
40.67000 211.998
40.68000 210.813
40.69000 212.420
40.70000 213.601
40.71000 214.030
40.72000 213.663
40.73000 213.313
40.74000 215.086
40.75000 218.325
40.76000 221.492
40.77000 215.724
40.78000 206.183
40.79000 197.616
40.80000 202.489
40.81000 211.653
40.82000 219.439
40.83000 216.356
40.84000 210.944
40.85000 206.343
40.86000 206.324
40.87000 206.835
40.88000 207.422
40.89000 208.265
40.90000 209.128
40.91000 209.557
40.92000 208.999
40.93000 208.404
40.94000 208.041
40.95000 213.308
40.96000 217.117
40.97000 218.009
40.98000 215.939
40.99000 213.829
41.00000 207.588
41.01000 198.596
41.02000 189.823
41.03000 190.763
41.04000 195.857
41.05000 200.722
41.06000 202.610
41.07000 203.581
41.08000 204.100
41.09000 201.216
41.10000 197.631
41.11000 194.603
41.12000 199.801
41.13000 205.049
41.14000 209.424
41.15000 210.991
41.16000 212.345
41.17000 213.418
41.18000 213.873
41.19000 214.306
41.20000 214.566
41.21000 212.381
41.22000 210.813
41.23000 210.656
41.24000 211.874
41.25000 213.032
41.26000 208.991
41.27000 201.610
41.28000 194.425
41.29000 196.603
41.30000 202.568
41.31000 208.070
41.32000 207.872
41.33000 205.980
41.34000 204.383
41.35000 204.909
41.36000 205.856
41.37000 206.651
41.38000 205.884
41.39000 205.083
41.40000 205.104
41.41000 207.675
41.42000 210.429
41.43000 211.403
41.44000 208.607
41.45000 205.689
41.46000 203.965
41.47000 209.219
41.48000 212.968
41.49000 213.299
41.50000 210.432
41.51000 207.555
41.52000 204.005
41.53000 200.038
41.54000 196.186
41.55000 201.175
41.56000 209.447
41.57000 216.784
41.58000 213.206
41.59000 206.498
41.60000 200.609
41.61000 200.375
41.62000 201.219
41.63000 201.922
41.64000 203.538
41.65000 204.967
41.66000 205.228
41.67000 201.986
41.68000 198.508
41.69000 196.888
41.70000 199.065
41.71000 201.355
41.72000 202.687
41.73000 203.747
41.74000 204.491
41.75000 206.144
41.76000 208.615
41.77000 211.026
41.78000 209.686
41.79000 206.103
41.80000 202.633
41.81000 201.737
41.82000 201.881
41.83000 202.010
41.84000 201.981
41.85000 201.908
41.86000 201.620
41.87000 199.915
41.88000 197.950
41.89000 196.326
41.90000 197.159
41.91000 198.077
41.92000 199.542
41.93000 202.587
41.94000 205.731
41.95000 206.761
41.96000 203.616
41.97000 200.359
41.98000 198.495
41.99000 195.469
42.00000 193.357
42.01000 195.387
42.02000 200.998
42.03000 206.522
42.04000 207.214
42.05000 205.119
42.06000 203.095
42.07000 205.577
42.08000 209.585
42.09000 212.892
42.10000 208.863
42.11000 202.876
42.12000 197.200
42.13000 193.500
42.14000 190.147
42.15000 187.395
42.16000 198.200
42.17000 208.282
42.18000 214.028
42.19000 207.666
42.20000 200.586
42.21000 197.173
42.22000 200.749
42.23000 204.496
42.24000 206.603
42.25000 205.728
42.26000 205.112
42.27000 204.608
42.28000 204.195
42.29000 203.806
42.30000 204.629
42.31000 206.126
42.32000 207.567
42.33000 207.171
42.34000 206.143
42.35000 204.735
42.36000 199.529
42.37000 193.345
42.38000 189.031
42.39000 196.085
42.40000 205.060
42.41000 212.371
42.42000 211.134
42.43000 209.400
42.44000 208.479
42.45000 209.753
42.46000 211.148
42.47000 209.534
42.48000 202.385
42.49000 195.116
42.50000 191.097
42.51000 202.601
42.52000 210.542
42.53000 210.204
42.54000 203.240
42.55000 196.401
42.56000 195.080
42.57000 196.723
42.58000 198.301
42.59000 199.978
42.60000 201.581
42.61000 203.331
42.62000 206.477
42.63000 209.969
42.64000 212.790
42.65000 211.693
42.66000 209.962
42.67000 208.562
42.68000 206.788
42.69000 205.315
42.70000 204.171
42.71000 203.882
42.72000 203.638
42.73000 203.087
42.74000 201.990
42.75000 200.882
42.76000 200.281
42.77000 193.761
42.78000 189.311
42.79000 191.643
42.80000 199.200
42.81000 206.645
42.82000 209.660
42.83000 210.378
42.84000 211.066
42.85000 206.810
42.86000 201.214
42.87000 196.364
42.88000 198.251
42.89000 201.747
42.90000 204.281
42.91000 201.417
42.92000 197.714
42.93000 194.745
42.94000 195.145
42.95000 195.724
42.96000 195.984
42.97000 195.440
42.98000 194.857
42.99000 194.461
43.00000 194.388
43.01000 194.320
43.02000 194.283
43.03000 198.305
43.04000 201.035
43.05000 201.433
43.06000 200.101
43.07000 198.757
43.08000 196.976
43.09000 194.977
43.10000 193.069
43.11000 193.952
43.12000 195.657
43.13000 197.191
43.14000 197.254
43.15000 196.978
43.16000 195.880
43.17000 190.359
43.18000 184.179
43.19000 179.264
43.20000 184.514
43.21000 189.472
43.22000 193.494
43.23000 195.243
43.24000 196.890
43.25000 197.625
43.26000 196.852
43.27000 196.057
43.28000 195.641
43.29000 203.233
43.30000 208.351
43.31000 209.858
43.32000 208.784
43.33000 207.661
43.34000 204.959
43.35000 201.493
43.36000 198.198
43.37000 199.118
43.38000 201.253
43.39000 202.589
43.40000 197.353
43.41000 190.660
43.42000 185.682
43.43000 189.587
43.44000 194.760
43.45000 198.840
43.46000 198.164
43.47000 197.301
43.48000 196.471
43.49000 195.719
43.50000 194.970
43.51000 194.505
43.52000 194.493
43.53000 194.487
43.54000 194.484
43.55000 197.860
43.56000 200.091
43.57000 197.520
43.58000 191.641
43.59000 185.970
43.60000 186.523
43.61000 189.980
43.62000 193.256
43.63000 195.322
43.64000 196.871
43.65000 198.172
43.66000 197.529
43.67000 196.472
43.68000 195.070
43.69000 191.954
43.70000 188.604
43.71000 185.984
43.72000 190.488
43.73000 194.536
43.74000 196.858
43.75000 195.272
43.76000 193.536
43.77000 191.459
43.78000 188.859
43.79000 186.253
43.80000 184.942
43.81000 186.721
43.82000 187.921
43.83000 190.230
43.84000 193.274
43.85000 196.281
43.86000 198.235
43.87000 199.716
43.88000 201.114
43.89000 196.107
43.90000 189.707
43.91000 184.474
43.92000 188.000
43.93000 193.325
43.94000 197.365
43.95000 195.255
43.96000 192.341
43.97000 190.082
43.98000 187.075
43.99000 184.641
44.00000 183.735
44.01000 186.171
44.02000 188.724
44.03000 189.820
44.04000 188.752
44.05000 187.665
44.06000 187.093
44.07000 187.021
44.08000 186.957
44.09000 187.600
44.10000 188.697
44.11000 189.853
44.12000 192.491
44.13000 195.775
44.14000 198.864
44.15000 198.198
44.16000 196.573
44.17000 195.032
44.18000 194.092
44.19000 193.271
44.20000 192.471
44.21000 191.762
44.22000 191.066
44.23000 190.530
44.24000 194.312
44.25000 197.545
44.26000 199.485
44.27000 198.693
44.28000 197.814
44.29000 196.579
44.30000 194.836
44.31000 193.089
44.32000 193.913
44.33000 197.135
44.34000 200.284
44.35000 198.099
44.36000 192.620
44.37000 187.439
44.38000 189.185
44.39000 193.843
44.40000 198.208
44.41000 199.605
44.42000 200.105
44.43000 200.795
44.44000 202.789
44.45000 205.032
44.46000 206.245
44.47000 202.890
44.48000 198.990
44.49000 196.022
44.50000 198.990
44.51000 201.639
44.52000 202.044
44.53000 197.875
44.54000 193.572
44.55000 193.475
44.56000 199.168
44.57000 204.895
44.58000 208.577
44.59000 210.425
44.60000 212.305
44.61000 216.226
44.62000 221.364
44.63000 226.181
44.64000 224.074
44.65000 219.158
44.66000 214.568
44.67000 219.812
44.68000 227.023
44.69000 233.086
44.70000 231.575
44.71000 228.682
44.72000 225.929
44.73000 223.773
44.74000 221.685
44.75000 220.111
44.76000 225.167
44.77000 229.453
44.78000 232.341
44.79000 232.479
44.80000 232.543
44.81000 230.948
44.82000 227.154
44.83000 223.351
44.84000 224.686
44.85000 230.437
44.86000 236.123
44.87000 238.191
44.88000 238.179
44.89000 238.020
44.90000 234.888
44.91000 230.592
44.92000 226.597
44.93000 231.191
44.94000 237.401
44.95000 243.156
44.96000 246.043
44.97000 248.426
44.98000 250.698
44.99000 252.510
45.00000 254.273
45.01000 255.589
45.02000 251.915
45.03000 248.823
45.04000 249.060
45.05000 255.625
45.06000 262.342
45.07000 267.745
45.08000 271.467
45.09000 275.178
45.10000 276.669
45.11000 276.318
45.12000 275.819
45.13000 267.995
45.14000 256.106
45.15000 244.925
45.16000 247.017
45.17000 254.130
45.18000 260.716
45.19000 259.421
45.20000 256.438
45.21000 253.706
45.22000 252.491
45.23000 251.530
45.24000 249.616
45.25000 243.913
45.26000 237.819
45.27000 233.314
45.28000 230.727
45.29000 228.804
45.30000 229.529
45.31000 235.114
45.32000 240.803
45.33000 242.590
45.34000 239.578
45.35000 236.559
45.36000 232.352
45.37000 227.221
45.38000 222.174
45.39000 220.833
45.40000 221.478
45.41000 222.057
45.42000 221.505
45.43000 220.539
45.44000 219.648
45.45000 218.167
45.46000 216.710
45.47000 214.352
45.48000 206.748
45.49000 198.297
45.50000 193.618
45.51000 203.371
45.52000 214.541
45.53000 222.716
45.54000 212.011
45.55000 202.998
45.56000 197.054
45.57000 196.540
45.58000 196.130
45.59000 197.516
45.60000 201.026
45.61000 204.531
45.62000 205.583
45.63000 204.755
45.64000 204.004
45.65000 206.303
45.66000 210.177
45.67000 213.431
45.68000 206.491
45.69000 195.956
45.70000 186.288
45.71000 186.566
45.72000 188.926
45.73000 191.107
45.74000 192.282
45.75000 193.302
45.76000 193.877
45.77000 192.815
45.78000 191.600
45.79000 190.720
45.80000 193.939
45.81000 196.563
45.82000 197.331
45.83000 194.929
45.84000 192.473
45.85000 187.664
45.86000 180.178
45.87000 172.712
45.88000 171.155
45.89000 173.946
45.90000 176.673
45.91000 177.144
45.92000 176.489
45.93000 175.900
45.94000 176.333
45.95000 177.113
45.96000 177.826
45.97000 177.798
45.98000 177.622
45.99000 177.707
46.00000 179.192
46.01000 180.885
46.02000 181.760
46.03000 179.727
46.04000 177.437
46.05000 175.796
46.06000 173.771
46.07000 172.212
46.08000 173.447
46.09000 179.290
46.10000 185.200
46.11000 184.256
46.12000 175.819
46.13000 167.412
46.14000 164.977
46.15000 166.781
46.16000 168.566
46.17000 169.753
46.18000 170.652
46.19000 171.641
46.20000 173.943
46.21000 176.677
46.22000 179.162
46.23000 180.530
46.24000 181.521
46.25000 182.190
46.26000 181.199
46.27000 179.973
46.28000 178.734
46.29000 177.458
46.30000 176.178
46.31000 175.270
46.32000 177.030
46.33000 178.451
46.34000 177.789
46.35000 173.817
46.36000 169.803
46.37000 167.657
46.38000 167.475
46.39000 167.293
46.40000 167.818
46.41000 168.815
46.42000 169.892
46.43000 173.316
46.44000 177.831
46.45000 181.818
46.46000 178.585
46.47000 173.060
46.48000 168.062
46.49000 168.840
46.50000 170.608
46.51000 172.545
46.52000 175.327
46.53000 178.225
46.54000 180.002
46.55000 178.071
46.56000 175.845
46.57000 174.285
46.58000 175.758
46.59000 176.961
46.60000 177.091
46.61000 175.579
46.62000 174.048
46.63000 175.584
46.64000 180.213
46.65000 184.813
46.66000 182.381
46.67000 175.392
46.68000 168.657
46.69000 168.872
46.70000 172.210
46.71000 175.309
46.72000 175.335
46.73000 174.421
46.74000 173.598
46.75000 173.370
46.76000 173.278
46.77000 173.172
46.78000 173.003
46.79000 172.825
46.80000 173.280
46.81000 175.755
46.82000 178.381
46.83000 180.201
46.84000 176.346
46.85000 173.296
46.86000 171.082
46.87000 170.107
46.88000 169.143
46.89000 170.515
46.90000 174.147
46.91000 177.753
46.92000 175.997
46.93000 170.902
46.94000 165.867
46.95000 162.351
46.96000 159.492
46.97000 156.953
46.98000 158.308
46.99000 160.813
47.00000 163.057
47.01000 162.112
47.02000 160.739
47.03000 159.963
47.04000 161.932
47.05000 164.242
47.06000 165.845
47.07000 165.267
47.08000 164.535
47.09000 164.033
47.10000 167.569
47.11000 170.313
47.12000 171.473
47.13000 170.375
47.14000 169.261
47.15000 168.318
47.16000 167.535
47.17000 166.759
47.18000 165.120
47.19000 162.991
47.20000 160.912
47.21000 160.001
47.22000 159.579
47.23000 159.380
47.24000 161.747
47.25000 164.846
47.26000 167.606
47.27000 164.542
47.28000 160.922
47.29000 159.007
47.30000 164.643
47.31000 171.175
47.32000 175.518
47.33000 173.337
47.34000 170.722
47.35000 168.952
47.36000 166.770
47.37000 165.136
47.38000 163.347
47.39000 161.347
47.40000 159.348
47.41000 159.955
47.42000 162.890
47.43000 165.796
47.44000 165.887
47.45000 164.340
47.46000 162.846
47.47000 162.506
47.48000 162.632
47.49000 162.651
47.50000 161.502
47.51000 160.032
47.52000 158.729
47.53000 162.179
47.54000 165.913
47.55000 168.180
47.56000 164.198
47.57000 159.508
47.58000 156.220
47.59000 156.961
47.60000 157.954
47.61000 158.618
47.62000 157.023
47.63000 155.796
47.64000 154.842
47.65000 154.248
47.66000 153.655
47.67000 152.258
47.68000 150.171
47.69000 148.107
47.70000 149.994
47.71000 154.047
47.72000 157.920
47.73000 158.206
47.74000 157.090
47.75000 155.962
47.76000 154.699
47.77000 153.400
47.78000 152.256
47.79000 151.629
47.80000 151.166
47.81000 151.338
47.82000 154.120
47.83000 157.184
47.84000 160.172
47.85000 162.948
47.86000 165.711
47.87000 167.534
47.88000 167.254
47.89000 167.011
47.90000 167.262
47.91000 168.140
47.92000 169.016
47.93000 167.641
47.94000 164.407
47.95000 161.214
47.96000 158.986
47.97000 157.335
47.98000 155.687
47.99000 154.094
48.00000 152.520
48.01000 151.495
48.02000 155.891
48.03000 161.674
48.04000 166.739
48.05000 162.599
48.06000 157.723
48.07000 153.947
48.08000 154.523
48.09000 155.546
48.10000 156.240
48.11000 156.052
48.12000 155.816
48.13000 155.663
48.14000 157.093
48.15000 158.167
48.16000 160.384
48.17000 164.004
48.18000 167.615
48.19000 167.583
48.20000 164.654
48.21000 161.768
48.22000 159.338
48.23000 157.216
48.24000 155.210
48.25000 155.221
48.26000 155.966
48.27000 156.623
48.28000 156.442
48.29000 156.054
48.30000 155.716
48.31000 154.672
48.32000 153.683
48.33000 153.017
48.34000 153.582
48.35000 154.268
48.36000 155.106
48.37000 156.340
48.38000 157.594
48.39000 158.399
48.40000 158.321
48.41000 158.251
48.42000 158.331
48.43000 158.588
48.44000 158.841
48.45000 158.321
48.46000 157.209
48.47000 156.115
48.48000 157.881
48.49000 161.015
48.50000 163.848
48.51000 161.776
48.52000 157.979
48.53000 154.629
48.54000 155.292
48.55000 156.909
48.56000 158.308
48.57000 155.479
48.58000 152.518
48.59000 150.836
48.60000 153.853
48.61000 157.306
48.62000 161.023
48.63000 165.400
48.64000 169.809
48.65000 172.604
48.66000 165.398
48.67000 160.048
48.68000 155.533
48.69000 151.964
48.70000 148.416
48.71000 148.344
48.72000 150.838
48.73000 153.284
48.74000 154.932
48.75000 156.137
48.76000 157.267
48.77000 157.250
48.78000 156.845
48.79000 156.845
48.80000 160.315
48.81000 164.579
48.82000 168.246
48.83000 162.053
48.84000 155.576
48.85000 150.033
48.86000 147.800
48.87000 145.859
48.88000 145.398
48.89000 148.514
48.90000 151.788
48.91000 153.834
48.92000 153.507
48.93000 153.245
48.94000 155.887
48.95000 161.692
48.96000 167.457
48.97000 167.394
48.98000 163.191
48.99000 159.074
49.00000 160.070
49.01000 163.390
49.02000 166.307
49.03000 163.413
49.04000 158.615
49.05000 154.022
49.06000 151.106
49.07000 148.559
49.08000 146.382
49.09000 147.537
49.10000 148.907
49.11000 149.949
49.12000 149.864
49.13000 149.685
49.14000 150.034
49.15000 151.613
49.16000 153.242
49.17000 154.245
49.18000 158.827
49.19000 162.147
49.20000 161.979
49.21000 158.159
49.22000 154.348
49.23000 151.584
49.24000 149.538
49.25000 147.539
49.26000 148.916
49.27000 151.735
49.28000 154.293
49.29000 153.289
49.30000 151.158
49.31000 148.987
49.32000 146.503
49.33000 143.953
49.34000 141.788
49.35000 145.708
49.36000 149.689
49.37000 152.627
49.38000 152.121
49.39000 151.343
49.40000 150.023
49.41000 147.484
49.42000 144.900
49.43000 143.331
49.44000 149.454
49.45000 153.882
49.46000 154.724
49.47000 151.964
49.48000 149.208
49.49000 146.885
49.50000 144.848
49.51000 142.861
49.52000 144.404
49.53000 147.386
49.54000 149.829
49.55000 145.350
49.56000 138.757
49.57000 133.752
49.58000 140.586
49.59000 149.836
49.60000 157.635
49.61000 161.488
49.62000 164.279
49.63000 164.992
49.64000 159.080
49.65000 152.675
49.66000 148.260
49.67000 148.171
49.68000 148.233
49.69000 148.270
49.70000 150.857
49.71000 152.709
49.72000 152.498
49.73000 150.298
49.74000 148.120
49.75000 147.850
49.76000 148.795
49.77000 149.714
49.78000 149.089
49.79000 147.859
49.80000 146.883
49.81000 148.988
49.82000 152.000
49.83000 154.082
49.84000 149.528
49.85000 143.671
49.86000 138.767
49.87000 135.521
49.88000 132.993
49.89000 133.191
49.90000 141.775
49.91000 150.948
49.92000 157.341
49.93000 157.899
49.94000 158.271
49.95000 158.491
49.96000 155.699
49.97000 153.714
49.98000 151.083
49.99000 147.854
50.00000 144.642
50.01000 142.719
50.02000 141.585
50.03000 140.486
50.04000 144.205
50.05000 149.640
50.06000 154.779
50.07000 156.515
50.08000 157.284
50.09000 157.593
50.10000 154.763
50.11000 151.340
50.12000 148.494
50.13000 150.535
50.14000 152.703
50.15000 153.963
50.16000 152.525
50.17000 150.909
50.18000 151.786
50.19000 157.715
50.20000 163.791
50.21000 167.311
50.22000 162.305
50.23000 158.761
50.24000 157.327
50.25000 157.772
50.26000 158.178
50.27000 156.244
50.28000 152.923
50.29000 149.710
50.30000 150.053
50.31000 151.733
50.32000 153.417
50.33000 155.143
50.34000 156.882
50.35000 159.130
50.36000 164.716
50.37000 170.908
50.38000 176.019
50.39000 168.429
50.40000 160.995
50.41000 155.566
50.42000 155.883
50.43000 156.557
50.44000 157.921
50.45000 160.635
50.46000 163.385
50.47000 164.952
50.48000 168.437
50.49000 170.871
50.50000 171.931
50.51000 171.813
50.52000 171.750
50.53000 174.685
50.54000 179.332
50.55000 183.817
50.56000 184.714
50.57000 184.243
50.58000 183.634
50.59000 181.591
50.60000 179.168
50.61000 176.912
50.62000 175.694
50.63000 174.658
50.64000 173.809
50.65000 181.005
50.66000 187.615
50.67000 190.428
50.68000 182.732
50.69000 174.424
50.70000 170.591
50.71000 175.215
50.72000 180.038
50.73000 182.740
50.74000 183.953
50.75000 184.783
50.76000 182.727
50.77000 178.294
50.78000 173.923
50.79000 172.604
50.80000 172.966
50.81000 173.315
50.82000 176.559
50.83000 180.624
50.84000 183.820
50.85000 178.466
50.86000 170.931
50.87000 164.529
50.88000 164.942
50.89000 166.494
50.90000 167.756
50.91000 164.104
50.92000 160.714
50.93000 159.058
50.94000 162.040
50.95000 165.275
50.96000 165.971
50.97000 162.039
50.98000 158.009
50.99000 155.791
51.00000 155.175
51.01000 154.763
51.02000 157.265
51.03000 162.079
51.04000 166.727
51.05000 164.266
51.06000 158.021
51.07000 152.030
51.08000 152.271
51.09000 154.613
51.10000 156.374
51.11000 152.687
51.12000 147.662
51.13000 143.541
51.14000 144.642
51.15000 146.580
51.16000 148.143
51.17000 144.829
51.18000 141.750
51.19000 141.670
51.20000 149.329
51.21000 157.382
51.22000 160.153
51.23000 153.630
51.24000 146.932
51.25000 143.311
51.26000 146.169
51.27000 148.123
51.28000 148.156
51.29000 146.721
51.30000 145.305
51.31000 144.626
51.32000 144.325
51.33000 144.037
51.34000 140.797
51.35000 136.816
51.36000 133.606
51.37000 137.284
51.38000 142.592
51.39000 147.116
51.40000 147.281
51.41000 146.776
51.42000 146.372
51.43000 146.074
51.44000 145.841
51.45000 144.408
51.46000 139.983
51.47000 135.415
51.48000 133.880
51.49000 137.493
51.50000 141.190
51.51000 143.153
51.52000 139.099
51.53000 136.348
51.54000 135.524
51.55000 136.116
51.56000 136.713
51.57000 137.515
51.58000 138.417
51.59000 139.277
51.60000 135.656
51.61000 130.890
51.62000 126.597
51.63000 126.332
51.64000 126.984
51.65000 128.575
51.66000 135.175
51.67000 142.513
51.68000 148.337
51.69000 143.566
51.70000 138.979
51.71000 136.081
51.72000 137.245
51.73000 138.588
51.74000 139.814
51.75000 140.849
51.76000 141.882
51.77000 142.419
51.78000 142.603
51.79000 142.716
51.80000 141.380
51.81000 139.016
51.82000 136.776
51.83000 138.466
51.84000 142.038
51.85000 145.432
51.86000 142.442
51.87000 137.752
51.88000 133.840
51.89000 136.256
51.90000 140.062
51.91000 143.622
51.92000 145.922
51.93000 148.045
51.94000 149.716
51.95000 149.261
51.96000 148.755
51.97000 146.985
51.98000 142.275
51.99000 137.445
52.00000 136.199
52.01000 140.616
52.02000 145.104
52.03000 147.395
52.04000 141.986
52.05000 138.394
52.06000 139.331
52.07000 143.361
52.08000 147.205
52.09000 145.623
52.10000 141.531
52.11000 137.657
52.12000 137.542
52.13000 138.527
52.14000 139.296
52.15000 138.389
52.16000 137.128
52.17000 136.397
52.18000 138.283
52.19000 140.521
52.20000 142.268
52.21000 138.740
52.22000 135.597
52.23000 134.268
52.24000 137.012
52.25000 139.910
52.26000 141.111
52.27000 139.729
52.28000 138.319
52.29000 137.614
52.30000 137.977
52.31000 138.231
52.32000 139.555
52.33000 141.584
52.34000 143.633
52.35000 146.190
52.36000 148.976
52.37000 151.603
52.38000 145.159
52.39000 136.720
52.40000 129.317
52.41000 129.604
52.42000 131.455
52.43000 133.574
52.44000 136.970
52.45000 140.530
52.46000 143.284
52.47000 136.589
52.48000 130.720
52.49000 128.362
52.50000 133.615
52.51000 139.129
52.52000 140.661
52.53000 136.344
52.54000 131.975
52.55000 128.845
52.56000 126.907
52.57000 125.042
52.58000 129.130
52.59000 136.996
52.60000 144.514
52.61000 143.441
52.62000 138.662
52.63000 134.169
52.64000 133.508
52.65000 133.932
52.66000 134.231
52.67000 133.644
52.68000 132.885
52.69000 132.456
52.70000 133.535
52.71000 134.800
52.72000 135.770
52.73000 134.942
52.74000 134.190
52.75000 133.542
52.76000 133.115
52.77000 132.694
52.78000 134.542
52.79000 139.599
52.80000 144.680
52.81000 145.494
52.82000 142.372
52.83000 139.305
52.84000 140.102
52.85000 143.265
52.86000 146.314
52.87000 146.763
52.88000 146.129
52.89000 145.536
52.90000 144.565
52.91000 143.585
52.92000 142.736
52.93000 142.773
52.94000 142.978
52.95000 142.729
52.96000 140.488
52.97000 138.011
52.98000 136.131
52.99000 140.841
53.00000 144.884
53.01000 147.120
53.02000 145.701
53.03000 144.177
53.04000 142.712
53.05000 141.326
53.06000 139.942
53.07000 139.006
53.08000 138.469
53.09000 137.914
53.10000 136.249
53.11000 133.928
53.12000 131.781
53.13000 133.336
53.14000 136.380
53.15000 139.219
53.16000 142.966
53.17000 146.583
53.18000 149.913
53.19000 151.370
53.20000 152.489
53.21000 152.755
53.22000 149.408
53.23000 145.655
53.24000 142.832
53.25000 140.848
53.26000 139.337
53.27000 139.973
53.28000 144.797
53.29000 149.730
53.30000 153.043
53.31000 154.227
53.32000 155.400
53.33000 154.148
53.34000 150.833
53.35000 147.569
53.36000 147.071
53.37000 148.148
53.38000 149.184
53.39000 149.408
53.40000 149.317
53.41000 149.233
53.42000 152.689
53.43000 156.648
53.44000 159.478
53.45000 155.253
53.46000 149.803
53.47000 146.201
53.48000 150.136
53.49000 154.879
53.50000 158.412
53.51000 156.693
53.52000 155.118
53.53000 153.444
53.54000 151.584
53.55000 149.720
53.56000 147.041
53.57000 143.331
53.58000 139.623
53.59000 138.209
53.60000 138.678
53.61000 139.229
53.62000 143.684
53.63000 150.287
53.64000 156.303
53.65000 151.520
53.66000 142.685
53.67000 134.514
53.68000 130.575
53.69000 128.002
53.70000 126.645
53.71000 132.582
53.72000 139.735
53.73000 146.114
53.74000 149.451
53.75000 152.479
53.76000 154.711
53.77000 146.376
53.78000 139.475
53.79000 134.462
53.80000 132.882
53.81000 131.373
53.82000 131.612
53.83000 133.977
53.84000 136.343
53.85000 137.421
53.86000 137.482
53.87000 137.551
53.88000 137.984
53.89000 138.609
53.90000 139.316
53.91000 141.442
53.92000 144.081
53.93000 146.511
53.94000 139.416
53.95000 130.985
53.96000 124.196
53.97000 126.866
53.98000 131.048
53.99000 133.916
54.00000 131.800
54.01000 129.202
54.02000 127.305
54.03000 128.356
54.04000 129.281
54.05000 131.253
54.06000 135.059
54.07000 138.900
54.08000 139.684
54.09000 136.886
54.10000 134.090
54.11000 134.206
54.12000 136.522
54.13000 138.803
54.14000 139.778
54.15000 140.083
54.16000 140.218
54.17000 137.621
54.18000 134.068
54.19000 130.812
54.20000 129.409
54.21000 128.549
54.22000 128.388
54.23000 132.091
54.24000 136.385
54.25000 139.659
54.26000 139.200
54.27000 138.397
54.28000 137.817
54.29000 139.460
54.30000 140.801
54.31000 143.411
54.32000 148.169
54.33000 152.962
54.34000 153.654
54.35000 149.727
54.36000 145.810
54.37000 143.300
54.38000 141.834
54.39000 140.363
54.40000 138.744
54.41000 137.051
54.42000 135.458
54.43000 135.385
54.44000 135.824
54.45000 136.226
54.46000 136.500
54.47000 136.718
54.48000 136.945
54.49000 137.217
54.50000 137.496
54.51000 137.328
54.52000 135.580
54.53000 133.696
54.54000 132.348
54.55000 135.219
54.56000 137.551
54.57000 138.920
54.58000 138.717
54.59000 138.491
54.60000 138.296
54.61000 138.134
54.62000 137.973
54.63000 138.672
54.64000 139.966
54.65000 141.369
54.66000 146.220
54.67000 152.718
54.68000 158.588
54.69000 155.472
54.70000 149.427
54.71000 143.939
54.72000 146.772
54.73000 150.883
54.74000 153.296
54.75000 147.036
54.76000 139.555
54.77000 134.489
54.78000 137.637
54.79000 141.464
54.80000 144.169
54.81000 141.832
54.82000 139.902
54.83000 138.813
54.84000 139.050
54.85000 139.302
54.86000 139.200
54.87000 138.728
54.88000 138.258
54.89000 138.566
54.90000 139.393
54.91000 140.118
54.92000 137.921
54.93000 134.376
54.94000 131.050
54.95000 130.695
54.96000 131.274
54.97000 131.797
54.98000 137.416
54.99000 143.303
55.00000 148.703
55.01000 151.711
55.02000 154.397
55.03000 155.768
55.04000 152.821
55.05000 149.536
55.06000 147.240
55.07000 143.553
55.08000 140.728
55.09000 137.745
55.10000 134.519
55.11000 131.292
55.12000 132.932
55.13000 139.431
55.14000 145.889
55.15000 149.347
55.16000 150.814
55.17000 152.157
55.18000 150.191
55.19000 146.752
55.20000 143.837
55.21000 147.584
55.22000 153.354
55.23000 158.541
55.24000 157.977
55.25000 156.463
55.26000 154.893
55.27000 153.059
55.28000 151.191
55.29000 149.735
55.30000 149.589
55.31000 149.539
55.32000 149.504
55.33000 153.664
55.34000 156.900
55.35000 160.682
55.36000 165.266
55.37000 169.857
55.38000 171.069
55.39000 169.044
55.40000 167.035
55.41000 171.661
55.42000 180.335
55.43000 188.790
55.44000 191.845
55.45000 192.578
55.46000 193.560
55.47000 197.535
55.48000 202.387
55.49000 206.726
55.50000 211.766
55.51000 216.279
55.52000 220.865
55.53000 225.778
55.54000 230.731
55.55000 236.065
55.56000 242.565
55.57000 249.146
55.58000 253.640
55.59000 263.167
55.60000 270.410
55.61000 278.325
55.62000 287.188
55.63000 296.060
55.64000 308.458
55.65000 324.100
55.66000 339.604
55.67000 347.761
55.68000 351.363
55.69000 355.689
55.70000 376.447
55.71000 404.030
55.72000 430.184
55.73000 440.049
55.74000 445.311
55.75000 449.992
55.76000 463.756
55.77000 477.184
55.78000 490.602
55.79000 503.978
55.80000 517.350
55.81000 531.574
55.82000 548.314
55.83000 565.219
55.84000 576.622
55.85000 577.263
55.86000 577.512
55.87000 578.592
55.88000 580.803
55.89000 583.026
55.90000 592.245
55.91000 607.652
55.92000 622.900
55.93000 626.179
55.94000 622.494
55.95000 618.933
55.96000 618.007
55.97000 618.138
55.98000 616.922
55.99000 601.149
56.00000 581.409
56.01000 563.946
56.02000 554.240
56.03000 547.057
56.04000 539.632
56.05000 531.183
56.06000 522.618
56.07000 512.421
56.08000 497.568
56.09000 482.429
56.10000 472.344
56.11000 475.549
56.12000 478.176
56.13000 466.438
56.14000 435.887
56.15000 405.266
56.16000 383.150
56.17000 368.267
56.18000 353.561
56.19000 340.184
56.20000 327.873
56.21000 315.783
56.22000 308.042
56.23000 301.983
56.24000 295.668
56.25000 286.715
56.26000 277.069
56.27000 268.584
56.28000 255.017
56.29000 242.586
56.30000 231.712
56.31000 227.176
56.32000 223.316
56.33000 220.783
56.34000 221.905
56.35000 223.237
56.36000 224.113
56.37000 202.772
56.38000 186.679
56.39000 179.158
56.40000 182.444
56.41000 185.752
56.42000 183.057
56.43000 175.451
56.44000 167.947
56.45000 166.092
56.46000 167.301
56.47000 168.397
56.48000 167.431
56.49000 165.694
56.50000 163.417
56.51000 155.861
56.52000 146.967
56.53000 139.190
56.54000 142.716
56.55000 147.345
56.56000 150.368
56.57000 147.090
56.58000 143.174
56.59000 141.128
56.60000 144.055
56.61000 147.250
56.62000 149.324
56.63000 147.112
56.64000 145.427
56.65000 143.800
56.66000 142.244
56.67000 140.686
56.68000 138.682
56.69000 136.326
56.70000 134.006
56.71000 132.239
56.72000 130.809
56.73000 129.531
56.74000 130.860
56.75000 133.131
56.76000 134.836
56.77000 131.287
56.78000 126.455
56.79000 122.254
56.80000 126.408
56.81000 131.087
56.82000 134.546
56.83000 133.393
56.84000 131.795
56.85000 130.784
56.86000 131.278
56.87000 131.849
56.88000 132.214
56.89000 136.997
56.90000 140.541
56.91000 141.944
56.92000 140.850
56.93000 139.749
56.94000 138.237
56.95000 136.413
56.96000 134.620
56.97000 130.557
56.98000 125.509
56.99000 120.802
57.00000 121.571
57.01000 124.250
57.02000 126.612
57.03000 126.179
57.04000 125.088
57.05000 124.145
57.06000 128.514
57.07000 132.913
57.08000 135.585
57.09000 131.966
57.10000 127.769
57.11000 124.155
57.12000 121.985
57.13000 119.882
57.14000 118.553
57.15000 123.384
57.16000 126.956
57.17000 128.034
57.18000 126.315
57.19000 124.610
57.20000 125.823
57.21000 129.168
57.22000 132.450
57.23000 131.291
57.24000 128.064
57.25000 125.103
57.26000 126.165
57.27000 128.582
57.28000 130.776
57.29000 131.084
57.30000 130.965
57.31000 130.862
57.32000 128.645
57.33000 126.508
57.34000 125.187
57.35000 126.736
57.36000 128.534
57.37000 129.912
57.38000 130.286
57.39000 130.617
57.40000 130.823
57.41000 128.818
57.42000 127.351
57.43000 126.257
57.44000 125.565
57.45000 124.863
57.46000 122.747
57.47000 119.634
57.48000 116.588
57.49000 117.591
57.50000 120.406
57.51000 123.270
57.52000 126.811
57.53000 130.574
57.54000 133.948
57.55000 134.197
57.56000 133.763
57.57000 133.392
57.58000 131.146
57.59000 129.035
57.60000 126.759
57.61000 123.925
57.62000 121.045
57.63000 119.925
57.64000 122.870
57.65000 125.978
57.66000 127.885
57.67000 126.401
57.68000 125.308
57.69000 125.018
57.70000 125.558
57.71000 126.091
57.72000 125.829
57.73000 125.029
57.74000 124.247
57.75000 124.533
57.76000 125.276
57.77000 125.993
57.78000 126.347
57.79000 126.587
57.80000 126.979
57.81000 128.539
57.82000 130.345
57.83000 131.875
57.84000 131.817
57.85000 131.590
57.86000 130.605
57.87000 127.138
57.88000 123.478
57.89000 121.178
57.90000 121.915
57.91000 122.763
57.92000 123.276
57.93000 122.704
57.94000 122.289
57.95000 120.888
57.96000 118.506
57.97000 116.151
57.98000 116.195
57.99000 117.810
58.00000 119.384
58.01000 118.038
58.02000 115.518
58.03000 113.216
58.04000 113.690
58.05000 115.003
58.06000 116.553
58.07000 119.856
58.08000 123.512
58.09000 126.590
58.10000 125.234
58.11000 123.628
58.12000 122.750
58.13000 124.167
58.14000 125.753
58.15000 126.744
58.16000 126.454
58.17000 126.121
58.18000 125.923
58.19000 122.156
58.20000 119.465
58.21000 119.809
58.22000 123.051
58.23000 126.259
58.24000 126.822
58.25000 125.718
58.26000 124.644
58.27000 121.887
58.28000 118.580
58.29000 115.259
58.30000 111.771
58.31000 108.234
58.32000 105.614
58.33000 109.462
58.34000 114.567
58.35000 118.835
58.36000 122.338
58.37000 125.169
58.38000 126.586
58.39000 123.692
58.40000 120.499
58.41000 118.156
58.42000 117.582
58.43000 117.062
58.44000 116.757
58.45000 119.628
58.46000 121.665
58.47000 120.284
58.48000 115.768
58.49000 111.298
58.50000 109.982
58.51000 110.584
58.52000 111.168
58.53000 111.469
58.54000 111.644
58.55000 111.842
58.56000 112.301
58.57000 112.833
58.58000 113.399
58.59000 114.194
58.60000 115.031
58.61000 115.726
58.62000 117.243
58.63000 118.575
58.64000 119.553
58.65000 119.488
58.66000 119.355
58.67000 119.034
58.68000 118.334
58.69000 117.625
58.70000 117.215
58.71000 119.038
58.72000 120.321
58.73000 118.837
58.74000 114.915
58.75000 111.020
58.76000 108.764
58.77000 107.470
58.78000 106.218
58.79000 109.290
58.80000 113.822
58.81000 117.919
58.82000 117.331
58.83000 115.470
58.84000 114.160
58.85000 116.412
58.86000 119.304
58.87000 121.686
58.88000 118.886
58.89000 116.106
58.90000 113.635
58.91000 112.040
58.92000 110.498
58.93000 110.281
58.94000 112.634
58.95000 115.052
58.96000 116.424
58.97000 116.258
58.98000 116.141
58.99000 118.188
59.00000 122.071
59.01000 125.836
59.02000 123.450
59.03000 117.579
59.04000 111.917
59.05000 112.324
59.06000 114.911
59.07000 117.058
59.08000 114.692
59.09000 111.143
59.10000 107.890
59.11000 106.473
59.12000 105.371
59.13000 104.470
59.14000 110.966
59.15000 116.929
59.16000 121.407
59.17000 121.808
59.18000 121.975
59.19000 121.598
59.20000 120.204
59.21000 118.787
59.22000 117.997
59.23000 122.800
59.24000 126.127
59.25000 125.947
59.26000 122.907
59.27000 119.887
59.28000 117.828
59.29000 116.296
59.30000 114.822
59.31000 113.147
59.32000 111.507
59.33000 109.907
59.34000 108.687
59.35000 107.563
59.36000 107.553
59.37000 114.182
59.38000 121.911
59.39000 128.182
59.40000 122.155
59.41000 116.228
59.42000 112.323
59.43000 113.773
59.44000 115.510
59.45000 116.543
59.46000 116.306
59.47000 116.043
59.48000 115.899
59.49000 115.589
59.50000 115.380
59.51000 116.766
59.52000 119.402
59.53000 121.928
59.54000 119.802
59.55000 115.222
59.56000 110.832
59.57000 111.519
59.58000 113.867
59.59000 116.299
59.60000 119.508
59.61000 122.906
59.62000 125.373
59.63000 122.520
59.64000 118.822
59.65000 115.844
59.66000 118.131
59.67000 120.397
59.68000 120.526
59.69000 115.186
59.70000 109.573
59.71000 107.951
59.72000 113.290
59.73000 118.754
59.74000 121.695
59.75000 121.401
59.76000 121.194
59.77000 120.624
59.78000 119.778
59.79000 118.926
59.80000 117.840
59.81000 116.634
59.82000 115.482
59.83000 116.984
59.84000 119.240
59.85000 121.164
59.86000 120.162
59.87000 118.473
59.88000 117.657
59.89000 121.639
59.90000 126.352
59.91000 130.116
59.92000 123.761
59.93000 117.882
59.94000 114.308
59.95000 116.429
59.96000 118.815
59.97000 120.110
59.98000 119.570
59.99000 119.000
60.00000 118.699
60.01000 120.782
60.02000 122.191
60.03000 122.442
60.04000 121.852
60.05000 121.171
60.06000 117.378
60.07000 112.054
60.08000 106.983
60.09000 108.862
60.10000 112.763
60.11000 115.776
60.12000 111.308
60.13000 105.150
60.14000 100.596
60.15000 104.513
60.16000 109.666
60.17000 113.747
60.18000 115.795
60.19000 117.300
60.20000 117.988
60.21000 116.727
60.22000 115.383
60.23000 114.390
60.24000 113.968
60.25000 113.554
60.26000 113.339
60.27000 110.361
60.28000 108.393
60.29000 111.958
60.30000 119.405
60.31000 126.631
60.32000 126.927
60.33000 123.934
60.34000 121.093
60.35000 118.939
60.36000 117.156
60.37000 115.417
60.38000 114.027
60.39000 112.714
60.40000 111.445
60.41000 110.403
60.42000 109.392
60.43000 108.599
60.44000 108.407
60.45000 108.293
60.46000 109.694
60.47000 114.584
60.48000 119.614
60.49000 121.375
60.50000 118.020
60.51000 114.604
60.52000 112.868
60.53000 112.663
60.54000 112.540
60.55000 113.883
60.56000 116.217
60.57000 118.431
60.58000 117.183
60.59000 114.348
60.60000 111.667
60.61000 114.849
60.62000 119.459
60.63000 123.347
60.64000 121.685
60.65000 118.862
60.66000 116.616
60.67000 117.196
60.68000 118.153
60.69000 118.899
60.70000 112.220
60.71000 106.443
60.72000 104.772
60.73000 112.236
60.74000 120.035
60.75000 123.839
60.76000 121.608
60.77000 119.316
60.78000 118.866
60.79000 120.241
60.80000 121.597
60.81000 121.230
60.82000 119.738
60.83000 118.336
60.84000 119.256
60.85000 121.204
60.86000 123.040
60.87000 120.493
60.88000 116.949
60.89000 113.443
60.90000 110.217
60.91000 107.047
60.92000 105.524
60.93000 111.736
60.94000 118.936
60.95000 124.493
60.96000 120.410
60.97000 116.615
60.98000 114.743
60.99000 117.004
61.00000 119.403
61.01000 121.510
61.02000 123.189
61.03000 124.865
61.04000 125.516
61.05000 125.191
61.06000 124.902
61.07000 127.383
61.08000 131.607
61.09000 135.451
61.10000 130.125
61.11000 120.878
61.12000 112.195
61.13000 115.280
61.14000 121.219
61.15000 126.283
61.16000 125.205
61.17000 122.937
61.18000 121.751
61.19000 125.458
61.20000 129.762
61.21000 133.053
61.22000 129.960
61.23000 127.172
61.24000 125.676
61.25000 126.861
61.26000 128.129
61.27000 126.431
61.28000 120.572
61.29000 114.687
61.30000 114.685
61.31000 120.058
61.32000 125.350
61.33000 125.148
61.34000 121.613
61.35000 118.230
61.36000 118.261
61.37000 119.702
61.38000 121.050
61.39000 122.327
61.40000 123.469
61.41000 125.145
61.42000 130.415
61.43000 136.354
61.44000 140.352
61.45000 135.891
61.46000 130.446
61.47000 126.320
61.48000 134.265
61.49000 141.117
61.50000 147.139
61.51000 151.500
61.52000 155.815
61.53000 162.857
61.54000 173.584
61.55000 184.326
61.56000 197.291
61.57000 212.187
61.58000 227.057
61.59000 240.442
61.60000 252.957
61.61000 265.316
61.62000 274.408
61.63000 282.198
61.64000 289.455
61.65000 291.310
61.66000 291.665
61.67000 292.033
61.68000 292.491
61.69000 292.965
61.70000 293.219
61.71000 292.551
61.72000 291.781
61.73000 291.203
61.74000 287.118
61.75000 283.760
61.76000 277.026
61.77000 263.763
61.78000 250.335
61.79000 234.987
61.80000 217.141
61.81000 199.301
61.82000 187.018
61.83000 179.452
61.84000 171.910
61.85000 165.668
61.86000 160.160
61.87000 154.708
61.88000 150.340
61.89000 146.390
61.90000 142.726
61.91000 139.611
61.92000 136.935
61.93000 134.207
61.94000 131.162
61.95000 128.062
61.96000 125.182
61.97000 123.191
61.98000 121.294
61.99000 119.885
62.00000 122.798
62.01000 125.254
62.02000 125.948
62.03000 123.350
62.04000 120.677
62.05000 121.728
62.06000 127.446
62.07000 133.171
62.08000 133.059
62.09000 128.219
62.10000 123.452
62.11000 122.063
62.12000 122.516
62.13000 122.929
62.14000 122.627
62.15000 122.059
62.16000 121.533
62.17000 124.417
62.18000 127.774
62.19000 131.075
62.20000 134.048
62.21000 136.967
62.22000 138.358
62.23000 133.789
62.24000 128.621
62.25000 124.819
62.26000 123.581
62.27000 122.728
62.28000 124.381
62.29000 130.549
62.30000 136.808
62.31000 138.647
62.32000 135.156
62.33000 131.661
62.34000 127.573
62.35000 123.045
62.36000 118.627
62.37000 118.784
62.38000 121.348
62.39000 123.804
62.40000 124.439
62.41000 124.420
62.42000 124.403
62.43000 125.274
62.44000 126.246
62.45000 126.950
62.46000 126.122
62.47000 125.053
62.48000 123.853
62.49000 122.161
62.50000 120.422
62.51000 119.157
62.52000 118.889
62.53000 118.722
62.54000 121.363
62.55000 128.888
62.56000 136.501
62.57000 138.365
62.58000 133.560
62.59000 128.760
62.60000 127.162
62.61000 127.972
62.62000 128.783
62.63000 129.608
62.64000 130.440
62.65000 131.223
62.66000 131.230
62.67000 130.969
62.68000 130.729
62.69000 131.590
62.70000 132.585
62.71000 133.210
62.72000 131.809
62.73000 130.099
62.74000 128.397
62.75000 126.720
62.76000 125.045
62.77000 123.838
62.78000 127.518
62.79000 130.510
62.80000 131.842
62.81000 130.387
62.82000 128.889
62.83000 125.608
62.84000 120.339
62.85000 115.087
62.86000 117.172
62.87000 124.518
62.88000 131.738
62.89000 134.644
62.90000 135.436
62.91000 136.141
62.92000 135.555
62.93000 134.536
62.94000 133.607
62.95000 133.060
62.96000 132.652
62.97000 131.799
62.98000 128.603
62.99000 125.067
63.00000 123.255
63.01000 127.470
63.02000 132.203
63.03000 135.577
63.04000 134.034
63.05000 132.698
63.06000 132.079
63.07000 132.623
63.08000 133.183
63.09000 133.591
63.10000 133.835
63.11000 134.079
63.12000 134.111
63.13000 133.995
63.14000 133.870
63.15000 133.478
63.16000 132.959
63.17000 132.445
63.18000 132.008
63.19000 131.597
63.20000 131.223
63.21000 130.299
63.22000 129.378
63.23000 128.877
63.24000 130.504
63.25000 132.426
63.26000 133.580
63.27000 132.142
63.28000 130.493
63.29000 129.330
63.30000 128.905
63.31000 128.604
63.32000 128.423
63.33000 128.428
63.34000 128.436
63.35000 129.490
63.36000 131.620
63.37000 133.740
63.38000 131.773
63.39000 127.113
63.40000 122.650
63.41000 123.797
63.42000 127.508
63.43000 130.919
63.44000 130.339
63.45000 128.515
63.46000 126.868
63.47000 128.897
63.48000 131.354
63.49000 132.813
63.50000 129.417
63.51000 125.375
63.52000 123.332
63.53000 127.793
63.54000 132.756
63.55000 136.215
63.56000 136.194
63.57000 136.083
63.58000 135.629
63.59000 134.660
63.60000 133.685
63.61000 134.984
63.62000 138.528
63.63000 142.048
63.64000 138.853
63.65000 131.406
63.66000 124.276
63.67000 125.406
63.68000 130.182
63.69000 134.700
63.70000 135.988
63.71000 136.304
63.72000 136.587
63.73000 139.706
63.74000 142.932
63.75000 145.287
63.76000 143.555
63.77000 141.304
63.78000 139.224
63.79000 137.682
63.80000 136.178
63.81000 135.142
63.82000 140.840
63.83000 145.288
63.84000 146.005
63.85000 141.309
63.86000 136.569
63.87000 133.327
63.88000 131.505
63.89000 129.698
63.90000 131.961
63.91000 136.693
63.92000 141.322
63.93000 143.493
63.94000 144.616
63.95000 145.531
63.96000 143.978
63.97000 141.709
63.98000 139.683
63.99000 141.516
64.00000 143.762
64.01000 145.526
64.02000 145.118
64.03000 144.446
64.04000 143.734
64.05000 142.903
64.06000 142.064
64.07000 141.493
64.08000 145.391
64.09000 148.405
64.10000 149.543
64.11000 148.057
64.12000 146.555
64.13000 146.090
64.14000 146.572
64.15000 147.049
64.16000 150.093
64.17000 154.598
64.18000 158.850
64.19000 157.454
64.20000 153.733
64.21000 150.173
64.22000 148.423
64.23000 147.179
64.24000 146.075
64.25000 147.839
64.26000 149.830
64.27000 151.063
64.28000 149.004
64.29000 146.562
64.30000 143.889
64.31000 140.542
64.32000 137.150
64.33000 134.870
64.34000 136.476
64.35000 137.750
64.36000 141.330
64.37000 148.016
64.38000 154.713
64.39000 156.738
64.40000 154.670
64.41000 152.625
64.42000 150.302
64.43000 147.873
64.44000 145.493
64.45000 144.117
64.46000 143.139
64.47000 142.430
64.48000 144.585
64.49000 147.513
64.50000 150.100
64.51000 151.911
64.52000 153.354
64.53000 154.730
64.54000 155.823
64.55000 156.884
64.56000 157.912
64.57000 158.848
64.58000 159.779
64.59000 160.397
64.60000 158.423
64.61000 156.916
64.62000 156.920
64.63000 158.884
64.64000 160.851
64.65000 159.842
64.66000 156.326
64.67000 152.853
64.68000 154.737
64.69000 159.513
64.70000 164.064
64.71000 164.276
64.72000 162.823
64.73000 161.894
64.74000 166.288
64.75000 172.068
64.76000 177.145
64.77000 175.083
64.78000 172.260
64.79000 170.366
64.80000 172.214
64.81000 174.456
64.82000 175.519
64.83000 173.364
64.84000 171.026
64.85000 169.493
64.86000 173.826
64.87000 177.110
64.88000 181.074
64.89000 185.890
64.90000 190.688
64.91000 187.899
64.92000 178.962
64.93000 170.149
64.94000 171.184
64.95000 177.389
64.96000 183.265
64.97000 183.221
64.98000 180.982
64.99000 179.488
65.00000 185.183
65.01000 192.682
65.02000 199.231
65.03000 201.377
65.04000 202.594
65.05000 202.628
65.06000 198.063
65.07000 193.037
65.08000 190.223
65.09000 193.235
65.10000 196.556
65.11000 198.704
65.12000 207.795
65.13000 214.546
65.14000 217.593
65.15000 216.188
65.16000 214.782
65.17000 215.879
65.18000 218.927
65.19000 221.927
65.20000 226.747
65.21000 232.343
65.22000 237.418
65.23000 233.725
65.24000 226.893
65.25000 220.676
65.26000 220.106
65.27000 220.901
65.28000 221.591
65.29000 233.936
65.30000 246.021
65.31000 255.909
65.32000 257.568
65.33000 258.444
65.34000 258.461
65.35000 256.293
65.36000 254.018
65.37000 252.566
65.38000 261.000
65.39000 267.264
65.40000 271.836
65.41000 274.451
65.42000 277.063
65.43000 279.661
65.44000 282.248
65.45000 284.789
65.46000 291.698
65.47000 300.508
65.48000 308.863
65.49000 310.045
65.50000 308.747
65.51000 307.934
65.52000 311.365
65.53000 315.785
65.54000 319.598
65.55000 332.007
65.56000 343.636
65.57000 354.516
65.58000 362.688
65.59000 370.616
65.60000 379.585
65.61000 391.113
65.62000 402.759
65.63000 410.090
65.64000 444.604
65.65000 469.884
65.66000 506.257
65.67000 554.959
65.68000 603.790
65.69000 671.622
65.70000 753.207
65.71000 833.199
65.72000 946.660
65.73000 1071.657
65.74000 1196.443
65.75000 1318.081
65.76000 1438.670
65.77000 1555.976
65.78000 1645.873
65.79000 1729.617
65.80000 1801.406
65.81000 1894.375
65.82000 1975.480
65.83000 2039.132
65.84000 2041.961
65.85000 2039.575
65.86000 2037.136
65.87000 2034.568
65.88000 2031.995
65.89000 2030.398
65.90000 1982.063
65.91000 1946.825
65.92000 1905.160
65.93000 1856.628
65.94000 1807.663
65.95000 1703.226
65.96000 1560.108
65.97000 1420.081
65.98000 1287.563
65.99000 1163.788
66.00000 1040.643
66.01000 926.325
66.02000 814.849
66.03000 708.500
66.04000 643.029
66.05000 586.392
66.06000 538.155
66.07000 494.235
66.08000 457.813
66.09000 427.590
66.10000 418.216
66.11000 410.534
66.12000 401.019
66.13000 387.307
66.14000 373.430
66.15000 364.944
66.16000 367.092
66.17000 368.719
66.18000 369.460
66.19000 369.293
66.20000 369.113
66.21000 367.582
66.22000 365.143
66.23000 362.762
66.24000 380.776
66.25000 406.899
66.26000 432.598
66.27000 452.698
66.28000 471.058
66.29000 490.302
66.30000 516.291
66.31000 543.682
66.32000 566.856
66.33000 578.517
66.34000 586.999
66.35000 596.960
66.36000 611.719
66.37000 626.847
66.38000 637.282
66.39000 637.336
66.40000 637.013
66.41000 636.819
66.42000 616.597
66.43000 602.068
66.44000 594.859
66.45000 594.859
66.46000 594.827
66.47000 591.997
66.48000 587.353
66.49000 582.831
66.50000 560.085
66.51000 530.756
66.52000 502.547
66.53000 488.322
66.54000 478.290
66.55000 466.806
66.56000 444.737
66.57000 420.549
66.58000 400.225
66.59000 390.454
66.60000 383.427
66.61000 377.803
66.62000 376.572
66.63000 375.659
66.64000 373.312
66.65000 367.905
66.66000 362.396
66.67000 359.128
66.68000 361.564
66.69000 363.320
66.70000 361.841
66.71000 357.306
66.72000 352.815
66.73000 351.663
66.74000 352.599
66.75000 353.508
66.76000 349.527
66.77000 343.770
66.78000 339.023
66.79000 346.208
66.80000 356.847
66.81000 365.437
66.82000 359.734
66.83000 351.280
66.84000 344.227
66.85000 349.745
66.86000 355.584
66.87000 358.881
66.88000 354.497
66.89000 349.588
66.90000 346.759
66.91000 348.219
66.92000 349.809
66.93000 350.738
66.94000 363.019
66.95000 371.706
66.96000 373.226
66.97000 368.235
66.98000 363.352
66.99000 365.621
67.00000 372.202
67.01000 378.578
67.02000 377.728
67.03000 374.115
67.04000 370.797
67.05000 370.780
67.06000 371.685
67.07000 372.652
67.08000 374.033
67.09000 375.490
67.10000 376.697
67.11000 383.802
67.12000 390.231
67.13000 393.816
67.14000 389.105
67.15000 383.862
67.16000 381.383
67.17000 384.412
67.18000 387.593
67.19000 389.420
67.20000 387.001
67.21000 385.292
67.22000 382.578
67.23000 378.984
67.24000 375.502
67.25000 378.446
67.26000 385.127
67.27000 391.584
67.28000 392.844
67.29000 392.090
67.30000 391.811
67.31000 396.578
67.32000 402.704
67.33000 408.376
67.34000 411.133
67.35000 413.372
67.36000 415.213
67.37000 409.447
67.38000 404.019
67.39000 402.258
67.40000 410.823
67.41000 420.010
67.42000 427.207
67.43000 430.579
67.44000 433.856
67.45000 435.708
67.46000 428.231
67.47000 423.013
67.48000 421.019
67.49000 421.732
67.50000 422.418
67.51000 421.730
67.52000 420.270
67.53000 418.863
67.54000 418.658
67.55000 418.898
67.56000 419.262
67.57000 420.887
67.58000 422.839
67.59000 424.183
67.60000 421.792
67.61000 418.762
67.62000 416.289
67.63000 424.631
67.64000 432.384
67.65000 438.916
67.66000 442.130
67.67000 445.157
67.68000 448.549
67.69000 452.619
67.70000 456.704
67.71000 458.973
67.72000 465.929
67.73000 470.728
67.74000 469.363
67.75000 463.018
67.76000 456.841
67.77000 458.280
67.78000 463.844
67.79000 469.191
67.80000 476.759
67.81000 484.612
67.82000 491.167
67.83000 485.240
67.84000 476.190
67.85000 469.555
67.86000 477.159
67.87000 487.095
67.88000 495.142
67.89000 490.099
67.90000 484.928
67.91000 482.529
67.92000 487.409
67.93000 492.674
67.94000 493.675
67.95000 487.040
67.96000 480.253
67.97000 476.550
67.98000 483.125
67.99000 487.656
68.00000 492.856
68.01000 498.576
68.02000 504.164
68.03000 504.372
68.04000 501.765
68.05000 499.269
68.06000 502.462
68.07000 507.334
68.08000 512.949
68.09000 525.359
68.10000 539.407
68.11000 550.645
68.12000 545.970
68.13000 538.795
68.14000 533.030
68.15000 537.607
68.16000 542.112
68.17000 545.690
68.18000 546.920
68.19000 548.035
68.20000 552.113
68.21000 561.311
68.22000 570.600
68.23000 575.576
68.24000 576.854
68.25000 577.703
68.26000 574.564
68.27000 568.437
68.28000 562.549
68.29000 565.450
68.30000 572.790
68.31000 579.798
68.32000 586.755
68.33000 593.203
68.34000 598.817
68.35000 597.159
68.36000 593.811
68.37000 591.031
68.38000 591.334
68.39000 592.102
68.40000 592.714
68.41000 614.088
68.42000 632.840
68.43000 645.255
68.44000 642.154
68.45000 638.343
68.46000 642.974
68.47000 661.682
68.48000 680.608
68.49000 690.558
68.50000 690.613
68.51000 690.665
68.52000 693.651
68.53000 698.754
68.54000 704.127
68.55000 718.526
68.56000 737.325
68.57000 755.216
68.58000 785.101
68.59000 816.456
68.60000 846.973
68.61000 870.525
68.62000 892.519
68.63000 917.350
68.64000 957.016
68.65000 998.823
68.66000 1031.867
68.67000 1080.660
68.68000 1120.919
68.69000 1159.972
68.70000 1196.169
68.71000 1232.246
68.72000 1282.029
68.73000 1353.864
68.74000 1425.994
68.75000 1463.188
68.76000 1487.518
68.77000 1504.140
68.78000 1550.575
68.79000 1617.736
68.80000 1684.491
68.81000 1738.867
68.82000 1787.416
68.83000 1833.464
68.84000 1907.911
68.85000 1984.958
68.86000 2071.126
68.87000 2229.750
68.88000 2403.982
68.89000 2607.719
68.90000 2959.782
68.91000 3332.329
68.92000 3624.291
68.93000 4984.257
68.94000 6140.084
68.95000 7721.367
68.96000 10274.429
68.97000 12865.453
68.98000 15846.198
68.99000 19431.674
69.00000 23024.090
69.01000 24840.002
69.02000 29736.699
69.03000 33006.949
69.04000 35630.211
69.05000 37819.938
69.06000 39977.715
69.07000 41241.668
69.08000 42099.391
69.09000 42910.055
69.10000 43681.762
69.11000 44379.398
69.12000 45082.918
69.13000 45831.129
69.14000 46588.605
69.15000 47317.207
69.16000 47906.168
69.17000 48476.676
69.18000 48919.891
69.19000 47824.438
69.20000 46859.652
69.21000 45340.211
69.22000 42597.371
69.23000 39810.551
69.24000 37110.375
69.25000 34539.840
69.26000 31970.594
69.27000 29725.141
69.28000 27797.438
69.29000 25877.092
69.30000 24604.947
69.31000 23751.600
69.32000 22911.863
69.33000 22422.508
69.34000 22086.926
69.35000 21770.918
69.36000 21187.166
69.37000 20579.943
69.38000 19896.762
69.39000 18661.855
69.40000 17316.902
69.41000 15880.809
69.42000 14020.515
69.43000 12106.655
69.44000 10633.078
69.45000 8718.455
69.46000 7177.604
69.47000 5799.049
69.48000 4766.169
69.49000 3744.680
69.50000 2959.826
69.51000 2516.243
69.52000 2075.453
69.53000 1776.793
69.54000 1612.092
69.55000 1448.094
69.56000 1337.088
69.57000 1259.101
69.58000 1181.715
69.59000 1118.586
69.60000 1061.500
69.61000 1007.948
69.62000 966.032
69.63000 930.902
69.64000 896.147
69.65000 863.992
69.66000 832.337
69.67000 802.763
69.68000 782.517
69.69000 763.396
69.70000 748.808
69.71000 725.116
69.72000 705.963
69.73000 687.795
69.74000 671.653
69.75000 655.571
69.76000 647.236
69.77000 649.666
69.78000 652.166
69.79000 643.259
69.80000 624.044
69.81000 605.017
69.82000 598.305
69.83000 598.996
69.84000 599.203
69.85000 588.762
69.86000 573.963
69.87000 560.133
69.88000 556.288
69.89000 555.320
69.90000 554.108
69.91000 551.272
69.92000 548.137
69.93000 544.558
69.94000 539.067
69.95000 533.355
69.96000 529.038
69.97000 521.177
69.98000 514.837
69.99000 508.390
70.00000 501.734
