20.00000 464.958
20.01000 467.842
20.02000 471.139
20.03000 473.603
20.04000 472.791
20.05000 471.645
20.06000 470.799
20.07000 467.011
20.08000 463.952
20.09000 463.920
20.10000 469.390
20.11000 474.975
20.12000 475.456
20.13000 469.722
20.14000 463.983
20.15000 465.799
20.16000 473.549
20.17000 480.888
20.18000 470.690
20.19000 451.183
20.20000 433.193
20.21000 441.352
20.22000 458.982
20.23000 475.216
20.24000 473.500
20.25000 468.032
20.26000 463.504
20.27000 464.390
20.28000 466.141
20.29000 466.869
20.30000 463.714
20.31000 460.181
20.32000 457.603
20.33000 462.672
20.34000 466.877
20.35000 469.488
20.36000 469.300
20.37000 469.059
20.38000 466.864
20.39000 462.378
20.40000 457.900
20.41000 457.317
20.42000 459.681
20.43000 462.015
20.44000 463.160
20.45000 463.697
20.46000 464.030
20.47000 461.081
20.48000 456.983
20.49000 453.227
20.50000 455.958
20.51000 459.754
20.52000 463.269
20.53000 465.225
20.54000 466.943
20.55000 467.033
20.56000 461.170
20.57000 454.760
20.58000 450.129
20.59000 453.679
20.60000 456.698
20.61000 460.338
20.62000 465.030
20.63000 469.740
20.64000 471.399
20.65000 469.623
20.66000 467.849
20.67000 462.353
20.68000 454.196
20.69000 446.192
20.70000 443.537
20.71000 443.528
20.72000 443.561
20.73000 444.229
20.74000 445.112
20.75000 445.917
20.76000 452.223
20.77000 458.926
20.78000 464.411
20.79000 463.419
20.80000 461.476
20.81000 460.229
20.82000 461.439
20.83000 462.863
20.84000 463.881
20.85000 459.577
20.86000 456.115
20.87000 456.299
20.88000 462.442
20.89000 468.670
20.90000 468.022
20.91000 459.929
20.92000 451.868
20.93000 450.995
20.94000 455.155
20.95000 459.173
20.96000 458.706
20.97000 456.095
20.98000 453.381
20.99000 449.195
21.00000 444.528
21.01000 440.290
21.02000 448.672
21.03000 458.516
21.04000 467.908
21.05000 474.991
21.06000 481.751
21.07000 485.705
21.08000 480.113
21.09000 473.732
21.10000 469.222
21.11000 468.548
21.12000 468.153
21.13000 470.439
21.14000 476.946
21.15000 483.505
21.16000 481.972
21.17000 472.025
21.18000 462.129
21.19000 456.975
21.20000 455.071
21.21000 453.252
21.22000 453.863
21.23000 455.595
21.24000 457.181
21.25000 456.811
21.26000 455.824
21.27000 454.933
21.28000 456.161
21.29000 457.635
21.30000 458.559
21.31000 456.787
21.32000 454.651
21.33000 453.996
21.34000 458.204
21.35000 462.791
21.36000 465.998
21.37000 468.776
21.38000 470.863
21.39000 470.370
21.40000 465.957
21.41000 461.502
21.42000 461.376
21.43000 465.571
21.44000 469.740
21.45000 468.102
21.46000 462.733
21.47000 457.641
21.48000 459.927
21.49000 465.501
21.50000 470.659
21.51000 470.521
21.52000 468.776
21.53000 467.207
21.54000 462.661
21.55000 458.152
21.56000 454.303
21.57000 453.585
21.58000 453.269
21.59000 454.951
21.60000 462.964
21.61000 471.444
21.62000 477.304
21.63000 469.440
21.64000 463.175
21.65000 461.249
21.66000 465.679
21.67000 470.165
21.68000 473.319
21.69000 475.196
21.70000 477.060
21.71000 472.693
21.72000 464.525
21.73000 456.697
21.74000 457.230
21.75000 461.359
21.76000 465.316
21.77000 467.208
21.78000 468.495
21.79000 469.645
21.80000 479.071
21.81000 488.697
21.82000 496.761
21.83000 497.714
21.84000 497.793
21.85000 499.577
21.86000 506.577
21.87000 513.941
21.88000 518.969
21.89000 527.601
21.90000 534.142
21.91000 535.267
21.92000 528.745
21.93000 522.172
21.94000 524.284
21.95000 534.391
21.96000 544.408
21.97000 547.091
21.98000 545.334
21.99000 543.702
22.00000 544.917
22.01000 547.316
22.02000 549.112
22.03000 544.032
22.04000 537.009
22.05000 530.761
22.06000 531.295
22.07000 532.861
22.08000 536.102
22.09000 546.685
22.10000 558.130
22.11000 564.181
22.12000 554.301
22.13000 543.378
22.14000 536.009
22.15000 527.213
22.16000 520.638
22.17000 521.907
22.18000 533.848
22.19000 545.840
22.20000 548.106
22.21000 541.766
22.22000 535.492
22.23000 532.338
22.24000 531.051
22.25000 529.488
22.26000 522.102
22.27000 512.380
22.28000 503.401
22.29000 502.453
22.30000 503.693
22.31000 504.791
22.32000 497.953
22.33000 490.806
22.34000 484.867
22.35000 484.027
22.36000 483.757
22.37000 482.386
22.38000 477.876
22.39000 473.174
22.40000 470.041
22.41000 458.852
22.42000 450.417
22.43000 446.731
22.44000 449.269
22.45000 451.831
22.46000 453.097
22.47000 453.260
22.48000 453.420
22.49000 450.814
22.50000 446.738
22.51000 443.114
22.52000 448.363
22.53000 457.048
22.54000 464.317
22.55000 457.042
22.56000 445.943
22.57000 436.180
22.58000 436.934
22.59000 439.149
22.60000 439.809
22.61000 434.141
22.62000 427.798
22.63000 424.736
22.64000 430.707
22.65000 437.200
22.66000 441.470
22.67000 435.496
22.68000 430.922
22.69000 429.401
22.70000 431.732
22.71000 434.076
22.72000 437.041
22.73000 440.513
22.74000 443.939
22.75000 441.255
22.76000 435.387
22.77000 429.906
22.78000 431.518
22.79000 435.784
22.80000 439.508
22.81000 437.948
22.82000 435.049
22.83000 432.513
22.84000 434.961
22.85000 437.768
22.86000 440.128
22.87000 440.737
22.88000 441.167
22.89000 440.158
22.90000 435.321
22.91000 430.278
22.92000 427.004
22.93000 423.595
22.94000 421.096
22.95000 421.474
22.96000 425.346
22.97000 429.218
22.98000 430.800
22.99000 430.577
23.00000 430.358
23.01000 432.330
23.02000 435.367
23.03000 438.185
23.04000 437.254
23.05000 434.969
23.06000 432.484
23.07000 428.152
23.08000 423.368
23.09000 419.209
23.10000 423.995
23.11000 429.294
23.12000 433.683
23.13000 434.634
23.14000 435.253
23.15000 433.834
23.16000 427.186
23.17000 420.274
23.18000 415.847
23.19000 422.399
23.20000 427.319
23.21000 430.071
23.22000 430.291
23.23000 430.492
23.24000 427.240
23.25000 421.369
23.26000 415.598
23.27000 411.924
23.28000 409.407
23.29000 407.274
23.30000 411.297
23.31000 417.468
23.32000 422.896
23.33000 421.741
23.34000 419.037
23.35000 416.701
23.36000 421.205
23.37000 425.917
23.38000 429.916
23.39000 431.311
23.40000 432.467
23.41000 432.351
23.42000 429.082
23.43000 425.664
23.44000 423.506
23.45000 429.889
23.46000 434.613
23.47000 435.704
23.48000 432.713
23.49000 429.724
23.50000 427.456
23.51000 425.717
23.52000 424.011
23.53000 425.634
23.54000 428.782
23.55000 431.580
23.56000 429.108
23.57000 424.861
23.58000 421.100
23.59000 421.445
23.60000 422.721
23.61000 423.816
23.62000 426.834
23.63000 429.624
23.64000 431.075
23.65000 427.817
23.66000 424.151
23.67000 423.075
23.68000 428.202
23.69000 433.598
23.70000 436.959
23.71000 432.806
23.72000 429.737
23.73000 424.646
23.74000 417.373
23.75000 410.181
23.76000 413.982
23.77000 425.521
23.78000 436.817
23.79000 439.644
23.80000 438.485
23.81000 437.477
23.82000 438.614
23.83000 440.447
23.84000 441.994
23.85000 441.232
23.86000 439.966
23.87000 438.886
23.88000 436.825
23.89000 434.974
23.90000 434.796
23.91000 440.293
23.92000 446.257
23.93000 449.597
23.94000 446.871
23.95000 443.901
23.96000 442.078
23.97000 452.614
23.98000 460.271
23.99000 459.521
24.00000 450.058
24.01000 440.701
24.02000 443.216
24.03000 453.788
24.04000 464.113
24.05000 462.681
24.06000 456.133
24.07000 450.414
24.08000 455.825
24.09000 464.726
24.10000 472.509
24.11000 471.675
24.12000 469.029
24.13000 466.787
24.14000 467.339
24.15000 468.114
24.16000 465.823
24.17000 453.488
24.18000 440.371
24.19000 432.539
24.20000 436.504
24.21000 440.906
24.22000 443.568
24.23000 435.799
24.24000 430.187
24.25000 424.125
24.26000 417.615
24.27000 411.191
24.28000 412.689
24.29000 419.371
24.30000 425.882
24.31000 423.286
24.32000 416.951
24.33000 410.866
24.34000 407.947
24.35000 405.986
24.36000 405.157
24.37000 412.677
24.38000 421.885
24.39000 429.635
24.40000 422.612
24.41000 415.173
24.42000 409.462
24.43000 409.211
24.44000 409.361
24.45000 407.651
24.46000 401.932
24.47000 396.077
24.48000 392.590
24.49000 401.280
24.50000 407.512
24.51000 411.434
24.52000 413.152
24.53000 414.876
24.54000 417.149
24.55000 419.769
24.56000 422.315
24.57000 411.514
24.58000 395.803
24.59000 381.777
24.60000 387.941
24.61000 400.003
24.62000 410.517
24.63000 410.110
24.64000 407.579
24.65000 405.464
24.66000 400.911
24.67000 396.882
24.68000 396.783
24.69000 408.672
24.70000 421.391
24.71000 426.379
24.72000 415.276
24.73000 403.674
24.74000 396.871
24.75000 405.399
24.76000 411.482
24.77000 417.455
24.78000 423.327
24.79000 428.997
24.80000 420.786
24.81000 404.130
24.82000 387.979
24.83000 386.579
24.84000 391.041
24.85000 395.465
24.86000 399.456
24.87000 403.325
24.88000 406.340
24.89000 403.584
24.90000 399.749
24.91000 396.566
24.92000 400.549
24.93000 404.534
24.94000 408.047
24.95000 410.173
24.96000 412.208
24.97000 411.192
24.98000 404.041
24.99000 396.717
25.00000 392.492
25.01000 408.803
25.02000 420.298
25.03000 421.840
25.04000 414.605
25.05000 407.422
25.06000 403.326
25.07000 401.042
25.08000 398.834
25.09000 399.732
25.10000 401.754
25.11000 403.246
25.12000 399.042
25.13000 393.290
25.14000 387.774
25.15000 383.783
25.16000 380.066
25.17000 377.003
25.18000 380.973
25.19000 384.885
25.20000 388.430
25.21000 390.929
25.22000 393.364
25.23000 395.330
25.24000 396.387
25.25000 397.420
25.26000 398.007
25.27000 396.203
25.28000 394.939
25.29000 392.660
25.30000 389.520
25.31000 386.375
25.32000 382.992
25.33000 379.473
25.34000 376.080
25.35000 378.006
25.36000 381.751
25.37000 385.978
25.38000 395.140
25.39000 405.595
25.40000 413.335
25.41000 404.212
25.42000 392.180
25.43000 382.341
25.44000 381.063
25.45000 380.760
25.46000 381.567
25.47000 385.416
25.48000 389.440
25.49000 391.850
25.50000 391.236
25.51000 390.552
25.52000 390.171
25.53000 388.690
25.54000 387.663
25.55000 386.650
25.56000 385.648
25.57000 384.729
25.58000 387.727
25.59000 392.867
25.60000 397.809
25.61000 396.908
25.62000 394.020
25.63000 391.183
25.64000 388.831
25.65000 386.601
25.66000 384.690
25.67000 384.677
25.68000 384.978
25.69000 385.222
25.70000 391.808
25.71000 397.700
25.72000 400.645
25.73000 395.783
25.74000 390.502
25.75000 388.950
25.76000 394.139
25.77000 399.465
25.78000 402.384
25.79000 399.048
25.80000 396.739
25.81000 392.956
25.82000 388.015
25.83000 383.275
25.84000 386.964
25.85000 395.099
25.86000 402.899
25.87000 402.644
25.88000 399.699
25.89000 396.555
25.90000 391.567
25.91000 386.131
25.92000 381.278
25.93000 379.759
25.94000 378.770
25.95000 377.974
25.96000 371.129
25.97000 365.103
25.98000 364.045
25.99000 375.701
26.00000 387.993
26.01000 391.568
26.02000 379.938
26.03000 368.030
26.04000 361.621
26.05000 373.582
26.06000 381.736
26.07000 381.694
26.08000 375.454
26.09000 369.409
26.10000 370.738
26.11000 375.824
26.12000 380.684
26.13000 379.042
26.14000 375.413
26.15000 372.233
26.16000 373.017
26.17000 374.731
26.18000 376.485
26.19000 378.461
26.20000 380.472
26.21000 382.077
26.22000 385.647
26.23000 388.675
26.24000 389.367
26.25000 384.287
26.26000 378.937
26.27000 378.902
26.28000 387.811
26.29000 396.862
26.30000 401.644
26.31000 389.019
26.32000 380.476
26.33000 378.696
26.34000 381.841
26.35000 384.819
26.36000 382.071
26.37000 376.507
26.38000 371.206
26.39000 372.717
26.40000 376.235
26.41000 379.479
26.42000 380.412
26.43000 380.824
26.44000 381.275
26.45000 381.929
26.46000 382.612
26.47000 383.154
26.48000 375.034
26.49000 367.903
26.50000 365.729
26.51000 375.381
26.52000 385.544
26.53000 387.476
26.54000 376.042
26.55000 364.422
26.56000 358.400
26.57000 371.293
26.58000 379.939
26.59000 380.983
26.60000 376.694
26.61000 372.477
26.62000 370.556
26.63000 369.725
26.64000 368.936
26.65000 366.735
26.66000 364.282
26.67000 362.729
26.68000 368.422
26.69000 375.691
26.70000 381.024
26.71000 376.527
26.72000 370.658
26.73000 366.048
26.74000 370.994
26.75000 375.577
26.76000 378.169
26.77000 376.170
26.78000 373.987
26.79000 373.957
26.80000 377.299
26.81000 380.681
26.82000 382.399
26.83000 373.031
26.84000 366.811
26.85000 367.036
26.86000 371.622
26.87000 376.155
26.88000 379.177
26.89000 381.508
26.90000 383.713
26.91000 380.281
26.92000 375.506
26.93000 370.953
26.94000 368.112
26.95000 365.629
26.96000 364.090
26.97000 367.156
26.98000 370.837
26.99000 373.704
27.00000 369.069
27.01000 364.916
27.02000 364.861
27.03000 373.927
27.04000 383.328
27.05000 385.287
27.06000 376.005
27.07000 366.610
27.08000 364.764
27.09000 370.404
27.10000 375.996
27.11000 377.236
27.12000 375.637
27.13000 373.838
27.14000 366.794
27.15000 357.428
27.16000 348.600
27.17000 354.288
27.18000 363.507
27.19000 371.344
27.20000 369.022
27.21000 364.654
27.22000 362.120
27.23000 368.208
27.24000 375.397
27.25000 380.946
27.26000 366.909
27.27000 354.649
27.28000 349.832
27.29000 361.012
27.30000 372.731
27.31000 379.787
27.32000 380.055
27.33000 380.265
27.34000 382.836
27.35000 387.655
27.36000 392.357
27.37000 387.905
27.38000 377.696
27.39000 367.735
27.40000 363.787
27.41000 362.411
27.42000 361.119
27.43000 355.297
27.44000 348.784
27.45000 343.924
27.46000 350.686
27.47000 359.700
27.48000 367.913
27.49000 372.505
27.50000 376.655
27.51000 379.829
27.52000 379.158
27.53000 378.419
27.54000 376.582
27.55000 372.464
27.56000 368.275
27.57000 367.527
27.58000 371.606
27.59000 375.717
27.60000 375.188
27.61000 370.420
27.62000 365.760
27.63000 368.483
27.64000 375.684
27.65000 382.539
27.66000 381.624
27.67000 377.500
27.68000 373.642
27.69000 370.313
27.70000 367.424
27.71000 364.986
27.72000 365.586
27.73000 366.752
27.74000 367.932
27.75000 369.175
27.76000 370.425
27.77000 371.373
27.78000 362.150
27.79000 354.393
27.80000 350.116
27.81000 352.815
27.82000 355.710
27.83000 357.394
27.84000 357.442
27.85000 357.481
27.86000 356.723
27.87000 355.267
27.88000 353.838
27.89000 354.020
27.90000 355.146
27.91000 356.356
27.92000 359.302
27.93000 362.941
27.94000 366.332
27.95000 369.547
27.96000 372.412
27.97000 373.924
27.98000 366.702
27.99000 357.917
28.00000 352.184
28.01000 359.265
28.02000 367.769
28.03000 374.151
28.04000 374.499
28.05000 374.484
28.06000 369.086
28.07000 353.276
28.08000 337.202
28.09000 330.036
28.10000 334.467
28.11000 338.943
28.12000 347.523
28.13000 359.543
28.14000 371.337
28.15000 371.349
28.16000 364.708
28.17000 358.340
28.18000 357.280
28.19000 358.264
28.20000 359.177
28.21000 356.394
28.22000 353.018
28.23000 350.413
28.24000 352.581
28.25000 355.569
28.26000 357.408
28.27000 354.596
28.28000 351.292
28.29000 348.836
28.30000 360.279
28.31000 369.791
28.32000 373.184
28.33000 365.151
28.34000 356.857
28.35000 355.446
28.36000 362.662
28.37000 369.894
28.38000 368.099
28.39000 358.997
28.40000 350.060
28.41000 348.764
28.42000 351.633
28.43000 354.282
28.44000 352.934
28.45000 350.100
28.46000 347.481
28.47000 351.701
28.48000 357.033
28.49000 361.159
28.50000 358.127
28.51000 353.914
28.52000 351.620
28.53000 356.806
28.54000 362.745
28.55000 367.114
28.56000 366.904
28.57000 366.552
28.58000 364.978
28.59000 361.202
28.60000 357.382
28.61000 353.607
28.62000 349.886
28.63000 346.173
28.64000 347.808
28.65000 353.600
28.66000 359.264
28.67000 359.611
28.68000 357.159
28.69000 354.475
28.70000 347.838
28.71000 339.782
28.72000 332.372
28.73000 332.409
28.74000 334.057
28.75000 335.507
28.76000 335.828
28.77000 335.971
28.78000 336.571
28.79000 338.895
28.80000 341.384
28.81000 343.196
28.82000 349.752
28.83000 354.981
28.84000 356.311
28.85000 350.857
28.86000 345.281
28.87000 341.535
28.88000 339.910
28.89000 338.292
28.90000 342.818
28.91000 351.913
28.92000 360.705
28.93000 358.191
28.94000 349.934
28.95000 342.245
28.96000 343.605
28.97000 348.103
28.98000 352.221
28.99000 352.356
29.00000 351.648
29.01000 351.194
29.02000 352.137
29.03000 353.291
29.04000 353.887
29.05000 352.456
29.06000 350.842
29.07000 349.678
29.08000 352.021
29.09000 353.940
29.10000 355.045
29.11000 354.785
29.12000 354.503
29.13000 352.915
29.14000 349.872
29.15000 346.838
29.16000 347.982
29.17000 352.123
29.18000 356.224
29.19000 358.981
29.20000 361.078
29.21000 363.053
29.22000 363.195
29.23000 362.723
29.24000 362.294
29.25000 353.932
29.26000 344.940
29.27000 338.152
29.28000 342.964
29.29000 349.462
29.30000 353.246
29.31000 347.543
29.32000 341.023
29.33000 336.375
29.34000 342.120
29.35000 346.838
29.36000 348.906
29.37000 346.682
29.38000 344.399
29.39000 342.617
29.40000 341.371
29.41000 340.131
29.42000 340.538
29.43000 342.079
29.44000 343.645
29.45000 345.957
29.46000 348.622
29.47000 350.848
29.48000 346.900
29.49000 340.958
29.50000 335.568
29.51000 344.147
29.52000 354.388
29.53000 361.983
29.54000 356.186
29.55000 348.525
29.56000 341.608
29.57000 337.197
29.58000 332.990
29.59000 330.025
29.60000 335.862
29.61000 340.554
29.62000 344.572
29.63000 347.538
29.64000 350.491
29.65000 354.584
29.66000 359.850
29.67000 365.086
29.68000 361.327
29.69000 351.627
29.70000 342.129
29.71000 338.357
29.72000 337.203
29.73000 336.397
29.74000 340.220
29.75000 345.487
29.76000 350.239
29.77000 348.854
29.78000 346.512
29.79000 346.087
29.80000 354.995
29.81000 365.145
29.82000 372.342
29.83000 369.928
29.84000 366.772
29.85000 364.573
29.86000 373.246
29.87000 380.090
29.88000 385.643
29.89000 389.253
29.90000 392.844
29.91000 389.353
29.92000 378.866
29.93000 368.449
29.94000 364.317
29.95000 364.273
29.96000 364.268
29.97000 365.275
29.98000 366.731
29.99000 368.419
30.00000 373.027
30.01000 378.515
30.02000 383.441
30.03000 392.505
30.04000 401.161
30.05000 406.849
30.06000 398.632
30.07000 388.646
30.08000 380.704
30.09000 379.185
30.10000 378.133
30.11000 377.409
30.12000 372.625
30.13000 368.932
30.14000 368.767
30.15000 373.724
30.16000 378.722
30.17000 377.476
30.18000 370.306
30.19000 363.193
30.20000 362.457
30.21000 365.663
30.22000 368.733
30.23000 368.516
30.24000 366.898
30.25000 365.338
30.26000 364.459
30.27000 363.779
30.28000 363.171
30.29000 366.531
30.30000 370.126
30.31000 372.618
30.32000 370.143
30.33000 367.063
30.34000 364.223
30.35000 362.108
30.36000 360.043
30.37000 358.638
30.38000 360.255
30.39000 361.532
30.40000 361.082
30.41000 358.218
30.42000 355.338
30.43000 353.958
30.44000 353.944
30.45000 353.931
30.46000 354.283
30.47000 354.845
30.48000 355.470
30.49000 357.510
30.50000 360.133
30.51000 362.567
30.52000 362.870
30.53000 362.577
30.54000 362.316
30.55000 361.558
30.56000 360.820
30.57000 360.223
30.58000 360.241
30.59000 360.330
30.60000 360.789
30.61000 362.328
30.62000 363.937
30.63000 365.019
30.64000 366.112
30.65000 366.925
30.66000 364.642
30.67000 358.187
30.68000 351.717
30.69000 353.002
30.70000 361.080
30.71000 369.072
30.72000 368.397
30.73000 362.793
30.74000 357.197
30.75000 351.760
30.76000 346.386
30.77000 342.277
30.78000 351.674
30.79000 364.718
30.80000 376.242
30.81000 369.471
30.82000 360.807
30.83000 355.676
30.84000 365.322
30.85000 376.604
30.86000 387.414
30.87000 396.891
30.88000 406.288
30.89000 412.528
30.90000 398.529
30.91000 387.805
30.92000 383.558
30.93000 387.714
30.94000 391.912
30.95000 400.176
30.96000 411.866
30.97000 423.413
30.98000 430.086
30.99000 433.914
31.00000 438.132
31.01000 449.859
31.02000 464.470
31.03000 479.960
31.04000 504.371
31.05000 531.106
31.06000 554.589
31.07000 574.292
31.08000 590.674
31.09000 607.645
31.10000 626.995
31.11000 646.595
31.12000 670.803
31.13000 707.583
31.14000 745.076
31.15000 769.657
31.16000 795.054
31.17000 813.742
31.18000 845.694
31.19000 894.214
31.20000 942.758
31.21000 981.779
31.22000 1013.078
31.23000 1043.942
31.24000 1084.596
31.25000 1129.274
31.26000 1174.281
31.27000 1225.198
31.28000 1278.307
31.29000 1329.447
31.30000 1361.588
31.31000 1388.959
31.32000 1412.862
31.33000 1416.274
31.34000 1416.313
31.35000 1417.639
31.36000 1423.972
31.37000 1430.806
31.38000 1432.750
31.39000 1421.806
31.40000 1410.179
31.41000 1402.656
31.42000 1361.161
31.43000 1330.311
31.44000 1298.860
31.45000 1266.689
31.46000 1234.504
31.47000 1198.690
31.48000 1160.046
31.49000 1122.007
31.50000 1072.078
31.51000 1017.658
31.52000 964.198
31.53000 926.937
31.54000 895.474
31.55000 863.135
31.56000 822.742
31.57000 780.400
31.58000 743.646
31.59000 705.067
31.60000 671.950
31.61000 640.817
31.62000 617.124
31.63000 594.139
31.64000 571.650
31.65000 550.420
31.66000 529.253
31.67000 515.741
31.68000 491.308
31.69000 473.392
31.70000 462.335
31.71000 459.210
31.72000 456.074
31.73000 448.648
31.74000 437.998
31.75000 427.535
31.76000 420.528
31.77000 415.451
31.78000 410.317
31.79000 404.287
31.80000 397.948
31.81000 391.574
31.82000 384.903
31.83000 378.163
31.84000 372.348
31.85000 378.166
31.86000 384.594
31.87000 388.506
31.88000 383.330
31.89000 377.332
31.90000 373.013
31.91000 372.819
31.92000 372.815
31.93000 372.812
31.94000 359.599
31.95000 349.888
31.96000 342.590
31.97000 337.974
31.98000 333.374
31.99000 331.156
32.00000 330.663
32.01000 330.180
32.02000 334.216
32.03000 340.229
32.04000 346.014
32.05000 348.391
32.06000 349.631
32.07000 350.148
32.08000 344.624
32.09000 337.744
32.10000 331.845
32.11000 336.845
32.12000 342.401
32.13000 344.835
32.14000 336.389
32.15000 327.010
32.16000 321.477
32.17000 325.073
32.18000 329.056
32.19000 331.529
32.20000 328.079
32.21000 325.539
32.22000 322.258
32.23000 318.185
32.24000 314.121
32.25000 311.341
32.26000 309.455
32.27000 307.610
32.28000 310.215
32.29000 314.731
32.30000 319.231
32.31000 323.491
32.32000 327.673
32.33000 331.272
32.34000 330.216
32.35000 328.154
32.36000 326.397
32.37000 328.273
32.38000 330.274
32.39000 329.959
32.40000 321.858
32.41000 313.125
32.42000 307.061
32.43000 307.114
32.44000 307.407
32.45000 307.586
32.46000 313.592
32.47000 317.938
32.48000 316.190
32.49000 308.189
32.50000 300.259
32.51000 299.800
32.52000 304.365
32.53000 308.821
32.54000 306.951
32.55000 302.404
32.56000 298.547
32.57000 303.801
32.58000 311.888
32.59000 318.992
32.60000 318.604
32.61000 316.657
32.62000 315.009
32.63000 307.863
32.64000 301.272
32.65000 298.348
32.66000 307.325
32.67000 317.215
32.68000 321.889
32.69000 315.022
32.70000 307.738
32.71000 303.349
32.72000 304.951
32.73000 306.133
32.74000 307.485
32.75000 309.004
32.76000 310.550
32.77000 314.567
32.78000 320.185
32.79000 325.656
32.80000 338.133
32.81000 352.966
32.82000 367.713
32.83000 381.373
32.84000 394.707
32.85000 409.107
32.86000 431.285
32.87000 455.020
32.88000 474.964
32.89000 483.038
32.90000 488.511
32.91000 496.120
32.92000 510.420
32.93000 525.203
32.94000 532.580
32.95000 524.133
32.96000 515.159
32.97000 509.835
32.98000 519.451
32.99000 526.338
33.00000 522.849
33.01000 509.547
33.02000 496.392
33.03000 494.332
33.04000 499.208
33.05000 503.945
33.06000 483.627
33.07000 454.207
33.08000 425.722
33.09000 408.287
33.10000 394.051
33.11000 380.038
33.12000 367.587
33.13000 355.437
33.14000 345.298
33.15000 334.279
33.16000 325.051
33.17000 317.149
33.18000 313.257
33.19000 309.637
33.20000 307.973
33.21000 310.342
33.22000 312.833
33.23000 314.287
33.24000 305.577
33.25000 299.403
33.26000 294.578
33.27000 290.977
33.28000 287.405
33.29000 285.639
33.30000 284.963
33.31000 284.309
33.32000 286.415
33.33000 289.483
33.34000 292.663
33.35000 297.100
33.36000 301.889
33.37000 305.366
33.38000 300.069
33.39000 293.150
33.40000 287.417
33.41000 282.680
33.42000 278.863
33.43000 276.289
33.44000 277.340
33.45000 278.623
33.46000 282.108
33.47000 289.980
33.48000 297.973
33.49000 302.565
33.50000 295.726
33.51000 290.903
33.52000 286.767
33.53000 283.233
33.54000 279.775
33.55000 280.733
33.56000 284.260
33.57000 287.668
33.58000 292.365
33.59000 297.276
33.60000 301.433
33.61000 297.572
33.62000 291.552
33.63000 287.116
33.64000 292.832
33.65000 300.353
33.66000 306.538
33.67000 296.967
33.68000 287.674
33.69000 281.680
33.70000 284.982
33.71000 288.843
33.72000 293.013
33.73000 297.775
33.74000 302.552
33.75000 305.251
33.76000 303.547
33.77000 302.353
33.78000 302.363
33.79000 303.384
33.80000 304.358
33.81000 302.927
33.82000 300.147
33.83000 297.468
33.84000 292.645
33.85000 287.342
33.86000 282.109
33.87000 277.599
33.88000 273.275
33.89000 271.144
33.90000 282.488
33.91000 296.133
33.92000 307.269
33.93000 301.917
33.94000 296.124
33.95000 292.514
33.96000 294.843
33.97000 297.506
33.98000 299.825
33.99000 301.503
34.00000 303.167
34.01000 304.091
34.02000 305.273
34.03000 306.087
34.04000 305.518
34.05000 303.832
34.06000 302.202
34.07000 303.138
34.08000 305.464
34.09000 307.699
34.10000 308.489
34.11000 308.728
34.12000 308.894
34.13000 308.351
34.14000 307.630
34.15000 306.536
34.16000 303.246
34.17000 299.596
34.18000 296.640
34.19000 299.890
34.20000 303.042
34.21000 307.093
34.22000 313.508
34.23000 320.049
34.24000 321.954
34.25000 315.557
34.26000 308.994
34.27000 305.414
34.28000 309.016
34.29000 311.499
34.30000 313.902
34.31000 316.241
34.32000 318.474
34.33000 316.371
34.34000 312.000
34.35000 307.813
34.36000 306.726
34.37000 306.745
34.38000 306.713
34.39000 306.213
34.40000 305.600
34.41000 305.129
34.42000 305.459
34.43000 305.915
34.44000 306.281
34.45000 303.593
34.46000 301.180
34.47000 301.455
34.48000 308.551
34.49000 315.983
34.50000 319.784
34.51000 317.310
34.52000 314.726
34.53000 313.341
34.54000 318.284
34.55000 321.619
34.56000 316.397
34.57000 304.765
34.58000 293.410
34.59000 292.273
34.60000 296.295
34.61000 300.136
34.62000 299.834
34.63000 298.226
34.64000 296.624
34.65000 295.070
34.66000 293.527
34.67000 292.068
34.68000 291.069
34.69000 290.138
34.70000 289.397
34.71000 294.706
34.72000 299.428
34.73000 300.388
34.74000 292.130
34.75000 283.452
34.76000 280.198
34.77000 285.993
34.78000 291.928
34.79000 295.049
34.80000 280.391
34.81000 270.516
34.82000 271.800
34.83000 281.134
34.84000 290.102
34.85000 286.784
34.86000 277.475
34.87000 268.616
34.88000 265.697
34.89000 264.825
34.90000 264.656
34.91000 270.339
34.92000 277.331
34.93000 283.282
34.94000 283.793
34.95000 283.518
34.96000 283.302
34.97000 281.434
34.98000 279.821
34.99000 278.258
35.00000 276.816
35.01000 275.379
35.02000 273.378
35.03000 270.469
35.04000 267.549
35.05000 266.043
35.06000 271.483
35.07000 275.104
35.08000 273.202
35.09000 267.460
35.10000 261.960
35.11000 263.869
35.12000 269.264
35.13000 274.382
35.14000 267.214
35.15000 256.967
35.16000 248.642
35.17000 255.583
35.18000 265.815
35.19000 273.818
35.20000 270.619
35.21000 265.873
35.22000 262.154
35.23000 270.375
35.24000 277.716
35.25000 281.972
35.26000 279.181
35.27000 276.114
35.28000 271.322
35.29000 263.854
35.30000 256.355
35.31000 252.563
35.32000 253.977
35.33000 254.927
35.34000 256.372
35.35000 258.149
35.36000 259.792
35.37000 257.679
35.38000 253.858
35.39000 250.248
35.40000 252.527
35.41000 256.297
35.42000 259.117
35.43000 254.719
35.44000 248.824
35.45000 245.293
35.46000 253.192
35.47000 262.603
35.48000 269.914
35.49000 269.730
35.50000 269.128
35.51000 267.633
35.52000 264.167
35.53000 260.629
35.54000 259.335
35.55000 261.396
35.56000 263.489
35.57000 263.449
35.58000 261.315
35.59000 259.226
35.60000 261.046
35.61000 265.392
35.62000 269.432
35.63000 265.567
35.64000 258.232
35.65000 251.325
35.66000 251.180
35.67000 252.898
35.68000 254.133
35.69000 251.867
35.70000 248.902
35.71000 248.161
35.72000 257.772
35.73000 268.689
35.74000 277.095
35.75000 269.980
35.76000 263.461
35.77000 258.560
35.78000 257.104
35.79000 255.761
35.80000 256.231
35.81000 259.317
35.82000 262.424
35.83000 263.124
35.84000 261.557
35.85000 259.996
35.86000 258.923
35.87000 258.155
35.88000 257.383
35.89000 256.506
35.90000 255.584
35.91000 254.719
35.92000 255.385
35.93000 256.393
35.94000 256.655
35.95000 251.719
35.96000 245.787
35.97000 242.959
35.98000 254.045
35.99000 266.809
36.00000 276.548
36.01000 267.975
36.02000 260.241
36.03000 254.022
36.04000 250.919
36.05000 247.910
36.06000 248.791
36.07000 255.080
36.08000 261.402
36.09000 262.706
36.10000 259.470
36.11000 256.296
36.12000 257.166
36.13000 260.466
36.14000 263.595
36.15000 262.964
36.16000 260.793
36.17000 258.765
36.18000 254.035
36.19000 249.061
36.20000 244.928
36.21000 246.394
36.22000 248.893
36.23000 250.675
36.24000 249.366
36.25000 247.702
36.26000 246.443
36.27000 248.812
36.28000 250.851
36.29000 253.404
36.30000 256.981
36.31000 260.585
36.32000 262.458
36.33000 262.013
36.34000 261.557
36.35000 259.400
36.36000 255.769
36.37000 252.203
36.38000 252.307
36.39000 254.540
36.40000 256.611
36.41000 255.376
36.42000 252.834
36.43000 250.468
36.44000 248.781
36.45000 247.421
36.46000 246.353
36.47000 247.151
36.48000 248.279
36.49000 249.286
36.50000 249.786
36.51000 250.230
36.52000 250.563
36.53000 253.933
36.54000 256.705
36.55000 255.254
36.56000 245.705
36.57000 235.956
36.58000 234.510
36.59000 243.769
36.60000 253.060
36.61000 259.532
36.62000 263.632
36.63000 267.650
36.64000 267.471
36.65000 264.943
36.66000 262.186
36.67000 255.063
36.68000 246.274
36.69000 238.128
36.70000 242.414
36.71000 249.167
36.72000 254.658
36.73000 252.417
36.74000 248.861
36.75000 246.921
36.76000 251.458
36.77000 256.673
36.78000 260.538
36.79000 264.136
36.80000 266.918
36.81000 265.805
36.82000 257.486
36.83000 249.007
36.84000 247.672
36.85000 255.207
36.86000 262.754
36.87000 266.897
36.88000 268.294
36.89000 269.624
36.90000 267.998
36.91000 264.774
36.92000 261.648
36.93000 260.246
36.94000 259.480
36.95000 258.774
36.96000 262.685
36.97000 267.223
36.98000 271.977
36.99000 278.003
37.00000 284.235
37.01000 289.963
37.02000 293.740
37.03000 297.322
37.04000 299.951
37.05000 296.636
37.06000 293.833
37.07000 290.739
37.08000 287.123
37.09000 283.497
37.10000 279.358
37.11000 274.607
37.12000 269.866
37.13000 267.546
37.14000 267.108
37.15000 266.658
37.16000 265.760
37.17000 264.628
37.18000 263.595
37.19000 264.219
37.20000 265.434
37.21000 266.550
37.22000 262.851
37.23000 258.516
37.24000 253.956
37.25000 248.124
37.26000 242.092
37.27000 239.287
37.28000 248.501
37.29000 258.850
37.30000 266.366
37.31000 257.805
37.32000 250.619
37.33000 248.427
37.34000 254.847
37.35000 261.417
37.36000 263.137
37.37000 259.288
37.38000 255.443
37.39000 251.957
37.40000 248.761
37.41000 245.747
37.42000 249.401
37.43000 256.411
37.44000 262.870
37.45000 260.680
37.46000 255.518
37.47000 250.797
37.48000 249.047
37.49000 248.104
37.50000 247.879
37.51000 251.543
37.52000 255.791
37.53000 259.117
37.54000 259.126
37.55000 258.838
37.56000 258.631
37.57000 254.216
37.58000 250.692
37.59000 248.647
37.60000 249.060
37.61000 249.511
37.62000 248.346
37.63000 245.397
37.64000 242.459
37.65000 241.540
37.66000 242.068
37.67000 242.744
37.68000 248.364
37.69000 256.386
37.70000 263.552
37.71000 258.099
37.72000 248.461
37.73000 239.688
37.74000 237.269
37.75000 236.382
37.76000 235.957
37.77000 237.938
37.78000 240.266
37.79000 242.189
37.80000 242.716
37.81000 243.124
37.82000 243.414
37.83000 242.698
37.84000 242.120
37.85000 243.293
37.86000 247.273
37.87000 251.292
37.88000 254.709
37.89000 257.490
37.90000 260.258
37.91000 261.124
37.92000 260.676
37.93000 260.077
37.94000 254.894
37.95000 247.560
37.96000 240.949
37.97000 244.351
37.98000 250.960
37.99000 256.946
38.00000 260.799
38.01000 263.791
38.02000 265.632
38.03000 261.699
38.04000 256.973
38.05000 252.404
38.06000 248.363
38.07000 244.364
38.08000 241.554
38.09000 246.038
38.10000 249.649
38.11000 251.469
38.12000 250.516
38.13000 249.533
38.14000 249.566
38.15000 250.636
38.16000 251.700
38.17000 258.648
38.18000 269.383
38.19000 279.601
38.20000 275.461
38.21000 264.812
38.22000 255.155
38.23000 258.475
38.24000 265.806
38.25000 272.413
38.26000 277.058
38.27000 280.778
38.28000 284.927
38.29000 291.148
38.30000 297.641
38.31000 301.976
38.32000 299.347
38.33000 296.189
38.34000 293.994
38.35000 309.276
38.36000 321.265
38.37000 329.918
38.38000 333.596
38.39000 337.228
38.40000 349.027
38.41000 368.815
38.42000 388.466
38.43000 409.006
38.44000 429.787
38.45000 450.448
38.46000 467.991
38.47000 484.171
38.48000 500.836
38.49000 523.514
38.50000 547.985
38.51000 569.927
38.52000 602.377
38.53000 632.557
38.54000 661.830
38.55000 686.896
38.56000 711.434
38.57000 734.920
38.58000 755.137
38.59000 775.120
38.60000 788.845
38.61000 824.998
38.62000 852.657
38.63000 880.941
38.64000 910.122
38.65000 939.307
38.66000 955.402
38.67000 959.204
38.68000 962.974
38.69000 966.611
38.70000 970.102
38.71000 973.851
38.72000 983.690
38.73000 996.104
38.74000 1007.025
38.75000 1000.472
38.76000 988.890
38.77000 978.560
38.78000 955.517
38.79000 933.355
38.80000 911.775
38.81000 892.794
38.82000 874.126
38.83000 853.469
38.84000 826.838
38.85000 799.803
38.86000 781.455
38.87000 736.291
38.88000 702.002
38.89000 666.737
38.90000 630.118
38.91000 593.494
38.92000 561.359
38.93000 533.275
38.94000 505.461
38.95000 482.384
38.96000 462.564
38.97000 442.851
38.98000 425.478
38.99000 409.060
39.00000 392.008
39.01000 367.907
39.02000 341.851
39.03000 318.736
39.04000 310.034
39.05000 304.791
39.06000 299.513
39.07000 294.088
39.08000 288.646
39.09000 282.988
39.10000 276.702
39.11000 270.376
39.12000 266.136
39.13000 262.814
39.14000 260.368
39.15000 258.385
39.16000 257.021
39.17000 255.657
39.18000 251.691
39.19000 245.470
39.20000 239.318
39.21000 234.060
39.22000 229.429
39.23000 225.029
39.24000 225.324
39.25000 227.469
39.26000 229.597
39.27000 231.539
39.28000 233.432
39.29000 235.102
39.30000 232.173
39.31000 228.946
39.32000 226.465
39.33000 227.069
39.34000 228.012
39.35000 229.905
39.36000 234.462
39.37000 239.179
39.38000 242.301
39.39000 240.343
39.40000 238.806
39.41000 237.178
39.42000 235.433
39.43000 233.687
39.44000 231.753
39.45000 229.662
39.46000 227.597
39.47000 232.030
39.48000 239.880
39.49000 247.231
39.50000 245.150
39.51000 239.477
39.52000 234.204
39.53000 232.941
39.54000 232.711
39.55000 232.510
39.56000 231.380
39.57000 230.275
39.58000 229.896
39.59000 232.415
39.60000 235.235
39.61000 235.860
39.62000 230.546
39.63000 224.900
39.64000 221.211
39.65000 218.382
39.66000 216.318
39.67000 219.285
39.68000 228.475
39.69000 237.667
39.70000 241.542
39.71000 241.147
39.72000 240.759
39.73000 235.320
39.74000 227.398
39.75000 219.983
39.76000 221.574
39.77000 226.473
39.78000 231.037
39.79000 232.392
39.80000 232.948
39.81000 233.434
39.82000 225.749
39.83000 218.043
39.84000 212.771
39.85000 216.874
39.86000 221.905
39.87000 225.095
39.88000 223.479
39.89000 221.612
39.90000 220.408
39.91000 221.092
39.92000 221.618
39.93000 222.426
39.94000 223.571
39.95000 224.708
39.96000 223.661
39.97000 220.927
39.98000 218.237
39.99000 217.613
40.00000 218.049
40.01000 218.499
40.02000 219.200
40.03000 219.989
40.04000 220.631
40.05000 219.936
40.06000 218.921
40.07000 218.041
40.08000 222.493
40.09000 226.991
40.10000 229.589
40.11000 225.134
40.12000 220.014
40.13000 216.695
40.14000 217.915
40.15000 219.354
40.16000 220.270
40.17000 222.396
40.18000 223.955
40.19000 223.586
40.20000 221.009
40.21000 218.427
40.22000 215.430
40.23000 212.123
40.24000 208.876
40.25000 207.433
40.26000 206.915
40.27000 206.779
40.28000 212.594
40.29000 220.448
40.30000 227.554
40.31000 228.191
40.32000 227.333
40.33000 226.595
40.34000 224.428
40.35000 222.412
40.36000 221.075
40.37000 222.176
40.38000 223.494
40.39000 223.690
40.40000 221.156
40.41000 218.498
40.42000 216.831
40.43000 210.336
40.44000 205.590
40.45000 204.650
40.46000 207.899
40.47000 211.146
40.48000 213.835
40.49000 216.124
40.50000 218.367
40.51000 220.820
40.52000 223.279
40.53000 225.491
40.54000 224.087
40.55000 221.488
40.56000 218.788
40.57000 215.257
40.58000 211.541
40.59000 208.361
40.60000 216.437
40.61000 224.611
40.62000 229.943
40.63000 225.464
40.64000 220.155
40.65000 216.362
40.66000 216.133
40.67000 216.053
40.68000 216.004
40.69000 210.367
40.70000 206.265
40.71000 206.258
40.72000 210.582
40.73000 214.869
40.74000 214.424
40.75000 210.710
40.76000 207.079
40.77000 210.432
40.78000 216.781
40.79000 222.155
40.80000 214.069
40.81000 201.684
40.82000 191.163
40.83000 195.334
40.84000 202.650
40.85000 208.871
40.86000 208.125
40.87000 206.696
40.88000 205.886
40.89000 207.139
40.90000 208.556
40.91000 209.292
40.92000 208.478
40.93000 207.604
40.94000 207.072
40.95000 205.147
40.96000 203.760
40.97000 205.086
40.98000 209.166
40.99000 213.226
41.00000 215.122
41.01000 215.579
41.02000 216.024
41.03000 213.272
41.04000 209.259
41.05000 205.187
41.06000 200.327
41.07000 195.226
41.08000 191.646
41.09000 199.531
41.10000 209.778
41.11000 218.433
41.12000 216.920
41.13000 214.541
41.14000 211.987
41.15000 208.871
41.16000 205.713
41.17000 202.685
41.18000 199.943
41.19000 197.211
41.20000 195.571
41.21000 208.523
41.22000 217.823
41.23000 220.681
41.24000 217.262
41.25000 213.864
41.26000 212.240
41.27000 211.757
41.28000 211.286
41.29000 211.873
41.30000 212.873
41.31000 213.443
41.32000 208.730
41.33000 202.444
41.34000 197.119
41.35000 198.713
41.36000 201.678
41.37000 204.165
41.38000 203.119
41.39000 201.880
41.40000 201.409
41.41000 203.321
41.42000 205.404
41.43000 207.491
41.44000 209.587
41.45000 211.684
41.46000 212.923
41.47000 205.448
41.48000 200.119
41.49000 198.173
41.50000 199.393
41.51000 200.615
41.52000 202.056
41.53000 203.631
41.54000 205.161
41.55000 204.783
41.56000 203.662
41.57000 202.986
41.58000 207.507
41.59000 213.518
41.60000 219.129
41.61000 221.980
41.62000 224.305
41.63000 226.241
41.64000 217.564
41.65000 209.322
41.66000 203.220
41.67000 203.527
41.68000 204.265
41.69000 205.652
41.70000 208.367
41.71000 211.121
41.72000 212.723
41.73000 208.743
41.74000 205.924
41.75000 204.206
41.76000 203.477
41.77000 202.789
41.78000 204.687
41.79000 208.132
41.80000 211.468
41.81000 211.484
41.82000 210.222
41.83000 208.444
41.84000 200.966
41.85000 191.911
41.86000 185.120
41.87000 193.303
41.88000 204.230
41.89000 213.266
41.90000 205.060
41.91000 196.670
41.92000 190.475
41.93000 190.633
41.94000 191.193
41.95000 192.749
41.96000 196.272
41.97000 199.849
41.98000 201.895
41.99000 207.339
42.00000 211.147
42.01000 211.421
42.02000 208.641
42.03000 205.923
42.04000 206.714
42.05000 209.530
42.06000 212.249
42.07000 208.884
42.08000 203.459
42.09000 198.836
42.10000 202.626
42.11000 208.660
42.12000 213.457
42.13000 210.406
42.14000 205.974
42.15000 202.336
42.16000 200.243
42.17000 198.662
42.18000 198.213
42.19000 200.920
42.20000 203.814
42.21000 205.234
42.22000 203.842
42.23000 202.382
42.24000 201.560
42.25000 203.116
42.26000 204.204
42.27000 205.670
42.28000 207.451
42.29000 209.166
42.30000 207.592
42.31000 204.187
42.32000 200.908
42.33000 197.233
42.34000 193.640
42.35000 190.386
42.36000 190.508
42.37000 191.498
42.38000 192.893
42.39000 196.752
42.40000 201.027
42.41000 204.509
42.42000 205.821
42.43000 206.708
42.44000 206.879
42.45000 205.114
42.46000 203.243
42.47000 202.627
42.48000 204.322
42.49000 206.066
42.50000 207.031
42.51000 209.297
42.52000 210.851
42.53000 208.218
42.54000 202.233
42.55000 196.375
42.56000 196.136
42.57000 198.915
42.58000 201.583
42.59000 199.561
42.60000 196.062
42.61000 193.243
42.62000 196.871
42.63000 202.098
42.64000 206.330
42.65000 204.756
42.66000 202.241
42.67000 200.208
42.68000 200.238
42.69000 200.427
42.70000 201.060
42.71000 202.845
42.72000 204.689
42.73000 205.556
42.74000 204.689
42.75000 203.787
42.76000 203.297
42.77000 193.173
42.78000 186.265
42.79000 190.254
42.80000 202.639
42.81000 214.743
42.82000 215.636
42.83000 210.716
42.84000 206.008
42.85000 203.800
42.86000 202.568
42.87000 201.587
42.88000 202.883
42.89000 204.723
42.90000 206.388
42.91000 207.072
42.92000 207.604
42.93000 208.030
42.94000 206.395
42.95000 204.914
42.96000 202.676
42.97000 198.534
42.98000 194.301
42.99000 193.069
43.00000 196.981
43.01000 200.980
43.02000 203.113
43.03000 194.928
43.04000 189.376
43.05000 189.740
43.06000 194.495
43.07000 199.072
43.08000 197.290
43.09000 192.325
43.10000 187.587
43.11000 183.018
43.12000 178.830
43.13000 175.644
43.14000 181.093
43.15000 188.529
43.16000 194.095
43.17000 189.588
43.18000 183.580
43.19000 178.802
43.20000 185.498
43.21000 191.715
43.22000 197.309
43.23000 201.392
43.24000 205.406
43.25000 205.551
43.26000 199.300
43.27000 192.954
43.28000 189.633
43.29000 196.195
43.30000 200.614
43.31000 201.055
43.32000 198.653
43.33000 196.110
43.34000 188.966
43.35000 179.599
43.36000 170.691
43.37000 171.245
43.38000 174.644
43.39000 178.325
43.40000 184.333
43.41000 190.857
43.42000 195.705
43.43000 191.880
43.44000 186.818
43.45000 182.824
43.46000 183.750
43.47000 184.825
43.48000 186.953
43.49000 191.552
43.50000 196.253
43.51000 197.853
43.52000 194.509
43.53000 191.101
43.54000 189.352
43.55000 181.976
43.56000 177.068
43.57000 178.405
43.58000 184.045
43.59000 189.639
43.60000 193.864
43.61000 197.449
43.62000 200.847
43.63000 196.687
43.64000 190.639
43.65000 185.289
43.66000 185.429
43.67000 186.741
43.68000 188.023
43.69000 189.161
43.70000 190.278
43.71000 191.153
43.72000 191.642
43.73000 192.008
43.74000 191.293
43.75000 188.129
43.76000 184.871
43.77000 184.772
43.78000 189.531
43.79000 194.343
43.80000 196.763
43.81000 198.531
43.82000 199.674
43.83000 197.046
43.84000 191.913
43.85000 186.836
43.86000 183.280
43.87000 180.409
43.88000 177.698
43.89000 178.224
43.90000 179.619
43.91000 181.453
43.92000 186.582
43.93000 192.388
43.94000 196.674
43.95000 193.676
43.96000 189.727
43.97000 186.665
43.98000 183.517
43.99000 181.011
44.00000 180.492
44.01000 184.316
44.02000 188.293
44.03000 189.832
44.04000 187.756
44.05000 185.646
44.06000 185.754
44.07000 188.016
44.08000 190.267
44.09000 191.533
44.10000 192.169
44.11000 192.758
44.12000 192.161
44.13000 191.047
44.14000 189.999
44.15000 187.584
44.16000 185.006
44.17000 183.082
44.18000 185.856
44.19000 189.558
44.20000 192.059
44.21000 189.022
44.22000 185.293
44.23000 182.429
44.24000 191.098
44.25000 198.599
44.26000 203.383
44.27000 202.428
44.28000 201.288
44.29000 200.592
44.30000 200.530
44.31000 200.473
44.32000 199.666
44.33000 198.159
44.34000 196.641
44.35000 194.290
44.36000 191.425
44.37000 188.655
44.38000 188.100
44.39000 188.476
44.40000 188.828
44.41000 191.294
44.42000 194.090
44.43000 196.668
44.44000 197.748
44.45000 198.545
44.46000 199.043
44.47000 198.218
44.48000 197.234
44.49000 196.486
44.50000 197.365
44.51000 198.143
44.52000 199.111
44.53000 200.466
44.54000 201.832
44.55000 203.579
44.56000 205.853
44.57000 208.128
44.58000 208.983
44.59000 208.566
44.60000 208.242
44.61000 213.864
44.62000 223.029
44.63000 231.540
44.64000 225.910
44.65000 214.543
44.66000 203.931
44.67000 207.451
44.68000 214.177
44.69000 220.307
44.70000 222.517
44.71000 224.010
44.72000 225.571
44.73000 227.422
44.74000 229.306
44.75000 230.726
44.76000 225.484
44.77000 221.051
44.78000 220.199
44.79000 226.398
44.80000 232.784
44.81000 235.230
44.82000 232.449
44.83000 229.645
44.84000 233.084
44.85000 241.885
44.86000 250.553
44.87000 251.881
44.88000 248.989
44.89000 246.283
44.90000 247.303
44.91000 249.783
44.92000 252.088
44.93000 252.324
44.94000 252.040
44.95000 252.053
44.96000 253.948
44.97000 256.173
44.98000 257.173
44.99000 253.124
45.00000 248.527
45.01000 245.094
45.02000 250.926
45.03000 255.896
45.04000 258.043
45.05000 254.822
45.06000 251.473
45.07000 252.033
45.08000 257.589
45.09000 263.156
45.10000 266.541
45.11000 268.114
45.12000 269.657
45.13000 269.766
45.14000 269.079
45.15000 268.403
45.16000 267.917
45.17000 267.503
45.18000 267.119
45.19000 257.788
45.20000 247.336
45.21000 238.651
45.22000 240.679
45.23000 244.510
45.24000 247.104
45.25000 244.785
45.26000 241.959
45.27000 239.869
45.28000 229.368
45.29000 220.863
45.30000 217.653
45.31000 224.154
45.32000 230.865
45.33000 233.235
45.34000 230.269
45.35000 227.294
45.36000 224.720
45.37000 222.477
45.38000 220.252
45.39000 218.858
45.40000 217.910
45.41000 217.004
45.42000 216.853
45.43000 216.979
45.44000 217.094
45.45000 214.839
45.46000 212.295
45.47000 210.345
45.48000 211.856
45.49000 213.926
45.50000 215.956
45.51000 217.830
45.52000 219.690
45.53000 221.051
45.54000 208.991
45.55000 199.150
45.56000 194.422
45.57000 198.748
45.58000 203.248
45.59000 204.882
45.60000 203.129
45.61000 201.374
45.62000 198.798
45.63000 195.612
45.64000 192.492
45.65000 191.991
45.66000 192.844
45.67000 193.679
45.68000 194.214
45.69000 194.643
45.70000 195.037
45.71000 196.680
45.72000 198.411
45.73000 200.114
45.74000 201.660
45.75000 203.182
45.76000 203.524
45.77000 199.512
45.78000 195.095
45.79000 191.895
45.80000 194.473
45.81000 196.666
45.82000 197.918
45.83000 197.564
45.84000 197.183
45.85000 194.525
45.86000 189.279
45.87000 184.047
45.88000 181.959
45.89000 182.194
45.90000 182.437
45.91000 183.003
45.92000 183.729
45.93000 184.419
45.94000 184.559
45.95000 184.512
45.96000 184.469
45.97000 183.705
45.98000 182.881
45.99000 182.218
46.00000 182.423
46.01000 182.757
46.02000 182.850
46.03000 182.084
46.04000 181.242
46.05000 180.639
46.06000 177.589
46.07000 175.175
46.08000 173.289
46.09000 172.273
46.10000 171.270
46.11000 173.499
46.12000 179.261
46.13000 185.002
46.14000 185.634
46.15000 182.656
46.16000 179.838
46.17000 182.221
46.18000 187.112
46.19000 191.692
46.20000 191.789
46.21000 190.412
46.22000 189.160
46.23000 182.873
46.24000 176.332
46.25000 171.384
46.26000 174.662
46.27000 179.109
46.28000 181.474
46.29000 176.688
46.30000 171.303
46.31000 167.486
46.32000 171.649
46.33000 175.065
46.34000 177.119
46.35000 177.007
46.36000 176.867
46.37000 174.400
46.38000 169.488
46.39000 164.600
46.40000 165.531
46.41000 170.400
46.42000 175.180
46.43000 177.308
46.44000 178.204
46.45000 178.857
46.46000 176.188
46.47000 172.466
46.48000 169.098
46.49000 166.740
46.50000 164.854
46.51000 163.878
46.52000 167.423
46.53000 171.583
46.54000 175.449
46.55000 178.343
46.56000 181.160
46.57000 183.135
46.58000 179.494
46.59000 176.579
46.60000 173.577
46.61000 170.442
46.62000 167.305
46.63000 164.539
46.64000 162.145
46.65000 159.766
46.66000 162.348
46.67000 168.133
46.68000 173.757
46.69000 175.020
46.70000 174.324
46.71000 173.627
46.72000 172.923
46.73000 172.217
46.74000 171.582
46.75000 170.690
46.76000 169.862
46.77000 169.308
46.78000 170.061
46.79000 170.983
46.80000 170.627
46.81000 166.180
46.82000 161.426
46.83000 158.132
46.84000 154.027
46.85000 150.916
46.86000 151.330
46.87000 156.956
46.88000 162.630
46.89000 167.856
46.90000 172.648
46.91000 177.405
46.92000 177.874
46.93000 175.642
46.94000 173.381
46.95000 170.377
46.96000 167.052
46.97000 163.718
46.98000 160.279
46.99000 156.808
47.00000 153.701
47.01000 158.493
47.02000 164.033
47.03000 168.890
47.04000 170.606
47.05000 171.931
47.06000 173.088
47.07000 173.725
47.08000 174.325
47.09000 174.737
47.10000 167.395
47.11000 161.712
47.12000 160.813
47.13000 166.729
47.14000 172.695
47.15000 174.123
47.16000 171.333
47.17000 168.566
47.18000 167.102
47.19000 166.452
47.20000 165.680
47.21000 162.101
47.22000 157.344
47.23000 153.231
47.24000 156.545
47.25000 161.977
47.26000 166.816
47.27000 165.818
47.28000 163.991
47.29000 162.241
47.30000 160.834
47.31000 159.469
47.32000 158.280
47.33000 157.622
47.34000 156.998
47.35000 156.576
47.36000 159.658
47.37000 162.031
47.38000 163.857
47.39000 164.933
47.40000 166.004
47.41000 167.250
47.42000 168.651
47.43000 170.038
47.44000 171.230
47.45000 172.285
47.46000 173.234
47.47000 171.938
47.48000 169.733
47.49000 167.319
47.50000 162.610
47.51000 157.272
47.52000 152.542
47.53000 156.413
47.54000 161.117
47.55000 164.407
47.56000 161.669
47.57000 158.249
47.58000 155.160
47.59000 153.025
47.60000 150.950
47.61000 149.563
47.62000 151.937
47.63000 153.771
47.64000 154.734
47.65000 154.546
47.66000 154.353
47.67000 154.750
47.68000 155.653
47.69000 156.546
47.70000 156.268
47.71000 155.342
47.72000 154.583
47.73000 157.171
47.74000 161.067
47.75000 164.641
47.76000 164.854
47.77000 164.177
47.78000 163.580
47.79000 162.722
47.80000 161.944
47.81000 161.263
47.82000 160.985
47.83000 160.749
47.84000 160.966
47.85000 162.439
47.86000 163.985
47.87000 165.005
47.88000 162.544
47.89000 160.668
47.90000 160.784
47.91000 163.437
47.92000 166.087
47.93000 163.831
47.94000 157.520
47.95000 151.292
47.96000 147.981
47.97000 146.328
47.98000 144.875
47.99000 147.137
48.00000 150.800
48.01000 153.972
48.02000 152.287
48.03000 149.361
48.04000 146.798
48.05000 154.133
48.06000 161.850
48.07000 167.720
48.08000 166.283
48.09000 164.094
48.10000 161.688
48.11000 158.700
48.12000 155.681
48.13000 153.714
48.14000 151.855
48.15000 150.494
48.16000 149.053
48.17000 147.516
48.18000 145.997
48.19000 150.076
48.20000 158.608
48.21000 167.013
48.22000 167.085
48.23000 162.837
48.24000 158.828
48.25000 158.987
48.26000 160.664
48.27000 162.079
48.28000 161.025
48.29000 159.363
48.30000 157.916
48.31000 163.941
48.32000 170.113
48.33000 173.771
48.34000 167.837
48.35000 160.966
48.36000 156.570
48.37000 158.584
48.38000 160.925
48.39000 162.430
48.40000 155.914
48.41000 151.050
48.42000 149.472
48.43000 151.766
48.44000 154.052
48.45000 152.879
48.46000 149.057
48.47000 145.299
48.48000 146.222
48.49000 149.450
48.50000 152.604
48.51000 154.563
48.52000 156.101
48.53000 157.179
48.54000 154.132
48.55000 150.106
48.56000 146.622
48.57000 147.261
48.58000 148.345
48.59000 149.821
48.60000 152.738
48.61000 155.789
48.62000 158.420
48.63000 160.004
48.64000 161.537
48.65000 162.509
48.66000 167.310
48.67000 170.841
48.68000 169.947
48.69000 164.038
48.70000 158.148
48.71000 156.405
48.72000 157.721
48.73000 159.012
48.74000 161.359
48.75000 164.128
48.76000 166.590
48.77000 164.336
48.78000 160.482
48.79000 156.859
48.80000 155.225
48.81000 154.046
48.82000 153.031
48.83000 156.989
48.84000 160.961
48.85000 164.342
48.86000 165.623
48.87000 166.719
48.88000 165.066
48.89000 156.778
48.90000 148.197
48.91000 142.833
48.92000 148.557
48.93000 152.805
48.94000 155.694
48.95000 157.103
48.96000 158.494
48.97000 157.518
48.98000 154.859
48.99000 152.255
49.00000 150.635
49.01000 149.532
49.02000 148.546
49.03000 149.234
49.04000 150.472
49.05000 151.957
49.06000 155.459
49.07000 159.406
49.08000 162.778
49.09000 159.670
49.10000 156.278
49.11000 153.738
49.12000 154.116
49.13000 154.737
49.14000 154.765
49.15000 153.409
49.16000 151.997
49.17000 151.127
49.18000 149.912
49.19000 149.037
49.20000 148.832
49.21000 149.329
49.22000 149.828
49.23000 150.571
49.24000 151.481
49.25000 152.370
49.26000 151.586
49.27000 150.091
49.28000 148.749
49.29000 149.503
49.30000 150.919
49.31000 152.074
49.32000 151.192
49.33000 149.877
49.34000 148.762
49.35000 147.739
49.36000 146.892
49.37000 146.488
49.38000 147.545
49.39000 148.717
49.40000 149.046
49.41000 147.478
49.42000 145.838
49.43000 144.842
49.44000 146.508
49.45000 147.716
49.46000 146.800
49.47000 143.747
49.48000 140.745
49.49000 142.638
49.50000 147.763
49.51000 152.759
49.52000 153.704
49.53000 152.874
49.54000 152.190
49.55000 153.390
49.56000 155.165
49.57000 156.734
49.58000 156.765
49.59000 156.483
49.60000 156.244
49.61000 155.807
49.62000 155.421
49.63000 155.048
49.64000 154.718
49.65000 154.391
49.66000 153.026
49.67000 149.404
49.68000 145.705
49.69000 143.493
49.70000 142.967
49.71000 142.605
49.72000 145.544
49.73000 151.669
49.74000 157.718
49.75000 157.493
49.76000 153.275
49.77000 149.172
49.78000 145.496
49.79000 142.174
49.80000 139.266
49.81000 141.391
49.82000 144.999
49.83000 148.525
49.84000 151.464
49.85000 154.288
49.86000 156.654
49.87000 150.222
49.88000 143.968
49.89000 140.871
49.90000 147.484
49.91000 154.779
49.92000 159.451
49.93000 158.616
49.94000 157.606
49.95000 157.012
49.96000 156.136
49.97000 155.516
49.98000 155.295
49.99000 155.444
50.00000 155.590
50.01000 155.598
50.02000 155.520
50.03000 155.444
50.04000 150.879
50.05000 144.772
50.06000 139.258
50.07000 140.568
50.08000 143.819
50.09000 146.848
50.10000 148.357
50.11000 149.580
50.12000 150.597
50.13000 152.370
50.14000 153.911
50.15000 154.861
50.16000 154.052
50.17000 153.126
50.18000 154.349
50.19000 159.926
50.20000 165.630
50.21000 168.933
50.22000 159.774
50.23000 153.303
50.24000 151.601
50.25000 154.147
50.26000 156.601
50.27000 153.407
50.28000 146.869
50.29000 140.541
50.30000 143.077
50.31000 148.852
50.32000 154.238
50.33000 155.382
50.34000 155.363
50.35000 155.388
50.36000 155.702
50.37000 156.068
50.38000 156.371
50.39000 161.407
50.40000 165.997
50.41000 170.509
50.42000 174.801
50.43000 179.080
50.44000 181.299
50.45000 179.487
50.46000 177.569
50.47000 176.476
50.48000 174.983
50.49000 173.936
50.50000 169.703
50.51000 162.743
50.52000 156.011
50.53000 161.680
50.54000 174.436
50.55000 186.746
50.56000 186.194
50.57000 180.957
50.58000 176.511
50.59000 180.268
50.60000 186.192
50.61000 191.405
50.62000 192.150
50.63000 192.117
50.64000 192.090
50.65000 183.803
50.66000 176.279
50.67000 172.336
50.68000 178.304
50.69000 184.850
50.70000 188.180
50.71000 185.433
50.72000 182.542
50.73000 180.923
50.74000 180.062
50.75000 179.461
50.76000 175.879
50.77000 169.841
50.78000 163.921
50.79000 163.716
50.80000 166.661
50.81000 169.495
50.82000 168.735
50.83000 166.754
50.84000 164.909
50.85000 164.407
50.86000 164.247
50.87000 163.969
50.88000 162.976
50.89000 161.864
50.90000 160.959
50.91000 163.300
50.92000 165.481
50.93000 166.333
50.94000 163.632
50.95000 160.737
50.96000 159.624
50.97000 161.759
50.98000 163.963
50.99000 165.176
51.00000 163.456
51.01000 162.270
51.02000 162.064
51.03000 162.634
51.04000 163.149
51.05000 161.276
51.06000 158.131
51.07000 155.113
51.08000 154.566
51.09000 154.894
51.10000 155.163
51.11000 154.877
51.12000 154.456
51.13000 154.417
51.14000 156.590
51.15000 159.118
51.16000 161.157
51.17000 153.977
51.18000 147.416
51.19000 142.589
51.20000 142.238
51.21000 142.115
51.22000 142.592
51.23000 144.123
51.24000 145.674
51.25000 146.513
51.26000 145.245
51.27000 144.374
51.28000 143.060
51.29000 141.410
51.30000 139.813
51.31000 140.245
51.32000 141.721
51.33000 143.133
51.34000 139.987
51.35000 135.570
51.36000 131.813
51.37000 133.944
51.38000 137.470
51.39000 140.498
51.40000 140.762
51.41000 140.601
51.42000 140.472
51.43000 142.629
51.44000 144.545
51.45000 146.387
51.46000 148.048
51.47000 149.700
51.48000 149.206
51.49000 145.068
51.50000 140.869
51.51000 138.641
51.52000 137.395
51.53000 136.568
51.54000 139.205
51.55000 144.388
51.56000 149.438
51.57000 149.829
51.58000 147.908
51.59000 146.076
51.60000 146.353
51.61000 147.272
51.62000 147.896
51.63000 146.009
51.64000 143.549
51.65000 141.291
51.66000 140.109
51.67000 139.085
51.68000 138.273
51.69000 138.618
51.70000 138.977
51.71000 138.852
51.72000 137.562
51.73000 136.220
51.74000 135.242
51.75000 134.860
51.76000 134.486
51.77000 134.292
51.78000 139.391
51.79000 142.813
51.80000 142.605
51.81000 139.826
51.82000 137.128
51.83000 137.020
51.84000 138.154
51.85000 139.231
51.86000 138.128
51.87000 136.450
51.88000 135.477
51.89000 140.232
51.90000 146.245
51.91000 150.021
51.92000 142.324
51.93000 133.009
51.94000 125.677
51.95000 127.688
51.96000 129.921
51.97000 132.012
51.98000 133.774
51.99000 135.524
52.00000 137.245
52.01000 138.921
52.02000 140.596
52.03000 141.452
52.04000 144.369
52.05000 146.302
52.06000 145.305
52.07000 142.308
52.08000 139.397
52.09000 138.990
52.10000 139.742
52.11000 140.454
52.12000 140.115
52.13000 139.499
52.14000 139.067
52.15000 140.063
52.16000 141.361
52.17000 142.160
52.18000 140.498
52.19000 138.503
52.20000 136.947
52.21000 138.116
52.22000 139.219
52.23000 139.952
52.24000 139.855
52.25000 139.727
52.26000 139.504
52.27000 139.137
52.28000 138.768
52.29000 138.583
52.30000 139.139
52.31000 139.501
52.32000 139.012
52.33000 137.963
52.34000 136.882
52.35000 134.938
52.36000 132.609
52.37000 130.412
52.38000 130.760
52.39000 131.791
52.40000 132.482
52.41000 130.651
52.42000 128.307
52.43000 127.203
52.44000 131.982
52.45000 137.521
52.46000 141.804
52.47000 140.849
52.48000 139.783
52.49000 139.247
52.50000 139.861
52.51000 140.514
52.52000 141.069
52.53000 141.481
52.54000 141.891
52.55000 141.051
52.56000 139.009
52.57000 136.993
52.58000 137.123
52.59000 138.616
52.60000 140.042
52.61000 139.804
52.62000 138.848
52.63000 137.950
52.64000 136.287
52.65000 134.564
52.66000 132.859
52.67000 131.276
52.68000 129.718
52.69000 128.387
52.70000 128.095
52.71000 127.932
52.72000 127.807
52.73000 133.960
52.74000 139.165
52.75000 142.397
52.76000 141.498
52.77000 140.469
52.78000 138.803
52.79000 136.237
52.80000 133.665
52.81000 135.480
52.82000 141.344
52.83000 147.115
52.84000 146.398
52.85000 141.710
52.86000 137.083
52.87000 133.868
52.88000 131.241
52.89000 128.781
52.90000 130.985
52.91000 134.190
52.92000 137.023
52.93000 137.324
52.94000 137.150
52.95000 137.353
52.96000 139.219
52.97000 141.282
52.98000 142.848
52.99000 140.887
53.00000 139.164
53.01000 137.358
53.02000 135.386
53.03000 133.409
53.04000 131.929
53.05000 131.128
53.06000 130.330
53.07000 133.628
53.08000 140.553
53.09000 147.380
53.10000 148.250
53.11000 145.603
53.12000 143.084
53.13000 143.272
53.14000 144.549
53.15000 145.740
53.16000 145.248
53.17000 144.387
53.18000 143.330
53.19000 140.995
53.20000 138.428
53.21000 136.693
53.22000 138.477
53.23000 140.656
53.24000 142.295
53.25000 140.602
53.26000 139.117
53.27000 140.062
53.28000 145.752
53.29000 151.565
53.30000 155.434
53.31000 156.749
53.32000 158.052
53.33000 156.741
53.34000 153.207
53.35000 149.743
53.36000 150.031
53.37000 152.458
53.38000 154.844
53.39000 156.439
53.40000 157.727
53.41000 158.923
53.42000 161.058
53.43000 163.207
53.44000 164.586
53.45000 161.153
53.46000 156.886
53.47000 152.793
53.48000 149.415
53.49000 146.114
53.50000 143.654
53.51000 144.195
53.52000 144.752
53.53000 143.664
53.54000 139.479
53.55000 135.221
53.56000 135.112
53.57000 140.251
53.58000 145.401
53.59000 146.697
53.60000 144.836
53.61000 143.048
53.62000 144.735
53.63000 148.333
53.64000 151.606
53.65000 148.884
53.66000 143.915
53.67000 139.319
53.68000 138.396
53.69000 138.405
53.70000 138.000
53.71000 135.114
53.72000 131.813
53.73000 129.719
53.74000 132.371
53.75000 135.507
53.76000 137.820
53.77000 138.524
53.78000 139.002
53.79000 139.467
53.80000 139.909
53.81000 140.351
53.82000 140.141
53.83000 139.140
53.84000 138.139
53.85000 139.734
53.86000 143.362
53.87000 146.895
53.88000 146.366
53.89000 143.682
53.90000 140.900
53.91000 136.432
53.92000 131.352
53.93000 126.675
53.94000 126.977
53.95000 128.338
53.96000 129.906
53.97000 132.663
53.98000 135.611
53.99000 137.707
54.00000 136.575
54.01000 135.131
54.02000 134.076
54.03000 130.959
54.04000 128.476
54.05000 127.381
54.06000 128.721
54.07000 130.106
54.08000 134.430
54.09000 142.196
54.10000 149.948
54.11000 148.363
54.12000 139.729
54.13000 131.341
54.14000 132.384
54.15000 138.259
54.16000 143.680
54.17000 141.779
54.18000 137.317
54.19000 133.227
54.20000 133.030
54.21000 133.673
54.22000 134.673
54.23000 137.646
54.24000 140.921
54.25000 142.618
54.26000 138.544
54.27000 133.938
54.28000 130.611
54.29000 129.835
54.30000 129.331
54.31000 130.719
54.32000 135.310
54.33000 139.953
54.34000 141.087
54.35000 138.270
54.36000 135.458
54.37000 135.206
54.38000 136.816
54.39000 138.373
54.40000 138.096
54.41000 136.911
54.42000 135.796
54.43000 135.758
54.44000 136.083
54.45000 136.380
54.46000 138.460
54.47000 140.665
54.48000 143.036
54.49000 146.290
54.50000 149.674
54.51000 151.052
54.52000 145.357
54.53000 139.044
54.54000 134.533
54.55000 132.083
54.56000 130.282
54.57000 130.171
54.58000 132.822
54.59000 135.512
54.60000 138.141
54.61000 140.706
54.62000 143.259
54.63000 143.865
54.64000 143.102
54.65000 142.334
54.66000 141.407
54.67000 140.403
54.68000 139.560
54.69000 140.999
54.70000 143.182
54.71000 145.164
54.72000 144.307
54.73000 143.002
54.74000 141.900
54.75000 141.842
54.76000 141.930
54.77000 141.593
54.78000 139.808
54.79000 137.904
54.80000 136.558
54.81000 138.044
54.82000 139.259
54.83000 140.485
54.84000 141.727
54.85000 142.970
54.86000 143.566
54.87000 143.489
54.88000 143.413
54.89000 145.780
54.90000 149.760
54.91000 153.530
54.92000 151.211
54.93000 146.083
54.94000 141.352
54.95000 141.954
54.96000 144.235
54.97000 146.296
54.98000 143.274
54.99000 139.675
55.00000 137.020
55.01000 139.009
55.02000 141.623
55.03000 143.443
55.04000 142.656
55.05000 141.666
55.06000 140.974
55.07000 139.370
55.08000 138.132
55.09000 137.751
55.10000 138.671
55.11000 139.604
55.12000 140.761
55.13000 142.143
55.14000 143.516
55.15000 145.551
55.16000 147.984
55.17000 150.258
55.18000 148.264
55.19000 144.370
55.20000 140.891
55.21000 142.705
55.22000 146.126
55.23000 149.201
55.24000 151.550
55.25000 153.479
55.26000 155.354
55.27000 156.975
55.28000 158.563
55.29000 159.138
55.30000 156.503
55.31000 153.631
55.32000 151.647
55.33000 154.502
55.34000 156.773
55.35000 157.431
55.36000 155.726
55.37000 154.000
55.38000 155.524
55.39000 160.161
55.40000 164.762
55.41000 168.744
55.42000 172.272
55.43000 175.861
55.44000 180.916
55.45000 186.603
55.46000 192.040
55.47000 194.478
55.48000 196.038
55.49000 197.432
55.50000 205.405
55.51000 213.475
55.52000 220.499
55.53000 222.767
55.54000 224.450
55.55000 227.155
55.56000 232.983
55.57000 239.029
55.58000 243.157
55.59000 255.809
55.60000 265.470
55.61000 275.949
55.62000 287.581
55.63000 299.221
55.64000 309.652
55.65000 318.970
55.66000 328.205
55.67000 340.725
55.68000 354.969
55.69000 369.206
55.70000 383.296
55.71000 397.324
55.72000 411.208
55.73000 423.462
55.74000 435.254
55.75000 445.743
55.76000 461.650
55.77000 476.341
55.78000 490.935
55.79000 505.104
55.80000 519.222
55.81000 532.091
55.82000 541.270
55.83000 550.206
55.84000 556.235
55.85000 556.137
55.86000 555.934
55.87000 560.744
55.88000 572.370
55.89000 584.035
55.90000 595.287
55.91000 606.174
55.92000 616.949
55.93000 613.791
55.94000 602.680
55.95000 591.822
55.96000 586.279
55.97000 582.868
55.98000 579.452
55.99000 575.987
56.00000 572.508
56.01000 569.430
56.02000 557.213
56.03000 545.229
56.04000 533.902
56.05000 525.342
56.06000 517.093
56.07000 509.022
56.08000 501.459
56.09000 493.927
56.10000 488.909
56.11000 461.809
56.12000 441.329
56.13000 425.255
56.14000 414.952
56.15000 404.674
56.16000 394.217
56.17000 383.607
56.18000 373.123
56.19000 358.497
56.20000 341.937
56.21000 325.566
56.22000 312.885
56.23000 301.634
56.24000 290.472
56.25000 280.226
56.26000 270.220
56.27000 261.418
56.28000 243.906
56.29000 227.538
56.30000 214.254
56.31000 213.516
56.32000 214.117
56.33000 212.837
56.34000 206.386
56.35000 199.637
56.36000 195.198
56.37000 190.444
56.38000 186.939
56.39000 185.156
56.40000 185.546
56.41000 185.943
56.42000 186.175
56.43000 186.273
56.44000 186.369
56.45000 178.689
56.46000 167.073
56.47000 156.053
56.48000 155.945
56.49000 159.919
56.50000 163.141
56.51000 159.020
56.52000 153.039
56.53000 147.808
56.54000 143.410
56.55000 139.759
56.56000 136.553
56.57000 135.087
56.58000 133.799
56.59000 133.453
56.60000 135.615
56.61000 137.911
56.62000 139.402
56.63000 143.331
56.64000 146.246
56.65000 144.509
56.66000 137.125
56.67000 129.749
56.68000 128.196
56.69000 131.229
56.70000 134.216
56.71000 134.965
56.72000 134.541
56.73000 134.123
56.74000 133.796
56.75000 133.502
56.76000 133.207
56.77000 132.907
56.78000 132.606
56.79000 132.344
56.80000 133.572
56.81000 134.822
56.82000 135.577
56.83000 134.456
56.84000 133.155
56.85000 132.217
56.86000 132.211
56.87000 132.252
56.88000 132.278
56.89000 130.447
56.90000 129.088
56.91000 127.366
56.92000 125.222
56.93000 123.076
56.94000 120.639
56.95000 117.981
56.96000 115.368
56.97000 118.409
56.98000 124.141
56.99000 129.610
57.00000 130.839
57.01000 130.590
57.02000 130.243
57.03000 129.026
57.04000 127.603
57.05000 126.374
57.06000 129.170
57.07000 132.066
57.08000 134.144
57.09000 133.238
57.10000 132.058
57.11000 130.251
57.12000 126.891
57.13000 123.459
57.14000 121.291
57.15000 121.220
57.16000 121.193
57.17000 123.057
57.18000 127.042
57.19000 130.993
57.20000 128.979
57.21000 122.609
57.22000 116.360
57.23000 119.686
57.24000 127.441
57.25000 134.757
57.26000 135.434
57.27000 133.875
57.28000 132.163
57.29000 129.152
57.30000 125.846
57.31000 123.008
57.32000 124.597
57.33000 126.489
57.34000 128.516
57.35000 131.016
57.36000 133.557
57.37000 133.734
57.38000 128.253
57.39000 122.527
57.40000 118.960
57.41000 123.918
57.42000 127.576
57.43000 129.681
57.44000 130.109
57.45000 130.522
57.46000 128.929
57.47000 125.925
57.48000 122.985
57.49000 124.478
57.50000 127.940
57.51000 131.075
57.52000 129.561
57.53000 126.536
57.54000 124.106
57.55000 126.478
57.56000 129.897
57.57000 132.814
57.58000 129.714
57.59000 126.395
57.60000 123.883
57.61000 124.111
57.62000 124.564
57.63000 125.543
57.64000 127.738
57.65000 129.982
57.66000 131.359
57.67000 129.300
57.68000 127.795
57.69000 127.520
57.70000 128.521
57.71000 129.504
57.72000 128.478
57.73000 126.091
57.74000 123.759
57.75000 124.932
57.76000 127.599
57.77000 129.930
57.78000 127.760
57.79000 124.179
57.80000 121.024
57.81000 121.158
57.82000 121.982
57.83000 122.680
57.84000 122.927
57.85000 123.083
57.86000 122.665
57.87000 120.367
57.88000 117.922
57.89000 116.704
57.90000 118.225
57.91000 119.847
57.92000 120.828
57.93000 118.745
57.94000 117.239
57.95000 118.494
57.96000 122.497
57.97000 126.467
57.98000 127.442
57.99000 126.458
58.00000 125.499
58.01000 121.517
58.02000 116.437
58.03000 112.144
58.04000 117.811
58.05000 126.494
58.06000 133.720
58.07000 130.209
58.08000 124.528
58.09000 119.746
58.10000 117.487
58.11000 115.872
58.12000 115.372
58.13000 118.395
58.14000 121.676
58.15000 123.335
58.16000 121.497
58.17000 119.540
58.18000 118.374
58.19000 119.013
58.20000 119.477
58.21000 120.974
58.22000 123.459
58.23000 125.899
58.24000 124.774
58.25000 121.400
58.26000 118.121
58.27000 115.375
58.28000 112.982
58.29000 110.735
58.30000 110.246
58.31000 110.269
58.32000 110.668
58.33000 113.715
58.34000 117.276
58.35000 120.253
58.36000 119.956
58.37000 119.377
58.38000 118.513
58.39000 116.782
58.40000 114.990
58.41000 114.557
58.42000 116.950
58.43000 119.431
58.44000 120.885
58.45000 118.559
58.46000 116.903
58.47000 117.585
58.48000 120.413
58.49000 123.194
58.50000 122.796
58.51000 120.466
58.52000 118.206
58.53000 117.835
58.54000 118.224
58.55000 118.790
58.56000 121.367
58.57000 124.510
58.58000 127.264
58.59000 127.390
58.60000 127.024
58.61000 126.721
58.62000 126.266
58.63000 125.875
58.64000 125.385
58.65000 124.605
58.66000 123.806
58.67000 122.710
58.68000 121.015
58.69000 119.303
58.70000 118.315
58.71000 118.944
58.72000 119.390
58.73000 118.731
58.74000 117.098
58.75000 115.483
58.76000 114.873
58.77000 114.853
58.78000 114.834
58.79000 116.430
58.80000 118.546
58.81000 120.409
58.82000 119.540
58.83000 117.928
58.84000 116.850
58.85000 119.223
58.86000 122.215
58.87000 124.680
58.88000 120.335
58.89000 116.135
58.90000 113.019
58.91000 112.980
58.92000 113.129
58.93000 114.143
58.94000 116.832
58.95000 119.564
58.96000 121.114
58.97000 113.657
58.98000 108.447
58.99000 107.909
59.00000 111.334
59.01000 114.728
59.02000 116.455
59.03000 117.238
59.04000 117.993
59.05000 116.852
59.06000 115.090
59.07000 113.369
59.08000 112.068
59.09000 110.878
59.10000 110.108
59.11000 111.953
59.12000 114.247
59.13000 116.124
59.14000 117.019
59.15000 117.667
59.16000 117.923
59.17000 117.103
59.18000 116.222
59.19000 114.866
59.20000 112.623
59.21000 110.360
59.22000 109.098
59.23000 114.369
59.24000 118.027
59.25000 120.386
59.26000 121.686
59.27000 122.955
59.28000 122.812
59.29000 121.898
59.30000 121.019
59.31000 118.197
59.32000 114.874
59.33000 111.816
59.34000 111.339
59.35000 111.515
59.36000 111.584
59.37000 111.021
59.38000 110.353
59.39000 109.811
59.40000 111.741
59.41000 113.518
59.42000 114.059
59.43000 111.328
59.44000 108.422
59.45000 108.466
59.46000 113.842
59.47000 119.328
59.48000 122.334
59.49000 123.847
59.50000 124.882
59.51000 124.694
59.52000 123.546
59.53000 122.365
59.54000 119.818
59.55000 116.551
59.56000 113.418
59.57000 114.430
59.58000 116.769
59.59000 118.821
59.60000 118.226
59.61000 116.987
59.62000 116.008
59.63000 116.516
59.64000 117.259
59.65000 117.858
59.66000 117.022
59.67000 116.232
59.68000 115.386
59.69000 114.394
59.70000 113.394
59.71000 112.329
59.72000 111.149
59.73000 109.967
59.74000 109.330
59.75000 111.223
59.76000 112.515
59.77000 113.224
59.78000 113.490
59.79000 113.749
59.80000 113.746
59.81000 113.610
59.82000 113.481
59.83000 112.866
59.84000 112.137
59.85000 111.587
59.86000 112.616
59.87000 114.015
59.88000 115.329
59.89000 116.174
59.90000 116.949
59.91000 117.567
59.92000 118.069
59.93000 118.466
59.94000 118.869
59.95000 119.285
59.96000 119.702
59.97000 121.175
59.98000 124.423
59.99000 127.699
60.00000 129.430
60.01000 119.805
60.02000 113.297
60.03000 112.454
60.04000 115.736
60.05000 118.892
60.06000 117.706
60.07000 114.385
60.08000 111.221
60.09000 111.243
60.10000 112.254
60.11000 113.504
60.12000 116.772
60.13000 120.495
60.14000 123.499
60.15000 122.700
60.16000 121.346
60.17000 120.274
60.18000 116.303
60.19000 112.909
60.20000 111.339
60.21000 114.123
60.22000 117.094
60.23000 117.496
60.24000 113.730
60.25000 109.905
60.26000 107.924
60.27000 112.234
60.28000 115.140
60.29000 117.450
60.30000 119.343
60.31000 121.149
60.32000 120.231
60.33000 118.020
60.34000 115.920
60.35000 114.350
60.36000 113.059
60.37000 112.287
60.38000 115.691
60.39000 120.002
60.40000 124.114
60.41000 127.210
60.42000 130.163
60.43000 132.483
60.44000 133.207
60.45000 133.682
60.46000 132.209
60.47000 126.250
60.48000 120.112
60.49000 117.711
60.50000 121.162
60.51000 124.682
60.52000 126.471
60.53000 127.222
60.54000 127.700
60.55000 125.266
60.56000 120.864
60.57000 116.443
60.58000 111.453
60.59000 106.204
60.60000 101.238
60.61000 103.532
60.62000 107.728
60.63000 111.714
60.64000 114.088
60.65000 116.125
60.66000 117.998
60.67000 119.074
60.68000 120.043
60.69000 120.797
60.70000 117.520
60.71000 114.662
60.72000 114.842
60.73000 121.784
60.74000 128.973
60.75000 131.522
60.76000 127.065
60.77000 122.536
60.78000 119.582
60.79000 118.187
60.80000 116.797
60.81000 115.805
60.82000 115.073
60.83000 114.428
60.84000 116.092
60.85000 118.777
60.86000 121.309
60.87000 119.680
60.88000 117.039
60.89000 114.765
60.90000 115.180
60.91000 116.136
60.92000 116.959
60.93000 117.153
60.94000 117.267
60.95000 117.355
60.96000 117.187
60.97000 117.040
60.98000 117.150
60.99000 117.812
61.00000 118.493
61.01000 117.635
61.02000 114.536
61.03000 111.418
61.04000 110.358
61.05000 111.255
61.06000 112.153
61.07000 113.023
61.08000 113.877
61.09000 114.767
61.10000 116.548
61.11000 118.710
61.12000 120.739
61.13000 120.803
61.14000 120.339
61.15000 119.424
61.16000 115.346
61.17000 110.655
61.18000 108.603
61.19000 118.487
61.20000 129.828
61.21000 138.500
61.22000 128.785
61.23000 120.123
61.24000 114.576
61.25000 115.489
61.26000 116.602
61.27000 118.386
61.28000 121.114
61.29000 123.847
61.30000 124.623
61.31000 123.613
61.32000 122.602
61.33000 121.629
61.34000 120.677
61.35000 119.632
61.36000 116.492
61.37000 112.486
61.38000 108.738
61.39000 115.704
61.40000 124.764
61.41000 132.451
61.42000 130.899
61.43000 127.626
61.44000 124.794
61.45000 123.883
61.46000 123.197
61.47000 122.676
61.48000 127.525
61.49000 131.604
61.50000 138.019
61.51000 149.115
61.52000 160.341
61.53000 171.500
61.54000 182.567
61.55000 193.629
61.56000 208.837
61.57000 227.663
61.58000 246.378
61.59000 258.585
61.60000 266.984
61.61000 275.320
61.62000 282.326
61.63000 288.803
61.64000 294.836
61.65000 289.658
61.66000 282.226
61.67000 276.925
61.68000 285.373
61.69000 296.282
61.70000 304.471
61.71000 301.251
61.72000 296.763
61.73000 293.395
61.74000 289.691
61.75000 286.782
61.76000 280.416
61.77000 267.367
61.78000 254.149
61.79000 240.458
61.80000 226.153
61.81000 211.858
61.82000 197.712
61.83000 183.727
61.84000 169.864
61.85000 162.343
61.86000 158.403
61.87000 154.542
61.88000 152.201
61.89000 150.445
61.90000 148.816
61.91000 143.264
61.92000 137.339
61.93000 131.749
61.94000 128.232
61.95000 125.070
61.96000 123.124
61.97000 126.089
61.98000 129.574
61.99000 132.164
62.00000 133.527
62.01000 134.532
62.02000 135.421
62.03000 136.096
62.04000 136.766
62.05000 135.929
62.06000 133.204
62.07000 130.477
62.08000 129.298
62.09000 129.377
62.10000 129.474
62.11000 130.364
62.12000 131.687
62.13000 133.080
62.14000 135.753
62.15000 138.902
62.16000 141.810
62.17000 138.303
62.18000 133.706
62.19000 129.273
62.20000 125.810
62.21000 122.506
62.22000 120.704
62.23000 124.753
62.24000 129.391
62.25000 132.802
62.26000 129.352
62.27000 126.399
62.28000 125.179
62.29000 127.081
62.30000 129.046
62.31000 129.435
62.32000 127.921
62.33000 126.407
62.34000 124.672
62.35000 122.774
62.36000 120.932
62.37000 121.373
62.38000 123.015
62.39000 124.673
62.40000 126.605
62.41000 128.635
62.42000 130.503
62.43000 132.895
62.44000 135.146
62.45000 136.894
62.46000 135.775
62.47000 134.203
62.48000 132.938
62.49000 132.829
62.50000 132.830
62.51000 132.831
62.52000 123.444
62.53000 115.857
62.54000 114.039
62.55000 122.252
62.56000 130.645
62.57000 132.347
62.58000 126.286
62.59000 120.232
62.60000 117.807
62.61000 118.116
62.62000 118.383
62.63000 117.104
62.64000 115.039
62.65000 113.245
62.66000 115.762
62.67000 119.774
62.68000 123.448
62.69000 125.655
62.70000 127.313
62.71000 128.777
62.72000 129.181
62.73000 129.423
62.74000 129.967
62.75000 131.602
62.76000 133.336
62.77000 134.585
62.78000 133.043
62.79000 131.763
62.80000 130.916
62.81000 130.795
62.82000 130.685
62.83000 130.108
62.84000 129.011
62.85000 127.917
62.86000 126.839
62.87000 125.782
62.88000 124.824
62.89000 127.232
62.90000 131.290
62.91000 135.133
62.92000 135.749
62.93000 135.286
62.94000 134.864
62.95000 130.713
62.96000 126.291
62.97000 122.720
62.98000 123.625
62.99000 125.180
63.00000 127.029
63.01000 129.908
63.02000 132.876
63.03000 134.992
63.04000 130.481
63.05000 126.826
63.06000 125.096
63.07000 126.480
63.08000 127.907
63.09000 128.577
63.10000 128.436
63.11000 128.296
63.12000 128.655
63.13000 129.356
63.14000 129.998
63.15000 128.824
63.16000 126.790
63.17000 125.050
63.18000 127.453
63.19000 131.194
63.20000 134.587
63.21000 133.945
63.22000 132.606
63.23000 131.466
63.24000 131.329
63.25000 131.332
63.26000 130.926
63.27000 129.141
63.28000 127.243
63.29000 125.905
63.30000 124.235
63.31000 122.958
63.32000 122.106
63.33000 121.916
63.34000 121.734
63.35000 124.907
63.36000 131.534
63.37000 138.124
63.38000 139.734
63.39000 138.010
63.40000 136.303
63.41000 135.117
63.42000 134.169
63.43000 133.185
63.44000 131.741
63.45000 130.154
63.46000 128.721
63.47000 127.556
63.48000 126.581
63.49000 126.480
63.50000 130.630
63.51000 135.346
63.52000 139.274
63.53000 140.639
63.54000 141.806
63.55000 142.620
63.56000 141.573
63.57000 140.732
63.58000 140.793
63.59000 142.214
63.60000 143.648
63.61000 143.185
63.62000 140.847
63.63000 138.525
63.64000 138.217
63.65000 139.203
63.66000 140.066
63.67000 137.703
63.68000 133.916
63.69000 130.394
63.70000 130.191
63.71000 130.988
63.72000 131.703
63.73000 134.444
63.74000 137.197
63.75000 139.218
63.76000 137.812
63.77000 135.970
63.78000 135.863
63.79000 141.207
63.80000 146.947
63.81000 150.901
63.82000 151.219
63.83000 151.366
63.84000 150.297
63.85000 147.465
63.86000 144.618
63.87000 145.235
63.88000 149.136
63.89000 153.007
63.90000 150.825
63.91000 144.954
63.92000 139.326
63.93000 139.571
63.94000 142.321
63.95000 144.796
63.96000 144.027
63.97000 142.316
63.98000 140.787
63.99000 140.663
64.00000 140.790
64.01000 140.977
64.02000 141.432
64.03000 141.919
64.04000 144.037
64.05000 151.097
64.06000 158.496
64.07000 163.533
64.08000 154.663
64.09000 147.721
64.10000 142.201
64.11000 138.671
64.12000 135.158
64.13000 138.853
64.14000 149.117
64.15000 159.286
64.16000 155.555
64.17000 143.660
64.18000 132.216
64.19000 130.814
64.20000 133.546
64.21000 136.137
64.22000 137.146
64.23000 137.712
64.24000 138.214
64.25000 147.272
64.26000 156.503
64.27000 163.199
64.28000 158.880
64.29000 153.284
64.30000 148.840
64.31000 147.765
64.32000 146.907
64.33000 146.330
64.34000 151.451
64.35000 155.374
64.36000 155.390
64.37000 150.143
64.38000 144.873
64.39000 145.756
64.40000 152.026
64.41000 158.230
64.42000 159.079
64.43000 156.855
64.44000 154.725
64.45000 154.535
64.46000 155.116
64.47000 155.524
64.48000 154.089
64.49000 152.155
64.50000 150.447
64.51000 152.868
64.52000 155.594
64.53000 157.382
64.54000 155.249
64.55000 152.682
64.56000 150.506
64.57000 149.433
64.58000 148.427
64.59000 147.759
64.60000 150.031
64.61000 151.765
64.62000 155.240
64.63000 160.975
64.64000 166.708
64.65000 166.515
64.66000 161.330
64.67000 156.207
64.68000 156.650
64.69000 160.135
64.70000 163.558
64.71000 165.771
64.72000 167.520
64.73000 169.060
64.74000 168.489
64.75000 167.368
64.76000 166.383
64.77000 169.507
64.78000 172.797
64.79000 174.993
64.80000 172.782
64.81000 170.107
64.82000 168.691
64.83000 170.709
64.84000 172.923
64.85000 174.374
64.86000 168.527
64.87000 164.107
64.88000 165.807
64.89000 175.152
64.90000 184.504
64.91000 187.701
64.92000 185.910
64.93000 184.143
64.94000 182.202
64.95000 180.224
64.96000 178.516
64.97000 181.675
64.98000 186.638
64.99000 191.456
65.00000 194.868
65.01000 197.927
65.02000 200.599
65.03000 200.727
65.04000 200.479
65.05000 200.227
65.06000 199.957
65.07000 199.685
65.08000 199.661
65.09000 200.292
65.10000 200.958
65.11000 201.388
65.12000 208.647
65.13000 214.057
65.14000 218.194
65.15000 220.803
65.16000 223.404
65.17000 224.911
65.18000 225.565
65.19000 226.208
65.20000 230.069
65.21000 235.445
65.22000 240.681
65.23000 243.549
65.24000 245.570
65.25000 247.147
65.26000 244.644
65.27000 241.155
65.28000 238.126
65.29000 244.087
65.30000 250.374
65.31000 255.801
65.32000 258.006
65.33000 259.904
65.34000 261.495
65.35000 262.309
65.36000 263.085
65.37000 263.580
65.38000 266.394
65.39000 268.472
65.40000 272.996
65.41000 280.348
65.42000 287.684
65.43000 291.154
65.44000 291.717
65.45000 292.271
65.46000 298.559
65.47000 307.436
65.48000 316.055
65.49000 320.574
65.50000 323.677
65.51000 327.041
65.52000 332.690
65.53000 338.873
65.54000 344.207
65.55000 348.828
65.56000 352.657
65.57000 359.165
65.58000 375.352
65.59000 392.413
65.60000 405.968
65.61000 410.910
65.62000 415.456
65.63000 418.317
65.64000 456.236
65.65000 484.069
65.66000 522.906
65.67000 573.976
65.68000 625.199
65.69000 699.591
65.70000 790.748
65.71000 880.126
65.72000 996.939
65.73000 1122.324
65.74000 1247.961
65.75000 1377.354
65.76000 1508.001
65.77000 1635.752
65.78000 1739.328
65.79000 1837.478
65.80000 1921.615
65.81000 1966.566
65.82000 1999.736
65.83000 2032.274
65.84000 2062.606
65.85000 2092.749
65.86000 2103.614
65.87000 2068.750
65.88000 2031.938
65.89000 2009.094
65.90000 1961.676
65.91000 1927.315
65.92000 1875.669
65.93000 1805.562
65.94000 1735.156
65.95000 1626.911
65.96000 1492.279
65.97000 1360.556
65.98000 1236.138
65.99000 1120.044
66.00000 1005.171
66.01000 907.405
66.02000 815.148
66.03000 725.214
66.04000 653.797
66.05000 586.383
66.06000 528.967
66.07000 501.835
66.08000 482.553
66.09000 461.220
66.10000 432.991
66.11000 404.203
66.12000 383.931
66.13000 383.172
66.14000 383.179
66.15000 383.184
66.16000 378.320
66.17000 374.799
66.18000 374.947
66.19000 378.859
66.20000 382.740
66.21000 383.403
66.22000 381.905
66.23000 380.442
66.24000 389.556
66.25000 402.885
66.26000 416.820
66.27000 438.770
66.28000 463.211
66.29000 487.231
66.30000 508.038
66.31000 528.177
66.32000 545.215
66.33000 582.081
66.34000 615.137
66.35000 641.316
66.36000 645.181
66.37000 647.334
66.38000 651.088
66.39000 658.382
66.40000 665.805
66.41000 670.277
66.42000 655.806
66.43000 645.376
66.44000 638.672
66.45000 635.635
66.46000 632.519
66.47000 622.393
66.48000 607.724
66.49000 593.438
66.50000 572.294
66.51000 549.260
66.52000 526.604
66.53000 508.657
66.54000 492.121
66.55000 475.323
66.56000 456.608
66.57000 437.510
66.58000 421.462
66.59000 406.985
66.60000 395.090
66.61000 385.375
66.62000 382.489
66.63000 380.098
66.64000 377.889
66.65000 376.068
66.66000 374.261
66.67000 373.189
66.68000 367.190
66.69000 362.917
66.70000 356.593
66.71000 348.331
66.72000 340.194
66.73000 341.648
66.74000 349.097
66.75000 356.333
66.76000 357.952
66.77000 357.223
66.78000 356.969
66.79000 362.329
66.80000 369.314
66.81000 374.441
66.82000 366.599
66.83000 356.261
66.84000 347.635
66.85000 354.299
66.86000 361.362
66.87000 366.168
66.88000 364.154
66.89000 361.674
66.90000 359.763
66.91000 359.022
66.92000 358.317
66.93000 357.905
66.94000 358.541
66.95000 358.993
66.96000 359.645
66.97000 360.477
66.98000 361.356
66.99000 365.320
67.00000 371.144
67.01000 376.787
67.02000 377.474
67.03000 376.199
67.04000 374.951
67.05000 374.018
67.06000 373.173
67.07000 371.593
67.08000 365.105
67.09000 357.708
67.10000 351.580
67.11000 358.858
67.12000 366.145
67.13000 372.774
67.14000 377.483
67.15000 382.069
67.16000 382.387
67.17000 374.207
67.18000 365.792
67.19000 360.958
67.20000 371.232
67.21000 378.476
67.22000 388.719
67.23000 401.581
67.24000 414.320
67.25000 419.929
67.26000 421.391
67.27000 422.804
67.28000 421.174
67.29000 418.500
67.30000 415.564
67.31000 409.851
67.32000 403.391
67.33000 398.383
67.34000 402.678
67.35000 408.627
67.36000 413.519
67.37000 409.717
67.38000 405.805
67.39000 403.063
67.40000 403.616
67.41000 404.367
67.42000 405.886
67.43000 408.878
67.44000 411.908
67.45000 413.619
67.46000 414.332
67.47000 414.830
67.48000 418.013
67.49000 423.451
67.50000 428.811
67.51000 430.194
67.52000 429.345
67.53000 428.527
67.54000 429.577
67.55000 431.236
67.56000 432.576
67.57000 430.686
67.58000 427.958
67.59000 426.089
67.60000 429.497
67.61000 433.805
67.62000 437.322
67.63000 438.567
67.64000 439.391
67.65000 438.559
67.66000 433.219
67.67000 427.625
67.68000 428.678
67.69000 442.066
67.70000 455.729
67.71000 463.317
67.72000 460.172
67.73000 457.983
67.74000 457.918
67.75000 459.570
67.76000 461.107
67.77000 457.394
67.78000 450.837
67.79000 444.536
67.80000 443.593
67.81000 444.565
67.82000 446.589
67.83000 458.725
67.84000 473.391
67.85000 485.956
67.86000 486.133
67.87000 484.282
67.88000 482.783
67.89000 485.694
67.90000 488.424
67.91000 490.580
67.92000 491.232
67.93000 491.804
67.94000 494.602
67.95000 501.389
67.96000 508.254
67.97000 512.000
67.98000 500.438
67.99000 492.523
68.00000 496.242
68.01000 509.010
68.02000 521.410
68.03000 518.795
68.04000 508.329
68.05000 498.304
68.06000 501.878
68.07000 509.740
68.08000 517.306
68.09000 522.169
68.10000 526.381
68.11000 529.867
68.12000 529.248
68.13000 527.984
68.14000 526.968
68.15000 537.810
68.16000 547.509
68.17000 553.978
68.18000 552.257
68.19000 550.133
68.20000 548.810
68.21000 548.870
68.22000 548.954
68.23000 548.999
68.24000 563.548
68.25000 573.458
68.26000 577.446
68.27000 576.999
68.28000 576.684
68.29000 581.209
68.30000 588.179
68.31000 594.834
68.32000 598.902
68.33000 601.854
68.34000 604.326
68.35000 602.623
68.36000 599.950
68.37000 599.993
68.38000 614.811
68.39000 631.855
68.40000 645.439
68.41000 639.575
68.42000 633.432
68.43000 631.079
68.44000 638.011
68.45000 645.367
68.46000 655.927
68.47000 671.832
68.48000 687.820
68.49000 696.225
68.50000 685.494
68.51000 678.297
68.52000 684.710
68.53000 700.939
68.54000 717.389
68.55000 741.189
68.56000 768.571
68.57000 794.633
68.58000 821.537
68.59000 846.700
68.60000 872.183
68.61000 900.320
68.62000 929.053
68.63000 959.950
68.64000 1002.170
68.65000 1046.023
68.66000 1080.684
68.67000 1131.144
68.68000 1172.745
68.69000 1220.177
68.70000 1281.401
68.71000 1343.208
68.72000 1392.443
68.73000 1421.448
68.74000 1450.182
68.75000 1465.000
68.76000 1544.382
68.77000 1597.778
68.78000 1640.259
68.79000 1675.152
68.80000 1710.483
68.81000 1759.171
68.82000 1814.145
68.83000 1866.287
68.84000 1956.742
68.85000 2051.483
68.86000 2151.230
68.87000 2290.732
68.88000 2438.800
68.89000 2635.960
68.90000 3079.918
68.91000 3557.960
68.92000 3932.597
68.93000 5420.944
68.94000 6682.323
68.95000 8375.910
68.96000 11056.695
68.97000 13776.047
68.98000 16858.801
68.99000 20505.447
69.00000 24158.566
69.01000 26005.160
69.02000 30894.355
69.03000 34159.055
69.04000 36721.613
69.05000 38813.676
69.06000 40876.004
69.07000 42106.402
69.08000 42958.703
69.09000 43764.246
69.10000 44410.324
69.11000 44958.289
69.12000 45536.234
69.13000 46341.867
69.14000 47194.703
69.15000 47986.750
69.16000 48484.824
69.17000 48944.059
69.18000 49300.824
69.19000 48022.910
69.20000 46907.160
69.21000 45220.469
69.22000 42274.465
69.23000 39283.188
69.24000 36495.309
69.25000 34011.750
69.26000 31531.168
69.27000 29394.930
69.28000 27596.594
69.29000 25804.764
69.30000 24585.982
69.31000 23737.441
69.32000 22904.422
69.33000 22470.979
69.34000 22212.898
69.35000 21969.873
69.36000 21355.086
69.37000 20691.021
69.38000 19948.379
69.39000 18635.010
69.40000 17207.805
69.41000 15686.072
69.42000 13724.387
69.43000 11707.145
69.44000 10153.969
69.45000 8357.774
69.46000 6921.972
69.47000 5627.408
69.48000 4633.668
69.49000 3649.842
69.50000 2891.655
69.51000 2458.881
69.52000 2028.770
69.53000 1743.202
69.54000 1593.860
69.55000 1445.064
69.56000 1337.407
69.57000 1255.384
69.58000 1174.317
69.59000 1115.977
69.60000 1067.270
69.61000 1021.576
69.62000 988.484
69.63000 961.646
69.64000 934.049
69.65000 901.173
69.66000 867.285
69.67000 835.051
69.68000 810.226
69.69000 786.295
69.70000 768.037
69.71000 750.574
69.72000 736.859
69.73000 718.978
69.74000 692.531
69.75000 665.827
69.76000 648.180
69.77000 643.121
69.78000 638.146
69.79000 632.253
69.80000 625.535
69.81000 618.802
69.82000 611.076
69.83000 602.751
69.84000 594.420
69.85000 585.937
69.86000 577.393
69.87000 569.408
69.88000 557.125
69.89000 544.893
69.90000 534.421
69.91000 535.667
69.92000 539.074
69.93000 539.924
69.94000 529.746
69.95000 518.298
69.96000 509.646
69.97000 502.254
69.98000 496.521
69.99000 493.250
70.00000 494.866
