20.00000 468.374
20.01000 471.871
20.02000 475.868
20.03000 478.260
20.04000 474.342
20.05000 469.779
20.06000 466.415
20.07000 467.078
20.08000 467.760
20.09000 467.902
20.10000 467.059
20.11000 466.195
20.12000 468.083
20.13000 473.322
20.14000 478.558
20.15000 479.238
20.16000 476.330
20.17000 473.309
20.18000 465.499
20.19000 455.147
20.20000 445.380
20.21000 445.700
20.22000 449.674
20.23000 453.333
20.24000 458.827
20.25000 464.143
20.26000 469.257
20.27000 473.206
20.28000 476.970
20.29000 478.593
20.30000 472.097
20.31000 464.815
20.32000 459.498
20.33000 463.694
20.34000 467.300
20.35000 468.287
20.36000 464.677
20.37000 460.981
20.38000 461.738
20.39000 467.711
20.40000 473.677
20.41000 473.429
20.42000 468.485
20.43000 463.569
20.44000 459.765
20.45000 456.531
20.46000 453.515
20.47000 454.030
20.48000 455.780
20.49000 457.384
20.50000 455.339
20.51000 452.750
20.52000 452.391
20.53000 464.367
20.54000 478.233
20.55000 486.839
20.56000 476.205
20.57000 463.799
20.58000 454.837
20.59000 454.898
20.60000 455.271
20.61000 456.227
20.62000 458.172
20.63000 460.132
20.64000 461.897
20.65000 463.441
20.66000 464.979
20.67000 468.516
20.68000 473.475
20.69000 478.195
20.70000 474.535
20.71000 466.731
20.72000 459.172
20.73000 455.341
20.74000 452.769
20.75000 450.422
20.76000 457.704
20.77000 466.104
20.78000 472.157
20.79000 465.729
20.80000 457.467
20.81000 451.606
20.82000 454.215
20.83000 457.563
20.84000 459.956
20.85000 470.019
20.86000 477.955
20.87000 478.809
20.88000 468.093
20.89000 457.212
20.90000 454.633
20.91000 461.040
20.92000 467.423
20.93000 464.820
20.94000 455.962
20.95000 447.238
20.96000 442.781
20.97000 440.361
20.98000 438.394
20.99000 442.893
21.00000 449.499
21.01000 455.498
21.02000 462.153
21.03000 468.158
21.04000 472.277
21.05000 466.764
21.06000 459.896
21.07000 455.837
21.08000 461.342
21.09000 467.638
21.10000 472.089
21.11000 463.810
21.12000 457.132
21.13000 455.767
21.14000 462.772
21.15000 469.881
21.16000 470.114
21.17000 463.196
21.18000 456.315
21.19000 454.780
21.20000 456.858
21.21000 458.945
21.22000 461.277
21.23000 463.723
21.24000 465.653
21.25000 460.626
21.26000 453.411
21.27000 446.892
21.28000 458.059
21.29000 471.157
21.30000 480.856
21.31000 473.841
21.32000 464.576
21.33000 456.625
21.34000 452.986
21.35000 449.685
21.36000 447.377
21.37000 449.555
21.38000 451.327
21.39000 451.706
21.40000 449.965
21.41000 448.203
21.42000 453.425
21.43000 465.617
21.44000 477.732
21.45000 476.264
21.46000 466.033
21.47000 456.150
21.48000 455.528
21.49000 459.031
21.50000 462.445
21.51000 464.729
21.52000 466.671
21.53000 468.416
21.54000 468.817
21.55000 468.929
21.56000 468.389
21.57000 464.759
21.58000 460.732
21.59000 457.743
21.60000 458.046
21.61000 458.591
21.62000 458.969
21.63000 468.338
21.64000 475.613
21.65000 477.604
21.66000 471.854
21.67000 466.037
21.68000 462.107
21.69000 459.984
21.70000 457.877
21.71000 458.526
21.72000 460.879
21.73000 463.286
21.74000 467.014
21.75000 471.311
21.76000 475.093
21.77000 472.682
21.78000 468.456
21.79000 464.677
21.80000 468.839
21.81000 473.818
21.82000 479.259
21.83000 486.804
21.84000 494.607
21.85000 502.421
21.86000 510.271
21.87000 518.124
21.88000 523.486
21.89000 518.315
21.90000 514.200
21.91000 513.473
21.92000 517.526
21.93000 521.613
21.94000 525.821
21.95000 530.139
21.96000 534.419
21.97000 535.489
21.98000 534.617
21.99000 534.000
22.00000 539.187
22.01000 546.784
22.02000 553.937
22.03000 556.017
22.04000 556.664
22.05000 557.240
22.06000 553.260
22.07000 549.063
22.08000 544.940
22.09000 541.138
22.10000 537.374
22.11000 534.046
22.12000 532.006
22.13000 530.049
22.14000 528.729
22.15000 530.944
22.16000 532.666
22.17000 532.848
22.18000 530.935
22.19000 529.010
22.20000 526.399
22.21000 523.183
22.22000 520.000
22.23000 515.637
22.24000 510.690
22.25000 506.078
22.26000 508.546
22.27000 513.852
22.28000 518.385
22.29000 514.557
22.30000 508.450
22.31000 503.047
22.32000 500.170
22.33000 498.076
22.34000 494.748
22.35000 486.209
22.36000 477.086
22.37000 470.075
22.38000 469.080
22.39000 468.456
22.40000 468.040
22.41000 473.083
22.42000 476.919
22.43000 480.184
22.44000 482.699
22.45000 485.200
22.46000 481.276
22.47000 471.885
22.48000 462.605
22.49000 455.374
22.50000 449.455
22.51000 443.940
22.52000 446.356
22.53000 451.845
22.54000 456.199
22.55000 448.899
22.56000 438.536
22.57000 429.420
22.58000 429.965
22.59000 431.872
22.60000 434.323
22.61000 438.991
22.62000 443.895
22.63000 446.468
22.64000 442.628
22.65000 438.417
22.66000 435.647
22.67000 439.900
22.68000 443.151
22.69000 443.637
22.70000 440.635
22.71000 437.630
22.72000 437.896
22.73000 440.839
22.74000 443.743
22.75000 444.814
22.76000 444.880
22.77000 445.033
22.78000 446.799
22.79000 449.168
22.80000 450.772
22.81000 444.904
22.82000 437.142
22.83000 430.353
22.84000 439.040
22.85000 448.684
22.86000 454.599
22.87000 445.885
22.88000 435.686
22.89000 429.555
22.90000 434.238
22.91000 439.504
22.92000 442.922
22.93000 439.651
22.94000 437.154
22.95000 433.062
22.96000 427.032
22.97000 421.012
22.98000 419.208
22.99000 420.724
23.00000 422.218
23.01000 426.095
23.02000 431.079
23.03000 435.808
23.04000 436.179
23.05000 434.975
23.06000 433.110
23.07000 425.098
23.08000 415.585
23.09000 407.314
23.10000 414.573
23.11000 422.877
23.12000 429.568
23.13000 430.159
23.14000 430.162
23.15000 432.037
23.16000 438.718
23.17000 445.641
23.18000 450.076
23.19000 443.568
23.20000 438.680
23.21000 434.462
23.22000 431.026
23.23000 427.615
23.24000 429.428
23.25000 435.205
23.26000 440.883
23.27000 443.512
23.28000 444.548
23.29000 445.135
23.30000 438.508
23.31000 429.364
23.32000 421.546
23.33000 425.473
23.34000 432.163
23.35000 437.944
23.36000 432.916
23.37000 427.243
23.38000 423.115
23.39000 424.620
23.40000 426.641
23.41000 428.157
23.42000 428.422
23.43000 428.628
23.44000 428.758
23.45000 416.656
23.46000 407.744
23.47000 409.113
23.48000 422.027
23.49000 434.874
23.50000 434.947
23.51000 425.688
23.52000 416.604
23.53000 412.051
23.54000 409.818
23.55000 407.767
23.56000 408.462
23.57000 410.081
23.58000 411.760
23.59000 413.942
23.60000 416.239
23.61000 418.211
23.62000 426.362
23.63000 434.018
23.64000 438.814
23.65000 433.555
23.66000 427.421
23.67000 424.609
23.68000 429.744
23.69000 435.224
23.70000 438.637
23.71000 441.323
23.72000 443.251
23.73000 441.178
23.74000 434.789
23.75000 428.488
23.76000 434.372
23.77000 448.834
23.78000 462.992
23.79000 458.390
23.80000 445.388
23.81000 433.445
23.82000 436.566
23.83000 444.583
23.84000 452.135
23.85000 455.939
23.86000 458.924
23.87000 461.472
23.88000 462.302
23.89000 462.798
23.90000 462.687
23.91000 460.517
23.92000 458.177
23.93000 456.602
23.94000 456.795
23.95000 457.058
23.96000 457.220
23.97000 463.595
23.98000 468.217
23.99000 474.985
24.00000 483.977
24.01000 492.874
24.02000 491.192
24.03000 482.333
24.04000 473.680
24.05000 464.570
24.06000 455.647
24.07000 447.460
24.08000 449.152
24.09000 453.943
24.10000 457.817
24.11000 454.631
24.12000 449.961
24.13000 446.004
24.14000 455.600
24.15000 465.164
24.16000 470.661
24.17000 462.845
24.18000 453.993
24.19000 443.859
24.20000 430.868
24.21000 417.771
24.22000 409.849
24.23000 418.671
24.24000 425.081
24.25000 425.674
24.26000 420.481
24.27000 415.354
24.28000 416.287
24.29000 421.184
24.30000 425.957
24.31000 421.605
24.32000 413.587
24.33000 406.484
24.34000 410.980
24.35000 418.986
24.36000 425.238
24.37000 418.554
24.38000 409.257
24.39000 401.431
24.40000 405.072
24.41000 409.336
24.42000 412.521
24.43000 412.296
24.44000 411.820
24.45000 411.417
24.46000 411.174
24.47000 410.937
24.48000 410.795
24.49000 402.028
24.50000 395.764
24.51000 398.220
24.52000 409.002
24.53000 419.618
24.54000 417.029
24.55000 406.109
24.56000 395.494
24.57000 395.373
24.58000 399.538
24.59000 403.517
24.60000 405.272
24.61000 406.377
24.62000 407.314
24.63000 407.063
24.64000 406.581
24.65000 406.177
24.66000 401.335
24.67000 396.862
24.68000 394.866
24.69000 400.420
24.70000 406.498
24.71000 410.050
24.72000 408.347
24.73000 406.481
24.74000 405.386
24.75000 402.186
24.76000 399.922
24.77000 400.790
24.78000 404.531
24.79000 408.228
24.80000 408.931
24.81000 407.813
24.82000 406.728
24.83000 404.296
24.84000 401.464
24.85000 399.197
24.86000 403.347
24.87000 409.305
24.88000 414.343
24.89000 413.164
24.90000 410.823
24.91000 408.880
24.92000 406.143
24.93000 403.804
24.94000 401.595
24.95000 399.768
24.96000 397.966
24.97000 398.611
24.98000 404.172
24.99000 409.872
25.00000 413.161
25.01000 402.066
25.02000 394.245
25.03000 391.197
25.04000 392.361
25.05000 393.553
25.06000 396.457
25.07000 400.367
25.08000 404.148
25.09000 403.635
25.10000 401.528
25.11000 399.701
25.12000 400.875
25.13000 402.864
25.14000 404.335
25.15000 402.446
25.16000 399.954
25.17000 397.901
25.18000 397.225
25.19000 396.796
25.20000 395.760
25.21000 393.004
25.22000 390.143
25.23000 387.775
25.24000 386.363
25.25000 384.975
25.26000 384.188
25.27000 385.390
25.28000 386.232
25.29000 386.678
25.30000 386.786
25.31000 386.912
25.32000 387.921
25.33000 389.431
25.34000 390.886
25.35000 394.687
25.36000 399.113
25.37000 402.963
25.38000 400.910
25.39000 397.311
25.40000 394.312
25.41000 395.045
25.42000 396.421
25.43000 397.546
25.44000 401.318
25.45000 404.638
25.46000 403.586
25.47000 390.537
25.48000 376.799
25.49000 369.953
25.50000 376.012
25.51000 382.368
25.52000 385.913
25.53000 382.223
25.54000 379.671
25.55000 383.854
25.56000 393.531
25.57000 403.002
25.58000 402.770
25.59000 397.233
25.60000 391.908
25.61000 386.240
25.62000 380.808
25.63000 376.593
25.64000 384.214
25.65000 394.825
25.66000 403.814
25.67000 403.137
25.68000 400.861
25.69000 399.014
25.70000 393.579
25.71000 388.852
25.72000 384.763
25.73000 382.364
25.74000 380.054
25.75000 380.594
25.76000 386.281
25.77000 392.075
25.78000 395.250
25.79000 394.102
25.80000 393.307
25.81000 393.075
25.82000 393.284
25.83000 393.465
25.84000 392.476
25.85000 390.871
25.86000 389.331
25.87000 387.346
25.88000 385.344
25.89000 383.843
25.90000 386.987
25.91000 391.262
25.92000 394.507
25.93000 391.862
25.94000 388.280
25.95000 385.397
25.96000 383.104
25.97000 381.290
25.98000 380.773
25.99000 383.580
26.00000 386.552
26.01000 388.625
26.02000 389.128
26.03000 389.603
26.04000 389.859
26.05000 392.357
26.06000 394.034
26.07000 389.043
26.08000 379.009
26.09000 369.251
26.10000 369.963
26.11000 376.009
26.12000 381.787
26.13000 380.300
26.14000 376.569
26.15000 373.224
26.16000 373.289
26.17000 374.155
26.18000 375.604
26.19000 380.265
26.20000 385.415
26.21000 389.528
26.22000 380.442
26.23000 372.131
26.24000 368.654
26.25000 377.121
26.26000 386.144
26.27000 390.838
26.28000 388.245
26.29000 385.536
26.30000 384.104
26.31000 375.062
26.32000 368.962
26.33000 370.228
26.34000 376.858
26.35000 383.207
26.36000 379.933
26.37000 371.927
26.38000 364.300
26.39000 370.836
26.40000 381.297
26.41000 391.030
26.42000 394.632
26.43000 396.849
26.44000 398.799
26.45000 399.339
26.46000 399.673
26.47000 399.937
26.48000 387.665
26.49000 376.926
26.50000 370.191
26.51000 373.013
26.52000 376.246
26.53000 377.075
26.54000 373.999
26.55000 370.869
26.56000 369.247
26.57000 380.943
26.58000 388.771
26.59000 387.874
26.60000 380.853
26.61000 374.170
26.62000 378.015
26.63000 386.861
26.64000 395.259
26.65000 394.737
26.66000 391.589
26.67000 388.177
26.68000 382.647
26.69000 376.657
26.70000 371.647
26.71000 371.616
26.72000 372.280
26.73000 372.802
26.74000 375.720
26.75000 378.212
26.76000 380.314
26.77000 381.520
26.78000 382.690
26.79000 382.913
26.80000 381.652
26.81000 380.374
26.82000 379.724
26.83000 367.464
26.84000 359.330
26.85000 360.487
26.86000 367.927
26.87000 375.256
26.88000 379.386
26.89000 382.051
26.90000 384.571
26.91000 383.362
26.92000 381.178
26.93000 379.464
26.94000 381.352
26.95000 383.996
26.96000 385.435
26.97000 380.994
26.98000 375.766
26.99000 371.696
27.00000 360.965
27.01000 352.009
27.02000 348.605
27.03000 357.561
27.04000 366.971
27.05000 372.997
27.06000 373.911
27.07000 374.774
27.08000 372.328
27.09000 366.601
27.10000 360.928
27.11000 360.075
27.12000 362.367
27.13000 364.637
27.14000 366.327
27.15000 367.759
27.16000 369.109
27.17000 369.586
27.18000 369.781
27.19000 369.711
27.20000 367.690
27.21000 365.276
27.22000 363.820
27.23000 366.870
27.24000 370.495
27.25000 373.292
27.26000 365.767
27.27000 359.205
27.28000 355.961
27.29000 359.851
27.30000 363.981
27.31000 367.014
27.32000 368.450
27.33000 369.872
27.34000 369.754
27.35000 368.170
27.36000 366.599
27.37000 366.060
27.38000 366.169
27.39000 366.290
27.40000 366.684
27.41000 367.195
27.42000 367.675
27.43000 367.574
27.44000 367.328
27.45000 367.103
27.46000 367.033
27.47000 366.994
27.48000 367.216
27.49000 368.625
27.50000 370.179
27.51000 371.367
27.52000 373.839
27.53000 375.859
27.54000 375.508
27.55000 370.240
27.56000 364.819
27.57000 364.995
27.58000 373.023
27.59000 381.103
27.60000 383.797
27.61000 381.567
27.62000 379.282
27.63000 373.226
27.64000 364.883
27.65000 357.077
27.66000 361.312
27.67000 370.520
27.68000 379.132
27.69000 373.911
27.70000 365.639
27.71000 358.633
27.72000 360.159
27.73000 363.274
27.74000 365.297
27.75000 362.560
27.76000 359.269
27.77000 356.776
27.78000 355.713
27.79000 354.952
27.80000 354.108
27.81000 353.098
27.82000 352.084
27.83000 353.017
27.84000 356.580
27.85000 360.156
27.86000 361.624
27.87000 361.239
27.88000 360.831
27.89000 359.038
27.90000 356.434
27.91000 353.920
27.92000 353.285
27.93000 353.400
27.94000 353.506
27.95000 354.427
27.96000 355.458
27.97000 356.358
27.98000 356.408
27.99000 356.306
28.00000 357.081
28.01000 361.533
28.02000 366.393
28.03000 370.040
28.04000 371.011
28.05000 371.642
28.06000 369.578
28.07000 362.302
28.08000 354.893
28.09000 350.669
28.10000 350.591
28.11000 350.530
28.12000 350.955
28.13000 351.789
28.14000 352.676
28.15000 356.344
28.16000 361.582
28.17000 366.603
28.18000 367.403
28.19000 366.577
28.20000 365.811
28.21000 362.483
28.22000 358.882
28.23000 356.237
28.24000 359.512
28.25000 363.805
28.26000 367.522
28.27000 368.915
28.28000 370.063
28.29000 370.915
28.30000 368.856
28.31000 367.126
28.32000 364.492
28.33000 360.173
28.34000 355.815
28.35000 351.845
28.36000 348.360
28.37000 344.881
28.38000 342.252
28.39000 340.320
28.40000 338.513
28.41000 342.510
28.42000 349.669
28.43000 356.422
28.44000 355.806
28.45000 352.450
28.46000 349.350
28.47000 354.397
28.48000 360.767
28.49000 366.069
28.50000 365.028
28.51000 362.941
28.52000 360.156
28.53000 354.649
28.54000 348.868
28.55000 344.616
28.56000 354.318
28.57000 362.400
28.58000 365.537
28.59000 359.762
28.60000 353.806
28.61000 352.971
28.62000 358.314
28.63000 363.660
28.64000 363.655
28.65000 359.485
28.66000 355.337
28.67000 352.154
28.68000 349.477
28.69000 347.030
28.70000 348.456
28.71000 351.273
28.72000 353.864
28.73000 351.330
28.74000 347.955
28.75000 345.074
28.76000 345.010
28.77000 345.393
28.78000 347.309
28.79000 354.990
28.80000 363.223
28.81000 369.218
28.82000 358.594
28.83000 349.779
28.84000 344.865
28.85000 346.740
28.86000 348.736
28.87000 350.749
28.88000 352.780
28.89000 354.805
28.90000 355.498
28.91000 355.190
28.92000 354.923
28.93000 356.247
28.94000 358.379
28.95000 360.078
28.96000 354.892
28.97000 347.319
28.98000 340.385
28.99000 342.180
29.00000 345.594
29.01000 347.702
29.02000 342.659
29.03000 336.531
29.04000 332.377
29.05000 335.382
29.06000 339.037
29.07000 341.671
29.08000 338.935
29.09000 336.649
29.10000 338.583
29.11000 347.601
29.12000 356.730
29.13000 358.382
29.14000 351.695
29.15000 345.025
29.16000 339.697
29.17000 335.380
29.18000 331.259
29.19000 333.805
29.20000 339.620
29.21000 345.098
29.22000 345.545
29.23000 344.307
29.24000 343.179
29.25000 347.643
29.26000 352.715
29.27000 355.595
29.28000 346.934
29.29000 336.596
29.30000 329.339
29.31000 332.856
29.32000 337.300
29.33000 340.468
29.34000 345.398
29.35000 349.213
29.36000 351.286
29.37000 350.538
29.38000 349.751
29.39000 350.996
29.40000 354.417
29.41000 357.823
29.42000 356.543
29.43000 352.034
29.44000 347.560
29.45000 344.204
29.46000 341.378
29.47000 338.905
29.48000 341.411
29.49000 345.525
29.50000 349.256
29.51000 344.724
29.52000 339.146
29.53000 335.998
29.54000 345.152
29.55000 356.018
29.56000 362.577
29.57000 354.607
29.58000 345.452
29.59000 338.999
29.60000 337.507
29.61000 336.525
29.62000 338.809
29.63000 346.194
29.64000 353.640
29.65000 355.357
29.66000 351.178
29.67000 347.022
29.68000 345.126
29.69000 344.760
29.70000 344.426
29.71000 344.990
29.72000 345.964
29.73000 347.133
29.74000 350.891
29.75000 355.457
29.76000 359.576
29.77000 359.291
29.78000 358.232
29.79000 357.299
29.80000 356.974
29.81000 356.729
29.82000 355.105
29.83000 348.986
29.84000 342.520
29.85000 338.014
29.86000 350.898
29.87000 361.099
29.88000 366.990
29.89000 366.392
29.90000 365.728
29.91000 368.848
29.92000 375.705
29.93000 382.517
29.94000 385.192
29.95000 385.178
29.96000 385.147
29.97000 384.693
29.98000 384.051
29.99000 383.109
30.00000 378.397
30.01000 372.551
30.02000 367.302
30.03000 371.166
30.04000 376.147
30.05000 379.667
30.06000 376.344
30.07000 372.149
30.08000 369.789
30.09000 373.190
30.10000 377.012
30.11000 379.644
30.12000 370.638
30.13000 363.583
30.14000 359.041
30.15000 358.145
30.16000 357.281
30.17000 360.053
30.18000 366.275
30.19000 372.448
30.20000 373.453
30.21000 371.257
30.22000 369.110
30.23000 368.148
30.24000 367.692
30.25000 367.521
30.26000 370.750
30.27000 374.965
30.28000 378.730
30.29000 373.352
30.30000 367.129
30.31000 361.671
30.32000 359.657
30.33000 358.063
30.34000 355.412
30.35000 349.560
30.36000 343.489
30.37000 339.356
30.38000 346.465
30.39000 352.032
30.40000 351.868
30.41000 343.689
30.42000 335.461
30.43000 335.754
30.44000 343.814
30.45000 351.800
30.46000 356.198
30.47000 358.383
30.48000 360.312
30.49000 356.547
30.50000 350.437
30.51000 344.469
30.52000 340.096
30.53000 336.170
30.54000 332.682
30.55000 342.344
30.56000 352.840
30.57000 362.263
30.58000 367.028
30.59000 371.252
30.60000 373.008
30.61000 367.540
30.62000 361.606
30.63000 357.616
30.64000 355.901
30.65000 354.674
30.66000 355.822
30.67000 360.171
30.68000 364.541
30.69000 372.004
30.70000 382.177
30.71000 392.241
30.72000 387.072
30.73000 373.332
30.74000 360.294
30.75000 361.798
30.76000 369.086
30.77000 375.939
30.78000 378.161
30.79000 379.131
30.80000 379.989
30.81000 379.352
30.82000 378.571
30.83000 377.454
30.84000 374.930
30.85000 372.250
30.86000 371.614
30.87000 376.751
30.88000 382.239
30.89000 385.883
30.90000 385.638
30.91000 385.384
30.92000 387.077
30.93000 391.297
30.94000 395.539
30.95000 406.588
30.96000 423.372
30.97000 439.951
30.98000 449.060
30.99000 453.839
31.00000 458.575
31.01000 462.470
31.02000 466.043
31.03000 470.458
31.04000 483.420
31.05000 498.608
31.06000 511.950
31.07000 525.263
31.08000 536.703
31.09000 551.551
31.10000 580.134
31.11000 610.165
31.12000 637.703
31.13000 658.441
31.14000 678.793
31.15000 692.135
31.16000 744.196
31.17000 783.121
31.18000 820.460
31.19000 855.818
31.20000 891.164
31.21000 924.530
31.22000 956.288
31.23000 987.606
31.24000 1021.093
31.25000 1054.781
31.26000 1087.970
31.27000 1112.150
31.28000 1132.989
31.29000 1153.905
31.30000 1175.567
31.31000 1197.416
31.32000 1216.496
31.33000 1267.324
31.34000 1315.294
31.35000 1353.233
31.36000 1352.193
31.37000 1347.246
31.38000 1337.267
31.39000 1314.032
31.40000 1290.094
31.41000 1274.605
31.42000 1239.396
31.43000 1213.353
31.44000 1188.570
31.45000 1165.303
31.46000 1142.029
31.47000 1116.137
31.48000 1088.203
31.49000 1060.707
31.50000 1022.807
31.51000 980.799
31.52000 939.178
31.53000 904.104
31.54000 871.373
31.55000 837.782
31.56000 796.283
31.57000 752.871
31.58000 715.187
31.59000 679.183
31.60000 648.730
31.61000 619.577
31.62000 595.291
31.63000 571.470
31.64000 549.882
31.65000 533.975
31.66000 518.349
31.67000 508.375
31.68000 478.787
31.69000 457.008
31.70000 446.600
31.71000 449.341
31.72000 452.059
31.73000 446.493
31.74000 434.703
31.75000 423.120
31.76000 411.372
31.77000 399.943
31.78000 388.902
31.79000 384.002
31.80000 381.224
31.81000 378.484
31.82000 376.075
31.83000 373.744
31.84000 371.732
31.85000 372.037
31.86000 372.592
31.87000 373.390
31.88000 375.064
31.89000 376.817
31.90000 375.570
31.91000 366.952
31.92000 357.995
31.93000 352.356
31.94000 356.801
31.95000 360.131
31.96000 362.001
31.97000 362.247
31.98000 362.493
31.99000 362.962
32.00000 363.591
32.01000 364.208
32.02000 361.801
32.03000 358.061
32.04000 354.339
32.05000 350.903
32.06000 347.562
32.07000 344.440
32.08000 343.143
32.09000 342.255
32.10000 341.494
32.11000 332.372
32.12000 323.645
32.13000 318.160
32.14000 323.975
32.15000 330.758
32.16000 335.793
32.17000 336.679
32.18000 337.388
32.19000 337.829
32.20000 340.838
32.21000 343.029
32.22000 341.022
32.23000 334.532
32.24000 328.057
32.25000 323.752
32.26000 320.961
32.27000 318.229
32.28000 318.916
32.29000 321.123
32.30000 322.992
32.31000 320.114
32.32000 315.707
32.33000 311.549
32.34000 309.378
32.35000 307.636
32.36000 306.153
32.37000 309.813
32.38000 313.490
32.39000 316.608
32.40000 317.846
32.41000 318.932
32.42000 319.225
32.43000 317.701
32.44000 316.105
32.45000 315.129
32.46000 312.548
32.47000 310.688
32.48000 310.043
32.49000 310.646
32.50000 311.246
32.51000 311.419
32.52000 311.306
32.53000 311.196
32.54000 310.596
32.55000 309.810
32.56000 309.419
32.57000 314.263
32.58000 320.734
32.59000 325.756
32.60000 319.726
32.61000 311.397
32.62000 304.351
32.63000 311.815
32.64000 319.674
32.65000 325.291
32.66000 323.631
32.67000 321.413
32.68000 319.630
32.69000 318.807
32.70000 318.018
32.71000 317.543
32.72000 315.508
32.73000 314.049
32.74000 316.364
32.75000 322.393
32.76000 328.341
32.77000 327.023
32.78000 320.996
32.79000 315.125
32.80000 327.646
32.81000 347.298
32.82000 366.323
32.83000 377.498
32.84000 386.319
32.85000 396.205
32.86000 413.864
32.87000 433.079
32.88000 449.225
32.89000 464.049
32.90000 476.260
32.91000 486.811
32.92000 492.162
32.93000 497.136
32.94000 503.506
32.95000 512.858
32.96000 522.309
32.97000 527.916
32.98000 534.214
32.99000 538.672
33.00000 536.665
33.01000 528.546
33.02000 520.367
33.03000 507.645
33.04000 492.082
33.05000 476.963
33.06000 459.243
33.07000 441.360
33.08000 424.087
33.09000 414.028
33.10000 406.057
33.11000 396.952
33.12000 379.926
33.13000 361.376
33.14000 345.897
33.15000 333.320
33.16000 323.179
33.17000 315.433
33.18000 314.926
33.19000 314.914
33.20000 312.756
33.21000 306.174
33.22000 299.457
33.23000 295.535
33.24000 296.725
33.25000 297.584
33.26000 295.007
33.27000 289.309
33.28000 283.777
33.29000 289.208
33.30000 301.250
33.31000 312.919
33.32000 312.572
33.33000 307.575
33.34000 302.479
33.35000 296.275
33.36000 289.763
33.37000 284.473
33.38000 287.360
33.39000 291.760
33.40000 295.405
33.41000 298.524
33.42000 301.048
33.43000 301.078
33.44000 293.831
33.45000 286.117
33.46000 282.004
33.47000 285.065
33.48000 288.323
33.49000 290.195
33.50000 296.246
33.51000 300.488
33.52000 300.893
33.53000 297.946
33.54000 295.014
33.55000 292.921
33.56000 291.316
33.57000 289.766
33.58000 289.599
33.59000 289.959
33.60000 290.226
33.61000 289.510
33.62000 288.529
33.63000 288.026
33.64000 290.591
33.65000 293.701
33.66000 296.258
33.67000 288.163
33.68000 280.544
33.69000 276.041
33.70000 280.314
33.71000 285.116
33.72000 288.256
33.73000 288.199
33.74000 288.062
33.75000 287.985
33.76000 294.941
33.77000 299.792
33.78000 302.807
33.79000 304.278
33.80000 305.696
33.81000 304.410
33.82000 301.606
33.83000 298.904
33.84000 300.329
33.85000 303.153
33.86000 305.639
33.87000 304.710
33.88000 302.894
33.89000 301.310
33.90000 301.148
33.91000 301.229
33.92000 301.296
33.93000 304.924
33.94000 308.199
33.95000 311.010
33.96000 312.559
33.97000 314.037
33.98000 313.513
33.99000 309.272
34.00000 304.949
34.01000 302.548
34.02000 306.275
34.03000 308.858
34.04000 309.757
34.05000 309.296
34.06000 308.859
34.07000 309.488
34.08000 310.695
34.09000 311.855
34.10000 310.095
34.11000 307.437
34.12000 305.300
34.13000 308.160
34.14000 312.271
34.15000 315.795
34.16000 315.858
34.17000 315.354
34.18000 314.945
34.19000 323.272
34.20000 330.762
34.21000 333.976
34.22000 325.960
34.23000 317.351
34.24000 312.922
34.25000 315.981
34.26000 319.189
34.27000 320.939
34.28000 317.108
34.29000 314.498
34.30000 319.326
34.31000 329.939
34.32000 340.248
34.33000 338.164
34.34000 329.597
34.35000 321.391
34.36000 319.565
34.37000 319.986
34.38000 321.054
34.39000 328.033
34.40000 336.438
34.41000 341.578
34.42000 328.227
34.43000 311.971
34.44000 298.908
34.45000 308.543
34.46000 318.097
34.47000 324.374
34.48000 322.338
34.49000 319.894
34.50000 315.814
34.51000 308.907
34.52000 301.950
34.53000 298.222
34.54000 308.919
34.55000 316.186
34.56000 314.837
34.57000 307.034
34.58000 299.446
34.59000 299.758
34.60000 304.060
34.61000 308.168
34.62000 310.805
34.63000 312.784
34.64000 314.495
34.65000 313.873
34.66000 312.709
34.67000 310.940
34.68000 305.879
34.69000 300.322
34.70000 295.893
34.71000 291.306
34.72000 287.593
34.73000 284.520
34.74000 283.014
34.75000 281.580
34.76000 281.984
34.77000 285.455
34.78000 288.973
34.79000 290.823
34.80000 277.716
34.81000 268.865
34.82000 266.752
34.83000 269.500
34.84000 272.199
34.85000 273.234
34.86000 273.458
34.87000 273.671
34.88000 271.482
34.89000 268.716
34.90000 266.689
34.91000 270.817
34.92000 276.322
34.93000 280.909
34.94000 280.703
34.95000 279.804
34.96000 279.094
34.97000 276.745
34.98000 274.747
34.99000 272.840
35.00000 271.151
35.01000 269.472
35.02000 267.141
35.03000 263.762
35.04000 260.369
35.05000 258.619
35.06000 263.734
35.07000 267.151
35.08000 266.840
35.09000 263.937
35.10000 261.091
35.11000 259.963
35.12000 259.644
35.13000 259.342
35.14000 263.827
35.15000 269.379
35.16000 274.707
35.17000 278.250
35.18000 281.408
35.19000 283.255
35.20000 278.510
35.21000 272.854
35.22000 268.421
35.23000 262.465
35.24000 257.605
35.25000 255.138
35.26000 258.134
35.27000 261.343
35.28000 261.820
35.29000 258.055
35.30000 254.242
35.31000 252.314
35.32000 262.023
35.33000 268.465
35.34000 269.141
35.35000 265.953
35.36000 262.936
35.37000 264.718
35.38000 268.681
35.39000 272.428
35.40000 269.435
35.41000 264.768
35.42000 260.684
35.43000 261.020
35.44000 262.272
35.45000 263.365
35.46000 263.688
35.47000 263.909
35.48000 264.081
35.49000 263.774
35.50000 263.500
35.51000 262.047
35.52000 257.994
35.53000 253.847
35.54000 253.189
35.55000 257.753
35.56000 262.367
35.57000 262.586
35.58000 258.492
35.59000 254.459
35.60000 255.839
35.61000 260.718
35.62000 265.326
35.63000 262.999
35.64000 257.626
35.65000 252.567
35.66000 248.833
35.67000 245.780
35.68000 243.436
35.69000 246.249
35.70000 250.089
35.71000 253.447
35.72000 254.557
35.73000 255.383
35.74000 256.020
35.75000 251.310
35.76000 247.276
35.77000 246.590
35.78000 253.037
35.79000 259.718
35.80000 261.219
35.81000 255.249
35.82000 249.218
35.83000 250.023
35.84000 257.266
35.85000 264.422
35.86000 265.041
35.87000 261.585
35.88000 258.111
35.89000 254.204
35.90000 250.114
35.91000 246.276
35.92000 247.429
35.93000 249.792
35.94000 252.394
35.95000 256.661
35.96000 261.248
35.97000 265.259
35.98000 266.691
35.99000 267.811
36.00000 268.667
36.01000 268.109
36.02000 267.594
36.03000 266.336
36.04000 263.549
36.05000 260.716
36.06000 257.967
36.07000 255.334
36.08000 252.704
36.09000 255.069
36.10000 261.950
36.11000 268.679
36.12000 265.458
36.13000 256.254
36.14000 247.404
36.15000 246.341
36.16000 248.466
36.17000 250.452
36.18000 253.881
36.19000 257.357
36.20000 260.210
36.21000 258.913
36.22000 256.850
36.23000 255.048
36.24000 254.375
36.25000 253.831
36.26000 253.420
36.27000 254.072
36.28000 254.636
36.29000 256.146
36.30000 259.533
36.31000 262.971
36.32000 258.815
36.33000 244.491
36.34000 230.124
36.35000 226.287
36.36000 231.607
36.37000 236.921
36.38000 241.907
36.39000 246.701
36.40000 251.296
36.41000 251.790
36.42000 250.663
36.43000 249.614
36.44000 249.300
36.45000 249.196
36.46000 249.240
36.47000 250.231
36.48000 251.390
36.49000 252.620
36.50000 254.142
36.51000 255.697
36.52000 256.861
36.53000 249.771
36.54000 243.853
36.55000 242.258
36.56000 248.953
36.57000 255.852
36.58000 254.976
36.59000 244.071
36.60000 233.139
36.61000 233.043
36.62000 241.992
36.63000 250.806
36.64000 252.843
36.65000 251.084
36.66000 249.520
36.67000 251.647
36.68000 255.183
36.69000 258.460
36.70000 256.461
36.71000 253.432
36.72000 251.383
36.73000 255.332
36.74000 260.301
36.75000 264.280
36.76000 264.298
36.77000 263.901
36.78000 263.607
36.79000 255.707
36.80000 249.242
36.81000 248.830
36.82000 259.624
36.83000 270.666
36.84000 275.271
36.85000 271.885
36.86000 268.482
36.87000 266.180
36.88000 264.771
36.89000 263.492
36.90000 268.084
36.91000 275.848
36.92000 283.123
36.93000 281.683
36.94000 277.031
36.95000 272.738
36.96000 270.873
36.97000 269.744
36.98000 269.407
36.99000 273.724
37.00000 278.801
37.01000 282.912
37.02000 283.292
37.03000 283.301
37.04000 283.307
37.05000 283.015
37.06000 282.776
37.07000 282.093
37.08000 280.615
37.09000 279.121
37.10000 276.647
37.11000 273.002
37.12000 269.363
37.13000 268.441
37.14000 269.620
37.15000 270.761
37.16000 270.365
37.17000 269.167
37.18000 268.085
37.19000 268.927
37.20000 270.454
37.21000 271.857
37.22000 270.549
37.23000 268.800
37.24000 266.846
37.25000 263.727
37.26000 260.425
37.27000 258.579
37.28000 262.153
37.29000 266.238
37.30000 269.205
37.31000 268.255
37.32000 267.377
37.33000 265.688
37.34000 262.600
37.35000 259.489
37.36000 260.337
37.37000 265.735
37.38000 271.122
37.39000 268.464
37.40000 259.863
37.41000 251.405
37.42000 248.205
37.43000 247.651
37.44000 247.205
37.45000 248.447
37.46000 250.268
37.47000 251.935
37.48000 253.782
37.49000 255.461
37.50000 256.630
37.51000 255.036
37.52000 253.027
37.53000 252.481
37.54000 257.186
37.55000 262.362
37.56000 266.081
37.57000 258.382
37.58000 252.095
37.59000 248.262
37.60000 248.510
37.61000 248.821
37.62000 246.303
37.63000 240.659
37.64000 235.035
37.65000 237.474
37.66000 245.638
37.67000 253.672
37.68000 257.413
37.69000 259.066
37.70000 260.405
37.71000 257.099
37.72000 252.251
37.73000 247.839
37.74000 251.131
37.75000 255.566
37.76000 258.887
37.77000 256.402
37.78000 253.082
37.79000 250.581
37.80000 250.916
37.81000 251.492
37.82000 251.901
37.83000 252.309
37.84000 252.619
37.85000 253.813
37.86000 256.426
37.87000 259.058
37.88000 255.171
37.89000 244.367
37.90000 233.613
37.91000 231.237
37.92000 234.629
37.93000 237.954
37.94000 239.207
37.95000 239.489
37.96000 239.842
37.97000 241.183
37.98000 242.840
37.99000 244.342
38.00000 244.477
38.01000 244.338
38.02000 245.248
38.03000 251.416
38.04000 258.307
38.05000 262.435
38.06000 257.327
38.07000 251.476
38.08000 247.364
38.09000 245.238
38.10000 243.686
38.11000 243.269
38.12000 244.610
38.13000 245.970
38.14000 247.443
38.15000 249.029
38.16000 250.607
38.17000 251.690
38.18000 252.433
38.19000 253.341
38.20000 258.834
38.21000 266.407
38.22000 273.451
38.23000 273.586
38.24000 271.586
38.25000 269.783
38.26000 270.652
38.27000 271.899
38.28000 273.236
38.29000 275.003
38.30000 276.827
38.31000 279.858
38.32000 286.780
38.33000 293.998
38.34000 299.014
38.35000 306.925
38.36000 312.964
38.37000 324.805
38.38000 345.299
38.39000 365.875
38.40000 379.099
38.41000 385.134
38.42000 391.126
38.43000 402.861
38.44000 418.054
38.45000 433.545
38.46000 456.652
38.47000 483.092
38.48000 509.204
38.49000 531.251
38.50000 552.084
38.51000 570.765
38.52000 597.420
38.53000 622.097
38.54000 647.150
38.55000 673.953
38.56000 700.975
38.57000 727.341
38.58000 751.662
38.59000 775.837
38.60000 792.441
38.61000 831.701
38.62000 861.696
38.63000 888.264
38.64000 909.905
38.65000 931.505
38.66000 945.758
38.67000 953.112
38.68000 960.405
38.69000 977.442
38.70000 1000.115
38.71000 1022.292
38.72000 1032.763
38.73000 1038.286
38.74000 1042.366
38.75000 1029.537
38.76000 1011.843
38.77000 996.060
38.78000 979.649
38.79000 965.267
38.80000 948.879
38.81000 923.535
38.82000 897.114
38.83000 871.363
38.84000 847.625
38.85000 824.024
38.86000 808.006
38.87000 752.622
38.88000 710.430
38.89000 672.110
38.90000 639.158
38.91000 606.243
38.92000 578.023
38.93000 554.041
38.94000 530.289
38.95000 508.317
38.96000 487.845
38.97000 467.309
38.98000 445.401
38.99000 422.932
39.00000 400.505
39.01000 378.545
39.02000 356.715
39.03000 337.349
39.04000 320.890
39.05000 307.094
39.06000 294.367
39.07000 286.233
39.08000 278.625
39.09000 272.399
39.10000 270.180
39.11000 268.215
39.12000 266.898
39.13000 264.508
39.14000 262.713
39.15000 261.048
39.16000 259.557
39.17000 258.068
39.18000 256.602
39.19000 255.157
39.20000 253.729
39.21000 247.228
39.22000 238.013
39.23000 229.180
39.24000 228.090
39.25000 230.053
39.26000 231.947
39.27000 233.118
39.28000 234.095
39.29000 234.958
39.30000 235.205
39.31000 235.325
39.32000 235.536
39.33000 236.126
39.34000 236.757
39.35000 236.520
39.36000 233.850
39.37000 231.035
39.38000 229.172
39.39000 229.552
39.40000 229.873
39.41000 228.624
39.42000 225.354
39.43000 222.084
39.44000 222.637
39.45000 226.381
39.46000 230.078
39.47000 234.049
39.48000 238.067
39.49000 241.953
39.50000 243.325
39.51000 243.740
39.52000 243.445
39.53000 236.047
39.54000 226.816
39.55000 218.719
39.56000 225.339
39.57000 233.166
39.58000 237.742
39.59000 229.333
39.60000 219.572
39.61000 214.924
39.62000 224.105
39.63000 234.058
39.64000 240.561
39.65000 239.482
39.66000 238.566
39.67000 238.507
39.68000 239.507
39.69000 240.502
39.70000 238.835
39.71000 235.030
39.72000 231.279
39.73000 230.912
39.74000 232.324
39.75000 233.761
39.76000 235.630
39.77000 237.658
39.78000 239.217
39.79000 236.309
39.80000 232.290
39.81000 228.785
39.82000 228.724
39.83000 229.151
39.84000 229.725
39.85000 230.865
39.86000 232.062
39.87000 232.943
39.88000 233.002
39.89000 233.018
39.90000 233.029
39.91000 226.010
39.92000 220.783
39.93000 218.260
39.94000 218.958
39.95000 219.662
39.96000 220.520
39.97000 221.496
39.98000 222.456
39.99000 221.355
40.00000 219.251
40.01000 217.345
40.02000 218.710
40.03000 221.236
40.04000 223.382
40.05000 222.078
40.06000 219.948
40.07000 218.102
40.08000 215.914
40.09000 214.006
40.10000 214.185
40.11000 222.108
40.12000 230.759
40.13000 235.529
40.14000 230.510
40.15000 225.015
40.16000 221.520
40.17000 227.537
40.18000 232.028
40.19000 231.041
40.20000 223.782
40.21000 216.540
40.22000 213.747
40.23000 214.265
40.24000 214.775
40.25000 212.962
40.26000 210.087
40.27000 207.556
40.28000 210.379
40.29000 215.037
40.30000 219.191
40.31000 218.990
40.32000 217.784
40.33000 216.744
40.34000 212.692
40.35000 208.876
40.36000 207.637
40.37000 215.626
40.38000 224.437
40.39000 228.640
40.40000 221.618
40.41000 214.090
40.42000 209.367
40.43000 208.266
40.44000 207.509
40.45000 207.086
40.46000 207.028
40.47000 206.965
40.48000 205.993
40.49000 204.369
40.50000 202.777
40.51000 204.102
40.52000 206.737
40.53000 209.598
40.54000 215.778
40.55000 223.055
40.56000 229.128
40.57000 225.256
40.58000 219.172
40.59000 213.965
40.60000 212.954
40.61000 212.609
40.62000 212.943
40.63000 215.625
40.64000 218.505
40.65000 221.667
40.66000 225.490
40.67000 229.341
40.68000 231.722
40.69000 219.801
40.70000 211.101
40.71000 208.963
40.72000 213.763
40.73000 218.509
40.74000 216.499
40.75000 209.821
40.76000 203.290
40.77000 203.620
40.78000 207.016
40.79000 210.089
40.80000 208.716
40.81000 205.923
40.82000 203.557
40.83000 204.553
40.84000 206.270
40.85000 207.729
40.86000 212.821
40.87000 217.515
40.88000 219.765
40.89000 213.870
40.90000 207.322
40.91000 202.681
40.92000 202.370
40.93000 202.226
40.94000 202.138
40.95000 201.558
40.96000 201.139
40.97000 201.485
40.98000 202.608
40.99000 203.741
41.00000 205.946
41.01000 208.865
41.02000 211.713
41.03000 213.317
41.04000 214.312
41.05000 215.274
41.06000 215.814
41.07000 216.224
41.08000 216.278
41.09000 213.652
41.10000 210.474
41.11000 207.789
41.12000 202.487
41.13000 197.767
41.14000 195.891
41.15000 203.162
41.16000 211.125
41.17000 216.657
41.18000 216.862
41.19000 216.877
41.20000 216.886
41.21000 213.588
41.22000 211.223
41.23000 209.466
41.24000 208.301
41.25000 207.142
41.26000 206.476
41.27000 206.127
41.28000 205.787
41.29000 209.737
41.30000 215.284
41.31000 220.383
41.32000 219.981
41.33000 217.943
41.34000 216.070
41.35000 215.384
41.36000 214.934
41.37000 214.556
41.38000 210.776
41.39000 207.275
41.40000 204.117
41.41000 202.020
41.42000 200.000
41.43000 198.510
41.44000 198.147
41.45000 197.819
41.46000 197.626
41.47000 208.318
41.48000 215.931
41.49000 219.812
41.50000 220.198
41.51000 220.491
41.52000 213.890
41.53000 203.020
41.54000 192.466
41.55000 192.217
41.56000 196.103
41.57000 199.737
41.58000 200.426
41.59000 200.272
41.60000 199.844
41.61000 197.532
41.62000 194.861
41.63000 192.636
41.64000 198.676
41.65000 204.500
41.66000 208.208
41.67000 205.576
41.68000 202.518
41.69000 200.627
41.70000 201.121
41.71000 201.686
41.72000 202.014
41.73000 196.769
41.74000 193.065
41.75000 196.998
41.76000 207.799
41.77000 218.397
41.78000 215.977
41.79000 205.776
41.80000 195.899
41.81000 194.395
41.82000 196.195
41.83000 197.748
41.84000 196.563
41.85000 194.621
41.86000 193.377
41.87000 196.750
41.88000 200.968
41.89000 204.456
41.90000 202.737
41.91000 200.830
41.92000 200.007
41.93000 202.321
41.94000 204.833
41.95000 208.363
41.96000 213.900
41.97000 219.491
41.98000 222.690
41.99000 212.436
42.00000 205.233
42.01000 200.226
42.02000 197.119
42.03000 194.114
42.04000 196.870
42.05000 202.948
42.06000 208.818
42.07000 207.333
42.08000 203.209
42.09000 199.178
42.10000 196.122
42.11000 193.326
42.12000 191.857
42.13000 198.806
42.14000 207.235
42.15000 214.154
42.16000 210.092
42.17000 205.776
42.18000 203.294
42.19000 205.938
42.20000 208.884
42.21000 211.393
42.22000 213.068
42.23000 214.722
42.24000 215.652
42.25000 214.646
42.26000 213.940
42.27000 212.112
42.28000 209.351
42.29000 206.604
42.30000 204.542
42.31000 202.861
42.32000 201.242
42.33000 202.620
42.34000 204.981
42.35000 207.546
42.36000 212.146
42.37000 217.269
42.38000 221.111
42.39000 217.157
42.40000 211.887
42.41000 207.593
42.42000 208.958
42.43000 210.552
42.44000 211.615
42.45000 211.247
42.46000 210.799
42.47000 209.691
42.48000 207.371
42.49000 205.025
42.50000 203.728
42.51000 196.019
42.52000 190.701
42.53000 189.660
42.54000 192.041
42.55000 194.392
42.56000 195.431
42.57000 195.765
42.58000 196.086
42.59000 195.950
42.60000 195.666
42.61000 195.713
42.62000 198.910
42.63000 202.887
42.64000 206.638
42.65000 209.065
42.66000 211.278
42.67000 213.066
42.68000 208.613
42.69000 204.490
42.70000 200.798
42.71000 198.226
42.72000 195.712
42.73000 195.007
42.74000 197.517
42.75000 200.088
42.76000 201.485
42.77000 205.339
42.78000 207.964
42.79000 205.406
42.80000 198.857
42.81000 192.486
42.82000 193.232
42.83000 197.668
42.84000 201.914
42.85000 200.822
42.86000 198.044
42.87000 195.479
42.88000 194.832
42.89000 194.644
42.90000 194.728
42.91000 196.335
42.92000 198.180
42.93000 199.658
42.94000 201.574
42.95000 203.157
42.96000 203.083
42.97000 198.840
42.98000 194.397
42.99000 192.689
43.00000 195.670
43.01000 198.731
43.02000 200.364
43.03000 198.960
43.04000 198.001
43.05000 196.992
43.06000 195.944
43.07000 194.927
43.08000 195.013
43.09000 195.650
43.10000 196.258
43.11000 197.471
43.12000 198.788
43.13000 199.909
43.14000 199.347
43.15000 198.397
43.16000 196.765
43.17000 191.459
43.18000 185.606
43.19000 180.950
43.20000 184.700
43.21000 188.323
43.22000 191.404
43.23000 193.166
43.24000 194.870
43.25000 196.491
43.26000 197.975
43.27000 199.457
43.28000 200.232
43.29000 195.495
43.30000 192.301
43.31000 191.352
43.32000 192.007
43.33000 192.726
43.34000 195.555
43.35000 199.402
43.36000 203.061
43.37000 200.643
43.38000 196.554
43.39000 193.105
43.40000 194.911
43.41000 197.882
43.42000 199.929
43.43000 197.187
43.44000 193.761
43.45000 191.059
43.46000 187.236
43.47000 184.094
43.48000 183.212
43.49000 187.632
43.50000 192.271
43.51000 193.939
43.52000 190.870
43.53000 187.739
43.54000 186.132
43.55000 184.536
43.56000 183.486
43.57000 185.239
43.58000 188.923
43.59000 192.622
43.60000 196.750
43.61000 201.078
43.62000 205.180
43.63000 197.171
43.64000 186.242
43.65000 176.845
43.66000 179.472
43.67000 184.666
43.68000 189.204
43.69000 190.476
43.70000 191.303
43.71000 191.949
43.72000 195.117
43.73000 197.807
43.74000 198.491
43.75000 194.633
43.76000 190.602
43.77000 185.717
43.78000 179.520
43.79000 173.309
43.80000 170.186
43.81000 182.917
43.82000 191.347
43.83000 192.297
43.84000 188.281
43.85000 184.416
43.86000 184.678
43.87000 186.801
43.88000 188.805
43.89000 192.221
43.90000 195.753
43.91000 198.513
43.92000 195.471
43.93000 191.237
43.94000 187.813
43.95000 188.264
43.96000 189.223
43.97000 189.965
43.98000 190.717
43.99000 191.315
44.00000 190.796
44.01000 187.836
44.02000 184.790
44.03000 184.577
44.04000 188.567
44.05000 192.595
44.06000 194.271
44.07000 193.661
44.08000 193.057
44.09000 192.878
44.10000 192.972
44.11000 192.883
44.12000 188.171
44.13000 181.447
44.14000 175.121
44.15000 177.430
44.16000 181.881
44.17000 185.821
44.18000 186.094
44.19000 185.644
44.20000 186.106
44.21000 190.779
44.22000 195.977
44.23000 199.971
44.24000 196.322
44.25000 193.007
44.26000 191.865
44.27000 195.313
44.28000 198.909
44.29000 198.788
44.30000 193.356
44.31000 187.884
44.32000 188.303
44.33000 194.214
44.34000 200.086
44.35000 203.117
44.36000 204.393
44.37000 205.532
44.38000 203.477
44.39000 200.079
44.40000 196.894
44.41000 197.782
44.42000 199.650
44.43000 201.151
44.44000 200.125
44.45000 198.619
44.46000 197.775
44.47000 199.870
44.48000 202.316
44.49000 204.178
44.50000 201.029
44.51000 198.287
44.52000 197.396
44.53000 200.278
44.54000 203.271
44.55000 204.349
44.56000 202.790
44.57000 201.215
44.58000 201.118
44.59000 202.345
44.60000 203.594
44.61000 206.294
44.62000 209.858
44.63000 213.259
44.64000 213.149
44.65000 211.613
44.66000 210.180
44.67000 212.998
44.68000 216.616
44.69000 220.067
44.70000 222.426
44.71000 224.586
44.72000 225.829
44.73000 223.157
44.74000 220.038
44.75000 217.687
44.76000 220.846
44.77000 223.592
44.78000 223.954
44.79000 219.626
44.80000 215.173
44.81000 214.393
44.82000 218.485
44.83000 222.598
44.84000 222.780
44.85000 219.581
44.86000 216.467
44.87000 218.111
44.88000 222.489
44.89000 226.958
44.90000 233.244
44.91000 240.242
44.92000 246.748
44.93000 245.568
44.94000 242.658
44.95000 240.837
44.96000 245.900
44.97000 252.170
44.98000 256.931
44.99000 255.478
45.00000 253.352
45.01000 251.764
45.02000 251.830
45.03000 251.958
45.04000 253.039
45.05000 255.932
45.06000 258.868
45.07000 258.117
45.08000 252.656
45.09000 247.185
45.10000 245.760
45.11000 247.685
45.12000 249.639
45.13000 252.992
45.14000 257.121
45.15000 260.961
45.16000 259.381
45.17000 255.750
45.18000 252.389
45.19000 250.128
45.20000 248.348
45.21000 246.778
45.22000 246.483
45.23000 246.402
45.24000 245.212
45.25000 239.616
45.26000 233.565
45.27000 229.092
45.28000 229.332
45.29000 229.720
45.30000 229.168
45.31000 226.892
45.32000 224.578
45.33000 220.936
45.34000 215.662
45.35000 210.392
45.36000 208.533
45.37000 209.391
45.38000 210.254
45.39000 211.360
45.40000 212.596
45.41000 213.699
45.42000 212.451
45.43000 210.345
45.44000 208.404
45.45000 206.291
45.46000 204.361
45.47000 202.947
45.48000 204.530
45.49000 206.596
45.50000 208.165
45.51000 207.826
45.52000 207.300
45.53000 206.915
45.54000 204.524
45.55000 202.598
45.56000 202.379
45.57000 205.180
45.58000 208.039
45.59000 210.250
45.60000 211.695
45.61000 213.134
45.62000 213.495
45.63000 213.028
45.64000 212.497
45.65000 209.415
45.66000 205.015
45.67000 200.650
45.68000 196.866
45.69000 193.286
45.70000 190.001
45.71000 187.307
45.72000 185.029
45.73000 182.975
45.74000 182.168
45.75000 181.554
45.76000 183.172
45.77000 193.026
45.78000 203.648
45.79000 211.341
45.80000 198.915
45.81000 188.630
45.82000 182.279
45.83000 182.648
45.84000 183.131
45.85000 185.086
45.86000 188.716
45.87000 192.337
45.88000 191.247
45.89000 186.708
45.90000 182.227
45.91000 179.811
45.92000 178.427
45.93000 177.311
45.94000 180.335
45.95000 184.769
45.96000 188.819
45.97000 188.064
45.98000 186.415
45.99000 184.761
46.00000 183.077
46.01000 181.389
46.02000 181.006
46.03000 185.266
46.04000 189.937
46.05000 193.284
46.06000 190.501
46.07000 188.166
46.08000 182.159
46.09000 170.102
46.10000 157.956
46.11000 158.102
46.12000 171.688
46.13000 185.226
46.14000 188.852
46.15000 185.448
46.16000 182.068
46.17000 179.481
46.18000 177.275
46.19000 175.250
46.20000 175.834
46.21000 177.277
46.22000 178.588
46.23000 176.476
46.24000 173.940
46.25000 171.354
46.26000 168.512
46.27000 165.632
46.28000 164.276
46.29000 168.153
46.30000 172.467
46.31000 175.526
46.32000 169.118
46.33000 163.948
46.34000 163.198
46.35000 169.473
46.36000 175.837
46.37000 179.687
46.38000 180.895
46.39000 182.096
46.40000 177.025
46.41000 167.755
46.42000 158.769
46.43000 158.204
46.44000 161.556
46.45000 164.926
46.46000 168.524
46.47000 172.196
46.48000 175.518
46.49000 177.559
46.50000 179.116
46.51000 179.613
46.52000 174.846
46.53000 169.363
46.54000 166.151
46.55000 170.463
46.56000 175.370
46.57000 178.810
46.58000 174.637
46.59000 171.261
46.60000 168.665
46.61000 167.264
46.62000 165.877
46.63000 163.793
46.64000 161.007
46.65000 158.238
46.66000 164.073
46.67000 175.443
46.68000 186.414
46.69000 186.505
46.70000 181.709
46.71000 176.915
46.72000 172.145
46.73000 167.383
46.74000 163.097
46.75000 165.565
46.76000 168.941
46.77000 171.675
46.78000 171.344
46.79000 170.614
46.80000 170.910
46.81000 174.486
46.82000 178.307
46.83000 180.955
46.84000 177.657
46.85000 175.018
46.86000 172.983
46.87000 171.840
46.88000 170.706
46.89000 168.188
46.90000 164.332
46.91000 160.503
46.92000 161.260
46.93000 164.886
46.94000 168.268
46.95000 165.548
46.96000 160.182
46.97000 155.494
46.98000 159.070
46.99000 165.090
47.00000 170.480
47.01000 170.251
47.02000 169.086
47.03000 167.907
47.04000 166.670
47.05000 165.426
47.06000 163.889
47.07000 161.452
47.08000 158.951
47.09000 157.238
47.10000 158.235
47.11000 159.046
47.12000 159.386
47.13000 159.057
47.14000 158.723
47.15000 158.632
47.16000 158.767
47.17000 158.901
47.18000 159.631
47.19000 160.707
47.20000 161.646
47.21000 159.398
47.22000 155.815
47.23000 152.557
47.24000 153.061
47.25000 154.639
47.26000 156.043
47.27000 158.573
47.28000 160.956
47.29000 162.459
47.30000 160.065
47.31000 157.208
47.32000 155.657
47.33000 157.994
47.34000 160.590
47.35000 162.346
47.36000 163.915
47.37000 165.079
47.38000 164.992
47.39000 163.189
47.40000 161.379
47.41000 163.582
47.42000 169.370
47.43000 175.101
47.44000 177.149
47.45000 177.014
47.46000 176.780
47.47000 174.441
47.48000 171.249
47.49000 168.237
47.50000 167.204
47.51000 166.715
47.52000 166.282
47.53000 161.196
47.54000 156.062
47.55000 152.446
47.56000 155.300
47.57000 158.887
47.58000 161.742
47.59000 162.496
47.60000 163.118
47.61000 163.534
47.62000 159.845
47.63000 157.030
47.64000 158.506
47.65000 165.654
47.66000 172.818
47.67000 172.482
47.68000 165.702
47.69000 159.001
47.70000 156.042
47.71000 155.248
47.72000 154.570
47.73000 156.202
47.74000 158.737
47.75000 160.979
47.76000 160.163
47.77000 158.536
47.78000 157.103
47.79000 154.808
47.80000 152.701
47.81000 150.520
47.82000 148.036
47.83000 145.518
47.84000 145.165
47.85000 150.818
47.86000 156.824
47.87000 160.786
47.88000 155.075
47.89000 150.695
47.90000 149.769
47.91000 153.240
47.92000 156.723
47.93000 158.405
47.94000 158.597
47.95000 158.787
47.96000 158.010
47.97000 156.732
47.98000 155.474
47.99000 154.576
48.00000 153.812
48.01000 153.470
48.02000 157.287
48.03000 162.167
48.04000 166.442
48.05000 163.130
48.06000 159.198
48.07000 155.789
48.08000 154.450
48.09000 153.324
48.10000 152.293
48.11000 151.519
48.12000 150.758
48.13000 150.263
48.14000 149.841
48.15000 149.533
48.16000 150.308
48.17000 152.411
48.18000 154.512
48.19000 155.192
48.20000 154.741
48.21000 154.298
48.22000 155.998
48.23000 158.759
48.24000 161.151
48.25000 157.106
48.26000 150.717
48.27000 145.144
48.28000 147.253
48.29000 151.256
48.30000 154.741
48.31000 153.977
48.32000 152.741
48.33000 151.590
48.34000 150.767
48.35000 149.976
48.36000 150.298
48.37000 153.501
48.38000 156.852
48.39000 159.005
48.40000 157.182
48.41000 155.797
48.42000 155.805
48.43000 157.456
48.44000 159.109
48.45000 160.388
48.46000 161.382
48.47000 162.360
48.48000 162.028
48.49000 161.054
48.50000 159.941
48.51000 156.533
48.52000 152.319
48.53000 148.454
48.54000 147.716
48.55000 147.720
48.56000 147.723
48.57000 148.646
48.58000 149.552
48.59000 150.822
48.60000 153.437
48.61000 156.176
48.62000 158.451
48.63000 159.563
48.64000 160.620
48.65000 161.291
48.66000 160.051
48.67000 159.129
48.68000 156.806
48.69000 152.895
48.70000 148.995
48.71000 147.223
48.72000 147.019
48.73000 146.820
48.74000 150.300
48.75000 155.421
48.76000 160.238
48.77000 160.386
48.78000 158.950
48.79000 158.215
48.80000 163.478
48.81000 170.112
48.82000 175.817
48.83000 169.983
48.84000 163.599
48.85000 157.493
48.86000 152.368
48.87000 147.331
48.88000 144.082
48.89000 145.153
48.90000 146.415
48.91000 147.204
48.92000 150.541
48.93000 152.975
48.94000 153.026
48.95000 150.481
48.96000 147.952
48.97000 148.062
48.98000 150.047
48.99000 151.990
49.00000 155.380
49.01000 159.306
49.02000 162.993
49.03000 163.233
49.04000 162.342
49.05000 160.780
49.06000 153.735
49.07000 145.482
49.08000 138.430
49.09000 143.499
49.10000 149.216
49.11000 153.522
49.12000 152.994
49.13000 152.063
49.14000 153.292
49.15000 159.558
49.16000 166.031
49.17000 170.018
49.18000 167.626
49.19000 165.852
49.20000 164.224
49.21000 162.750
49.22000 161.268
49.23000 158.808
49.24000 155.679
49.25000 152.620
49.26000 150.945
49.27000 149.955
49.28000 149.008
49.29000 148.645
49.30000 148.467
49.31000 148.549
49.32000 150.652
49.33000 153.185
49.34000 155.335
49.35000 152.642
49.36000 149.833
49.37000 148.030
49.38000 149.553
49.39000 151.338
49.40000 151.623
49.41000 148.531
49.42000 145.312
49.43000 143.358
49.44000 148.385
49.45000 152.025
49.46000 152.829
49.47000 150.782
49.48000 148.744
49.49000 147.586
49.50000 147.009
49.51000 146.446
49.52000 149.286
49.53000 153.452
49.54000 157.133
49.55000 154.587
49.56000 150.139
49.57000 146.328
49.58000 147.263
49.59000 149.166
49.60000 150.771
49.61000 152.067
49.62000 153.115
49.63000 153.401
49.64000 151.258
49.65000 148.933
49.66000 147.803
49.67000 149.271
49.68000 150.828
49.69000 151.759
49.70000 143.708
49.71000 137.939
49.72000 138.991
49.73000 146.626
49.74000 154.170
49.75000 154.295
49.76000 149.698
49.77000 145.227
49.78000 143.541
49.79000 143.083
49.80000 142.650
49.81000 142.516
49.82000 142.470
49.83000 142.841
49.84000 146.195
49.85000 150.134
49.86000 153.432
49.87000 154.261
49.88000 154.695
49.89000 153.858
49.90000 149.108
49.91000 144.082
49.92000 141.658
49.93000 144.695
49.94000 147.905
49.95000 149.794
49.96000 145.319
49.97000 142.129
49.98000 143.138
49.99000 148.036
50.00000 152.908
50.01000 155.959
50.02000 157.892
50.03000 159.767
50.04000 156.514
50.05000 151.398
50.06000 146.550
50.07000 144.782
50.08000 143.891
50.09000 143.010
50.10000 142.204
50.11000 141.411
50.12000 140.752
50.13000 144.214
50.14000 147.482
50.15000 149.473
50.16000 147.671
50.17000 145.619
50.18000 144.881
50.19000 146.808
50.20000 148.813
50.21000 149.973
50.22000 152.897
50.23000 154.956
50.24000 157.333
50.25000 159.995
50.26000 162.620
50.27000 163.000
50.28000 162.049
50.29000 161.130
50.30000 159.943
50.31000 158.720
50.32000 157.745
50.33000 159.479
50.34000 161.957
50.35000 164.415
50.36000 166.747
50.37000 169.057
50.38000 170.963
50.39000 163.204
50.40000 155.913
50.41000 151.216
50.42000 153.952
50.43000 157.151
50.44000 158.686
50.45000 156.964
50.46000 155.157
50.47000 154.127
50.48000 162.216
50.49000 167.884
50.50000 172.915
50.51000 177.400
50.52000 181.819
50.53000 182.653
50.54000 181.440
50.55000 180.268
50.56000 182.811
50.57000 186.568
50.58000 189.876
50.59000 188.547
50.60000 185.991
50.61000 183.872
50.62000 184.500
50.63000 185.606
50.64000 186.512
50.65000 181.128
50.66000 176.160
50.67000 172.160
50.68000 170.841
50.69000 169.679
50.70000 169.532
50.71000 171.299
50.72000 173.112
50.73000 174.128
50.74000 181.927
50.75000 187.335
50.76000 186.729
50.77000 181.168
50.78000 175.656
50.79000 172.514
50.80000 170.678
50.81000 168.912
50.82000 168.139
50.83000 167.764
50.84000 167.284
50.85000 165.762
50.86000 163.974
50.87000 162.682
50.88000 164.369
50.89000 166.555
50.90000 168.332
50.91000 164.721
50.92000 161.324
50.93000 158.694
50.94000 158.114
50.95000 157.647
50.96000 157.999
50.97000 159.847
50.98000 161.727
50.99000 162.762
51.00000 154.092
51.01000 148.124
51.02000 148.230
51.03000 153.151
51.04000 157.943
51.05000 157.144
51.06000 153.370
51.07000 149.748
51.08000 144.122
51.09000 138.184
51.10000 133.336
51.11000 138.703
51.12000 146.579
51.13000 153.540
51.14000 155.210
51.15000 156.030
51.16000 156.693
51.17000 153.995
51.18000 151.538
51.19000 150.348
51.20000 152.426
51.21000 154.671
51.22000 154.940
51.23000 151.731
51.24000 148.457
51.25000 146.687
51.26000 143.286
51.27000 140.961
51.28000 139.750
51.29000 139.390
51.30000 139.183
51.31000 144.948
51.32000 153.782
51.33000 162.231
51.34000 159.492
51.35000 153.290
51.36000 147.511
51.37000 145.514
51.38000 144.412
51.39000 143.577
51.40000 144.226
51.41000 145.103
51.42000 145.805
51.43000 144.890
51.44000 144.029
51.45000 142.252
51.46000 138.189
51.47000 134.019
51.48000 133.185
51.49000 138.017
51.50000 142.943
51.51000 145.557
51.52000 142.316
51.53000 140.110
51.54000 138.209
51.55000 136.533
51.56000 134.928
51.57000 135.845
51.58000 138.013
51.59000 140.080
51.60000 141.421
51.61000 142.438
51.62000 143.617
51.63000 146.183
51.64000 149.066
51.65000 151.065
51.66000 148.351
51.67000 144.941
51.68000 142.235
51.69000 143.981
51.70000 145.700
51.71000 146.803
51.72000 146.426
51.73000 145.984
51.74000 146.483
51.75000 148.522
51.76000 150.583
51.77000 151.657
51.78000 147.723
51.79000 145.077
51.80000 144.554
51.81000 145.534
51.82000 146.454
51.83000 145.453
51.84000 143.533
51.85000 141.708
51.86000 142.621
51.87000 144.290
51.88000 145.473
51.89000 142.701
51.90000 139.061
51.91000 136.281
51.92000 137.905
51.93000 140.152
51.94000 141.921
51.95000 140.838
51.96000 139.781
51.97000 139.673
51.98000 141.767
51.99000 143.951
52.00000 142.643
52.01000 135.818
52.02000 128.924
52.03000 125.404
52.04000 135.121
52.05000 141.610
52.06000 143.917
52.07000 143.371
52.08000 142.776
52.09000 140.779
52.10000 138.133
52.11000 135.627
52.12000 132.842
52.13000 130.197
52.14000 128.188
52.15000 131.116
52.16000 135.088
52.17000 138.550
52.18000 139.500
52.19000 140.111
52.20000 140.587
52.21000 137.513
52.22000 134.840
52.23000 134.930
52.24000 141.221
52.25000 147.745
52.26000 150.273
52.27000 146.712
52.28000 143.087
52.29000 141.273
52.30000 137.934
52.31000 135.726
52.32000 135.328
52.33000 136.120
52.34000 136.922
52.35000 137.951
52.36000 139.082
52.37000 140.148
52.38000 142.429
52.39000 144.858
52.40000 146.918
52.41000 146.238
52.42000 145.001
52.43000 144.054
52.44000 144.478
52.45000 145.079
52.46000 145.544
52.47000 139.948
52.48000 135.151
52.49000 132.071
52.50000 132.715
52.51000 133.488
52.52000 135.514
52.53000 139.383
52.54000 143.268
52.55000 147.106
52.56000 150.898
52.57000 154.592
52.58000 150.375
52.59000 141.136
52.60000 132.113
52.61000 128.410
52.62000 127.001
52.63000 125.677
52.64000 130.192
52.65000 135.880
52.66000 140.941
52.67000 141.548
52.68000 141.283
52.69000 140.954
52.70000 140.326
52.71000 139.662
52.72000 139.153
52.73000 137.068
52.74000 135.334
52.75000 136.015
52.76000 141.752
52.77000 147.648
52.78000 147.684
52.79000 139.423
52.80000 131.104
52.81000 126.448
52.82000 125.177
52.83000 123.965
52.84000 126.934
52.85000 132.462
52.86000 137.827
52.87000 139.457
52.88000 139.532
52.89000 139.601
52.90000 139.782
52.91000 139.975
52.92000 140.168
52.93000 140.365
52.94000 140.564
52.95000 141.093
52.96000 143.081
52.97000 145.240
52.98000 146.879
52.99000 143.627
53.00000 140.818
53.01000 137.938
53.02000 134.912
53.03000 131.881
53.04000 133.533
53.05000 141.572
53.06000 149.644
53.07000 149.443
53.08000 141.908
53.09000 134.457
53.10000 132.072
53.11000 132.679
53.12000 133.319
53.13000 134.680
53.14000 136.331
53.15000 137.870
53.16000 141.500
53.17000 145.304
53.18000 148.688
53.19000 149.332
53.20000 149.480
53.21000 149.216
53.22000 147.204
53.23000 144.996
53.24000 143.335
53.25000 142.371
53.26000 141.652
53.27000 142.015
53.28000 144.494
53.29000 147.028
53.30000 148.149
53.31000 147.415
53.32000 146.673
53.33000 148.159
53.34000 151.539
53.35000 154.875
53.36000 155.786
53.37000 155.317
53.38000 154.955
53.39000 156.720
53.40000 159.311
53.41000 161.718
53.42000 159.185
53.43000 155.726
53.44000 152.891
53.45000 153.954
53.46000 155.693
53.47000 157.152
53.48000 157.464
53.49000 157.654
53.50000 157.795
53.51000 158.989
53.52000 159.966
53.53000 160.664
53.54000 160.839
53.55000 161.001
53.56000 160.220
53.57000 158.247
53.58000 156.273
53.59000 153.332
53.60000 149.610
53.61000 145.938
53.62000 144.684
53.63000 144.758
53.64000 144.843
53.65000 145.129
53.66000 145.491
53.67000 145.826
53.68000 143.897
53.69000 141.648
53.70000 139.948
53.71000 141.541
53.72000 143.682
53.73000 144.936
53.74000 142.700
53.75000 140.109
53.76000 138.198
53.77000 137.090
53.78000 136.265
53.79000 136.860
53.80000 140.034
53.81000 143.263
53.82000 144.388
53.83000 142.951
53.84000 141.511
53.85000 141.187
53.86000 141.741
53.87000 142.235
53.88000 140.157
53.89000 136.715
53.90000 133.476
53.91000 133.720
53.92000 135.227
53.93000 136.614
53.94000 136.722
53.95000 136.539
53.96000 136.331
53.97000 135.981
53.98000 135.608
53.99000 135.384
54.00000 135.726
54.01000 136.123
54.02000 136.413
54.03000 135.149
54.04000 134.114
54.05000 134.862
54.06000 138.737
54.07000 142.671
54.08000 145.665
54.09000 147.557
54.10000 149.442
54.11000 148.785
54.12000 146.211
54.13000 143.544
54.14000 137.294
54.15000 129.208
54.16000 121.534
54.17000 120.506
54.18000 121.802
54.19000 122.989
54.20000 132.560
54.21000 142.847
54.22000 151.080
54.23000 147.949
54.24000 143.077
54.25000 139.388
54.26000 140.026
54.27000 141.062
54.28000 141.810
54.29000 132.383
54.30000 124.785
54.31000 122.225
54.32000 128.195
54.33000 134.305
54.34000 136.967
54.35000 135.747
54.36000 134.527
54.37000 132.626
54.38000 130.247
54.39000 128.063
54.40000 132.707
54.41000 140.728
54.42000 148.075
54.43000 145.190
54.44000 138.851
54.45000 133.067
54.46000 130.286
54.47000 128.424
54.48000 127.223
54.49000 129.528
54.50000 132.348
54.51000 135.147
54.52000 137.872
54.53000 140.591
54.54000 142.534
54.55000 134.710
54.56000 128.413
54.57000 127.051
54.58000 133.749
54.59000 140.561
54.60000 143.610
54.61000 142.585
54.62000 141.563
54.63000 139.813
54.64000 137.572
54.65000 135.355
54.66000 133.892
54.67000 132.790
54.68000 131.628
54.69000 129.617
54.70000 127.329
54.71000 125.252
54.72000 127.452
54.73000 130.222
54.74000 132.728
54.75000 133.882
54.76000 134.846
54.77000 136.496
54.78000 140.477
54.79000 144.651
54.80000 147.601
54.81000 139.274
54.82000 132.604
54.83000 129.704
54.84000 132.745
54.85000 135.859
54.86000 139.401
54.87000 143.388
54.88000 147.354
54.89000 148.940
54.90000 148.907
54.91000 148.818
54.92000 147.118
54.93000 144.674
54.94000 142.293
54.95000 140.765
54.96000 139.505
54.97000 138.367
54.98000 138.709
54.99000 139.284
55.00000 139.896
55.01000 140.684
55.02000 141.497
55.03000 142.513
55.04000 144.199
55.05000 145.936
55.06000 147.151
55.07000 143.524
55.08000 140.647
55.09000 139.586
55.10000 141.281
55.11000 143.006
55.12000 145.581
55.13000 149.005
55.14000 152.408
55.15000 149.418
55.16000 142.338
55.17000 135.731
55.18000 141.734
55.19000 153.351
55.20000 164.020
55.21000 162.620
55.22000 157.557
55.23000 153.006
55.24000 150.845
55.25000 149.377
55.26000 148.517
55.27000 150.534
55.28000 152.922
55.29000 154.116
55.30000 151.530
55.31000 148.666
55.32000 146.686
55.33000 153.180
55.34000 158.279
55.35000 159.750
55.36000 155.907
55.37000 152.018
55.38000 153.554
55.39000 160.288
55.40000 166.970
55.41000 169.853
55.42000 170.324
55.43000 170.874
55.44000 173.370
55.45000 176.702
55.46000 180.365
55.47000 188.017
55.48000 196.838
55.49000 204.726
55.50000 209.613
55.51000 213.364
55.52000 216.224
55.53000 215.030
55.54000 213.337
55.55000 214.371
55.56000 223.744
55.57000 233.697
55.58000 240.492
55.59000 258.676
55.60000 272.541
55.61000 281.874
55.62000 284.808
55.63000 287.698
55.64000 295.389
55.65000 307.501
55.66000 319.504
55.67000 330.806
55.68000 341.468
55.69000 352.211
55.70000 364.784
55.71000 378.118
55.72000 392.083
55.73000 413.244
55.74000 436.437
55.75000 457.068
55.76000 465.097
55.77000 470.016
55.78000 478.266
55.79000 501.118
55.80000 525.684
55.81000 544.266
55.82000 545.177
55.83000 544.931
55.84000 544.765
55.85000 559.146
55.86000 570.154
55.87000 579.067
55.88000 585.133
55.89000 591.186
55.90000 600.181
55.91000 611.778
55.92000 623.256
55.93000 616.061
55.94000 598.273
55.95000 581.251
55.96000 580.393
55.97000 586.016
55.98000 591.326
55.99000 593.248
56.00000 594.245
56.01000 595.128
56.02000 589.665
56.03000 583.955
56.04000 575.958
56.05000 558.305
56.06000 539.572
56.07000 521.596
56.08000 505.779
56.09000 490.095
56.10000 479.647
56.11000 463.405
56.12000 451.273
56.13000 437.894
56.14000 422.882
56.15000 407.865
56.16000 393.724
56.17000 380.329
56.18000 367.093
56.19000 358.649
56.20000 353.069
56.21000 347.069
56.22000 332.830
56.23000 315.400
56.24000 298.492
56.25000 286.938
56.26000 276.791
56.27000 267.866
56.28000 258.594
56.29000 250.563
56.30000 242.830
56.31000 236.305
56.32000 229.908
56.33000 222.192
56.34000 210.842
56.35000 199.283
56.36000 191.680
56.37000 184.175
56.38000 178.651
56.39000 176.025
56.40000 177.054
56.41000 178.087
56.42000 175.963
56.43000 171.255
56.44000 166.611
56.45000 163.633
56.46000 161.626
56.47000 159.723
56.48000 159.743
56.49000 160.483
56.50000 160.959
56.51000 158.862
56.52000 156.113
56.53000 153.709
56.54000 152.593
56.55000 151.819
56.56000 150.810
56.57000 148.874
56.58000 146.843
56.59000 145.890
56.60000 147.799
56.61000 149.861
56.62000 151.200
56.63000 143.878
56.64000 138.383
56.65000 135.925
56.66000 137.153
56.67000 138.384
56.68000 138.337
56.69000 137.283
56.70000 136.244
56.71000 134.700
56.72000 132.943
56.73000 131.445
56.74000 134.399
56.75000 138.959
56.76000 142.617
56.77000 137.881
56.78000 131.096
56.79000 125.197
56.80000 127.710
56.81000 130.997
56.82000 133.381
56.83000 132.350
56.84000 130.991
56.85000 130.943
56.86000 134.262
56.87000 137.751
56.88000 139.985
56.89000 133.807
56.90000 129.193
56.91000 127.458
56.92000 129.083
56.93000 130.703
56.94000 130.109
56.95000 127.835
56.96000 125.600
56.97000 128.142
56.98000 132.957
56.99000 137.451
57.00000 136.780
57.01000 134.308
57.02000 132.061
57.03000 131.802
57.04000 132.011
57.05000 132.192
57.06000 129.229
57.07000 126.306
57.08000 124.425
57.09000 126.347
57.10000 128.618
57.11000 128.710
57.12000 123.406
57.13000 117.850
57.14000 114.340
57.15000 121.498
57.16000 126.809
57.17000 130.762
57.18000 133.190
57.19000 135.595
57.20000 134.136
57.21000 129.855
57.22000 125.655
57.23000 125.643
57.24000 127.622
57.25000 129.298
57.26000 126.393
57.27000 121.945
57.28000 118.267
57.29000 121.090
57.30000 125.385
57.31000 129.073
57.32000 129.840
57.33000 130.127
57.34000 129.412
57.35000 125.175
57.36000 120.632
57.37000 118.468
57.38000 121.997
57.39000 125.773
57.40000 128.125
57.41000 129.217
57.42000 129.991
57.43000 129.377
57.44000 127.265
57.45000 125.155
57.46000 123.364
57.47000 121.798
57.48000 120.266
57.49000 119.717
57.50000 119.640
57.51000 119.923
57.52000 125.314
57.53000 132.365
57.54000 138.294
57.55000 135.174
57.56000 130.080
57.57000 125.734
57.58000 128.113
57.59000 130.908
57.60000 132.929
57.61000 132.323
57.62000 131.500
57.63000 130.148
57.64000 127.571
57.65000 124.945
57.66000 123.333
57.67000 122.244
57.68000 121.468
57.69000 121.194
57.70000 121.442
57.71000 121.699
57.72000 122.859
57.73000 124.634
57.74000 126.367
57.75000 126.140
57.76000 125.059
57.77000 124.023
57.78000 123.593
57.79000 123.354
57.80000 122.876
57.81000 120.551
57.82000 117.838
57.83000 115.539
57.84000 113.122
57.85000 111.085
57.86000 110.342
57.87000 113.837
57.88000 117.662
57.89000 120.612
57.90000 121.612
57.91000 122.539
57.92000 123.100
57.93000 125.277
57.94000 126.841
57.95000 127.474
57.96000 127.182
57.97000 126.865
57.98000 124.219
57.99000 120.048
58.00000 115.984
58.01000 116.252
58.02000 118.342
58.03000 120.120
58.04000 117.950
58.05000 114.585
58.06000 111.699
58.07000 112.339
58.08000 113.691
58.09000 114.830
58.10000 119.056
58.11000 122.912
58.12000 125.334
58.13000 123.230
58.14000 120.793
58.15000 118.516
58.16000 116.583
58.17000 114.662
58.18000 113.518
58.19000 112.585
58.20000 111.925
58.21000 111.895
58.22000 112.466
58.23000 113.051
58.24000 114.693
58.25000 117.002
58.26000 119.247
58.27000 121.051
58.28000 122.588
58.29000 124.154
58.30000 126.076
58.31000 128.103
58.32000 129.388
58.33000 125.441
58.34000 120.477
58.35000 116.328
58.36000 119.276
58.37000 122.446
58.38000 125.405
58.39000 127.717
58.40000 129.985
58.41000 129.855
58.42000 124.736
58.43000 119.463
58.44000 116.371
58.45000 117.493
58.46000 118.303
58.47000 117.855
58.48000 116.251
58.49000 114.662
58.50000 114.023
58.51000 113.963
58.52000 113.904
58.53000 114.446
58.54000 115.195
58.55000 116.009
58.56000 117.556
58.57000 119.310
58.58000 120.765
58.59000 120.201
58.60000 119.260
58.61000 118.479
58.62000 120.195
58.63000 121.854
58.64000 123.462
58.65000 124.913
58.66000 126.355
58.67000 125.036
58.68000 118.169
58.69000 111.145
58.70000 107.093
58.71000 111.174
58.72000 114.062
58.73000 115.905
58.74000 116.827
58.75000 117.739
58.76000 118.081
58.77000 118.089
58.78000 118.096
58.79000 118.684
58.80000 119.458
58.81000 120.223
58.82000 120.883
58.83000 121.515
58.84000 121.897
58.85000 120.655
58.86000 119.123
58.87000 117.860
58.88000 117.518
58.89000 117.320
58.90000 116.840
58.91000 115.560
58.92000 114.231
58.93000 114.935
58.94000 119.584
58.95000 124.333
58.96000 127.028
58.97000 122.630
58.98000 119.546
58.99000 116.038
59.00000 112.170
59.01000 108.346
59.02000 106.811
59.03000 106.571
59.04000 106.339
59.05000 106.278
59.06000 106.283
59.07000 106.573
59.08000 109.790
59.09000 113.774
59.10000 117.447
59.11000 119.193
59.12000 120.606
59.13000 121.762
59.14000 116.520
59.15000 111.671
59.16000 108.410
59.17000 109.508
59.18000 110.857
59.19000 111.867
59.20000 112.244
59.21000 112.607
59.22000 112.810
59.23000 115.945
59.24000 118.116
59.25000 117.850
59.26000 115.599
59.27000 113.385
59.28000 112.953
59.29000 113.497
59.30000 114.019
59.31000 115.389
59.32000 116.969
59.33000 118.886
59.34000 124.071
59.35000 130.081
59.36000 134.291
59.37000 127.784
59.38000 119.503
59.39000 112.783
59.40000 114.823
59.41000 117.209
59.42000 118.895
59.43000 118.730
59.44000 118.465
59.45000 118.097
59.46000 117.545
59.47000 116.988
59.48000 116.683
59.49000 117.497
59.50000 118.051
59.51000 116.713
59.52000 113.889
59.53000 111.137
59.54000 111.409
59.55000 113.275
59.56000 115.064
59.57000 115.482
59.58000 115.412
59.59000 115.489
59.60000 116.939
59.61000 118.723
59.62000 119.666
59.63000 115.798
59.64000 111.165
59.65000 107.435
59.66000 107.346
59.67000 107.557
59.68000 108.206
59.69000 109.974
59.70000 111.797
59.71000 112.938
59.72000 112.888
59.73000 112.817
59.74000 112.779
59.75000 115.538
59.76000 117.413
59.77000 116.276
59.78000 112.862
59.79000 109.529
59.80000 109.242
59.81000 110.505
59.82000 111.713
59.83000 112.628
59.84000 113.384
59.85000 113.872
59.86000 111.987
59.87000 109.546
59.88000 107.761
59.89000 109.577
59.90000 111.941
59.91000 113.829
59.92000 114.876
59.93000 115.660
59.94000 116.401
59.95000 117.039
59.96000 117.671
59.97000 117.638
59.98000 116.485
59.99000 115.313
60.00000 114.694
60.01000 123.857
60.02000 130.041
60.03000 129.113
60.04000 123.005
60.05000 117.042
60.06000 116.025
60.07000 117.442
60.08000 118.791
60.09000 118.969
60.10000 118.769
60.11000 118.541
60.12000 118.066
60.13000 117.536
60.14000 117.301
60.15000 118.623
60.16000 120.172
60.17000 121.399
60.18000 116.717
60.19000 112.543
60.20000 110.620
60.21000 114.069
60.22000 117.750
60.23000 118.855
60.24000 115.779
60.25000 112.645
60.26000 111.021
60.27000 110.855
60.28000 110.756
60.29000 112.376
60.30000 115.202
60.31000 117.962
60.32000 118.650
60.33000 118.355
60.34000 118.074
60.35000 118.375
60.36000 118.826
60.37000 119.229
60.38000 119.240
60.39000 119.165
60.40000 118.843
60.41000 117.264
60.42000 115.510
60.43000 114.132
60.44000 114.950
60.45000 115.748
60.46000 115.873
60.47000 114.449
60.48000 112.964
60.49000 112.826
60.50000 114.799
60.51000 116.798
60.52000 117.813
60.53000 122.080
60.54000 124.902
60.55000 123.490
60.56000 119.217
60.57000 115.006
60.58000 112.581
60.59000 110.976
60.60000 109.457
60.61000 110.930
60.62000 113.144
60.63000 115.095
60.64000 115.029
60.65000 114.541
60.66000 114.434
60.67000 116.193
60.68000 118.202
60.69000 119.765
60.70000 111.608
60.71000 104.512
60.72000 101.941
60.73000 109.439
60.74000 117.308
60.75000 120.974
60.76000 118.296
60.77000 115.553
60.78000 114.884
60.79000 116.269
60.80000 117.640
60.81000 117.632
60.82000 116.725
60.83000 115.768
60.84000 113.508
60.85000 110.671
60.86000 107.997
60.87000 112.310
60.88000 118.189
60.89000 123.254
60.90000 122.330
60.91000 120.201
60.92000 118.245
60.93000 117.101
60.94000 116.061
60.95000 115.258
60.96000 115.268
60.97000 115.323
60.98000 115.466
60.99000 115.799
61.00000 116.139
61.01000 116.247
61.02000 116.019
61.03000 115.788
61.04000 117.552
61.05000 121.214
61.06000 124.798
61.07000 122.248
61.08000 115.841
61.09000 109.668
61.10000 109.164
61.11000 111.084
61.12000 112.886
61.13000 121.390
61.14000 130.925
61.15000 138.599
61.16000 133.189
61.17000 125.245
61.18000 119.437
61.19000 123.288
61.20000 128.319
61.21000 132.165
61.22000 130.081
61.23000 128.115
61.24000 126.166
61.25000 124.253
61.26000 122.341
61.27000 120.276
61.28000 117.995
61.29000 115.714
61.30000 116.071
61.31000 118.838
61.32000 121.565
61.33000 121.577
61.34000 119.941
61.35000 118.358
61.36000 117.933
61.37000 117.986
61.38000 118.035
61.39000 118.334
61.40000 118.668
61.41000 118.966
61.42000 119.024
61.43000 119.036
61.44000 119.853
61.45000 124.175
61.46000 128.906
61.47000 132.490
61.48000 136.740
61.49000 140.111
61.50000 143.225
61.51000 145.828
61.52000 148.416
61.53000 155.348
61.54000 168.153
61.55000 180.983
61.56000 192.509
61.57000 202.873
61.58000 213.339
61.59000 229.857
61.60000 249.917
61.61000 269.412
61.62000 277.152
61.63000 280.204
61.64000 283.048
61.65000 285.631
61.66000 287.903
61.67000 289.725
61.68000 288.646
61.69000 287.048
61.70000 286.559
61.71000 290.722
61.72000 295.402
61.73000 298.914
61.74000 299.306
61.75000 299.464
61.76000 292.911
61.77000 273.382
61.78000 253.524
61.79000 236.610
61.80000 223.526
61.81000 210.471
61.82000 196.984
61.83000 183.165
61.84000 169.408
61.85000 158.833
61.86000 150.056
61.87000 141.602
61.88000 139.417
61.89000 139.646
61.90000 139.859
61.91000 138.799
61.92000 137.545
61.93000 136.401
61.94000 135.932
61.95000 135.579
61.96000 134.611
61.97000 131.158
61.98000 127.443
61.99000 124.682
62.00000 120.984
62.01000 118.067
62.02000 117.271
62.03000 120.431
62.04000 123.682
62.05000 124.425
62.06000 122.024
62.07000 119.618
62.08000 120.709
62.09000 124.630
62.10000 128.478
62.11000 128.910
62.12000 127.482
62.13000 126.240
62.14000 128.364
62.15000 131.739
62.16000 134.857
62.17000 132.615
62.18000 129.392
62.19000 126.574
62.20000 126.156
62.21000 126.133
62.22000 125.567
62.23000 122.883
62.24000 119.987
62.25000 117.856
62.26000 117.555
62.27000 117.398
62.28000 118.065
62.29000 120.216
62.30000 122.399
62.31000 124.497
62.32000 126.494
62.33000 128.486
62.34000 130.050
62.35000 131.272
62.36000 132.398
62.37000 129.529
62.38000 124.559
62.39000 119.903
62.40000 120.566
62.41000 123.139
62.42000 125.505
62.43000 127.256
62.44000 128.687
62.45000 130.193
62.46000 132.126
62.47000 134.126
62.48000 134.538
62.49000 128.988
62.50000 122.866
62.51000 118.409
62.52000 119.231
62.53000 120.066
62.54000 119.906
62.55000 118.016
62.56000 116.096
62.57000 115.861
62.58000 117.582
62.59000 119.301
62.60000 122.553
62.61000 126.931
62.62000 131.262
62.63000 133.853
62.64000 135.560
62.65000 137.109
62.66000 136.133
62.67000 134.281
62.68000 132.586
62.69000 132.955
62.70000 133.713
62.71000 134.276
62.72000 133.772
62.73000 133.106
62.74000 132.888
62.75000 134.293
62.76000 135.846
62.77000 136.965
62.78000 130.355
62.79000 125.018
62.80000 121.530
62.81000 121.145
62.82000 120.809
62.83000 121.060
62.84000 121.965
62.85000 122.868
62.86000 124.630
62.87000 126.997
62.88000 129.284
62.89000 128.861
62.90000 127.111
62.91000 125.600
62.92000 127.673
62.93000 130.945
62.94000 133.927
62.95000 132.390
62.96000 130.127
62.97000 128.047
62.98000 126.930
62.99000 125.954
63.00000 125.424
63.01000 126.453
63.02000 127.617
63.03000 128.446
63.04000 131.673
63.05000 134.212
63.06000 134.870
63.07000 132.485
63.08000 130.058
63.09000 129.137
63.10000 129.831
63.11000 130.522
63.12000 131.753
63.13000 133.345
63.14000 134.781
63.15000 131.392
63.16000 125.718
63.17000 120.439
63.18000 120.725
63.19000 122.808
63.20000 124.698
63.21000 129.063
63.22000 133.388
63.23000 137.055
63.24000 137.388
63.25000 137.258
63.26000 137.076
63.27000 136.719
63.28000 136.349
63.29000 136.088
63.30000 135.175
63.31000 134.463
63.32000 134.272
63.33000 134.895
63.34000 135.527
63.35000 135.238
63.36000 134.003
63.37000 132.774
63.38000 128.523
63.39000 122.315
63.40000 116.451
63.41000 120.346
63.42000 128.702
63.43000 136.353
63.44000 134.650
63.45000 130.030
63.46000 125.861
63.47000 128.879
63.48000 132.847
63.49000 135.824
63.50000 133.972
63.51000 131.478
63.52000 130.305
63.53000 133.431
63.54000 136.888
63.55000 139.298
63.56000 139.336
63.57000 139.300
63.58000 137.986
63.59000 134.748
63.60000 131.491
63.61000 132.323
63.62000 137.194
63.63000 142.033
63.64000 143.225
63.65000 142.064
63.66000 140.906
63.67000 139.841
63.68000 138.816
63.69000 137.768
63.70000 136.419
63.71000 134.980
63.72000 133.688
63.73000 130.297
63.74000 126.963
63.75000 125.338
63.76000 131.724
63.77000 139.129
63.78000 143.530
63.79000 138.497
63.80000 132.777
63.81000 128.836
63.82000 138.011
63.83000 145.229
63.84000 147.821
63.85000 143.700
63.86000 139.524
63.87000 139.393
63.88000 143.098
63.89000 146.774
63.90000 147.441
63.91000 146.241
63.92000 145.111
63.93000 145.658
63.94000 146.920
63.95000 148.115
63.96000 148.512
63.97000 148.678
63.98000 148.826
63.99000 151.722
64.00000 154.705
64.01000 156.753
64.02000 154.582
64.03000 151.897
64.04000 150.372
64.05000 152.359
64.06000 154.588
64.07000 156.105
64.08000 152.247
64.09000 149.242
64.10000 146.825
64.11000 145.229
64.12000 143.640
64.13000 144.441
64.14000 147.422
64.15000 150.374
64.16000 152.755
64.17000 154.749
64.18000 156.529
64.19000 153.541
64.20000 148.590
64.21000 144.030
64.22000 143.861
64.23000 144.920
64.24000 145.862
64.25000 149.856
64.26000 153.810
64.27000 156.363
64.28000 152.826
64.29000 148.583
64.30000 145.776
64.31000 147.173
64.32000 148.842
64.33000 149.964
64.34000 150.298
64.35000 150.530
64.36000 152.884
64.37000 158.097
64.38000 163.319
64.39000 162.680
64.40000 156.908
64.41000 151.197
64.42000 147.193
64.43000 144.253
64.44000 141.550
64.45000 143.770
64.46000 147.947
64.47000 152.085
64.48000 155.812
64.49000 159.429
64.50000 162.623
64.51000 158.105
64.52000 153.015
64.53000 149.825
64.54000 154.578
64.55000 160.209
64.56000 163.119
64.57000 158.339
64.58000 153.095
64.59000 149.612
64.60000 156.162
64.61000 161.189
64.62000 163.814
64.63000 163.320
64.64000 162.811
64.65000 161.653
64.66000 159.947
64.67000 158.262
64.68000 157.174
64.69000 156.441
64.70000 155.741
64.71000 155.687
64.72000 155.881
64.73000 156.620
64.74000 162.886
64.75000 170.591
64.76000 177.359
64.77000 176.816
64.78000 175.273
64.79000 173.589
64.80000 171.334
64.81000 169.019
64.82000 167.640
64.83000 168.816
64.84000 170.138
64.85000 171.004
64.86000 169.664
64.87000 168.642
64.88000 169.396
64.89000 172.367
64.90000 175.346
64.91000 178.440
64.92000 181.628
64.93000 184.771
64.94000 184.122
64.95000 181.489
64.96000 179.084
64.97000 180.789
64.98000 184.019
64.99000 187.133
65.00000 189.142
65.01000 190.873
65.02000 192.384
65.03000 192.281
65.04000 191.965
65.05000 193.082
65.06000 199.767
65.07000 207.011
65.08000 211.402
65.09000 208.279
65.10000 204.757
65.11000 202.479
65.12000 197.425
65.13000 193.687
65.14000 193.090
65.15000 196.268
65.16000 199.465
65.17000 205.980
65.18000 215.083
65.19000 224.043
65.20000 224.553
65.21000 220.752
65.22000 217.487
65.23000 223.250
65.24000 232.245
65.25000 239.804
65.26000 234.190
65.27000 225.389
65.28000 217.749
65.29000 223.216
65.30000 229.636
65.31000 235.623
65.32000 239.990
65.33000 244.203
65.34000 248.888
65.35000 254.773
65.36000 260.717
65.37000 264.511
65.38000 261.811
65.39000 259.762
65.40000 263.877
65.41000 275.118
65.42000 286.324
65.43000 288.463
65.44000 283.791
65.45000 279.201
65.46000 281.002
65.47000 285.867
65.48000 290.695
65.49000 294.914
65.50000 298.923
65.51000 302.777
65.52000 305.284
65.53000 307.475
65.54000 309.366
65.55000 322.921
65.56000 335.915
65.57000 346.536
65.58000 348.585
65.59000 349.859
65.60000 355.694
65.61000 372.730
65.62000 390.281
65.63000 401.329
65.64000 440.545
65.65000 469.238
65.66000 505.957
65.67000 551.597
65.68000 597.394
65.69000 667.263
65.70000 754.551
65.71000 840.135
65.72000 954.149
65.73000 1077.308
65.74000 1200.256
65.75000 1320.073
65.76000 1438.845
65.77000 1554.250
65.78000 1641.538
65.79000 1722.515
65.80000 1791.932
65.81000 1860.047
65.82000 1917.413
65.83000 1961.809
65.84000 1961.006
65.85000 1956.329
65.86000 1961.775
65.87000 1991.233
65.88000 2021.713
65.89000 2040.628
65.90000 1996.238
65.91000 1963.677
65.92000 1907.107
65.93000 1824.896
65.94000 1742.443
65.95000 1629.697
65.96000 1495.829
65.97000 1364.853
65.98000 1235.210
65.99000 1111.396
66.00000 989.263
66.01000 890.664
66.02000 799.646
66.03000 711.502
66.04000 646.290
66.05000 586.033
66.06000 534.712
66.07000 487.909
66.08000 449.085
66.09000 418.296
66.10000 414.521
66.11000 412.938
66.12000 406.753
66.13000 390.028
66.14000 372.889
66.15000 362.407
66.16000 358.641
66.17000 356.002
66.18000 351.759
66.19000 345.873
66.20000 340.116
66.21000 348.077
66.22000 365.258
66.23000 382.030
66.24000 395.776
66.25000 407.606
66.26000 419.858
66.27000 437.708
66.28000 457.296
66.29000 477.280
66.30000 500.278
66.31000 523.901
66.32000 543.888
66.33000 563.840
66.34000 580.535
66.35000 595.892
66.36000 606.910
66.37000 617.596
66.38000 624.627
66.39000 623.577
66.40000 622.235
66.41000 621.426
66.42000 628.841
66.43000 634.175
66.44000 634.073
66.45000 628.618
66.46000 623.097
66.47000 611.593
66.48000 596.212
66.49000 581.232
66.50000 567.943
66.51000 555.986
66.52000 543.070
66.53000 518.199
66.54000 489.742
66.55000 462.316
66.56000 442.407
66.57000 424.001
66.58000 408.535
66.59000 395.104
66.60000 384.128
66.61000 374.709
66.62000 370.164
66.63000 365.972
66.64000 360.871
66.65000 353.827
66.66000 346.718
66.67000 342.501
66.68000 340.075
66.69000 338.369
66.70000 337.629
66.71000 337.802
66.72000 337.971
66.73000 337.806
66.74000 337.433
66.75000 337.071
66.76000 339.604
66.77000 343.180
66.78000 346.622
66.79000 348.482
66.80000 349.883
66.81000 351.263
66.82000 352.503
66.83000 353.716
66.84000 354.729
66.85000 358.488
66.86000 361.882
66.87000 365.117
66.88000 367.876
66.89000 370.601
66.90000 369.558
66.91000 360.741
66.92000 351.689
66.93000 346.403
66.94000 358.598
66.95000 367.254
66.96000 369.103
66.97000 364.767
66.98000 360.506
66.99000 361.148
67.00000 364.744
67.01000 368.229
67.02000 369.458
67.03000 369.744
67.04000 369.957
67.05000 369.353
67.06000 368.520
67.07000 368.069
67.08000 370.171
67.09000 372.746
67.10000 374.879
67.11000 378.035
67.12000 380.738
67.13000 384.125
67.14000 389.507
67.15000 395.016
67.16000 397.648
67.17000 394.548
67.18000 391.290
67.19000 389.419
67.20000 389.919
67.21000 390.275
67.22000 388.722
67.23000 385.503
67.24000 382.284
67.25000 379.029
67.26000 375.754
67.27000 372.589
67.28000 372.909
67.29000 374.514
67.30000 376.744
67.31000 385.616
67.32000 396.277
67.33000 405.357
67.34000 404.312
67.35000 401.468
67.36000 399.130
67.37000 400.235
67.38000 401.455
67.39000 402.388
67.40000 402.513
67.41000 402.589
67.42000 402.693
67.43000 402.852
67.44000 403.012
67.45000 403.103
67.46000 410.310
67.47000 415.339
67.48000 420.060
67.49000 424.522
67.50000 428.878
67.51000 427.822
67.52000 423.728
67.53000 419.783
67.54000 428.730
67.55000 441.777
67.56000 453.698
67.57000 454.268
67.58000 451.890
67.59000 449.478
67.60000 446.851
67.61000 444.188
67.62000 442.014
67.63000 445.456
67.64000 448.754
67.65000 449.879
67.66000 445.095
67.67000 439.977
67.68000 437.611
67.69000 440.352
67.70000 443.206
67.71000 444.791
67.72000 444.792
67.73000 444.798
67.74000 448.199
67.75000 454.342
67.76000 460.278
67.77000 456.782
67.78000 448.176
67.79000 439.907
67.80000 442.856
67.81000 449.499
67.82000 456.092
67.83000 462.203
67.84000 468.194
67.85000 474.348
67.86000 481.470
67.87000 488.751
67.88000 494.647
67.89000 494.429
67.90000 493.755
67.91000 490.805
67.92000 481.876
67.93000 472.633
67.94000 470.080
67.95000 479.513
67.96000 489.184
67.97000 494.460
67.98000 491.251
67.99000 489.041
68.00000 488.190
68.01000 488.396
68.02000 488.659
68.03000 491.225
68.04000 494.996
68.05000 498.607
68.06000 501.013
68.07000 502.854
68.08000 504.955
68.09000 509.419
68.10000 514.452
68.11000 518.646
68.12000 518.086
68.13000 516.778
68.14000 515.727
68.15000 518.724
68.16000 521.465
68.17000 524.458
68.18000 528.092
68.19000 531.758
68.20000 536.108
68.21000 541.640
68.22000 547.193
68.23000 550.167
68.24000 558.989
68.25000 564.997
68.26000 567.944
68.27000 568.598
68.28000 569.325
68.29000 572.754
68.30000 577.547
68.31000 582.123
68.32000 594.408
68.33000 608.291
68.34000 619.931
68.35000 612.018
68.36000 599.562
68.37000 589.497
68.38000 592.440
68.39000 597.342
68.40000 601.248
68.41000 620.395
68.42000 636.948
68.43000 647.674
68.44000 644.128
68.45000 639.931
68.46000 642.503
68.47000 656.367
68.48000 670.404
68.49000 677.784
68.50000 685.912
68.51000 691.452
68.52000 701.557
68.53000 714.956
68.54000 728.466
68.55000 745.715
68.56000 764.786
68.57000 782.937
68.58000 802.867
68.59000 821.862
68.60000 842.448
68.61000 876.266
68.62000 913.045
68.63000 947.523
68.64000 969.966
68.65000 990.674
68.66000 1007.041
68.67000 1072.771
68.68000 1128.934
68.69000 1180.004
68.70000 1219.028
68.71000 1257.543
68.72000 1301.388
68.73000 1353.810
68.74000 1406.346
68.75000 1433.437
68.76000 1462.830
68.77000 1482.795
68.78000 1523.666
68.79000 1579.072
68.80000 1634.287
68.81000 1683.709
68.82000 1730.403
68.83000 1774.692
68.84000 1861.189
68.85000 1953.436
68.86000 2051.120
68.87000 2192.005
68.88000 2342.197
68.89000 2531.912
68.90000 2920.319
68.91000 3336.166
68.92000 3662.061
68.93000 5044.556
68.94000 6217.651
68.95000 7803.306
68.96000 10331.284
68.97000 12896.074
68.98000 15856.117
68.99000 19429.471
69.00000 23009.865
69.01000 24819.699
69.02000 29725.920
69.03000 33001.930
69.04000 35567.016
69.05000 37655.723
69.06000 39717.250
69.07000 41018.402
69.08000 41973.977
69.09000 42877.121
69.10000 43529.773
69.11000 44057.859
69.12000 44613.598
69.13000 45379.289
69.14000 46188.512
69.15000 46942.105
69.16000 47426.676
69.17000 47875.699
69.18000 48224.535
69.19000 47141.832
69.20000 46193.691
69.21000 44689.418
69.22000 41958.500
69.23000 39183.484
69.24000 36502.680
69.25000 33962.832
69.26000 31424.383
69.27000 29230.029
69.28000 27373.334
69.29000 25523.709
69.30000 24296.938
69.31000 23472.584
69.32000 22661.467
69.33000 22191.119
69.34000 21870.324
69.35000 21568.242
69.36000 21093.055
69.37000 20611.031
69.38000 20029.541
69.39000 18725.623
69.40000 17277.609
69.41000 15744.709
69.42000 13816.729
69.43000 11838.861
69.44000 10316.000
69.45000 8453.758
69.46000 6960.172
69.47000 5633.022
69.48000 4660.365
69.49000 3699.389
69.50000 2947.733
69.51000 2497.954
69.52000 2050.652
69.53000 1753.863
69.54000 1598.929
69.55000 1444.553
69.56000 1332.260
69.57000 1246.190
69.58000 1161.198
69.59000 1101.817
69.60000 1053.292
69.61000 1007.771
69.62000 972.078
69.63000 942.142
69.64000 912.599
69.65000 885.786
69.66000 859.497
69.67000 832.455
69.68000 802.038
69.69000 771.215
69.70000 747.700
69.71000 732.070
69.72000 720.178
69.73000 706.631
69.74000 689.680
69.75000 672.628
69.76000 656.937
69.77000 643.139
69.78000 629.358
69.79000 619.949
69.80000 614.502
69.81000 609.035
69.82000 602.240
69.83000 594.646
69.84000 586.886
69.85000 575.462
69.86000 562.539
69.87000 550.464
69.88000 550.983
69.89000 554.634
69.90000 556.771
69.91000 548.824
69.92000 539.019
69.93000 530.753
69.94000 529.130
69.95000 528.271
69.96000 527.623
69.97000 517.743
69.98000 509.534
69.99000 503.442
70.00000 501.552
