20.00000 465.980
20.01000 467.418
20.02000 469.061
20.03000 471.699
20.04000 478.251
20.05000 485.203
20.06000 490.329
20.07000 482.625
20.08000 476.118
20.09000 472.812
20.10000 475.327
20.11000 477.963
20.12000 481.727
20.13000 486.862
20.14000 491.991
20.15000 487.991
20.16000 476.829
20.17000 465.908
20.18000 465.280
20.19000 470.114
20.20000 474.610
20.21000 473.271
20.22000 469.819
20.23000 466.640
20.24000 464.621
20.25000 463.069
20.26000 461.535
20.27000 460.099
20.28000 458.680
20.29000 458.347
20.30000 462.134
20.31000 466.320
20.32000 469.376
20.33000 471.667
20.34000 473.403
20.35000 474.767
20.36000 475.477
20.37000 476.174
20.38000 472.390
20.39000 463.355
20.40000 454.335
20.41000 455.141
20.42000 463.370
20.43000 471.390
20.44000 471.355
20.45000 467.192
20.46000 463.157
20.47000 461.173
20.48000 459.906
20.49000 458.745
20.50000 458.717
20.51000 458.931
20.52000 459.282
20.53000 460.394
20.54000 461.623
20.55000 462.051
20.56000 459.551
20.57000 456.782
20.58000 454.781
20.59000 459.956
20.60000 464.185
20.61000 465.987
20.62000 463.680
20.63000 461.306
20.64000 458.822
20.65000 456.213
20.66000 453.613
20.67000 453.770
20.68000 455.930
20.69000 458.144
20.70000 462.275
20.71000 467.353
20.72000 471.693
20.73000 464.819
20.74000 454.160
20.75000 444.434
20.76000 445.174
20.77000 447.941
20.78000 450.645
20.79000 453.012
20.80000 455.329
20.81000 459.643
20.82000 471.000
20.83000 482.971
20.84000 491.527
20.85000 478.449
20.86000 467.747
20.87000 458.468
20.88000 451.517
20.89000 444.599
20.90000 444.478
20.91000 451.717
20.92000 458.927
20.93000 462.664
20.94000 463.935
20.95000 465.146
20.96000 464.458
20.97000 462.863
20.98000 461.640
20.99000 465.738
21.00000 471.570
21.01000 476.867
21.02000 471.911
21.03000 465.553
21.04000 459.345
21.05000 453.908
21.06000 448.580
21.07000 445.563
21.08000 450.415
21.09000 455.917
21.10000 459.806
21.11000 460.501
21.12000 460.930
21.13000 461.052
21.14000 460.689
21.15000 460.321
21.16000 463.332
21.17000 469.856
21.18000 476.348
21.19000 472.473
21.20000 461.677
21.21000 451.196
21.22000 449.873
21.23000 452.773
21.24000 455.711
21.25000 459.163
21.26000 462.777
21.27000 466.042
21.28000 463.447
21.29000 460.078
21.30000 457.571
21.31000 459.302
21.32000 461.604
21.33000 464.585
21.34000 469.796
21.35000 475.181
21.36000 478.945
21.37000 477.401
21.38000 476.085
21.39000 471.128
21.40000 460.639
21.41000 450.093
21.42000 447.444
21.43000 452.679
21.44000 457.881
21.45000 463.104
21.46000 468.266
21.47000 473.286
21.48000 474.519
21.49000 474.065
21.50000 473.381
21.51000 469.761
21.52000 465.250
21.53000 461.194
21.54000 462.261
21.55000 464.105
21.56000 465.367
21.57000 463.873
21.58000 462.023
21.59000 461.185
21.60000 463.547
21.61000 466.146
21.62000 467.942
21.63000 465.914
21.64000 464.292
21.65000 463.096
21.66000 462.525
21.67000 461.960
21.68000 460.342
21.69000 457.714
21.70000 455.107
21.71000 454.633
21.72000 455.495
21.73000 456.470
21.74000 460.258
21.75000 465.255
21.76000 470.324
21.77000 476.257
21.78000 482.442
21.79000 487.974
21.80000 498.493
21.81000 508.513
21.82000 516.858
21.83000 517.576
21.84000 517.356
21.85000 518.569
21.86000 524.166
21.87000 530.067
21.88000 534.097
21.89000 541.460
21.90000 547.044
21.91000 548.240
21.92000 543.240
21.93000 538.199
21.94000 541.104
21.95000 551.323
21.96000 561.451
21.97000 568.928
21.98000 574.672
21.99000 580.555
22.00000 589.590
22.01000 599.933
22.02000 608.876
22.03000 601.838
22.04000 590.285
22.05000 580.008
22.06000 580.215
22.07000 582.101
22.08000 584.353
22.09000 588.206
22.10000 592.246
22.11000 592.066
22.12000 579.423
22.13000 565.963
22.14000 556.883
22.15000 560.846
22.16000 564.071
22.17000 563.568
22.18000 557.992
22.19000 552.384
22.20000 543.118
22.21000 530.616
22.22000 518.243
22.23000 516.037
22.24000 519.736
22.25000 523.199
22.26000 521.709
22.27000 518.233
22.28000 514.662
22.29000 510.069
22.30000 505.198
22.31000 500.888
22.32000 494.017
22.33000 487.680
22.34000 483.100
22.35000 485.945
22.36000 489.622
22.37000 486.990
22.38000 466.373
22.39000 444.650
22.40000 430.177
22.41000 434.283
22.42000 437.677
22.43000 443.746
22.44000 453.321
22.45000 462.897
22.46000 463.622
22.47000 456.818
22.48000 450.094
22.49000 445.723
22.50000 442.764
22.51000 439.872
22.52000 438.285
22.53000 437.203
22.54000 436.563
22.55000 440.465
22.56000 445.562
22.57000 450.045
22.58000 448.668
22.59000 446.611
22.60000 445.342
22.61000 447.277
22.62000 449.554
22.63000 451.359
22.64000 451.862
22.65000 452.290
22.66000 452.571
22.67000 439.291
22.68000 429.282
22.69000 425.542
22.70000 429.711
22.71000 433.896
22.72000 434.119
22.73000 431.098
22.74000 428.118
22.75000 425.423
22.76000 422.955
22.77000 420.630
22.78000 420.947
22.79000 422.252
22.80000 423.881
22.81000 428.672
22.82000 434.265
22.83000 439.156
22.84000 436.732
22.85000 433.614
22.86000 432.540
22.87000 439.481
22.88000 447.235
22.89000 450.209
22.90000 440.475
22.91000 430.055
22.92000 423.291
22.93000 435.043
22.94000 443.932
22.95000 447.049
22.96000 443.162
22.97000 439.268
22.98000 438.119
22.99000 439.132
23.00000 440.130
23.01000 437.967
23.02000 434.246
23.03000 430.761
23.04000 431.320
23.05000 433.339
23.06000 435.661
23.07000 440.804
23.08000 446.636
23.09000 451.706
23.10000 447.463
23.11000 442.577
23.12000 437.019
23.13000 428.915
23.14000 420.566
23.15000 415.171
23.16000 417.354
23.17000 419.920
23.18000 421.563
23.19000 425.368
23.20000 428.169
23.21000 430.239
23.22000 431.453
23.23000 432.656
23.24000 431.752
23.25000 429.250
23.26000 426.790
23.27000 425.574
23.28000 425.014
23.29000 424.666
23.30000 427.740
23.31000 432.008
23.32000 435.696
23.33000 434.246
23.34000 431.587
23.35000 429.289
23.36000 428.601
23.37000 428.225
23.38000 426.985
23.39000 422.590
23.40000 417.906
23.41000 415.809
23.42000 420.126
23.43000 424.744
23.44000 427.661
23.45000 421.849
23.46000 417.536
23.47000 420.314
23.48000 431.055
23.49000 441.699
23.50000 434.831
23.51000 415.169
23.52000 395.880
23.53000 399.393
23.54000 413.617
23.55000 427.236
23.56000 431.726
23.57000 433.143
23.58000 434.487
23.59000 435.210
23.60000 435.792
23.61000 436.293
23.62000 434.014
23.63000 431.744
23.64000 429.870
23.65000 429.390
23.66000 429.030
23.67000 427.818
23.68000 424.566
23.69000 421.225
23.70000 419.143
23.71000 431.642
23.72000 440.796
23.73000 449.261
23.74000 456.983
23.75000 464.635
23.76000 462.844
23.77000 454.406
23.78000 446.146
23.79000 447.332
23.80000 452.794
23.81000 457.994
23.82000 459.479
23.83000 459.756
23.84000 460.039
23.85000 460.368
23.86000 460.707
23.87000 460.996
23.88000 472.052
23.89000 482.628
23.90000 489.220
23.91000 482.298
23.92000 474.263
23.93000 472.875
23.94000 486.850
23.95000 501.442
23.96000 510.400
23.97000 499.619
23.98000 491.722
23.99000 484.967
24.00000 479.395
24.01000 473.862
24.02000 472.703
24.03000 474.513
24.04000 476.280
24.05000 471.695
24.06000 464.509
24.07000 457.506
24.08000 452.955
24.09000 449.173
24.10000 445.900
24.11000 446.550
24.12000 448.025
24.13000 449.274
24.14000 457.505
24.15000 465.186
24.16000 469.463
24.17000 462.595
24.18000 454.859
24.19000 447.067
24.20000 439.147
24.21000 431.223
24.22000 426.430
24.23000 426.232
24.24000 426.124
24.25000 430.107
24.26000 438.159
24.27000 446.145
24.28000 447.901
24.29000 445.582
24.30000 443.322
24.31000 437.802
24.32000 431.154
24.33000 424.628
24.34000 419.656
24.35000 415.155
24.36000 411.052
24.37000 409.885
24.38000 409.312
24.39000 408.829
24.40000 408.814
24.41000 408.851
24.42000 411.106
24.43000 420.366
24.44000 430.142
24.45000 435.859
24.46000 432.828
24.47000 429.501
24.48000 427.519
24.49000 428.330
24.50000 428.922
24.51000 427.528
24.52000 424.237
24.53000 420.934
24.54000 416.721
24.55000 411.932
24.56000 407.276
24.57000 406.308
24.58000 406.890
24.59000 407.734
24.60000 411.725
24.61000 416.635
24.62000 420.133
24.63000 413.671
24.64000 405.272
24.65000 398.251
24.66000 395.193
24.67000 393.057
24.68000 391.745
24.69000 392.947
24.70000 394.324
24.71000 398.008
24.72000 406.494
24.73000 415.128
24.74000 420.191
24.75000 422.157
24.76000 423.525
24.77000 422.120
24.78000 418.171
24.79000 414.175
24.80000 406.915
24.81000 397.670
24.82000 388.705
24.83000 393.474
24.84000 403.382
24.85000 412.606
24.86000 414.064
24.87000 413.333
24.88000 412.616
24.89000 411.997
24.90000 411.396
24.91000 410.898
24.92000 408.224
24.93000 405.804
24.94000 405.001
24.95000 408.957
24.96000 413.223
24.97000 414.304
24.98000 408.983
24.99000 403.481
25.00000 400.307
25.01000 402.958
25.02000 404.833
25.03000 402.998
25.04000 397.889
25.05000 392.988
25.06000 400.514
25.07000 415.334
25.08000 429.666
25.09000 430.789
25.10000 426.860
25.11000 422.744
25.12000 416.598
25.13000 409.902
25.14000 404.030
25.15000 403.501
25.16000 403.931
25.17000 404.286
25.18000 400.684
25.19000 397.358
25.20000 394.228
25.21000 391.655
25.22000 389.117
25.23000 388.920
25.24000 393.267
25.25000 397.731
25.26000 400.263
25.27000 400.603
25.28000 400.827
25.29000 397.986
25.30000 392.544
25.31000 387.247
25.32000 389.562
25.33000 396.190
25.34000 402.581
25.35000 399.982
25.36000 394.271
25.37000 389.213
25.38000 390.832
25.39000 394.201
25.40000 396.629
25.41000 393.209
25.42000 388.780
25.43000 385.159
25.44000 391.302
25.45000 397.184
25.46000 401.948
25.47000 403.648
25.48000 405.172
25.49000 408.684
25.50000 415.920
25.51000 423.241
25.52000 427.325
25.53000 405.956
25.54000 391.132
25.55000 384.144
25.56000 383.551
25.57000 383.043
25.58000 386.571
25.59000 392.306
25.60000 397.820
25.61000 395.965
25.62000 391.650
25.63000 387.694
25.64000 387.219
25.65000 387.623
25.66000 387.145
25.67000 381.409
25.68000 374.803
25.69000 369.442
25.70000 384.504
25.71000 398.466
25.72000 406.791
25.73000 400.175
25.74000 392.759
25.75000 387.770
25.76000 387.169
25.77000 386.659
25.78000 386.379
25.79000 378.969
25.80000 373.875
25.81000 372.512
25.82000 374.078
25.83000 375.719
25.84000 380.538
25.85000 387.032
25.86000 393.259
25.87000 384.263
25.88000 370.745
25.89000 359.826
25.90000 372.968
25.91000 391.968
25.92000 408.190
25.93000 408.529
25.94000 406.345
25.95000 404.586
25.96000 396.786
25.97000 389.985
25.98000 384.411
25.99000 381.980
26.00000 379.706
26.01000 379.268
26.02000 382.033
26.03000 384.857
26.04000 386.377
26.05000 385.747
26.06000 385.299
26.07000 381.728
26.08000 375.794
26.09000 370.040
26.10000 371.098
26.11000 375.626
26.12000 379.953
26.13000 379.009
26.14000 376.426
26.15000 374.489
26.16000 378.244
26.17000 383.335
26.18000 387.114
26.19000 383.680
26.20000 379.148
26.21000 375.528
26.22000 382.862
26.23000 389.592
26.24000 390.189
26.25000 375.629
26.26000 360.364
26.27000 353.085
26.28000 359.248
26.29000 365.627
26.30000 368.996
26.31000 380.621
26.32000 388.492
26.33000 391.787
26.34000 391.748
26.35000 391.641
26.36000 389.222
26.37000 385.666
26.38000 382.279
26.39000 384.578
26.40000 388.477
26.41000 391.168
26.42000 383.681
26.43000 373.894
26.44000 365.946
26.45000 367.708
26.46000 370.887
26.47000 373.404
26.48000 377.832
26.49000 381.524
26.50000 383.239
26.51000 380.232
26.52000 377.022
26.53000 375.891
26.54000 378.138
26.55000 380.431
26.56000 381.619
26.57000 380.539
26.58000 379.801
26.59000 377.944
26.60000 375.303
26.61000 372.736
26.62000 372.506
26.63000 373.385
26.64000 374.220
26.65000 375.724
26.66000 377.312
26.67000 379.190
26.68000 383.399
26.69000 388.116
26.70000 391.299
26.71000 386.693
26.72000 380.999
26.73000 376.527
26.74000 380.148
26.75000 383.576
26.76000 385.247
26.77000 382.870
26.78000 380.331
26.79000 375.782
26.80000 368.087
26.81000 360.355
26.82000 356.426
26.83000 365.855
26.84000 372.134
26.85000 373.829
26.86000 372.424
26.87000 370.976
26.88000 368.277
26.89000 365.004
26.90000 361.908
26.91000 363.688
26.92000 366.725
26.93000 369.807
26.94000 373.238
26.95000 376.743
26.96000 380.559
26.97000 385.897
26.98000 391.439
26.99000 395.754
27.00000 385.605
27.01000 376.631
27.02000 370.538
27.03000 370.854
27.04000 371.406
27.05000 371.156
27.06000 369.695
27.07000 368.222
27.08000 365.912
27.09000 362.771
27.10000 359.678
27.11000 360.955
27.12000 365.082
27.13000 369.076
27.14000 369.575
27.15000 368.527
27.16000 367.539
27.17000 369.866
27.18000 372.913
27.19000 374.262
27.20000 363.137
27.21000 349.500
27.22000 339.968
27.23000 349.725
27.24000 361.946
27.25000 371.378
27.26000 369.595
27.27000 367.533
27.28000 365.555
27.29000 363.760
27.30000 361.971
27.31000 361.428
27.32000 362.698
27.33000 363.983
27.34000 367.501
27.35000 373.143
27.36000 378.706
27.37000 378.029
27.38000 373.427
27.39000 368.787
27.40000 363.204
27.41000 357.217
27.42000 351.595
27.43000 357.894
27.44000 366.805
27.45000 374.228
27.46000 371.195
27.47000 366.136
27.48000 364.074
27.49000 375.570
27.50000 388.720
27.51000 398.777
27.52000 378.428
27.53000 360.723
27.54000 349.213
27.55000 350.555
27.56000 352.293
27.57000 355.662
27.58000 361.320
27.59000 366.992
27.60000 371.305
27.61000 374.371
27.62000 377.410
27.63000 378.538
27.64000 378.507
27.65000 378.644
27.66000 382.520
27.67000 387.940
27.68000 393.010
27.69000 387.339
27.70000 379.448
27.71000 372.343
27.72000 370.536
27.73000 369.716
27.74000 368.017
27.75000 362.489
27.76000 356.515
27.77000 351.988
27.78000 356.360
27.79000 360.245
27.80000 361.532
27.81000 357.613
27.82000 353.548
27.83000 352.549
27.84000 355.692
27.85000 358.856
27.86000 361.185
27.87000 362.777
27.88000 364.271
27.89000 359.972
27.90000 352.284
27.91000 345.123
27.92000 348.959
27.93000 357.180
27.94000 364.840
27.95000 365.508
27.96000 364.400
27.97000 362.432
27.98000 354.921
27.99000 346.418
28.00000 340.964
28.01000 348.306
28.02000 357.068
28.03000 363.644
28.04000 364.253
28.05000 364.446
28.06000 363.881
28.07000 361.851
28.08000 359.783
28.09000 355.691
28.10000 348.964
28.11000 342.231
28.12000 339.341
28.13000 339.698
28.14000 340.183
28.15000 347.326
28.16000 358.228
28.17000 368.735
28.18000 371.563
28.19000 371.433
28.20000 371.312
28.21000 369.709
28.22000 367.917
28.23000 366.197
28.24000 364.930
28.25000 363.741
28.26000 362.402
28.27000 360.456
28.28000 358.446
28.29000 356.952
28.30000 364.277
28.31000 370.363
28.32000 374.051
28.33000 373.260
28.34000 372.368
28.35000 368.679
28.36000 361.484
28.37000 354.289
28.38000 352.013
28.39000 353.731
28.40000 355.439
28.41000 356.703
28.42000 357.727
28.43000 358.667
28.44000 358.113
28.45000 357.002
28.46000 355.975
28.47000 359.924
28.48000 364.590
28.49000 367.592
28.50000 360.709
28.51000 352.195
28.52000 345.954
28.53000 348.572
28.54000 352.083
28.55000 354.665
28.56000 343.595
28.57000 334.467
28.58000 330.484
28.59000 335.772
28.60000 341.249
28.61000 344.703
28.62000 345.717
28.63000 346.725
28.64000 344.229
28.65000 339.020
28.66000 334.035
28.67000 338.376
28.68000 347.624
28.69000 356.524
28.70000 359.538
28.71000 360.439
28.72000 361.267
28.73000 354.481
28.74000 346.765
28.75000 340.334
28.76000 341.224
28.77000 343.272
28.78000 344.913
28.79000 345.024
28.80000 344.988
28.81000 344.962
28.82000 342.026
28.83000 339.653
28.84000 337.565
28.85000 335.970
28.86000 334.385
28.87000 334.163
28.88000 335.523
28.89000 336.881
28.90000 341.563
28.91000 348.700
28.92000 355.648
28.93000 355.502
28.94000 351.753
28.95000 348.033
28.96000 344.782
28.97000 341.694
28.98000 338.867
28.99000 340.918
29.00000 343.758
29.01000 346.492
29.02000 348.643
29.03000 350.706
29.04000 350.611
29.05000 342.695
29.06000 334.069
29.07000 327.854
29.08000 340.098
29.09000 350.132
29.10000 355.769
29.11000 354.028
29.12000 352.171
29.13000 352.199
29.14000 354.331
29.15000 356.456
29.16000 354.978
29.17000 350.919
29.18000 347.023
29.19000 348.714
29.20000 353.143
29.21000 356.844
29.22000 349.657
29.23000 338.826
29.24000 328.956
29.25000 329.265
29.26000 331.569
29.27000 332.720
29.28000 327.803
29.29000 322.004
29.30000 320.608
29.31000 334.609
29.32000 349.937
29.33000 360.862
29.34000 358.359
29.35000 356.012
29.36000 354.828
29.37000 355.527
29.38000 356.252
29.39000 356.315
29.40000 355.668
29.41000 355.023
29.42000 350.384
29.43000 343.029
29.44000 335.826
29.45000 333.335
29.46000 333.076
29.47000 332.876
29.48000 333.514
29.49000 334.424
29.50000 335.248
29.51000 334.498
29.52000 333.535
29.53000 332.611
29.54000 331.884
29.55000 331.184
29.56000 329.780
29.57000 326.004
29.58000 322.034
29.59000 319.236
29.60000 340.227
29.61000 356.863
29.62000 362.726
29.63000 351.768
29.64000 340.611
29.65000 338.751
29.66000 346.461
29.67000 354.128
29.68000 355.727
29.69000 353.266
29.70000 350.847
29.71000 349.595
29.72000 348.878
29.73000 348.773
29.74000 356.785
29.75000 367.329
29.76000 376.844
29.77000 369.404
29.78000 359.758
29.79000 352.128
29.80000 354.307
29.81000 357.792
29.82000 361.402
29.83000 365.420
29.84000 369.469
29.85000 372.292
29.86000 367.608
29.87000 363.867
29.88000 364.627
29.89000 372.163
29.90000 379.767
29.91000 381.450
29.92000 377.281
29.93000 373.139
29.94000 373.224
29.95000 376.015
29.96000 378.664
29.97000 377.608
29.98000 374.916
29.99000 372.639
30.00000 375.563
30.01000 380.053
30.02000 384.084
30.03000 390.069
30.04000 395.648
30.05000 399.223
30.06000 393.405
30.07000 386.392
30.08000 380.391
30.09000 377.567
30.10000 374.974
30.11000 373.188
30.12000 377.211
30.13000 380.377
30.14000 385.175
30.15000 392.339
30.16000 399.522
30.17000 396.006
30.18000 382.340
30.19000 368.782
30.20000 362.221
30.21000 360.085
30.22000 358.167
30.23000 361.498
30.24000 367.067
30.25000 371.878
30.26000 367.684
30.27000 360.876
30.28000 354.796
30.29000 358.226
30.30000 362.813
30.31000 366.165
30.32000 363.949
30.33000 361.055
30.34000 358.756
30.35000 358.263
30.36000 357.893
30.37000 357.641
30.38000 360.245
30.39000 362.255
30.40000 359.954
30.41000 351.623
30.42000 343.255
30.43000 341.714
30.44000 346.396
30.45000 351.034
30.46000 352.375
30.47000 351.736
30.48000 351.310
30.49000 355.643
30.50000 361.935
30.51000 367.226
30.52000 361.244
30.53000 352.104
30.54000 343.985
30.55000 338.638
30.56000 334.446
30.57000 332.800
30.58000 342.206
30.59000 352.895
30.60000 361.675
30.61000 364.869
30.62000 367.702
30.63000 369.608
30.64000 364.187
30.65000 360.008
30.66000 358.882
30.67000 361.869
30.68000 364.875
30.69000 364.467
30.70000 361.068
30.71000 357.705
30.72000 360.278
30.73000 366.178
30.74000 371.836
30.75000 372.499
30.76000 371.174
30.77000 370.042
30.78000 370.952
30.79000 372.413
30.80000 373.704
30.81000 376.029
30.82000 378.195
30.83000 379.453
30.84000 376.911
30.85000 373.950
30.86000 371.591
30.87000 370.936
30.88000 370.384
30.89000 370.017
30.90000 383.026
30.91000 392.890
30.92000 400.818
30.93000 406.234
30.94000 411.629
30.95000 411.493
30.96000 406.696
30.97000 401.958
30.98000 414.235
30.99000 435.539
31.00000 456.451
31.01000 469.800
31.02000 480.245
31.03000 491.406
31.04000 509.820
31.05000 530.124
31.06000 547.959
31.07000 556.815
31.08000 563.106
31.09000 574.817
31.10000 608.384
31.11000 644.253
31.12000 674.071
31.13000 687.384
31.14000 699.761
31.15000 707.875
31.16000 760.900
31.17000 800.636
31.18000 837.037
31.19000 869.273
31.20000 901.504
31.21000 936.853
31.22000 974.729
31.23000 1012.078
31.24000 1039.747
31.25000 1061.523
31.26000 1084.152
31.27000 1122.162
31.28000 1165.875
31.29000 1209.480
31.30000 1252.040
31.31000 1294.338
31.32000 1331.275
31.33000 1331.315
31.34000 1326.158
31.35000 1322.203
31.36000 1322.918
31.37000 1324.102
31.38000 1322.831
31.39000 1315.092
31.40000 1307.010
31.41000 1301.781
31.42000 1293.263
31.43000 1286.984
31.44000 1262.318
31.45000 1215.551
31.46000 1168.796
31.47000 1137.888
31.48000 1119.345
31.49000 1101.092
31.50000 1052.134
31.51000 989.093
31.52000 927.308
31.53000 886.714
31.54000 853.705
31.55000 820.817
31.56000 789.036
31.57000 757.522
31.58000 730.167
31.59000 684.812
31.60000 643.747
31.61000 608.112
31.62000 592.825
31.63000 579.477
31.64000 564.333
31.65000 544.620
31.66000 524.682
31.67000 511.954
31.68000 491.322
31.69000 476.210
31.70000 462.738
31.71000 451.164
31.72000 439.608
31.73000 431.097
31.74000 424.875
31.75000 418.761
31.76000 411.694
31.77000 404.401
31.78000 397.003
31.79000 387.947
31.80000 378.317
31.81000 370.083
31.82000 374.075
31.83000 380.916
31.84000 386.818
31.85000 381.296
31.86000 375.146
31.87000 370.847
31.88000 373.235
31.89000 376.227
31.90000 375.141
31.91000 364.039
31.92000 352.476
31.93000 345.197
31.94000 340.227
31.95000 336.656
31.96000 334.361
31.97000 333.482
31.98000 332.600
31.99000 330.946
32.00000 328.731
32.01000 326.560
32.02000 327.687
32.03000 330.325
32.04000 332.697
32.05000 331.119
32.06000 328.222
32.07000 325.806
32.08000 327.409
32.09000 329.913
32.10000 332.060
32.11000 332.971
32.12000 333.588
32.13000 334.520
32.14000 336.549
32.15000 338.672
32.16000 340.331
32.17000 340.891
32.18000 341.404
32.19000 341.722
32.20000 343.531
32.21000 344.846
32.22000 340.610
32.23000 330.443
32.24000 320.318
32.25000 315.823
32.26000 315.254
32.27000 314.698
32.28000 317.050
32.29000 320.624
32.30000 324.211
32.31000 327.971
32.32000 331.786
32.33000 334.496
32.34000 328.391
32.35000 320.379
32.36000 313.556
32.37000 319.694
32.38000 326.366
32.39000 328.867
32.40000 317.344
32.41000 304.682
32.42000 296.135
32.43000 297.014
32.44000 298.265
32.45000 299.030
32.46000 307.215
32.47000 313.135
32.48000 316.727
32.49000 317.932
32.50000 319.099
32.51000 316.189
32.52000 310.538
32.53000 305.021
32.54000 306.563
32.55000 311.114
32.56000 315.267
32.57000 314.150
32.58000 311.395
32.59000 309.120
32.60000 310.503
32.61000 312.647
32.62000 314.462
32.63000 312.158
32.64000 309.773
32.65000 308.254
32.66000 309.548
32.67000 311.058
32.68000 313.279
32.69000 317.072
32.70000 320.922
32.71000 323.242
32.72000 318.700
32.73000 315.419
32.74000 313.636
32.75000 313.327
32.76000 313.069
32.77000 317.443
32.78000 324.819
32.79000 332.002
32.80000 342.484
32.81000 353.861
32.82000 364.817
32.83000 370.511
32.84000 374.628
32.85000 380.552
32.86000 399.658
32.87000 421.403
32.88000 439.675
32.89000 448.206
32.90000 454.285
32.91000 461.953
32.92000 474.597
32.93000 487.601
32.94000 497.622
32.95000 501.271
32.96000 504.708
32.97000 506.747
32.98000 508.624
32.99000 509.950
33.00000 506.517
33.01000 498.586
33.02000 490.712
33.03000 487.234
33.04000 486.504
33.05000 485.794
33.06000 470.111
33.07000 449.165
33.08000 428.646
33.09000 413.170
33.10000 399.153
33.11000 384.696
33.12000 367.168
33.13000 349.049
33.14000 333.930
33.15000 323.401
33.16000 315.129
33.17000 308.760
33.18000 308.145
33.19000 307.923
33.20000 306.783
33.21000 303.752
33.22000 300.663
33.23000 298.860
33.24000 293.693
33.25000 290.045
33.26000 291.612
33.27000 297.916
33.28000 304.126
33.29000 304.146
33.30000 300.433
33.31000 296.835
33.32000 293.830
33.33000 291.216
33.34000 288.969
33.35000 290.830
33.36000 293.838
33.37000 296.739
33.38000 298.923
33.39000 300.974
33.40000 302.673
33.41000 295.320
33.42000 288.386
33.43000 283.913
33.44000 286.624
33.45000 289.796
33.46000 292.997
33.47000 296.255
33.48000 299.515
33.49000 301.387
33.50000 299.108
33.51000 297.497
33.52000 293.510
33.53000 287.450
33.54000 281.535
33.55000 283.975
33.56000 291.276
33.57000 298.332
33.58000 299.718
33.59000 298.904
33.60000 297.907
33.61000 294.956
33.62000 291.479
33.63000 288.826
33.64000 291.445
33.65000 295.001
33.66000 297.926
33.67000 300.473
33.68000 302.532
33.69000 304.202
33.70000 304.779
33.71000 305.289
33.72000 304.049
33.73000 299.441
33.74000 294.749
33.75000 292.099
33.76000 286.360
33.77000 282.370
33.78000 282.394
33.79000 285.791
33.80000 289.167
33.81000 291.540
33.82000 293.349
33.83000 295.093
33.84000 302.574
33.85000 311.667
33.86000 319.781
33.87000 317.998
33.88000 313.646
33.89000 309.242
33.90000 304.526
33.91000 299.756
33.92000 295.863
33.93000 296.716
33.94000 297.823
33.95000 299.525
33.96000 302.851
33.97000 306.269
33.98000 305.975
33.99000 298.793
34.00000 291.457
34.01000 287.383
34.02000 289.866
34.03000 291.592
34.04000 292.217
34.05000 291.953
34.06000 291.747
34.07000 294.205
34.08000 298.108
34.09000 301.857
34.10000 301.709
34.11000 300.222
34.12000 299.388
34.13000 304.835
34.14000 311.854
34.15000 317.622
34.16000 316.013
34.17000 313.196
34.18000 310.914
34.19000 319.621
34.20000 327.604
34.21000 333.375
34.22000 333.333
34.23000 332.984
34.24000 330.670
34.25000 324.835
34.26000 318.930
34.27000 315.708
34.28000 318.450
34.29000 320.343
34.30000 322.793
34.31000 325.676
34.32000 328.438
34.33000 326.269
34.34000 321.521
34.35000 316.972
34.36000 309.431
34.37000 301.400
34.38000 294.585
34.39000 298.896
34.40000 305.890
34.41000 311.734
34.42000 311.061
34.43000 309.364
34.44000 308.000
34.45000 309.737
34.46000 311.384
34.47000 313.132
34.48000 315.139
34.49000 317.158
34.50000 318.978
34.51000 320.451
34.52000 321.918
34.53000 322.704
34.54000 309.502
34.55000 300.516
34.56000 298.261
34.57000 301.049
34.58000 303.772
34.59000 304.125
34.60000 303.281
34.61000 302.474
34.62000 299.678
34.63000 296.442
34.64000 293.638
34.65000 294.593
34.66000 296.423
34.67000 297.153
34.68000 291.906
34.69000 285.758
34.70000 280.858
34.71000 283.700
34.72000 286.554
34.73000 287.669
34.74000 284.519
34.75000 281.175
34.76000 280.383
34.77000 283.849
34.78000 287.381
34.79000 289.238
34.80000 285.212
34.81000 282.501
34.82000 283.019
34.83000 285.868
34.84000 288.584
34.85000 286.868
34.86000 282.992
34.87000 279.302
34.88000 279.677
34.89000 281.276
34.90000 282.084
34.91000 276.307
34.92000 269.057
34.93000 264.353
34.94000 272.968
34.95000 283.504
34.96000 291.832
34.97000 281.719
34.98000 272.335
34.99000 266.497
35.00000 269.048
35.01000 271.955
35.02000 270.576
35.03000 262.301
35.04000 253.934
35.05000 249.619
35.06000 263.398
35.07000 272.618
35.08000 273.647
35.09000 268.981
35.10000 264.542
35.11000 267.021
35.12000 272.756
35.13000 278.196
35.14000 276.457
35.15000 272.728
35.16000 269.346
35.17000 268.721
35.18000 268.689
35.19000 267.765
35.20000 262.354
35.21000 256.323
35.22000 251.596
35.23000 249.622
35.24000 248.223
35.25000 249.413
35.26000 256.518
35.27000 263.854
35.28000 269.374
35.29000 272.074
35.30000 274.743
35.31000 276.092
35.32000 269.952
35.33000 265.868
35.34000 264.322
35.35000 264.476
35.36000 264.666
35.37000 265.854
35.38000 267.494
35.39000 269.045
35.40000 270.606
35.41000 272.043
35.42000 273.252
35.43000 272.733
35.44000 271.855
35.45000 270.887
35.46000 269.480
35.47000 268.015
35.48000 266.878
35.49000 264.096
35.50000 261.784
35.51000 260.467
35.52000 261.345
35.53000 262.302
35.54000 262.676
35.55000 262.178
35.56000 261.671
35.57000 261.119
35.58000 260.521
35.59000 259.923
35.60000 259.319
35.61000 258.712
35.62000 258.120
35.63000 257.897
35.64000 257.836
35.65000 257.780
35.66000 262.226
35.67000 267.525
35.68000 271.518
35.69000 266.028
35.70000 258.645
35.71000 253.165
35.72000 256.540
35.73000 261.034
35.74000 264.494
35.75000 260.434
35.76000 256.790
35.77000 255.343
35.78000 258.573
35.79000 261.958
35.80000 262.603
35.81000 259.298
35.82000 255.961
35.83000 256.201
35.84000 259.811
35.85000 263.386
35.86000 264.323
35.87000 263.616
35.88000 262.825
35.89000 260.035
35.90000 256.397
35.91000 252.985
35.92000 254.435
35.93000 257.035
35.94000 259.606
35.95000 261.976
35.96000 264.308
35.97000 265.663
35.98000 262.640
35.99000 259.089
36.00000 256.380
36.01000 263.067
36.02000 268.839
36.03000 271.656
36.04000 268.395
36.05000 264.952
36.06000 262.978
36.07000 263.045
36.08000 263.126
36.09000 259.990
36.10000 253.945
36.11000 248.020
36.12000 249.871
36.13000 256.398
36.14000 262.632
36.15000 262.415
36.16000 259.556
36.17000 256.885
36.18000 259.530
36.19000 263.273
36.20000 266.056
36.21000 262.439
36.22000 257.642
36.23000 253.840
36.24000 254.337
36.25000 255.328
36.26000 256.077
36.27000 253.499
36.28000 251.311
36.29000 248.222
36.30000 243.343
36.31000 238.415
36.32000 238.042
36.33000 243.770
36.34000 249.525
36.35000 252.975
36.36000 254.415
36.37000 255.770
36.38000 252.192
36.39000 245.753
36.40000 239.708
36.41000 241.747
36.42000 246.980
36.43000 251.851
36.44000 254.702
36.45000 256.788
36.46000 258.649
36.47000 259.074
36.48000 259.245
36.49000 259.305
36.50000 258.901
36.51000 258.447
36.52000 258.107
36.53000 256.189
36.54000 254.619
36.55000 254.367
36.56000 256.645
36.57000 258.984
36.58000 258.108
36.59000 253.084
36.60000 248.050
36.61000 242.778
36.62000 237.323
36.63000 232.119
36.64000 239.642
36.65000 254.289
36.66000 268.368
36.67000 271.608
36.68000 270.710
36.69000 269.879
36.70000 267.027
36.71000 263.989
36.72000 261.767
36.73000 264.541
36.74000 268.165
36.75000 269.471
36.76000 261.487
36.77000 252.533
36.78000 245.896
36.79000 250.954
36.80000 255.390
36.81000 255.284
36.82000 246.769
36.83000 238.068
36.84000 236.755
36.85000 244.613
36.86000 252.484
36.87000 256.059
36.88000 256.171
36.89000 256.276
36.90000 256.055
36.91000 255.657
36.92000 255.717
36.93000 263.927
36.94000 275.142
36.95000 285.491
36.96000 291.551
36.97000 296.023
36.98000 299.325
36.99000 295.751
37.00000 291.055
37.01000 287.050
37.02000 285.718
37.03000 284.651
37.04000 283.868
37.05000 284.582
37.06000 285.194
37.07000 286.143
37.08000 287.697
37.09000 289.262
37.10000 287.421
37.11000 281.512
37.12000 275.608
37.13000 273.723
37.14000 274.947
37.15000 276.194
37.16000 278.344
37.17000 280.966
37.18000 283.375
37.19000 282.232
37.20000 279.824
37.21000 277.612
37.22000 272.416
37.23000 267.138
37.24000 263.520
37.25000 269.272
37.26000 276.490
37.27000 280.454
37.28000 272.302
37.29000 263.005
37.30000 256.253
37.31000 253.511
37.32000 251.553
37.33000 254.201
37.34000 264.788
37.35000 275.514
37.36000 274.908
37.37000 261.284
37.38000 247.685
37.39000 246.006
37.40000 253.174
37.41000 260.045
37.42000 256.022
37.43000 246.516
37.44000 237.925
37.45000 243.677
37.46000 254.358
37.47000 264.125
37.48000 261.825
37.49000 257.296
37.50000 253.752
37.51000 255.554
37.52000 258.158
37.53000 260.528
37.54000 262.061
37.55000 263.520
37.56000 264.567
37.57000 256.733
37.58000 250.430
37.59000 245.578
37.60000 243.139
37.61000 240.737
37.62000 241.343
37.63000 245.271
37.64000 249.186
37.65000 249.951
37.66000 248.463
37.67000 246.988
37.68000 245.904
37.69000 245.010
37.70000 244.007
37.71000 241.383
37.72000 238.221
37.73000 235.344
37.74000 243.339
37.75000 252.562
37.76000 259.234
37.77000 252.611
37.78000 244.077
37.79000 238.026
37.80000 240.581
37.81000 243.867
37.82000 246.202
37.83000 248.355
37.84000 249.989
37.85000 251.480
37.86000 252.743
37.87000 254.002
37.88000 256.548
37.89000 260.459
37.90000 264.352
37.91000 264.690
37.92000 262.587
37.93000 260.386
37.94000 255.220
37.95000 248.662
37.96000 242.488
37.97000 241.637
37.98000 242.490
37.99000 243.263
38.00000 247.968
38.01000 252.860
38.02000 257.074
38.03000 257.893
38.04000 258.246
38.05000 258.353
38.06000 257.637
38.07000 256.854
38.08000 256.304
38.09000 260.286
38.10000 263.436
38.11000 266.623
38.12000 269.868
38.13000 273.113
38.14000 272.438
38.15000 267.769
38.16000 263.127
38.17000 264.485
38.18000 269.780
38.19000 274.930
38.20000 276.032
38.21000 275.300
38.22000 274.394
38.23000 271.215
38.24000 267.333
38.25000 263.834
38.26000 272.742
38.27000 282.810
38.28000 291.177
38.29000 291.342
38.30000 290.427
38.31000 290.001
38.32000 291.149
38.33000 292.417
38.34000 293.298
38.35000 309.156
38.36000 321.510
38.37000 334.466
38.38000 348.320
38.39000 362.182
38.40000 376.510
38.41000 391.295
38.42000 405.978
38.43000 427.943
38.44000 454.185
38.45000 480.089
38.46000 497.365
38.47000 510.865
38.48000 524.741
38.49000 543.281
38.50000 563.212
38.51000 581.083
38.52000 615.252
38.53000 647.941
38.54000 682.068
38.55000 722.865
38.56000 764.501
38.57000 802.155
38.58000 827.415
38.59000 851.785
38.60000 868.524
38.61000 891.823
38.62000 909.454
38.63000 932.824
38.64000 964.447
38.65000 996.133
38.66000 1018.547
38.67000 1032.254
38.68000 1045.848
38.69000 1063.091
38.70000 1082.250
38.71000 1100.966
38.72000 1109.195
38.73000 1112.994
38.74000 1114.982
38.75000 1095.777
38.76000 1070.473
38.77000 1047.903
38.78000 1025.988
38.79000 1007.030
38.80000 987.755
38.81000 967.067
38.82000 946.209
38.83000 921.966
38.84000 887.548
38.85000 852.444
38.86000 828.619
38.87000 791.321
38.88000 763.197
38.89000 729.490
38.90000 688.047
38.91000 646.561
38.92000 616.241
38.93000 595.995
38.94000 575.943
38.95000 547.344
38.96000 514.317
38.97000 481.509
38.98000 453.506
38.99000 427.464
39.00000 401.970
39.01000 382.573
39.02000 364.868
39.03000 349.162
39.04000 337.943
39.05000 328.939
39.06000 319.167
39.07000 306.092
39.08000 292.638
39.09000 282.382
39.10000 281.405
39.11000 281.016
39.12000 280.756
39.13000 270.932
39.14000 263.449
39.15000 258.220
39.16000 256.000
39.17000 253.794
39.18000 250.840
39.19000 247.239
39.20000 243.678
39.21000 244.823
39.22000 248.600
39.23000 252.149
39.24000 251.056
39.25000 248.132
39.26000 245.296
39.27000 243.377
39.28000 241.703
39.29000 240.227
39.30000 239.204
39.31000 238.389
39.32000 237.437
39.33000 235.911
39.34000 234.323
39.35000 233.379
39.36000 234.241
39.37000 235.211
39.38000 235.853
39.39000 237.114
39.40000 238.056
39.41000 236.781
39.42000 232.656
39.43000 228.529
39.44000 229.055
39.45000 233.464
39.46000 237.818
39.47000 236.305
39.48000 231.644
39.49000 227.260
39.50000 228.129
39.51000 230.997
39.52000 233.557
39.53000 233.033
39.54000 231.714
39.55000 230.556
39.56000 234.086
39.57000 237.799
39.58000 239.702
39.59000 234.376
39.60000 228.296
39.61000 223.741
39.62000 223.308
39.63000 223.106
39.64000 222.973
39.65000 219.688
39.66000 217.225
39.67000 218.614
39.68000 224.768
39.69000 230.920
39.70000 231.854
39.71000 228.600
39.72000 225.392
39.73000 230.826
39.74000 240.623
39.75000 249.804
39.76000 248.066
39.77000 242.314
39.78000 236.835
39.79000 233.959
39.80000 231.730
39.81000 229.787
39.82000 231.046
39.83000 232.568
39.84000 232.825
39.85000 228.212
39.86000 223.117
39.87000 218.634
39.88000 215.747
39.89000 212.944
39.90000 211.137
39.91000 212.889
39.92000 214.220
39.93000 216.228
39.94000 219.041
39.95000 221.854
39.96000 224.213
39.97000 226.222
39.98000 228.199
39.99000 226.690
40.00000 223.474
40.01000 220.437
40.02000 220.387
40.03000 221.395
40.04000 222.796
40.05000 227.753
40.06000 233.563
40.07000 238.598
40.08000 232.807
40.09000 226.439
40.10000 220.869
40.11000 218.259
40.12000 215.927
40.13000 213.979
40.14000 212.996
40.15000 212.061
40.16000 211.465
40.17000 214.401
40.18000 216.578
40.19000 216.008
40.20000 212.292
40.21000 208.585
40.22000 207.359
40.23000 207.980
40.24000 208.589
40.25000 212.874
40.26000 218.790
40.27000 224.422
40.28000 225.638
40.29000 225.340
40.30000 224.963
40.31000 223.902
40.32000 222.683
40.33000 221.634
40.34000 221.138
40.35000 220.789
40.36000 220.912
40.37000 222.732
40.38000 224.704
40.39000 225.952
40.40000 225.437
40.41000 224.843
40.42000 224.471
40.43000 225.452
40.44000 226.175
40.45000 223.032
40.46000 215.633
40.47000 208.273
40.48000 207.135
40.49000 210.458
40.50000 213.714
40.51000 214.136
40.52000 213.220
40.53000 212.372
40.54000 212.532
40.55000 213.026
40.56000 213.335
40.57000 212.131
40.58000 210.590
40.59000 209.272
40.60000 210.134
40.61000 211.125
40.62000 212.512
40.63000 215.266
40.64000 218.135
40.65000 220.094
40.66000 219.912
40.67000 219.640
40.68000 219.472
40.69000 221.924
40.70000 223.710
40.71000 224.623
40.72000 224.611
40.73000 224.574
40.74000 221.378
40.75000 216.001
40.76000 210.742
40.77000 212.421
40.78000 217.143
40.79000 221.236
40.80000 216.624
40.81000 209.233
40.82000 202.670
40.83000 202.633
40.84000 203.993
40.85000 205.150
40.86000 208.501
40.87000 211.568
40.88000 213.941
40.89000 214.000
40.90000 213.873
40.91000 213.588
40.92000 212.943
40.93000 212.284
40.94000 211.883
40.95000 212.468
40.96000 212.893
40.97000 212.640
40.98000 211.698
40.99000 210.754
41.00000 209.648
41.01000 208.435
41.02000 207.252
41.03000 207.404
41.04000 208.127
41.05000 208.932
41.06000 210.811
41.07000 213.021
41.08000 214.325
41.09000 208.801
41.10000 201.869
41.11000 196.014
41.12000 204.437
41.13000 213.043
41.14000 219.433
41.15000 218.692
41.16000 217.411
41.17000 215.363
41.18000 211.634
41.19000 207.844
41.20000 205.570
41.21000 211.180
41.22000 215.219
41.23000 216.063
41.24000 213.795
41.25000 211.562
41.26000 212.357
41.27000 215.097
41.28000 217.765
41.29000 211.213
41.30000 201.141
41.31000 192.517
41.32000 201.723
41.33000 216.229
41.34000 228.623
41.35000 225.777
41.36000 219.911
41.37000 214.990
41.38000 211.582
41.39000 208.904
41.40000 207.459
41.41000 209.842
41.42000 212.499
41.43000 214.715
41.44000 215.998
41.45000 217.251
41.46000 217.991
41.47000 210.549
41.48000 205.247
41.49000 201.537
41.50000 199.317
41.51000 197.139
41.52000 197.957
41.53000 200.633
41.54000 203.230
41.55000 205.931
41.56000 208.536
41.57000 211.145
41.58000 213.801
41.59000 216.469
41.60000 218.611
41.61000 217.114
41.62000 214.924
41.63000 213.099
41.64000 214.604
41.65000 216.181
41.66000 215.591
41.67000 208.507
41.68000 200.987
41.69000 195.286
41.70000 193.307
41.71000 191.439
41.72000 190.352
41.73000 197.104
41.74000 201.878
41.75000 202.837
41.76000 200.363
41.77000 197.936
41.78000 198.525
41.79000 200.916
41.80000 203.231
41.81000 203.816
41.82000 203.703
41.83000 203.540
41.84000 202.829
41.85000 201.965
41.86000 201.676
41.87000 205.186
41.88000 209.391
41.89000 212.869
41.90000 214.501
41.91000 215.672
41.92000 216.216
41.93000 214.944
41.94000 213.556
41.95000 211.177
41.96000 206.840
41.97000 202.451
41.98000 199.940
41.99000 203.068
42.00000 205.269
42.01000 204.846
42.02000 202.153
42.03000 199.563
42.04000 202.762
42.05000 209.299
42.06000 215.611
42.07000 216.693
42.08000 215.775
42.09000 214.944
42.10000 215.018
42.11000 215.335
42.12000 215.270
42.13000 212.787
42.14000 209.878
42.15000 207.491
42.16000 211.703
42.17000 215.750
42.18000 217.648
42.19000 213.546
42.20000 209.087
42.21000 207.447
42.22000 211.180
42.23000 215.042
42.24000 217.215
42.25000 207.729
42.26000 201.122
42.27000 198.535
42.28000 199.291
42.29000 200.083
42.30000 202.629
42.31000 206.151
42.32000 209.543
42.33000 214.848
42.34000 220.511
42.35000 225.310
42.36000 221.491
42.37000 215.455
42.38000 210.724
42.39000 213.935
42.40000 218.487
42.41000 222.196
42.42000 212.184
42.43000 202.841
42.44000 196.766
42.45000 199.506
42.46000 202.735
42.47000 205.479
42.48000 207.333
42.49000 209.167
42.50000 210.181
42.51000 213.352
42.52000 215.529
42.53000 213.056
42.54000 206.861
42.55000 200.745
42.56000 198.130
42.57000 197.396
42.58000 196.690
42.59000 194.038
42.60000 190.889
42.61000 188.516
42.62000 193.509
42.63000 200.327
42.64000 205.858
42.65000 203.873
42.66000 200.670
42.67000 198.080
42.68000 200.111
42.69000 202.133
42.70000 204.809
42.71000 209.189
42.72000 213.658
42.73000 215.775
42.74000 213.719
42.75000 211.582
42.76000 210.422
42.77000 205.097
42.78000 201.451
42.79000 200.305
42.80000 201.086
42.81000 201.864
42.82000 202.522
42.83000 203.118
42.84000 203.689
42.85000 207.035
42.86000 211.068
42.87000 214.315
42.88000 210.452
42.89000 204.891
42.90000 200.916
42.91000 205.842
42.92000 212.151
42.93000 217.210
42.94000 216.915
42.95000 216.271
42.96000 214.272
42.97000 208.867
42.98000 203.298
42.99000 199.711
43.00000 199.522
43.01000 199.391
43.02000 199.321
43.03000 197.128
43.04000 195.641
43.05000 195.677
43.06000 196.843
43.07000 198.011
43.08000 199.222
43.09000 200.455
43.10000 201.631
43.11000 200.932
43.12000 199.688
43.13000 198.746
43.14000 200.402
43.15000 202.656
43.16000 203.894
43.17000 199.654
43.18000 194.598
43.19000 190.576
43.20000 196.408
43.21000 201.813
43.22000 205.638
43.23000 205.628
43.24000 205.445
43.25000 202.988
43.26000 196.768
43.27000 190.492
43.28000 187.209
43.29000 190.934
43.30000 193.445
43.31000 193.981
43.32000 193.105
43.33000 192.341
43.34000 195.235
43.35000 199.897
43.36000 204.331
43.37000 200.513
43.38000 194.467
43.39000 189.212
43.40000 190.459
43.41000 193.148
43.42000 195.300
43.43000 194.671
43.44000 193.646
43.45000 192.838
43.46000 194.657
43.47000 196.293
43.48000 196.618
43.49000 193.865
43.50000 190.984
43.51000 189.863
43.52000 191.548
43.53000 193.269
43.54000 194.152
43.55000 197.023
43.56000 198.933
43.57000 198.266
43.58000 195.824
43.59000 193.307
43.60000 188.551
43.61000 182.752
43.62000 177.255
43.63000 183.839
43.64000 193.446
43.65000 201.843
43.66000 200.732
43.67000 197.593
43.68000 194.301
43.69000 190.253
43.70000 186.101
43.71000 182.854
43.72000 180.282
43.73000 178.272
43.74000 177.584
43.75000 179.890
43.76000 182.310
43.77000 186.881
43.78000 194.760
43.79000 202.676
43.80000 206.657
43.81000 200.253
43.82000 196.015
43.83000 195.718
43.84000 198.037
43.85000 200.257
43.86000 199.725
43.87000 197.953
43.88000 196.280
43.89000 197.344
43.90000 199.093
43.91000 200.429
43.92000 198.673
43.93000 196.281
43.94000 194.344
43.95000 194.582
43.96000 195.104
43.97000 195.509
43.98000 201.204
43.99000 206.045
44.00000 206.885
44.01000 198.977
44.02000 190.760
44.03000 188.024
44.04000 193.411
44.05000 198.874
44.06000 197.684
44.07000 190.034
44.08000 182.494
44.09000 184.316
44.10000 192.134
44.11000 199.659
44.12000 199.789
44.13000 196.702
44.14000 193.797
44.15000 193.963
44.16000 194.947
44.17000 195.715
44.18000 194.938
44.19000 193.855
44.20000 193.451
44.21000 196.176
44.22000 199.291
44.23000 201.685
44.24000 198.742
44.25000 196.115
44.26000 194.883
44.27000 196.595
44.28000 198.402
44.29000 197.793
44.30000 193.731
44.31000 189.642
44.32000 190.144
44.33000 194.926
44.34000 199.640
44.35000 199.471
44.36000 196.286
44.37000 193.332
44.38000 195.771
44.39000 200.475
44.40000 204.885
44.41000 206.715
44.42000 207.709
44.43000 208.636
44.44000 209.108
44.45000 209.494
44.46000 209.375
44.47000 207.011
44.48000 204.381
44.49000 202.378
44.50000 207.047
44.51000 211.073
44.52000 212.118
44.53000 207.086
44.54000 201.876
44.55000 201.056
44.56000 206.279
44.57000 211.538
44.58000 215.619
44.59000 218.640
44.60000 221.544
44.61000 217.084
44.62000 208.237
44.63000 199.763
44.64000 199.374
44.65000 202.265
44.66000 204.963
44.67000 211.485
44.68000 218.353
44.69000 224.792
44.70000 228.408
44.71000 231.508
44.72000 234.380
44.73000 236.277
44.74000 238.064
44.75000 239.411
44.76000 239.656
44.77000 239.794
44.78000 240.898
44.79000 243.902
44.80000 246.957
44.81000 253.267
44.82000 263.895
44.83000 274.536
44.84000 276.858
44.85000 272.020
44.86000 267.249
44.87000 266.204
44.88000 267.303
44.89000 268.223
44.90000 265.558
44.91000 261.489
44.92000 257.707
44.93000 268.659
44.94000 282.087
44.95000 294.209
44.96000 298.086
44.97000 300.517
44.98000 301.955
44.99000 299.306
45.00000 296.214
45.01000 293.906
45.02000 300.677
45.03000 306.372
45.04000 310.828
45.05000 312.930
45.06000 314.976
45.07000 316.480
45.08000 317.291
45.09000 318.099
45.10000 315.036
45.11000 308.786
45.12000 302.532
45.13000 296.137
45.14000 289.663
45.15000 283.223
45.16000 277.421
45.17000 271.860
45.18000 266.712
45.19000 269.970
45.20000 274.837
45.21000 278.564
45.22000 275.378
45.23000 271.028
45.24000 266.613
45.25000 261.939
45.26000 257.237
45.27000 253.761
45.28000 248.417
45.29000 244.193
45.30000 242.333
45.31000 244.809
45.32000 247.379
45.33000 244.369
45.34000 234.499
45.35000 224.629
45.36000 221.490
45.37000 223.712
45.38000 225.779
45.39000 221.008
45.40000 212.577
45.41000 204.603
45.42000 204.642
45.43000 207.608
45.44000 210.342
45.45000 207.437
45.46000 203.587
45.47000 200.396
45.48000 201.031
45.49000 202.285
45.50000 203.662
45.51000 205.510
45.52000 207.405
45.53000 208.791
45.54000 201.496
45.55000 195.521
45.56000 193.599
45.57000 198.854
45.58000 204.246
45.59000 206.129
45.60000 203.861
45.61000 201.591
45.62000 199.878
45.63000 198.599
45.64000 197.313
45.65000 195.765
45.66000 194.081
45.67000 192.323
45.68000 189.333
45.69000 185.909
45.70000 182.767
45.71000 183.272
45.72000 184.496
45.73000 185.694
45.74000 186.743
45.75000 187.768
45.76000 188.682
45.77000 189.190
45.78000 189.659
45.79000 190.000
45.80000 191.024
45.81000 191.836
45.82000 192.191
45.83000 191.766
45.84000 191.328
45.85000 191.558
45.86000 192.548
45.87000 193.536
45.88000 191.187
45.89000 186.408
45.90000 181.747
45.91000 181.291
45.92000 182.934
45.93000 184.404
45.94000 183.193
45.95000 181.069
45.96000 179.129
45.97000 178.565
45.98000 178.344
45.99000 177.639
46.00000 174.337
46.01000 170.650
46.02000 168.913
46.03000 174.119
46.04000 179.939
46.05000 184.109
46.06000 183.479
46.07000 182.835
46.08000 183.138
46.09000 185.003
46.10000 186.892
46.11000 187.653
46.12000 187.180
46.13000 186.709
46.14000 185.286
46.15000 183.207
46.16000 181.093
46.17000 177.892
46.18000 174.167
46.19000 170.847
46.20000 173.389
46.21000 177.860
46.22000 181.924
46.23000 177.013
46.24000 170.918
46.25000 166.758
46.26000 172.587
46.27000 179.835
46.28000 184.878
46.29000 182.349
46.30000 179.185
46.31000 176.942
46.32000 176.779
46.33000 176.720
46.34000 176.314
46.35000 175.359
46.36000 174.397
46.37000 174.209
46.38000 174.834
46.39000 175.456
46.40000 176.146
46.41000 176.875
46.42000 177.535
46.43000 176.140
46.44000 173.789
46.45000 171.660
46.46000 172.580
46.47000 174.468
46.48000 176.175
46.49000 176.824
46.50000 177.197
46.51000 177.311
46.52000 176.137
46.53000 174.788
46.54000 174.035
46.55000 175.257
46.56000 176.635
46.57000 177.601
46.58000 173.684
46.59000 170.581
46.60000 170.940
46.61000 176.609
46.62000 182.336
46.63000 183.091
46.64000 178.833
46.65000 174.600
46.66000 175.672
46.67000 180.191
46.68000 184.539
46.69000 184.222
46.70000 181.809
46.71000 179.521
46.72000 178.861
46.73000 178.699
46.74000 178.553
46.75000 177.103
46.76000 175.597
46.77000 174.727
46.78000 176.891
46.79000 179.451
46.80000 181.474
46.81000 181.782
46.82000 181.960
46.83000 182.084
46.84000 183.231
46.85000 184.120
46.86000 180.890
46.87000 171.570
46.88000 162.194
46.89000 158.425
46.90000 160.084
46.91000 161.730
46.92000 166.430
46.93000 172.970
46.94000 179.231
46.95000 178.503
46.96000 174.742
46.97000 171.166
46.98000 169.853
46.99000 169.210
47.00000 168.634
47.01000 163.173
47.02000 157.566
47.03000 153.216
47.04000 154.641
47.05000 156.784
47.06000 158.381
47.07000 158.292
47.08000 158.084
47.09000 157.942
47.10000 160.507
47.11000 162.493
47.12000 163.327
47.13000 162.522
47.14000 161.705
47.15000 162.164
47.16000 163.811
47.17000 165.445
47.18000 164.895
47.19000 163.038
47.20000 161.228
47.21000 160.527
47.22000 160.290
47.23000 160.202
47.24000 161.831
47.25000 163.949
47.26000 165.836
47.27000 161.534
47.28000 156.777
47.29000 153.575
47.30000 157.254
47.31000 161.751
47.32000 164.549
47.33000 162.289
47.34000 159.693
47.35000 157.936
47.36000 155.554
47.37000 153.766
47.38000 153.835
47.39000 156.456
47.40000 159.089
47.41000 158.933
47.42000 156.285
47.43000 153.663
47.44000 158.560
47.45000 167.723
47.46000 176.205
47.47000 170.058
47.48000 157.991
47.49000 147.426
47.50000 153.317
47.51000 163.734
47.52000 172.961
47.53000 164.579
47.54000 154.553
47.55000 147.351
47.56000 152.185
47.57000 158.383
47.58000 162.766
47.59000 161.931
47.60000 160.770
47.61000 159.994
47.62000 152.492
47.63000 146.799
47.64000 146.933
47.65000 154.771
47.66000 162.639
47.67000 166.110
47.68000 165.805
47.69000 165.504
47.70000 164.549
47.71000 163.252
47.72000 161.942
47.73000 160.382
47.74000 158.725
47.75000 157.227
47.76000 157.393
47.77000 158.000
47.78000 158.535
47.79000 163.151
47.80000 167.743
47.81000 171.122
47.82000 169.523
47.83000 167.387
47.84000 165.167
47.85000 162.720
47.86000 160.258
47.87000 158.634
47.88000 162.728
47.89000 165.847
47.90000 168.336
47.91000 170.025
47.92000 171.705
47.93000 171.009
47.94000 168.352
47.95000 165.728
47.96000 166.894
47.97000 170.067
47.98000 172.897
47.99000 169.317
48.00000 163.319
48.01000 157.890
48.02000 158.089
48.03000 159.727
48.04000 161.162
48.05000 158.450
48.06000 155.527
48.07000 153.883
48.08000 157.300
48.09000 161.237
48.10000 162.651
48.11000 157.301
48.12000 151.580
48.13000 147.855
48.14000 154.141
48.15000 158.908
48.16000 160.713
48.17000 158.889
48.18000 157.059
48.19000 156.314
48.20000 156.430
48.21000 156.544
48.22000 158.508
48.23000 161.370
48.24000 163.980
48.25000 162.186
48.26000 158.787
48.27000 155.705
48.28000 155.601
48.29000 156.232
48.30000 156.781
48.31000 158.229
48.32000 159.588
48.33000 160.179
48.34000 157.836
48.35000 155.206
48.36000 153.636
48.37000 154.812
48.38000 156.127
48.39000 156.973
48.40000 153.332
48.41000 150.613
48.42000 148.447
48.43000 146.931
48.44000 145.427
48.45000 146.236
48.46000 148.816
48.47000 151.353
48.48000 152.539
48.49000 153.013
48.50000 153.549
48.51000 155.118
48.52000 157.050
48.53000 158.739
48.54000 158.258
48.55000 157.262
48.56000 156.400
48.57000 152.464
48.58000 148.715
48.59000 146.435
48.60000 149.561
48.61000 153.190
48.62000 157.646
48.63000 164.171
48.64000 170.795
48.65000 174.994
48.66000 169.790
48.67000 165.900
48.68000 160.686
48.69000 153.970
48.70000 147.285
48.71000 146.394
48.72000 149.774
48.73000 153.092
48.74000 156.942
48.75000 160.911
48.76000 164.652
48.77000 164.902
48.78000 163.967
48.79000 163.040
48.80000 162.183
48.81000 161.341
48.82000 160.618
48.83000 157.727
48.84000 155.008
48.85000 152.597
48.86000 151.274
48.87000 150.047
48.88000 149.677
48.89000 151.379
48.90000 153.173
48.91000 154.294
48.92000 146.677
48.93000 141.089
48.94000 140.715
48.95000 146.021
48.96000 151.310
48.97000 153.851
48.98000 154.439
48.99000 155.015
49.00000 154.586
49.01000 153.709
49.02000 153.113
49.03000 156.566
49.04000 161.347
49.05000 164.906
49.06000 158.499
49.07000 149.897
49.08000 142.546
49.09000 147.112
49.10000 152.383
49.11000 157.245
49.12000 160.709
49.13000 164.056
49.14000 165.829
49.15000 163.934
49.16000 161.888
49.17000 160.628
49.18000 157.396
49.19000 155.058
49.20000 153.488
49.21000 152.721
49.22000 151.965
49.23000 152.371
49.24000 153.573
49.25000 154.749
49.26000 155.350
49.27000 155.671
49.28000 156.086
49.29000 157.778
49.30000 159.874
49.31000 161.456
49.32000 159.025
49.33000 155.743
49.34000 152.957
49.35000 147.480
49.36000 142.580
49.37000 139.150
49.38000 140.576
49.39000 142.385
49.40000 144.235
49.41000 146.176
49.42000 148.121
49.43000 149.302
49.44000 156.644
49.45000 161.930
49.46000 163.114
49.47000 160.175
49.48000 157.262
49.49000 156.984
49.50000 158.443
49.51000 159.866
49.52000 156.054
49.53000 150.175
49.54000 144.701
49.55000 144.437
49.56000 145.765
49.57000 147.134
49.58000 148.808
49.59000 150.544
49.60000 152.008
49.61000 154.882
49.62000 157.435
49.63000 158.017
49.64000 152.317
49.65000 146.149
49.66000 143.161
49.67000 147.088
49.68000 151.254
49.69000 153.745
49.70000 147.960
49.71000 143.803
49.72000 142.189
49.73000 143.028
49.74000 143.897
49.75000 147.267
49.76000 152.229
49.77000 157.055
49.78000 156.663
49.79000 154.142
49.80000 151.786
49.81000 151.434
49.82000 151.673
49.83000 151.737
49.84000 150.549
49.85000 149.116
49.86000 147.915
49.87000 150.295
49.88000 152.642
49.89000 154.712
49.90000 155.930
49.91000 157.088
49.92000 158.774
49.93000 161.568
49.94000 164.397
49.95000 166.062
49.96000 157.361
49.97000 151.170
49.98000 148.500
49.99000 149.094
50.00000 149.679
50.01000 149.651
50.02000 149.246
50.03000 148.854
50.04000 153.726
50.05000 160.431
50.06000 166.464
50.07000 164.762
50.08000 160.862
50.09000 157.197
50.10000 155.148
50.11000 153.403
50.12000 151.952
50.13000 153.900
50.14000 155.844
50.15000 156.897
50.16000 155.303
50.17000 153.535
50.18000 152.406
50.19000 152.574
50.20000 152.779
50.21000 152.897
50.22000 149.309
50.23000 146.779
50.24000 146.240
50.25000 147.476
50.26000 148.751
50.27000 152.438
50.28000 157.554
50.29000 162.506
50.30000 160.280
50.31000 155.442
50.32000 151.170
50.33000 153.075
50.34000 156.675
50.35000 159.679
50.36000 158.792
50.37000 157.198
50.38000 155.883
50.39000 159.255
50.40000 162.468
50.41000 165.082
50.42000 165.981
50.43000 166.774
50.44000 166.161
50.45000 162.799
50.46000 159.366
50.47000 157.409
50.48000 163.727
50.49000 168.151
50.50000 167.103
50.51000 161.370
50.52000 155.871
50.53000 163.155
50.54000 177.743
50.55000 191.820
50.56000 192.022
50.57000 187.121
50.58000 182.255
50.59000 177.738
50.60000 173.314
50.61000 169.400
50.62000 168.681
50.63000 168.520
50.64000 168.387
50.65000 169.695
50.66000 170.894
50.67000 171.674
50.68000 171.291
50.69000 170.840
50.70000 170.086
50.71000 168.759
50.72000 167.419
50.73000 166.668
50.74000 167.344
50.75000 167.817
50.76000 168.876
50.77000 170.418
50.78000 171.889
50.79000 169.948
50.80000 166.124
50.81000 162.444
50.82000 165.267
50.83000 170.208
50.84000 174.561
50.85000 173.116
50.86000 170.192
50.87000 166.702
50.88000 159.800
50.89000 152.328
50.90000 146.252
50.91000 152.785
50.92000 159.171
50.93000 163.381
50.94000 161.775
50.95000 159.852
50.96000 159.501
50.97000 162.015
50.98000 164.590
50.99000 166.007
51.00000 168.378
51.01000 169.999
51.02000 167.109
51.03000 160.645
51.04000 154.248
51.05000 150.767
51.06000 148.838
51.07000 146.988
51.08000 145.572
51.09000 144.397
51.10000 143.735
51.11000 147.879
51.12000 153.203
51.13000 157.116
51.14000 152.870
51.15000 147.316
51.16000 142.835
51.17000 144.106
51.18000 145.593
51.19000 146.848
51.20000 147.506
51.21000 148.134
51.22000 148.577
51.23000 148.693
51.24000 148.804
51.25000 148.863
51.26000 146.091
51.27000 144.195
51.28000 143.392
51.29000 143.423
51.30000 143.423
51.31000 142.222
51.32000 140.403
51.33000 138.664
51.34000 141.454
51.35000 145.531
51.36000 148.925
51.37000 146.217
51.38000 142.065
51.39000 138.102
51.40000 135.191
51.41000 132.442
51.42000 130.242
51.43000 135.927
51.44000 141.113
51.45000 144.873
51.46000 145.080
51.47000 145.117
51.48000 145.822
51.49000 147.657
51.50000 149.511
51.51000 150.496
51.52000 140.724
51.53000 134.094
51.54000 131.625
51.55000 132.215
51.56000 132.825
51.57000 134.188
51.58000 135.924
51.59000 137.578
51.60000 139.018
51.61000 140.285
51.62000 141.282
51.63000 139.970
51.64000 138.131
51.65000 137.541
51.66000 143.609
51.67000 150.660
51.68000 156.256
51.69000 151.222
51.70000 146.421
51.71000 143.438
51.72000 144.834
51.73000 146.422
51.74000 147.301
51.75000 147.017
51.76000 146.716
51.77000 146.559
51.78000 144.991
51.79000 143.926
51.80000 142.223
51.81000 140.068
51.82000 137.902
51.83000 135.420
51.84000 132.786
51.85000 130.283
51.86000 129.917
51.87000 130.223
51.88000 131.114
51.89000 136.757
51.90000 143.444
51.91000 148.681
51.92000 146.479
51.93000 143.228
51.94000 140.668
51.95000 140.633
51.96000 140.772
51.97000 140.044
51.98000 137.300
51.99000 134.474
52.00000 132.592
52.01000 132.202
52.02000 131.830
52.03000 131.641
52.04000 138.005
52.05000 142.239
52.06000 141.857
52.07000 138.325
52.08000 134.919
52.09000 135.165
52.10000 137.100
52.11000 138.933
52.12000 136.858
52.13000 133.814
52.14000 131.356
52.15000 133.448
52.16000 136.501
52.17000 139.520
52.18000 142.376
52.19000 145.210
52.20000 147.421
52.21000 146.386
52.22000 145.359
52.23000 143.142
52.24000 138.256
52.25000 133.270
52.26000 132.751
52.27000 139.038
52.28000 145.398
52.29000 148.581
52.30000 145.356
52.31000 143.217
52.32000 142.078
52.33000 141.598
52.34000 141.071
52.35000 139.291
52.36000 136.952
52.37000 134.745
52.38000 134.095
52.39000 133.933
52.40000 133.827
52.41000 134.141
52.42000 134.540
52.43000 135.010
52.44000 135.817
52.45000 136.667
52.46000 137.325
52.47000 142.606
52.48000 147.069
52.49000 148.279
52.50000 142.441
52.51000 136.360
52.52000 132.036
52.53000 130.294
52.54000 128.574
52.55000 130.246
52.56000 135.178
52.57000 140.087
52.58000 143.129
52.59000 144.987
52.60000 146.807
52.61000 147.712
52.62000 148.222
52.63000 148.701
52.64000 146.869
52.65000 144.577
52.66000 142.337
52.67000 140.465
52.68000 138.665
52.69000 136.574
52.70000 133.155
52.71000 129.572
52.72000 126.826
52.73000 128.977
52.74000 130.948
52.75000 132.757
52.76000 134.229
52.77000 135.691
52.78000 136.830
52.79000 137.512
52.80000 138.191
52.81000 141.689
52.82000 147.788
52.83000 153.809
52.84000 154.338
52.85000 151.507
52.86000 148.625
52.87000 144.564
52.88000 140.012
52.89000 135.750
52.90000 136.543
52.91000 138.565
52.92000 140.115
52.93000 138.448
52.94000 136.176
52.95000 134.586
52.96000 135.998
52.97000 137.764
52.98000 139.105
52.99000 143.731
53.00000 147.537
53.01000 148.894
53.02000 145.298
53.03000 141.561
53.04000 138.859
53.05000 137.568
53.06000 136.286
53.07000 136.567
53.08000 138.233
53.09000 139.900
53.10000 141.565
53.11000 143.230
53.12000 145.004
53.13000 149.108
53.14000 154.148
53.15000 158.849
53.16000 155.414
53.17000 150.289
53.18000 146.051
53.19000 147.599
53.20000 150.192
53.21000 152.314
53.22000 152.442
53.23000 152.345
53.24000 152.272
53.25000 152.249
53.26000 152.234
53.27000 151.633
53.28000 149.888
53.29000 148.113
53.30000 148.447
53.31000 151.551
53.32000 154.665
53.33000 158.805
53.34000 163.809
53.35000 168.668
53.36000 165.719
53.37000 158.323
53.38000 151.420
53.39000 154.250
53.40000 160.861
53.41000 167.001
53.42000 161.713
53.43000 154.227
53.44000 147.920
53.45000 148.978
53.46000 151.314
53.47000 152.947
53.48000 151.713
53.49000 150.172
53.50000 149.024
53.51000 147.421
53.52000 146.152
53.53000 145.638
53.54000 146.546
53.55000 147.487
53.56000 151.856
53.57000 160.564
53.58000 169.274
53.59000 168.133
53.60000 158.937
53.61000 149.806
53.62000 143.869
53.63000 139.687
53.64000 135.815
53.65000 137.653
53.66000 141.632
53.67000 145.312
53.68000 145.436
53.69000 144.735
53.70000 143.771
53.71000 141.229
53.72000 138.425
53.73000 136.459
53.74000 137.790
53.75000 139.456
53.76000 140.685
53.77000 143.069
53.78000 144.964
53.79000 145.380
53.80000 143.104
53.81000 140.773
53.82000 140.831
53.83000 143.799
53.84000 146.768
53.85000 146.266
53.86000 143.038
53.87000 139.865
53.88000 139.072
53.89000 139.541
53.90000 139.994
53.91000 140.146
53.92000 140.189
53.93000 140.229
53.94000 138.806
53.95000 137.213
53.96000 136.291
53.97000 139.236
53.98000 142.799
53.99000 145.542
54.00000 145.177
54.01000 144.511
54.02000 144.025
54.03000 142.695
54.04000 141.636
54.05000 140.376
54.06000 138.761
54.07000 137.139
54.08000 136.584
54.09000 137.278
54.10000 137.972
54.11000 137.943
54.12000 137.368
54.13000 136.793
54.14000 136.228
54.15000 135.669
54.16000 135.156
54.17000 135.381
54.18000 135.866
54.19000 136.310
54.20000 138.556
54.21000 140.935
54.22000 142.449
54.23000 139.176
54.24000 135.169
54.25000 132.017
54.26000 131.992
54.27000 132.255
54.28000 132.445
54.29000 133.075
54.30000 133.574
54.31000 134.456
54.32000 135.989
54.33000 137.532
54.34000 138.940
54.35000 140.194
54.36000 141.445
54.37000 142.100
54.38000 142.317
54.39000 142.488
54.40000 141.038
54.41000 138.785
54.42000 136.626
54.43000 135.896
54.44000 135.647
54.45000 135.421
54.46000 136.907
54.47000 138.570
54.48000 139.911
54.49000 139.535
54.50000 138.906
54.51000 137.970
54.52000 135.946
54.53000 133.826
54.54000 132.312
54.55000 138.968
54.56000 144.320
54.57000 146.473
54.58000 143.402
54.59000 140.256
54.60000 139.319
54.61000 140.773
54.62000 142.221
54.63000 139.269
54.64000 133.272
54.65000 127.457
54.66000 127.428
54.67000 130.163
54.68000 132.878
54.69000 135.322
54.70000 137.677
54.71000 139.816
54.72000 140.074
54.73000 139.939
54.74000 140.231
54.75000 142.710
54.76000 145.495
54.77000 146.676
54.78000 142.397
54.79000 137.666
54.80000 134.322
54.81000 140.863
54.82000 146.134
54.83000 149.830
54.84000 151.045
54.85000 152.229
54.86000 150.304
54.87000 145.147
54.88000 140.017
54.89000 139.759
54.90000 142.779
54.91000 145.592
54.92000 142.437
54.93000 136.528
54.94000 131.396
54.95000 136.725
54.96000 145.344
54.97000 153.132
54.98000 150.175
54.99000 145.583
55.00000 141.870
55.01000 142.476
55.02000 143.662
55.03000 145.511
55.04000 149.536
55.05000 153.731
55.06000 156.663
55.07000 156.433
55.08000 156.171
55.09000 153.751
55.10000 148.056
55.11000 142.327
55.12000 140.775
55.13000 143.393
55.14000 145.995
55.15000 148.685
55.16000 151.392
55.17000 154.067
55.18000 155.850
55.19000 157.235
55.20000 158.426
55.21000 157.131
55.22000 155.081
55.23000 153.238
55.24000 158.294
55.25000 163.945
55.26000 167.671
55.27000 162.291
55.28000 155.739
55.29000 152.793
55.30000 161.271
55.31000 170.593
55.32000 177.034
55.33000 176.191
55.34000 175.370
55.35000 174.963
55.36000 175.163
55.37000 175.368
55.38000 177.586
55.39000 181.733
55.40000 185.849
55.41000 190.835
55.42000 196.278
55.43000 201.581
55.44000 203.429
55.45000 203.790
55.46000 204.336
55.47000 207.102
55.48000 210.517
55.49000 213.572
55.50000 217.292
55.51000 220.649
55.52000 224.923
55.53000 233.377
55.54000 242.344
55.55000 250.765
55.56000 257.512
55.57000 264.143
55.58000 268.671
55.59000 284.201
55.60000 296.073
55.61000 307.614
55.62000 318.687
55.63000 329.757
55.64000 342.126
55.65000 355.689
55.66000 369.131
55.67000 384.772
55.68000 401.424
55.69000 417.660
55.70000 424.406
55.71000 427.211
55.72000 431.345
55.73000 450.630
55.74000 474.196
55.75000 495.159
55.76000 511.876
55.77000 525.698
55.78000 539.576
55.79000 553.701
55.80000 567.855
55.81000 580.733
55.82000 589.843
55.83000 598.707
55.84000 604.686
55.85000 611.559
55.86000 616.692
55.87000 628.830
55.88000 650.496
55.89000 672.202
55.90000 679.401
55.91000 673.764
55.92000 668.186
55.93000 662.746
55.94000 657.505
55.95000 652.359
55.96000 649.210
55.97000 646.863
55.98000 644.051
55.99000 636.214
56.00000 627.007
56.01000 618.862
56.02000 597.682
56.03000 577.345
56.04000 560.506
56.05000 558.435
56.06000 558.018
56.07000 554.429
56.08000 541.800
56.09000 528.615
56.10000 519.832
56.11000 486.133
56.12000 460.715
56.13000 442.222
56.14000 432.798
56.15000 423.407
56.16000 410.048
56.17000 393.313
56.18000 376.775
56.19000 358.085
56.20000 338.663
56.21000 319.636
56.22000 308.372
56.23000 300.115
56.24000 291.958
56.25000 284.839
56.26000 277.993
56.27000 271.970
56.28000 264.136
56.29000 257.125
56.30000 249.214
56.31000 237.643
56.32000 225.682
56.33000 216.282
56.34000 213.931
56.35000 211.985
56.36000 210.706
56.37000 195.676
56.38000 184.375
56.39000 179.143
56.40000 181.564
56.41000 184.001
56.42000 182.863
56.43000 178.799
56.44000 174.790
56.45000 172.163
56.46000 170.346
56.47000 168.324
56.48000 162.573
56.49000 155.427
56.50000 148.885
56.51000 148.233
56.52000 149.073
56.53000 149.808
56.54000 155.349
56.55000 160.780
56.56000 163.797
56.57000 157.343
56.58000 149.927
56.59000 144.431
56.60000 144.031
56.61000 143.907
56.62000 143.826
56.63000 147.604
56.64000 150.429
56.65000 148.944
56.66000 142.227
56.67000 135.514
56.68000 133.001
56.69000 133.798
56.70000 134.582
56.71000 135.426
56.72000 136.274
56.73000 137.137
56.74000 138.253
56.75000 139.462
56.76000 140.679
56.77000 141.972
56.78000 143.284
56.79000 144.424
56.80000 139.620
56.81000 134.713
56.82000 130.930
56.83000 131.396
56.84000 132.272
56.85000 133.912
56.86000 137.512
56.87000 141.212
56.88000 143.581
56.89000 142.198
56.90000 141.140
56.91000 137.007
56.92000 129.282
56.93000 121.594
56.94000 123.024
56.95000 131.369
56.96000 139.571
56.97000 136.963
56.98000 129.103
56.99000 121.707
57.00000 121.762
57.01000 124.417
57.02000 126.930
57.03000 128.196
57.04000 129.169
57.05000 130.009
57.06000 129.333
57.07000 128.563
57.08000 127.808
57.09000 127.113
57.10000 126.423
57.11000 126.004
57.12000 126.256
57.13000 126.539
57.14000 126.717
57.15000 130.852
57.16000 133.895
57.17000 135.527
57.18000 135.578
57.19000 135.619
57.20000 134.319
57.21000 132.038
57.22000 129.800
57.23000 126.623
57.24000 123.116
57.25000 119.834
57.26000 119.972
57.27000 121.261
57.28000 122.734
57.29000 125.767
57.30000 129.154
57.31000 132.062
57.32000 130.495
57.33000 128.616
57.34000 127.687
57.35000 130.102
57.36000 132.807
57.37000 134.454
57.38000 133.572
57.39000 132.581
57.40000 131.963
57.41000 135.570
57.42000 138.213
57.43000 135.418
57.44000 126.759
57.45000 118.169
57.46000 119.352
57.47000 127.413
57.48000 135.304
57.49000 133.642
57.50000 127.676
57.51000 122.004
57.52000 120.505
57.53000 120.361
57.54000 120.635
57.55000 124.271
57.56000 128.641
57.57000 132.369
57.58000 130.129
57.59000 127.540
57.60000 125.893
57.61000 127.439
57.62000 129.249
57.63000 129.474
57.64000 126.037
57.65000 122.454
57.66000 120.255
57.67000 121.856
57.68000 123.037
57.69000 124.801
57.70000 127.169
57.71000 129.516
57.72000 129.445
57.73000 127.735
57.74000 126.065
57.75000 125.085
57.76000 124.451
57.77000 123.872
57.78000 124.030
57.79000 124.419
57.80000 124.743
57.81000 124.565
57.82000 124.281
57.83000 124.041
57.84000 123.745
57.85000 123.491
57.86000 123.330
57.87000 123.472
57.88000 123.638
57.89000 123.984
57.90000 124.731
57.91000 125.493
57.92000 125.954
57.93000 125.880
57.94000 125.823
57.95000 123.705
57.96000 119.539
57.97000 115.416
57.98000 115.434
57.99000 118.160
58.00000 120.816
58.01000 122.715
58.02000 124.207
58.03000 125.589
58.04000 125.586
58.05000 125.165
58.06000 124.620
58.07000 123.164
58.08000 121.524
58.09000 120.144
58.10000 120.789
58.11000 121.544
58.12000 121.731
58.13000 120.129
58.14000 118.395
58.15000 116.050
58.16000 112.388
58.17000 108.682
58.18000 106.474
58.19000 115.896
58.20000 122.641
58.21000 123.616
58.22000 119.080
58.23000 114.600
58.24000 114.467
58.25000 117.077
58.26000 119.615
58.27000 123.621
58.28000 128.028
58.29000 131.893
58.30000 129.275
58.31000 124.762
58.32000 120.776
58.33000 120.495
58.34000 120.935
58.35000 121.303
58.36000 118.408
58.37000 115.671
58.38000 115.364
58.39000 122.465
58.40000 130.078
58.41000 133.481
58.42000 128.122
58.43000 122.491
58.44000 119.189
58.45000 123.252
58.46000 126.149
58.47000 126.845
58.48000 125.521
58.49000 124.221
58.50000 124.524
58.51000 125.802
58.52000 127.041
58.53000 124.756
58.54000 121.208
58.55000 117.886
58.56000 117.135
58.57000 117.107
58.58000 116.924
58.59000 115.700
58.60000 114.281
58.61000 113.103
58.62000 115.754
58.63000 118.316
58.64000 120.652
58.65000 122.323
58.66000 123.951
58.67000 124.233
58.68000 121.812
58.69000 119.315
58.70000 117.874
58.71000 118.828
58.72000 119.505
58.73000 119.264
58.74000 118.214
58.75000 117.182
58.76000 117.195
58.77000 117.822
58.78000 118.429
58.79000 117.048
58.80000 114.994
58.81000 113.466
58.82000 117.602
58.83000 123.276
58.84000 127.739
58.85000 124.358
58.86000 119.570
58.87000 115.624
58.88000 113.182
58.89000 111.310
58.90000 111.091
58.91000 115.567
58.92000 120.331
58.93000 123.822
58.94000 124.841
58.95000 125.797
58.96000 126.339
58.97000 121.746
58.98000 118.536
58.99000 116.942
59.00000 116.718
59.01000 116.510
59.02000 117.182
59.03000 118.350
59.04000 119.477
59.05000 118.275
59.06000 116.299
59.07000 114.520
59.08000 114.751
59.09000 115.509
59.10000 116.630
59.11000 120.005
59.12000 123.770
59.13000 126.848
59.14000 122.925
59.15000 119.103
59.16000 115.795
59.17000 113.900
59.18000 112.085
59.19000 110.133
59.20000 107.922
59.21000 105.706
59.22000 104.469
59.23000 110.007
59.24000 113.847
59.25000 114.906
59.26000 113.696
59.27000 112.558
59.28000 114.751
59.29000 118.765
59.30000 122.625
59.31000 120.916
59.32000 117.368
59.33000 114.180
59.34000 114.491
59.35000 115.686
59.36000 116.805
59.37000 117.474
59.38000 118.069
59.39000 118.552
59.40000 116.277
59.41000 114.196
59.42000 112.388
59.43000 111.304
59.44000 110.259
59.45000 110.161
59.46000 111.774
59.47000 113.422
59.48000 114.325
59.49000 109.823
59.50000 106.726
59.51000 105.514
59.52000 105.784
59.53000 106.081
59.54000 107.486
59.55000 109.475
59.56000 111.383
59.57000 115.528
59.58000 120.151
59.59000 124.350
59.60000 124.637
59.61000 123.972
59.62000 123.020
59.63000 120.428
59.64000 117.575
59.65000 115.279
59.66000 114.241
59.67000 113.497
59.68000 111.983
59.69000 108.501
59.70000 104.920
59.71000 103.355
59.72000 105.309
59.73000 107.326
59.74000 108.412
59.75000 110.426
59.76000 111.805
59.77000 113.493
59.78000 115.415
59.79000 117.286
59.80000 117.252
59.81000 116.247
59.82000 115.286
59.83000 114.021
59.84000 112.745
59.85000 111.827
59.86000 114.063
59.87000 117.038
59.88000 119.457
59.89000 118.828
59.90000 117.734
59.91000 116.861
59.92000 120.559
59.93000 123.882
59.94000 124.129
59.95000 116.776
59.96000 109.069
59.97000 107.589
59.98000 116.589
59.99000 125.757
60.00000 130.600
60.01000 128.379
60.02000 126.860
60.03000 124.105
60.04000 120.450
60.05000 116.888
60.06000 116.546
60.07000 117.786
60.08000 118.968
60.09000 120.506
60.10000 122.041
60.11000 123.523
60.12000 124.551
60.13000 125.477
60.14000 126.045
60.15000 124.721
60.16000 123.121
60.17000 121.854
60.18000 118.365
60.19000 115.405
60.20000 113.357
60.21000 113.485
60.22000 113.707
60.23000 113.515
60.24000 112.651
60.25000 111.779
60.26000 111.326
60.27000 114.718
60.28000 116.999
60.29000 118.209
60.30000 118.666
60.31000 119.228
60.32000 123.052
60.33000 128.425
60.34000 133.525
60.35000 125.681
60.36000 114.571
60.37000 104.681
60.38000 104.592
60.39000 106.634
60.40000 108.711
60.41000 110.964
60.42000 113.242
60.43000 115.031
60.44000 114.636
60.45000 114.176
60.46000 115.346
60.47000 120.271
60.48000 125.346
60.49000 125.759
60.50000 118.872
60.51000 111.898
60.52000 108.355
60.53000 106.587
60.54000 105.460
60.55000 110.651
60.56000 120.114
60.57000 129.267
60.58000 129.572
60.59000 125.820
60.60000 122.271
60.61000 119.675
60.62000 117.563
60.63000 115.535
60.64000 114.149
60.65000 112.898
60.66000 112.283
60.67000 114.779
60.68000 117.691
60.69000 119.958
60.70000 123.215
60.71000 125.870
60.72000 127.062
60.73000 124.999
60.74000 122.817
60.75000 119.897
60.76000 115.864
60.77000 111.820
60.78000 109.255
60.79000 108.155
60.80000 107.089
60.81000 109.051
60.82000 112.986
60.83000 116.817
60.84000 117.893
60.85000 117.748
60.86000 117.613
60.87000 116.771
60.88000 115.805
60.89000 115.186
60.90000 117.117
60.91000 119.563
60.92000 121.355
60.93000 120.078
60.94000 118.410
60.95000 117.123
60.96000 120.848
60.97000 124.092
60.98000 125.108
60.99000 121.338
61.00000 117.407
61.01000 115.565
61.02000 116.761
61.03000 117.983
61.04000 118.984
61.05000 119.775
61.06000 120.549
61.07000 120.076
61.08000 118.819
61.09000 117.640
61.10000 118.378
61.11000 119.935
61.12000 121.397
61.13000 121.868
61.14000 122.034
61.15000 121.720
61.16000 118.038
61.17000 113.702
61.18000 110.305
61.19000 111.151
61.20000 112.515
61.21000 113.558
61.22000 116.621
61.23000 119.147
61.24000 120.055
61.25000 117.608
61.26000 115.058
61.27000 114.879
61.28000 118.025
61.29000 121.193
61.30000 123.357
61.31000 124.604
61.32000 125.827
61.33000 125.453
61.34000 124.109
61.35000 122.872
61.36000 124.013
61.37000 126.136
61.38000 128.122
61.39000 126.377
61.40000 123.840
61.41000 121.705
61.42000 122.274
61.43000 123.347
61.44000 124.759
61.45000 127.648
61.46000 130.710
61.47000 133.029
61.48000 132.249
61.49000 131.478
61.50000 133.723
61.51000 142.008
61.52000 150.462
61.53000 159.188
61.54000 168.283
61.55000 177.374
61.56000 188.832
61.57000 202.348
61.58000 215.844
61.59000 228.100
61.60000 239.632
61.61000 251.066
61.62000 260.482
61.63000 269.092
61.64000 277.114
61.65000 278.424
61.66000 277.964
61.67000 277.590
61.68000 277.770
61.69000 278.048
61.70000 278.139
61.71000 277.445
61.72000 276.665
61.73000 276.079
61.74000 272.362
61.75000 269.308
61.76000 263.576
61.77000 252.661
61.78000 241.615
61.79000 229.339
61.80000 215.460
61.81000 201.588
61.82000 187.392
61.83000 172.959
61.84000 158.683
61.85000 152.656
61.86000 151.287
61.87000 149.761
61.88000 145.193
61.89000 139.454
61.90000 134.129
61.91000 134.893
61.92000 137.013
61.93000 138.460
61.94000 135.736
61.95000 132.296
61.96000 128.997
61.97000 126.269
61.98000 123.603
61.99000 121.621
62.00000 125.755
62.01000 129.241
62.02000 131.102
62.03000 129.928
62.04000 128.685
62.05000 126.155
62.06000 122.015
62.07000 117.875
62.08000 118.238
62.09000 122.245
62.10000 126.212
62.11000 128.275
62.12000 129.301
62.13000 130.169
62.14000 128.181
62.15000 125.132
62.16000 122.315
62.17000 125.858
62.18000 130.473
62.19000 134.005
62.20000 131.112
62.21000 127.159
62.22000 124.511
62.23000 126.944
62.24000 129.888
62.25000 132.055
62.26000 133.908
62.27000 135.330
62.28000 135.980
62.29000 135.242
62.30000 134.475
62.31000 131.579
62.32000 126.115
62.33000 120.657
62.34000 119.493
62.35000 121.677
62.36000 123.795
62.37000 123.165
62.38000 121.089
62.39000 119.430
62.40000 124.854
62.41000 132.820
62.42000 140.147
62.43000 134.545
62.44000 126.735
62.45000 120.119
62.46000 120.303
62.47000 121.563
62.48000 123.603
62.49000 128.575
62.50000 133.828
62.51000 137.652
62.52000 129.906
62.53000 123.499
62.54000 120.970
62.55000 125.182
62.56000 129.516
62.57000 131.728
62.58000 131.477
62.59000 131.223
62.60000 128.892
62.61000 125.023
62.62000 121.313
62.63000 123.570
62.64000 128.858
62.65000 133.862
62.66000 134.344
62.67000 133.259
62.68000 132.266
62.69000 129.442
62.70000 126.548
62.71000 124.599
62.72000 127.818
62.73000 131.821
62.74000 134.088
62.75000 130.062
62.76000 125.465
62.77000 122.152
62.78000 123.242
62.79000 124.233
62.80000 125.883
62.81000 128.641
62.82000 131.416
62.83000 131.841
62.84000 129.644
62.85000 127.453
62.86000 125.653
62.87000 124.149
62.88000 122.789
62.89000 126.264
62.90000 132.110
62.91000 137.555
62.92000 137.017
62.93000 134.475
62.94000 132.160
62.95000 130.505
62.96000 129.171
62.97000 128.165
62.98000 128.890
62.99000 129.866
63.00000 131.499
63.01000 135.424
63.02000 139.547
63.03000 142.486
63.04000 137.278
63.05000 133.042
63.06000 131.292
63.07000 133.565
63.08000 135.894
63.09000 135.240
63.10000 131.389
63.11000 127.556
63.12000 128.271
63.13000 132.127
63.14000 135.933
63.15000 138.189
63.16000 139.711
63.17000 140.838
63.18000 136.410
63.19000 130.187
63.20000 124.544
63.21000 129.934
63.22000 136.799
63.23000 141.826
63.24000 137.548
63.25000 131.974
63.26000 127.373
63.27000 126.049
63.28000 124.993
63.29000 124.248
63.30000 134.707
63.31000 142.977
63.32000 146.319
63.33000 141.970
63.34000 137.530
63.35000 136.111
63.36000 137.801
63.37000 139.483
63.38000 135.822
63.39000 128.652
63.40000 121.807
63.41000 124.186
63.42000 130.781
63.43000 136.768
63.44000 134.673
63.45000 130.058
63.46000 125.894
63.47000 129.672
63.48000 134.448
63.49000 138.421
63.50000 138.486
63.51000 138.030
63.52000 136.687
63.53000 132.455
63.54000 128.000
63.55000 124.895
63.56000 127.161
63.57000 129.018
63.58000 131.940
63.59000 136.464
63.60000 141.004
63.61000 140.121
63.62000 133.881
63.63000 127.683
63.64000 127.833
63.65000 132.045
63.66000 136.112
63.67000 136.407
63.68000 135.036
63.69000 133.689
63.70000 132.650
63.71000 131.704
63.72000 130.854
63.73000 135.818
63.74000 141.181
63.75000 145.545
63.76000 145.233
63.77000 144.325
63.78000 143.613
63.79000 143.516
63.80000 143.464
63.81000 143.428
63.82000 141.551
63.83000 140.097
63.84000 139.176
63.85000 139.031
63.86000 138.892
63.87000 138.031
63.88000 136.486
63.89000 134.953
63.90000 135.127
63.91000 136.349
63.92000 137.663
63.93000 141.194
63.94000 145.670
63.95000 149.679
63.96000 148.151
63.97000 145.015
63.98000 142.214
63.99000 141.144
64.00000 140.503
64.01000 140.207
64.02000 141.463
64.03000 142.908
64.04000 144.682
64.05000 147.451
64.06000 150.288
64.07000 152.220
64.08000 147.100
64.09000 143.116
64.10000 140.886
64.11000 141.110
64.12000 141.352
64.13000 142.092
64.14000 143.286
64.15000 144.469
64.16000 145.636
64.17000 146.770
64.18000 147.785
64.19000 146.128
64.20000 143.372
64.21000 141.129
64.22000 144.663
64.23000 149.816
64.24000 154.392
64.25000 154.541
64.26000 153.958
64.27000 153.082
64.28000 150.939
64.29000 148.649
64.30000 147.878
64.31000 151.553
64.32000 155.515
64.33000 158.179
64.34000 157.385
64.35000 156.725
64.36000 154.739
64.37000 150.968
64.38000 147.188
64.39000 144.476
64.40000 142.697
64.41000 140.938
64.42000 142.844
64.43000 146.796
64.44000 150.795
64.45000 155.775
64.46000 161.144
64.47000 165.928
64.48000 164.469
64.49000 161.324
64.50000 158.545
64.51000 156.540
64.52000 154.927
64.53000 154.496
64.54000 159.009
64.55000 164.068
64.56000 167.870
64.57000 168.120
64.58000 168.155
64.59000 168.178
64.60000 166.607
64.61000 165.417
64.62000 166.707
64.63000 171.216
64.64000 175.726
64.65000 173.287
64.66000 164.996
64.67000 156.806
64.68000 156.518
64.69000 160.572
64.70000 164.766
64.71000 171.639
64.72000 179.541
64.73000 186.063
64.74000 178.601
64.75000 167.497
64.76000 157.743
64.77000 164.700
64.78000 173.140
64.79000 179.052
64.80000 174.772
64.81000 169.417
64.82000 165.117
64.83000 163.691
64.84000 162.427
64.85000 161.599
64.86000 172.485
64.87000 180.684
64.88000 184.170
64.89000 181.769
64.90000 179.352
64.91000 177.679
64.92000 176.610
64.93000 175.556
64.94000 171.746
64.95000 166.589
64.96000 161.995
64.97000 167.560
64.98000 176.890
64.99000 185.601
65.00000 188.344
65.01000 189.588
65.02000 190.675
65.03000 193.778
65.04000 196.717
65.05000 198.480
65.06000 195.672
65.07000 192.405
65.08000 191.235
65.09000 195.586
65.10000 200.229
65.11000 203.233
65.12000 203.736
65.13000 204.068
65.14000 205.943
65.15000 209.672
65.16000 213.395
65.17000 214.280
65.18000 212.950
65.19000 211.641
65.20000 209.828
65.21000 207.815
65.22000 206.241
65.23000 212.085
65.24000 220.583
65.25000 228.697
65.26000 233.275
65.27000 236.998
65.28000 240.229
65.29000 243.527
65.30000 246.347
65.31000 248.832
65.32000 250.063
65.33000 251.175
65.34000 251.558
65.35000 250.086
65.36000 248.522
65.37000 247.524
65.38000 264.084
65.39000 276.358
65.40000 279.014
65.41000 270.551
65.42000 262.123
65.43000 263.885
65.44000 273.302
65.45000 282.553
65.46000 287.809
65.47000 290.931
65.48000 293.843
65.49000 293.419
65.50000 291.843
65.51000 290.983
65.52000 296.392
65.53000 303.263
65.54000 309.189
65.55000 317.096
65.56000 324.056
65.57000 331.832
65.58000 342.555
65.59000 353.543
65.60000 364.695
65.61000 376.249
65.62000 387.821
65.63000 395.105
65.64000 424.652
65.65000 446.282
65.66000 478.423
65.67000 522.246
65.68000 566.219
65.69000 632.575
65.70000 715.129
65.71000 796.072
65.72000 896.082
65.73000 1001.349
65.74000 1107.526
65.75000 1227.226
65.76000 1351.438
65.77000 1473.331
65.78000 1575.859
65.79000 1674.039
65.80000 1758.204
65.81000 1822.843
65.82000 1875.045
65.83000 1923.786
65.84000 1960.465
65.85000 1996.110
65.86000 2016.357
65.87000 2000.077
65.88000 1982.242
65.89000 1971.174
65.90000 1928.739
65.91000 1897.896
65.92000 1846.377
65.93000 1772.773
65.94000 1698.956
65.95000 1598.530
65.96000 1479.551
65.97000 1363.141
65.98000 1237.872
65.99000 1113.638
66.00000 991.134
66.01000 892.867
66.02000 802.405
66.03000 715.106
66.04000 653.030
66.05000 596.405
66.06000 548.178
66.07000 502.362
66.08000 464.124
66.09000 431.626
66.10000 418.426
66.11000 406.792
66.12000 395.773
66.13000 386.163
66.14000 376.608
66.15000 370.764
66.16000 361.810
66.17000 355.376
66.18000 353.951
66.19000 357.663
66.20000 361.334
66.21000 360.707
66.22000 357.191
66.23000 353.759
66.24000 363.291
66.25000 378.060
66.26000 393.044
66.27000 410.876
66.28000 429.593
66.29000 449.330
66.30000 476.841
66.31000 505.968
66.32000 530.611
66.33000 541.515
66.34000 549.117
66.35000 559.202
66.36000 577.347
66.37000 596.111
66.38000 609.626
66.39000 611.532
66.40000 613.017
66.41000 613.912
66.42000 616.887
66.43000 619.018
66.44000 618.879
66.45000 616.507
66.46000 614.062
66.47000 605.123
66.48000 591.976
66.49000 579.173
66.50000 554.587
66.51000 526.209
66.52000 498.453
66.53000 478.469
66.54000 460.817
66.55000 443.887
66.56000 432.213
66.57000 421.592
66.58000 412.667
66.59000 390.531
66.60000 370.691
66.61000 354.114
66.62000 347.752
66.63000 342.130
66.64000 338.949
66.65000 340.984
66.66000 343.193
66.67000 344.503
66.68000 336.503
66.69000 330.790
66.70000 330.876
66.71000 336.446
66.72000 341.959
66.73000 343.143
66.74000 341.621
66.75000 340.143
66.76000 342.572
66.77000 346.457
66.78000 349.533
66.79000 343.052
66.80000 333.804
66.81000 326.031
66.82000 328.550
66.83000 333.050
66.84000 336.804
66.85000 341.095
66.86000 344.707
66.87000 347.211
66.88000 346.363
66.89000 345.286
66.90000 346.097
66.91000 350.802
66.92000 355.624
66.93000 358.440
66.94000 348.828
66.95000 342.013
66.96000 343.616
66.97000 352.864
66.98000 362.005
66.99000 364.091
67.00000 361.924
67.01000 359.825
67.02000 362.350
67.03000 366.537
67.04000 370.224
67.05000 368.316
67.06000 364.847
67.07000 362.239
67.08000 365.397
67.09000 369.621
67.10000 373.121
67.11000 372.907
67.12000 372.376
67.13000 372.878
67.14000 376.390
67.15000 380.096
67.16000 382.929
67.17000 384.024
67.18000 385.070
67.19000 385.671
67.20000 373.810
67.21000 365.482
67.22000 367.843
67.23000 379.537
67.24000 391.014
67.25000 389.963
67.26000 381.625
67.27000 373.567
67.28000 375.489
67.29000 381.032
67.30000 385.837
67.31000 382.808
67.32000 377.669
67.33000 374.366
67.34000 382.820
67.35000 393.363
67.36000 402.034
67.37000 403.732
67.38000 404.496
67.39000 403.781
67.40000 398.902
67.41000 393.772
67.42000 392.459
67.43000 398.486
67.44000 404.694
67.45000 408.202
67.46000 401.536
67.47000 396.890
67.48000 401.370
67.49000 413.510
67.50000 425.354
67.51000 422.021
67.52000 410.169
67.53000 398.747
67.54000 401.045
67.55000 408.139
67.56000 414.924
67.57000 418.574
67.58000 421.410
67.59000 423.868
67.60000 424.002
67.61000 423.739
67.62000 423.524
67.63000 423.825
67.64000 424.115
67.65000 425.217
67.66000 428.531
67.67000 431.969
67.68000 433.467
67.69000 431.362
67.70000 429.177
67.71000 427.964
67.72000 417.548
67.73000 410.361
67.74000 413.306
67.75000 424.439
67.76000 435.386
67.77000 437.907
67.78000 435.862
67.79000 433.896
67.80000 435.788
67.81000 438.893
67.82000 441.924
67.83000 444.239
67.84000 446.374
67.85000 447.618
67.86000 443.599
67.87000 438.719
67.88000 434.767
67.89000 450.486
67.90000 464.885
67.91000 475.634
67.92000 476.796
67.93000 477.453
67.94000 478.193
67.95000 479.082
67.96000 479.975
67.97000 480.462
67.98000 471.096
67.99000 464.672
68.00000 463.823
68.01000 467.309
68.02000 470.930
68.03000 480.100
68.04000 492.172
68.05000 503.736
68.06000 510.614
68.07000 515.470
68.08000 519.025
68.09000 510.685
68.10000 499.476
68.11000 491.923
68.12000 505.061
68.13000 521.451
68.14000 534.620
68.15000 532.641
68.16000 529.873
68.17000 526.167
68.18000 520.081
68.19000 513.879
68.20000 512.618
68.21000 519.897
68.22000 527.328
68.23000 531.308
68.24000 530.174
68.25000 529.416
68.26000 532.475
68.27000 538.393
68.28000 544.448
68.29000 555.581
68.30000 569.278
68.31000 582.356
68.32000 582.695
68.33000 578.930
68.34000 576.540
68.35000 586.131
68.36000 598.506
68.37000 608.208
68.38000 603.368
68.39000 596.339
68.40000 590.736
68.41000 605.050
68.42000 618.045
68.43000 628.519
68.44000 632.822
68.45000 636.843
68.46000 639.981
68.47000 641.647
68.48000 643.291
68.49000 644.154
68.50000 667.509
68.51000 683.318
68.52000 693.434
68.53000 699.444
68.54000 705.707
68.55000 720.433
68.56000 739.283
68.57000 757.224
68.58000 773.459
68.59000 787.960
68.60000 804.487
68.61000 837.860
68.62000 875.004
68.63000 910.882
68.64000 940.146
68.65000 968.456
68.66000 990.832
68.67000 1052.385
68.68000 1104.495
68.69000 1152.988
68.70000 1192.923
68.71000 1232.496
68.72000 1265.571
68.73000 1288.190
68.74000 1310.670
68.75000 1322.262
68.76000 1400.526
68.77000 1453.192
68.78000 1497.934
68.79000 1537.168
68.80000 1576.776
68.81000 1627.814
68.82000 1684.231
68.83000 1737.742
68.84000 1806.464
68.85000 1874.330
68.86000 1948.490
68.87000 2072.656
68.88000 2207.595
68.89000 2372.046
68.90000 2684.857
68.91000 3018.156
68.92000 3279.360
68.93000 4469.965
68.94000 5481.491
68.95000 6863.129
68.96000 9090.132
68.97000 11350.160
68.98000 14051.877
68.99000 17438.959
69.00000 20833.908
69.01000 22550.004
69.02000 27438.521
69.03000 30703.090
69.04000 33298.773
69.05000 35446.242
69.06000 37566.129
69.07000 38914.348
69.08000 39911.855
69.09000 40854.633
69.10000 41598.352
69.11000 42224.715
69.12000 42855.500
69.13000 43519.848
69.14000 44191.160
69.15000 44857.895
69.16000 45502.492
69.17000 46144.168
69.18000 46642.668
69.19000 45698.723
69.20000 44860.293
69.21000 43535.551
69.22000 41138.164
69.23000 38702.211
69.24000 36203.313
69.25000 33610.234
69.26000 31016.271
69.27000 28768.855
69.28000 26861.508
69.29000 24961.039
69.30000 23666.549
69.31000 22763.572
69.32000 21877.148
69.33000 21416.801
69.34000 21143.451
69.35000 20886.045
69.36000 20421.020
69.37000 19938.848
69.38000 19376.762
69.39000 18234.227
69.40000 16975.916
69.41000 15625.649
69.42000 13847.408
69.43000 12015.123
69.44000 10604.354
69.45000 8768.929
69.46000 7291.708
69.47000 5950.303
69.48000 4898.169
69.49000 3855.567
69.50000 3042.664
69.51000 2561.026
69.52000 2082.106
69.53000 1761.791
69.54000 1590.959
69.55000 1420.895
69.56000 1308.662
69.57000 1232.463
69.58000 1157.238
69.59000 1105.158
69.60000 1062.888
69.61000 1023.233
69.62000 979.832
69.63000 939.305
69.64000 899.058
69.65000 860.761
69.66000 822.837
69.67000 787.061
69.68000 760.914
69.69000 735.927
69.70000 716.864
69.71000 698.717
69.72000 684.468
69.73000 673.311
69.74000 668.513
69.75000 663.907
69.76000 657.903
69.77000 649.957
69.78000 642.001
69.79000 632.341
69.80000 621.148
69.81000 609.931
69.82000 597.068
69.83000 583.216
69.84000 569.440
69.85000 557.328
69.86000 545.896
69.87000 535.214
69.88000 532.046
69.89000 531.068
69.90000 529.503
69.91000 524.029
69.92000 517.834
69.93000 511.379
69.94000 503.801
69.95000 496.094
69.96000 490.269
69.97000 492.092
69.98000 493.904
69.99000 495.611
70.00000 497.108
