20.00000 473.026
20.01000 469.070
20.02000 464.549
20.03000 461.875
20.04000 466.465
20.05000 471.796
20.06000 475.728
20.07000 475.506
20.08000 475.160
20.09000 475.322
20.10000 476.409
20.11000 477.515
20.12000 482.636
20.13000 492.646
20.14000 502.649
20.15000 504.192
20.16000 499.073
20.17000 493.962
20.18000 489.130
20.19000 484.448
20.20000 479.629
20.21000 472.441
20.22000 464.397
20.23000 456.989
20.24000 465.060
20.25000 475.670
20.26000 484.351
20.27000 481.922
20.28000 477.715
20.29000 474.422
20.30000 474.590
20.31000 475.095
20.32000 475.463
20.33000 482.748
20.34000 488.633
20.35000 488.171
20.36000 476.568
20.37000 464.757
20.38000 456.313
20.39000 451.812
20.40000 447.328
20.41000 449.714
20.42000 457.277
20.43000 464.769
20.44000 469.503
20.45000 472.824
20.46000 475.555
20.47000 468.741
20.48000 458.589
20.49000 449.283
20.50000 456.777
20.51000 466.985
20.52000 474.756
20.53000 469.047
20.54000 461.272
20.55000 454.902
20.56000 453.673
20.57000 452.918
20.58000 452.372
20.59000 453.001
20.60000 453.525
20.61000 453.217
20.62000 451.498
20.63000 449.756
20.64000 448.111
20.65000 446.577
20.66000 445.047
20.67000 444.684
20.68000 445.170
20.69000 445.757
20.70000 449.837
20.71000 455.646
20.72000 461.407
20.73000 466.444
20.74000 471.236
20.75000 475.608
20.76000 473.168
20.77000 469.630
20.78000 465.816
20.79000 460.532
20.80000 455.032
20.81000 452.009
20.82000 457.725
20.83000 464.205
20.84000 468.836
20.85000 466.389
20.86000 464.286
20.87000 461.135
20.88000 456.272
20.89000 451.385
20.90000 453.350
20.91000 462.731
20.92000 472.075
20.93000 474.545
20.94000 472.185
20.95000 469.766
20.96000 465.488
20.97000 460.322
20.98000 455.516
20.99000 455.843
21.00000 457.843
21.01000 459.660
21.02000 461.362
21.03000 462.843
21.04000 464.066
21.05000 463.970
21.06000 463.687
21.07000 463.936
21.08000 465.992
21.09000 468.198
21.10000 469.757
21.11000 471.467
21.12000 472.771
21.13000 474.449
21.14000 476.718
21.15000 478.994
21.16000 479.008
21.17000 476.668
21.18000 474.341
21.19000 471.014
21.20000 467.056
21.21000 463.246
21.22000 463.721
21.23000 466.173
21.24000 468.727
21.25000 472.665
21.26000 477.038
21.27000 480.990
21.28000 473.577
21.29000 464.953
21.30000 458.038
21.31000 459.527
21.32000 462.148
21.33000 464.631
21.34000 466.660
21.35000 468.654
21.36000 470.048
21.37000 472.224
21.38000 473.890
21.39000 472.058
21.40000 464.912
21.41000 457.710
21.42000 459.274
21.43000 469.588
21.44000 479.836
21.45000 482.532
21.46000 480.304
21.47000 478.071
21.48000 475.678
21.49000 473.215
21.50000 470.333
21.51000 462.140
21.52000 452.333
21.53000 443.517
21.54000 455.409
21.55000 469.498
21.56000 481.903
21.57000 486.337
21.58000 489.746
21.59000 489.933
21.60000 479.913
21.61000 469.140
21.62000 461.695
21.63000 469.235
21.64000 475.289
21.65000 478.274
21.66000 476.765
21.67000 475.216
21.68000 474.124
21.69000 473.470
21.70000 472.820
21.71000 470.196
21.72000 466.389
21.73000 462.763
21.74000 463.594
21.75000 466.342
21.76000 469.048
21.77000 471.256
21.78000 473.318
21.79000 475.162
21.80000 472.917
21.81000 470.265
21.82000 468.230
21.83000 469.006
21.84000 470.127
21.85000 471.133
21.86000 471.785
21.87000 472.412
21.88000 472.840
21.89000 475.831
21.90000 478.129
21.91000 478.898
21.92000 477.510
21.93000 476.107
21.94000 477.743
21.95000 482.178
21.96000 486.572
21.97000 489.777
21.98000 492.207
21.99000 494.637
22.00000 497.065
22.01000 499.493
22.02000 501.330
22.03000 496.434
22.04000 489.636
22.05000 483.588
22.06000 486.742
22.07000 490.977
22.08000 492.709
22.09000 483.466
22.10000 472.935
22.11000 467.080
22.12000 475.031
22.13000 483.887
22.14000 489.861
22.15000 478.957
22.16000 470.487
22.17000 469.423
22.18000 478.434
22.19000 487.495
22.20000 488.519
22.21000 482.432
22.22000 476.408
22.23000 474.163
22.24000 474.143
22.25000 474.120
22.26000 474.026
22.27000 473.904
22.28000 473.838
22.29000 474.376
22.30000 475.079
22.31000 475.701
22.32000 475.589
22.33000 475.378
22.34000 474.839
22.35000 472.911
22.36000 470.827
22.37000 468.442
22.38000 465.198
22.39000 461.900
22.40000 459.703
22.41000 451.979
22.42000 446.157
22.43000 446.531
22.44000 455.023
22.45000 463.540
22.46000 464.995
22.47000 460.442
22.48000 455.943
22.49000 453.876
22.50000 453.207
22.51000 452.327
22.52000 447.294
22.53000 440.651
22.54000 434.578
22.55000 434.346
22.56000 435.651
22.57000 436.798
22.58000 431.889
22.59000 426.762
22.60000 425.350
22.61000 439.056
22.62000 454.373
22.63000 462.608
22.64000 451.348
22.65000 438.963
22.66000 430.817
22.67000 430.644
22.68000 430.653
22.69000 431.453
22.70000 433.248
22.71000 435.049
22.72000 437.786
22.73000 441.289
22.74000 444.744
22.75000 442.990
22.76000 438.507
22.77000 434.232
22.78000 433.771
22.79000 434.736
22.80000 436.065
22.81000 440.948
22.82000 446.731
22.83000 451.789
22.84000 444.018
22.85000 435.535
22.86000 429.419
22.87000 432.589
22.88000 436.703
22.89000 438.295
22.90000 433.189
22.91000 427.722
22.92000 424.172
22.93000 437.792
22.94000 448.028
22.95000 450.290
22.96000 442.874
22.97000 435.442
22.98000 429.746
22.99000 425.419
23.00000 421.158
23.01000 426.768
23.02000 437.272
23.03000 446.881
23.04000 441.130
23.05000 429.831
23.06000 420.113
23.07000 425.093
23.08000 433.661
23.09000 441.110
23.10000 442.291
23.11000 442.447
23.12000 442.925
23.13000 444.622
23.14000 446.437
23.15000 447.475
23.16000 446.516
23.17000 445.458
23.18000 444.780
23.19000 445.318
23.20000 445.726
23.21000 443.685
23.22000 438.786
23.23000 433.896
23.24000 431.912
23.25000 432.133
23.26000 432.349
23.27000 430.487
23.28000 427.660
23.29000 424.990
23.30000 424.845
23.31000 425.580
23.32000 426.741
23.33000 431.670
23.34000 437.486
23.35000 442.511
23.36000 450.476
23.37000 457.622
23.38000 459.802
23.39000 443.873
23.40000 426.283
23.41000 417.004
23.42000 428.322
23.43000 440.604
23.44000 448.363
23.45000 448.519
23.46000 448.544
23.47000 449.390
23.48000 451.158
23.49000 452.905
23.50000 451.045
23.51000 446.551
23.52000 442.142
23.53000 441.729
23.54000 443.229
23.55000 444.574
23.56000 443.561
23.57000 441.756
23.58000 440.149
23.59000 440.225
23.60000 440.682
23.61000 441.074
23.62000 439.668
23.63000 438.257
23.64000 439.065
23.65000 447.675
23.66000 456.964
23.67000 462.771
23.68000 460.246
23.69000 457.359
23.70000 455.560
23.71000 449.958
23.72000 445.883
23.73000 446.251
23.74000 451.414
23.75000 456.562
23.76000 459.426
23.77000 460.682
23.78000 461.911
23.79000 464.384
23.80000 467.328
23.81000 470.302
23.82000 473.708
23.83000 477.254
23.84000 480.726
23.85000 483.595
23.86000 486.332
23.87000 488.667
23.88000 486.050
23.89000 483.263
23.90000 482.830
23.91000 490.382
23.92000 498.592
23.93000 502.631
23.94000 497.029
23.95000 491.040
23.96000 487.363
23.97000 493.674
23.98000 498.283
23.99000 499.007
24.00000 495.706
24.01000 492.408
24.02000 489.647
24.03000 487.249
24.04000 484.907
24.05000 491.543
24.06000 501.849
24.07000 511.023
24.08000 505.013
24.09000 494.239
24.10000 484.239
24.11000 480.197
24.12000 477.408
24.13000 475.044
24.14000 467.501
24.15000 460.598
24.16000 456.597
24.17000 462.097
24.18000 468.337
24.19000 471.564
24.20000 468.069
24.21000 464.324
24.22000 462.060
24.23000 455.509
24.24000 450.810
24.25000 452.666
24.26000 461.044
24.27000 469.308
24.28000 466.937
24.29000 457.608
24.30000 448.517
24.31000 446.685
24.32000 448.014
24.33000 449.307
24.34000 450.147
24.35000 450.850
24.36000 451.322
24.37000 450.099
24.38000 448.532
24.39000 447.214
24.40000 433.681
24.41000 421.087
24.42000 412.940
24.43000 418.845
24.44000 425.783
24.45000 430.293
24.46000 429.567
24.47000 428.664
24.48000 428.126
24.49000 414.840
24.50000 405.351
24.51000 405.978
24.52000 416.270
24.53000 426.446
24.54000 427.517
24.55000 422.842
24.56000 418.298
24.57000 415.828
24.58000 414.324
24.59000 412.832
24.60000 411.476
24.61000 410.159
24.62000 409.571
24.63000 414.123
24.64000 419.674
24.65000 424.315
24.66000 418.150
24.67000 411.931
24.68000 408.168
24.69000 411.894
24.70000 416.138
24.71000 418.707
24.72000 417.790
24.73000 416.766
24.74000 416.165
24.75000 415.443
24.76000 414.935
24.77000 414.458
24.78000 414.012
24.79000 413.500
24.80000 408.529
24.81000 400.844
24.82000 393.393
24.83000 400.628
24.84000 413.244
24.85000 424.718
24.86000 423.226
24.87000 418.081
24.88000 413.314
24.89000 411.100
24.90000 409.363
24.91000 407.921
24.92000 410.994
24.93000 413.970
24.94000 416.691
24.95000 418.660
24.96000 420.579
24.97000 419.009
24.98000 410.426
24.99000 401.645
25.00000 396.580
25.01000 400.616
25.02000 403.480
25.03000 407.277
25.04000 411.898
25.05000 416.469
25.06000 418.040
25.07000 417.851
25.08000 417.668
25.09000 410.789
25.10000 401.767
25.11000 393.183
25.12000 389.304
25.13000 386.705
25.14000 384.750
25.15000 386.966
25.16000 389.932
25.17000 392.375
25.18000 390.119
25.19000 387.831
25.20000 385.814
25.21000 384.568
25.22000 383.368
25.23000 385.505
25.24000 394.115
25.25000 402.890
25.26000 407.869
25.27000 406.326
25.28000 405.231
25.29000 403.079
25.30000 400.030
25.31000 396.964
25.32000 393.030
25.33000 388.604
25.34000 384.336
25.35000 394.529
25.36000 409.370
25.37000 422.276
25.38000 415.382
25.39000 403.299
25.40000 393.511
25.41000 397.977
25.42000 404.900
25.43000 410.561
25.44000 405.352
25.45000 400.140
25.46000 397.812
25.47000 403.397
25.48000 409.436
25.49000 409.772
25.50000 399.431
25.51000 388.844
25.52000 382.938
25.53000 388.766
25.54000 392.814
25.55000 392.465
25.56000 388.528
25.57000 384.761
25.58000 388.970
25.59000 397.538
25.60000 405.777
25.61000 402.428
25.62000 395.239
25.63000 388.595
25.64000 387.247
25.65000 387.236
25.66000 388.029
25.67000 393.607
25.68000 399.977
25.69000 405.147
25.70000 393.301
25.71000 382.241
25.72000 375.008
25.73000 377.919
25.74000 381.373
25.75000 384.950
25.76000 388.751
25.77000 392.555
25.78000 394.640
25.79000 386.006
25.80000 380.077
25.81000 381.273
25.82000 388.066
25.83000 394.745
25.84000 396.675
25.85000 396.099
25.86000 395.547
25.87000 390.978
25.88000 385.362
25.89000 380.681
25.90000 384.653
25.91000 390.733
25.92000 395.230
25.93000 390.674
25.94000 384.681
25.95000 379.855
25.96000 373.872
25.97000 368.925
25.98000 366.623
25.99000 371.085
26.00000 375.885
26.01000 380.979
26.02000 386.586
26.03000 392.202
26.04000 395.225
26.05000 387.021
26.06000 381.442
26.07000 384.049
26.08000 392.847
26.09000 401.350
26.10000 398.680
26.11000 390.320
26.12000 382.330
26.13000 384.443
26.14000 389.677
26.15000 394.102
26.16000 391.399
26.17000 387.025
26.18000 383.955
26.19000 388.055
26.20000 393.246
26.21000 397.392
26.22000 396.717
26.23000 395.816
26.24000 393.791
26.25000 388.992
26.26000 384.062
26.27000 380.747
26.28000 380.149
26.29000 379.594
26.30000 379.301
26.31000 384.052
26.32000 387.264
26.33000 387.716
26.34000 386.157
26.35000 384.532
26.36000 380.629
26.37000 375.606
26.38000 370.821
26.39000 376.593
26.40000 385.224
26.41000 393.082
26.42000 394.432
26.43000 394.311
26.44000 394.586
26.45000 396.943
26.46000 399.604
26.47000 401.711
26.48000 397.842
26.49000 394.315
26.50000 391.187
26.51000 389.011
26.52000 386.876
26.53000 386.442
26.54000 388.770
26.55000 391.137
26.56000 392.364
26.57000 383.471
26.58000 377.518
26.59000 378.019
26.60000 383.051
26.61000 387.912
26.62000 387.451
26.63000 384.461
26.64000 381.624
26.65000 381.071
26.66000 381.244
26.67000 381.161
26.68000 379.019
26.69000 376.429
26.70000 374.845
26.71000 378.376
26.72000 382.622
26.73000 385.956
26.74000 386.320
26.75000 386.417
26.76000 386.968
26.77000 388.568
26.78000 390.209
26.79000 389.925
26.80000 386.623
26.81000 383.285
26.82000 381.589
26.83000 385.335
26.84000 387.801
26.85000 385.265
26.86000 379.346
26.87000 373.758
26.88000 377.624
26.89000 385.826
26.90000 393.585
26.91000 384.253
26.92000 370.759
26.93000 359.668
26.94000 367.025
26.95000 378.245
26.96000 387.274
26.97000 385.601
26.98000 382.498
26.99000 380.082
27.00000 379.133
27.01000 378.467
27.02000 375.214
27.03000 366.205
27.04000 356.983
27.05000 357.701
27.06000 373.428
27.07000 389.307
27.08000 393.567
27.09000 386.305
27.10000 379.118
27.11000 378.801
27.12000 382.965
27.13000 387.008
27.14000 387.887
27.15000 387.364
27.16000 386.871
27.17000 378.779
27.18000 369.270
27.19000 361.744
27.20000 368.787
27.21000 378.764
27.22000 386.253
27.23000 382.049
27.24000 376.352
27.25000 371.954
27.26000 381.457
27.27000 389.794
27.28000 392.825
27.29000 384.453
27.30000 375.696
27.31000 369.888
27.32000 368.373
27.33000 366.893
27.34000 364.205
27.35000 360.367
27.36000 356.674
27.37000 364.295
27.38000 379.032
27.39000 393.039
27.40000 389.317
27.41000 378.014
27.42000 367.401
27.43000 371.467
27.44000 379.074
27.45000 385.211
27.46000 381.014
27.47000 374.815
27.48000 369.862
27.49000 370.548
27.50000 371.923
27.51000 372.975
27.52000 388.485
27.53000 401.506
27.54000 407.362
27.55000 398.348
27.56000 388.876
27.57000 381.286
27.58000 376.335
27.59000 371.403
27.60000 371.082
27.61000 374.975
27.62000 378.905
27.63000 385.355
27.64000 393.335
27.65000 400.593
27.66000 391.669
27.67000 376.063
27.68000 361.465
27.69000 358.735
27.70000 359.283
27.71000 360.227
27.72000 363.841
27.73000 367.952
27.74000 370.876
27.75000 368.627
27.76000 365.775
27.77000 363.615
27.78000 378.536
27.79000 391.120
27.80000 397.288
27.81000 390.604
27.82000 383.560
27.83000 375.597
27.84000 366.392
27.85000 357.185
27.86000 354.742
27.87000 358.239
27.88000 361.725
27.89000 364.572
27.90000 367.045
27.91000 369.461
27.92000 370.662
27.93000 371.380
27.94000 372.048
27.95000 371.394
27.96000 370.478
27.97000 370.406
27.98000 375.783
27.99000 382.135
28.00000 387.505
28.01000 388.752
28.02000 389.542
28.03000 390.134
28.04000 378.053
28.05000 368.012
28.06000 363.828
28.07000 370.974
28.08000 378.406
28.09000 376.842
28.10000 363.566
28.11000 350.253
28.12000 349.759
28.13000 360.075
28.14000 370.233
28.15000 372.139
28.16000 369.385
28.17000 366.750
28.18000 366.444
28.19000 367.033
28.20000 367.580
28.21000 368.955
28.22000 370.388
28.23000 371.635
28.24000 371.725
28.25000 371.617
28.26000 370.808
28.27000 367.165
28.28000 363.222
28.29000 360.291
28.30000 360.432
28.31000 360.678
28.32000 359.324
28.33000 354.983
28.34000 350.573
28.35000 350.955
28.36000 357.342
28.37000 363.738
28.38000 370.595
28.39000 377.801
28.40000 384.877
28.41000 385.906
28.42000 383.638
28.43000 381.484
28.44000 381.379
28.45000 382.035
28.46000 382.642
28.47000 383.045
28.48000 383.360
28.49000 381.613
28.50000 367.617
28.51000 351.600
28.52000 339.564
28.53000 343.041
28.54000 348.080
28.55000 351.787
28.56000 363.837
28.57000 373.504
28.58000 377.574
28.59000 371.556
28.60000 365.333
28.61000 363.419
28.62000 366.702
28.63000 369.990
28.64000 370.272
28.65000 368.211
28.66000 366.205
28.67000 366.479
28.68000 367.954
28.69000 369.084
28.70000 364.362
28.71000 357.539
28.72000 351.263
28.73000 357.013
28.74000 364.758
28.75000 370.959
28.76000 368.351
28.77000 364.351
28.78000 362.084
28.79000 366.335
28.80000 371.211
28.81000 374.760
28.82000 380.946
28.83000 385.809
28.84000 383.380
28.85000 368.271
28.86000 352.934
28.87000 347.001
28.88000 351.977
28.89000 356.954
28.90000 357.444
28.91000 354.572
28.92000 351.859
28.93000 355.148
28.94000 361.485
28.95000 367.515
28.96000 368.672
28.97000 368.140
28.98000 367.653
28.99000 366.275
29.00000 364.864
29.01000 364.103
29.02000 366.906
29.03000 370.249
29.04000 372.655
29.05000 371.666
29.06000 370.369
29.07000 369.434
29.08000 372.479
29.09000 374.953
29.10000 373.290
29.11000 364.685
29.12000 355.971
29.13000 353.063
29.14000 356.630
29.15000 360.188
29.16000 362.175
29.17000 363.013
29.18000 363.790
29.19000 362.488
29.20000 360.167
29.21000 358.254
29.22000 362.459
29.23000 368.711
29.24000 374.409
29.25000 374.883
29.26000 374.262
29.27000 372.740
29.28000 366.479
29.29000 359.529
29.30000 352.636
29.31000 345.942
29.32000 339.265
29.33000 334.506
29.34000 339.230
29.35000 343.141
29.36000 348.663
29.37000 356.794
29.38000 364.961
29.39000 369.101
29.40000 368.923
29.41000 368.746
29.42000 366.251
29.43000 362.180
29.44000 358.327
29.45000 361.227
29.46000 367.325
29.47000 372.636
29.48000 366.876
29.49000 357.539
29.50000 349.072
29.51000 353.137
29.52000 359.122
29.53000 364.624
29.54000 367.683
29.55000 370.402
29.56000 370.998
29.57000 364.436
29.58000 357.289
29.59000 352.251
29.60000 345.823
29.61000 340.907
29.62000 343.907
29.63000 359.269
29.64000 374.777
29.65000 377.813
29.66000 368.013
29.67000 358.266
29.68000 354.475
29.69000 354.698
29.70000 355.107
29.71000 360.791
29.72000 368.887
29.73000 376.086
29.74000 371.384
29.75000 362.971
29.76000 355.378
29.77000 358.534
29.78000 363.276
29.79000 366.295
29.80000 360.920
29.81000 354.427
29.82000 350.919
29.83000 357.122
29.84000 364.073
29.85000 368.918
29.86000 371.107
29.87000 372.686
29.88000 377.398
29.89000 386.830
29.90000 396.308
29.91000 398.523
29.92000 393.563
29.93000 388.636
29.94000 385.688
29.95000 384.053
29.96000 382.372
29.97000 379.525
29.98000 376.164
29.99000 373.192
30.00000 375.110
30.01000 378.499
30.02000 381.542
30.03000 374.560
30.04000 366.691
30.05000 360.620
30.06000 362.966
30.07000 366.384
30.08000 370.024
30.09000 374.361
30.10000 378.748
30.11000 381.771
30.12000 384.380
30.13000 386.328
30.14000 385.604
30.15000 381.002
30.16000 376.369
30.17000 375.288
30.18000 377.579
30.19000 379.851
30.20000 379.228
30.21000 376.830
30.22000 374.504
30.23000 373.903
30.24000 374.037
30.25000 373.832
30.26000 369.609
30.27000 364.219
30.28000 359.404
30.29000 366.223
30.30000 374.118
30.31000 379.005
30.32000 370.321
30.33000 359.988
30.34000 354.591
30.35000 364.160
30.36000 374.755
30.37000 381.968
30.38000 378.019
30.39000 374.814
30.40000 370.853
30.41000 365.834
30.42000 360.811
30.43000 361.766
30.44000 368.168
30.45000 374.510
30.46000 371.640
30.47000 363.367
30.48000 355.419
30.49000 354.740
30.50000 357.054
30.51000 359.599
30.52000 364.739
30.53000 370.607
30.54000 375.819
30.55000 370.386
30.56000 363.960
30.57000 360.718
30.58000 371.304
30.59000 383.493
30.60000 391.801
30.61000 388.747
30.62000 384.959
30.63000 382.412
30.64000 376.260
30.65000 371.614
30.66000 372.839
30.67000 381.975
30.68000 391.147
30.69000 394.213
30.70000 391.930
30.71000 389.671
30.72000 389.854
30.73000 391.426
30.74000 393.029
30.75000 395.267
30.76000 397.756
30.77000 399.324
30.78000 391.047
30.79000 380.111
30.80000 370.450
30.81000 373.935
30.82000 378.968
30.83000 382.956
30.84000 382.573
30.85000 381.706
30.86000 384.965
30.87000 399.882
30.88000 415.505
30.89000 425.880
30.90000 419.743
30.91000 414.900
30.92000 415.009
30.93000 421.544
30.94000 428.106
30.95000 435.527
30.96000 443.672
30.97000 451.716
30.98000 453.076
30.99000 450.732
31.00000 448.937
31.01000 457.714
31.02000 470.550
31.03000 483.108
31.04000 492.851
31.05000 501.860
31.06000 509.773
31.07000 523.333
31.08000 535.821
31.09000 548.680
31.10000 563.036
31.11000 577.550
31.12000 589.621
31.13000 595.029
31.14000 600.058
31.15000 603.356
31.16000 610.659
31.17000 616.095
31.18000 635.363
31.19000 671.909
31.20000 708.476
31.21000 733.407
31.22000 748.906
31.23000 764.189
31.24000 778.128
31.25000 790.965
31.26000 803.998
31.27000 820.591
31.28000 838.504
31.29000 856.593
31.30000 876.388
31.31000 896.611
31.32000 914.271
31.33000 920.500
31.34000 924.222
31.35000 927.115
31.36000 926.788
31.37000 926.137
31.38000 925.502
31.39000 924.907
31.40000 924.315
31.41000 923.931
31.42000 918.489
31.43000 914.433
31.44000 900.562
31.45000 874.892
31.46000 849.239
31.47000 834.940
31.48000 829.499
31.49000 824.144
31.50000 808.231
31.51000 787.446
31.52000 767.101
31.53000 754.184
31.54000 743.926
31.55000 731.800
31.56000 702.522
31.57000 669.094
31.58000 640.077
31.59000 634.988
31.60000 633.867
31.61000 627.677
31.62000 602.490
31.63000 575.494
31.64000 550.894
31.65000 532.390
31.66000 514.187
31.67000 502.567
31.68000 508.935
31.69000 513.801
31.70000 510.969
31.71000 499.235
31.72000 487.503
31.73000 478.296
31.74000 470.987
31.75000 463.807
31.76000 448.525
31.77000 429.801
31.78000 412.237
31.79000 413.025
31.80000 420.158
31.81000 426.914
31.82000 430.376
31.83000 433.071
31.84000 435.397
31.85000 426.127
31.86000 416.776
31.87000 408.872
31.88000 406.198
31.89000 403.996
31.90000 400.714
31.91000 394.776
31.92000 388.717
31.93000 384.902
31.94000 385.300
31.95000 385.635
31.96000 384.825
31.97000 382.740
31.98000 380.675
31.99000 381.762
32.00000 385.132
32.01000 388.437
32.02000 387.599
32.03000 384.842
32.04000 382.197
32.05000 381.227
32.06000 380.815
32.07000 380.024
32.08000 376.071
32.09000 371.407
32.10000 367.408
32.11000 369.959
32.12000 372.913
32.13000 373.983
32.14000 368.483
32.15000 362.420
32.16000 357.123
32.17000 353.646
32.18000 350.246
32.19000 348.136
32.20000 353.918
32.21000 358.155
32.22000 357.375
32.23000 351.233
32.24000 345.133
32.25000 344.526
32.26000 347.751
32.27000 350.906
32.28000 349.242
32.29000 345.460
32.30000 341.714
32.31000 338.466
32.32000 335.380
32.33000 333.315
32.34000 339.406
32.35000 347.259
32.36000 353.948
32.37000 343.321
32.38000 332.367
32.39000 325.673
32.40000 333.306
32.41000 342.101
32.42000 346.598
32.43000 341.247
32.44000 335.509
32.45000 332.000
32.46000 341.960
32.47000 349.200
32.48000 348.117
32.49000 338.496
32.50000 328.954
32.51000 327.809
32.52000 332.309
32.53000 336.701
32.54000 332.456
32.55000 324.629
32.56000 317.050
32.57000 312.750
32.58000 309.468
32.59000 307.296
32.60000 313.588
32.61000 321.641
32.62000 328.455
32.63000 323.420
32.64000 317.890
32.65000 314.308
32.66000 317.045
32.67000 320.266
32.68000 320.135
32.69000 312.588
32.70000 304.772
32.71000 300.063
32.72000 307.728
32.73000 313.269
32.74000 315.719
32.75000 315.125
32.76000 314.567
32.77000 317.342
32.78000 322.275
32.79000 327.079
32.80000 337.371
32.81000 349.484
32.82000 362.177
32.83000 382.100
32.84000 404.192
32.85000 425.609
32.86000 442.105
32.87000 457.616
32.88000 470.650
32.89000 486.100
32.90000 499.228
32.91000 510.279
32.92000 514.822
32.93000 518.894
32.94000 521.882
32.95000 522.551
32.96000 523.143
32.97000 523.494
32.98000 540.519
32.99000 552.659
33.00000 554.655
33.01000 547.059
33.02000 539.448
33.03000 530.668
33.04000 521.157
33.05000 511.918
33.06000 489.134
33.07000 462.021
33.08000 435.649
33.09000 418.025
33.10000 402.934
33.11000 388.642
33.12000 379.926
33.13000 372.283
33.14000 365.905
33.15000 352.697
33.16000 341.056
33.17000 331.110
33.18000 326.286
33.19000 321.811
33.20000 318.198
33.21000 316.360
33.22000 314.576
33.23000 313.534
33.24000 305.327
33.25000 299.524
33.26000 298.703
33.27000 302.409
33.28000 306.052
33.29000 305.554
33.30000 302.558
33.31000 299.655
33.32000 302.929
33.33000 308.429
33.34000 312.651
33.35000 302.564
33.36000 288.481
33.37000 277.230
33.38000 284.915
33.39000 296.104
33.40000 305.373
33.41000 305.536
33.42000 304.801
33.43000 303.791
33.44000 301.976
33.45000 300.109
33.46000 297.352
33.47000 292.825
33.48000 288.249
33.49000 285.620
33.50000 290.346
33.51000 293.678
33.52000 297.901
33.53000 302.901
33.54000 307.764
33.55000 304.737
33.56000 297.120
33.57000 289.759
33.58000 287.761
33.59000 287.881
33.60000 288.085
33.61000 289.170
33.62000 290.492
33.63000 292.027
33.64000 294.931
33.65000 298.079
33.66000 300.667
33.67000 298.994
33.68000 297.233
33.69000 295.076
33.70000 291.802
33.71000 288.462
33.72000 286.476
33.73000 287.095
33.74000 287.780
33.75000 288.166
33.76000 290.118
33.77000 291.482
33.78000 294.020
33.79000 297.545
33.80000 301.030
33.81000 302.453
33.82000 302.719
33.83000 302.975
33.84000 297.962
33.85000 291.355
33.86000 285.996
33.87000 293.241
33.88000 303.757
33.89000 313.086
33.90000 315.109
33.91000 315.884
33.92000 316.518
33.93000 317.331
33.94000 318.012
33.95000 317.802
33.96000 315.167
33.97000 312.395
33.98000 306.488
33.99000 294.762
34.00000 282.906
34.01000 276.322
34.02000 283.428
34.03000 288.368
34.04000 293.963
34.05000 300.088
34.06000 306.086
34.07000 306.298
34.08000 303.373
34.09000 300.563
34.10000 299.022
34.11000 298.018
34.12000 297.556
34.13000 302.294
34.14000 308.333
34.15000 312.993
34.16000 309.522
34.17000 304.718
34.18000 300.827
34.19000 303.594
34.20000 306.388
34.21000 307.454
34.22000 303.984
34.23000 300.275
34.24000 299.334
34.25000 303.352
34.26000 307.469
34.27000 309.715
34.28000 305.553
34.29000 302.701
34.30000 303.969
34.31000 308.441
34.32000 312.819
34.33000 313.388
34.34000 311.964
34.35000 310.600
34.36000 310.407
34.37000 310.616
34.38000 310.278
34.39000 304.934
34.40000 298.381
34.41000 293.237
34.42000 296.065
34.43000 300.145
34.44000 303.424
34.45000 309.984
34.46000 315.554
34.47000 317.150
34.48000 308.669
34.49000 299.693
34.50000 294.235
34.51000 294.860
34.52000 295.593
34.53000 295.985
34.54000 299.311
34.55000 301.550
34.56000 297.156
34.57000 287.794
34.58000 278.653
34.59000 277.652
34.60000 280.760
34.61000 283.728
34.62000 285.244
34.63000 286.188
34.64000 287.310
34.65000 289.990
34.66000 293.032
34.67000 295.909
34.68000 297.885
34.69000 299.725
34.70000 301.192
34.71000 298.650
34.72000 296.309
34.73000 291.946
34.74000 282.632
34.75000 273.092
34.76000 266.494
34.77000 264.803
34.78000 263.188
34.79000 262.339
34.80000 270.219
34.81000 275.558
34.82000 279.551
34.83000 282.573
34.84000 285.482
34.85000 284.640
34.86000 281.969
34.87000 279.426
34.88000 278.041
34.89000 277.116
34.90000 276.261
34.91000 275.986
34.92000 275.841
34.93000 275.216
34.94000 272.076
34.95000 268.574
34.96000 265.806
34.97000 272.572
34.98000 278.659
34.99000 280.751
35.00000 273.396
35.01000 265.641
35.02000 261.430
35.03000 262.921
35.04000 264.489
35.05000 265.297
35.06000 264.534
35.07000 264.037
35.08000 265.656
35.09000 268.748
35.10000 271.743
35.11000 271.784
35.12000 270.436
35.13000 269.157
35.14000 270.841
35.15000 273.272
35.16000 275.245
35.17000 273.585
35.18000 271.141
35.19000 268.954
35.20000 268.052
35.21000 267.328
35.22000 266.760
35.23000 267.645
35.24000 268.446
35.25000 268.185
35.26000 265.500
35.27000 262.720
35.28000 262.150
35.29000 265.011
35.30000 267.911
35.31000 269.377
35.32000 269.786
35.33000 270.072
35.34000 271.614
35.35000 273.998
35.36000 276.180
35.37000 272.728
35.38000 266.715
35.39000 261.032
35.40000 258.416
35.41000 256.888
35.42000 255.988
35.43000 259.864
35.44000 264.731
35.45000 268.728
35.46000 268.516
35.47000 267.749
35.48000 267.152
35.49000 263.856
35.50000 261.070
35.51000 260.420
35.52000 264.484
35.53000 268.718
35.54000 271.011
35.55000 270.401
35.56000 269.763
35.57000 266.753
35.58000 261.417
35.59000 256.096
35.60000 252.194
35.61000 249.210
35.62000 246.428
35.63000 248.862
35.64000 253.585
35.65000 258.032
35.66000 261.486
35.67000 264.374
35.68000 266.651
35.69000 264.490
35.70000 261.442
35.71000 258.731
35.72000 257.585
35.73000 256.637
35.74000 255.906
35.75000 256.514
35.76000 257.072
35.77000 258.181
35.78000 260.462
35.79000 262.783
35.80000 264.257
35.81000 264.512
35.82000 264.757
35.83000 265.552
35.84000 266.864
35.85000 268.140
35.86000 266.702
35.87000 263.572
35.88000 260.589
35.89000 261.119
35.90000 263.136
35.91000 265.029
35.92000 261.810
35.93000 257.534
35.94000 253.570
35.95000 251.783
35.96000 250.414
35.97000 250.677
35.98000 258.254
35.99000 266.713
36.00000 273.167
36.01000 264.454
36.02000 256.777
36.03000 250.681
36.04000 247.836
36.05000 245.088
36.06000 244.863
36.07000 248.143
36.08000 251.445
36.09000 252.526
36.10000 251.598
36.11000 250.701
36.12000 251.905
36.13000 254.371
36.14000 256.923
36.15000 261.363
36.16000 266.576
36.17000 271.447
36.18000 269.393
36.19000 265.780
36.20000 262.372
36.21000 260.327
36.22000 258.533
36.23000 257.440
36.24000 259.368
36.25000 261.644
36.26000 263.365
36.27000 258.643
36.28000 254.617
36.29000 253.075
36.30000 256.462
36.31000 259.985
36.32000 258.553
36.33000 250.489
36.34000 242.395
36.35000 240.961
36.36000 245.316
36.37000 249.624
36.38000 251.226
36.39000 251.258
36.40000 251.347
36.41000 252.594
36.42000 254.298
36.43000 255.883
36.44000 258.279
36.45000 260.640
36.46000 262.577
36.47000 261.804
36.48000 260.551
36.49000 258.860
36.50000 255.345
36.51000 251.630
36.52000 248.849
36.53000 253.533
36.54000 257.537
36.55000 259.765
36.56000 258.586
36.57000 257.324
36.58000 257.840
36.59000 260.648
36.60000 263.463
36.61000 261.417
36.62000 255.320
36.63000 249.366
36.64000 250.687
36.65000 256.078
36.66000 261.217
36.67000 261.531
36.68000 260.002
36.69000 258.585
36.70000 257.847
36.71000 257.342
36.72000 257.033
36.73000 257.924
36.74000 259.020
36.75000 260.507
36.76000 263.557
36.77000 266.771
36.78000 269.154
36.79000 271.026
36.80000 272.458
36.81000 272.182
36.82000 268.745
36.83000 265.239
36.84000 264.654
36.85000 267.696
36.86000 270.743
36.87000 267.790
36.88000 260.036
36.89000 252.527
36.90000 256.110
36.91000 265.684
36.92000 274.894
36.93000 277.621
36.94000 277.958
36.95000 278.269
36.96000 269.598
36.97000 259.818
36.98000 251.396
36.99000 250.953
37.00000 251.813
37.01000 253.341
37.02000 257.446
37.03000 261.807
37.04000 265.007
37.05000 265.242
37.06000 265.303
37.07000 264.848
37.08000 263.470
37.09000 262.074
37.10000 263.306
37.11000 267.678
37.12000 272.047
37.13000 272.302
37.14000 269.385
37.15000 266.484
37.16000 264.195
37.17000 262.226
37.18000 260.123
37.19000 255.772
37.20000 250.621
37.21000 245.888
37.22000 243.855
37.23000 242.620
37.24000 242.769
37.25000 250.737
37.26000 259.929
37.27000 265.637
37.28000 258.374
37.29000 249.885
37.30000 243.720
37.31000 256.777
37.32000 267.538
37.33000 271.376
37.34000 263.278
37.35000 254.971
37.36000 251.609
37.37000 253.926
37.38000 256.243
37.39000 254.654
37.40000 250.182
37.41000 245.854
37.42000 246.813
37.43000 250.434
37.44000 253.634
37.45000 250.254
37.46000 244.612
37.47000 239.452
37.48000 239.679
37.49000 240.990
37.50000 243.192
37.51000 250.228
37.52000 257.990
37.53000 263.523
37.54000 261.051
37.55000 257.862
37.56000 255.570
37.57000 247.056
37.58000 240.326
37.59000 238.109
37.60000 243.398
37.61000 248.801
37.62000 248.697
37.63000 242.512
37.64000 236.347
37.65000 239.785
37.66000 250.036
37.67000 259.974
37.68000 259.507
37.69000 253.983
37.70000 248.622
37.71000 245.664
37.72000 243.504
37.73000 241.537
37.74000 242.387
37.75000 243.695
37.76000 244.887
37.77000 245.467
37.78000 245.959
37.79000 246.491
37.80000 247.159
37.81000 247.838
37.82000 248.321
37.83000 242.314
37.84000 237.533
37.85000 236.832
37.86000 242.676
37.87000 248.606
37.88000 253.522
37.89000 257.363
37.90000 261.186
37.91000 259.881
37.92000 255.076
37.93000 250.415
37.94000 250.119
37.95000 251.872
37.96000 253.548
37.97000 254.153
37.98000 254.415
37.99000 254.653
38.00000 253.501
38.01000 252.224
38.02000 251.233
38.03000 251.681
38.04000 252.327
38.05000 252.785
38.06000 252.617
38.07000 252.398
38.08000 252.245
38.09000 252.744
38.10000 253.142
38.11000 255.559
38.12000 261.099
38.13000 266.674
38.14000 270.184
38.15000 271.589
38.16000 272.986
38.17000 274.033
38.18000 274.836
38.19000 275.425
38.20000 270.062
38.21000 262.001
38.22000 254.730
38.23000 257.796
38.24000 264.057
38.25000 269.699
38.26000 271.797
38.27000 272.996
38.28000 273.881
38.29000 273.257
38.30000 272.434
38.31000 273.113
38.32000 278.635
38.33000 284.525
38.34000 288.618
38.35000 298.868
38.36000 306.759
38.37000 310.702
38.38000 308.757
38.39000 306.755
38.40000 308.861
38.41000 314.984
38.42000 321.064
38.43000 326.450
38.44000 331.311
38.45000 336.136
38.46000 340.043
38.47000 343.549
38.48000 347.619
38.49000 358.677
38.50000 371.818
38.51000 383.602
38.52000 403.502
38.53000 422.300
38.54000 439.046
38.55000 446.270
38.56000 452.296
38.57000 459.156
38.58000 468.609
38.59000 478.249
38.60000 484.871
38.61000 496.256
38.62000 504.911
38.63000 513.750
38.64000 522.857
38.65000 531.966
38.66000 540.027
38.67000 547.104
38.68000 554.123
38.69000 555.487
38.70000 553.376
38.71000 551.210
38.72000 547.739
38.73000 543.716
38.74000 539.758
38.75000 536.569
38.76000 533.600
38.77000 530.952
38.78000 515.338
38.79000 499.596
38.80000 484.867
38.81000 474.659
38.82000 464.995
38.83000 454.786
38.84000 442.941
38.85000 430.985
38.86000 422.871
38.87000 413.399
38.88000 406.302
38.89000 395.123
38.90000 378.284
38.91000 361.415
38.92000 352.176
38.93000 349.822
38.94000 347.491
38.95000 335.811
38.96000 318.884
38.97000 302.314
38.98000 293.555
38.99000 287.984
39.00000 282.475
39.01000 277.651
39.02000 273.016
39.03000 268.905
39.04000 268.388
39.05000 268.513
39.06000 268.797
39.07000 269.764
39.08000 270.810
39.09000 270.781
39.10000 267.634
39.11000 264.288
39.12000 262.045
39.13000 256.147
39.14000 251.696
39.15000 251.630
39.16000 257.419
39.17000 263.227
39.18000 260.311
39.19000 249.826
39.20000 239.458
39.21000 236.191
39.22000 237.012
39.23000 237.896
39.24000 240.072
39.25000 242.758
39.26000 245.284
39.27000 246.129
39.28000 246.525
39.29000 246.873
39.30000 241.182
39.31000 235.354
39.32000 231.001
39.33000 232.764
39.34000 235.195
39.35000 236.523
39.36000 234.765
39.37000 232.823
39.38000 231.537
39.39000 231.611
39.40000 231.690
39.41000 233.104
39.42000 236.232
39.43000 239.367
39.44000 242.860
39.45000 246.653
39.46000 250.398
39.47000 248.558
39.48000 243.731
39.49000 239.110
39.50000 238.398
39.51000 239.175
39.52000 239.714
39.53000 237.870
39.54000 235.411
39.55000 233.255
39.56000 238.305
39.57000 243.692
39.58000 247.538
39.59000 245.231
39.60000 242.285
39.61000 238.733
39.62000 233.544
39.63000 228.264
39.64000 224.814
39.65000 226.027
39.66000 226.993
39.67000 228.458
39.68000 230.538
39.69000 232.621
39.70000 235.108
39.71000 237.920
39.72000 240.691
39.73000 238.396
39.74000 233.518
39.75000 229.015
39.76000 231.166
39.77000 235.763
39.78000 239.612
39.79000 236.340
39.80000 231.296
39.81000 226.898
39.82000 224.878
39.83000 223.481
39.84000 222.691
39.85000 224.236
39.86000 226.013
39.87000 226.515
39.88000 223.684
39.89000 220.680
39.90000 218.743
39.91000 224.833
39.92000 229.395
39.93000 228.116
39.94000 219.882
39.95000 211.668
39.96000 211.398
39.97000 217.269
39.98000 223.046
39.99000 222.391
40.00000 218.520
40.01000 215.108
40.02000 219.329
40.03000 226.259
40.04000 232.310
40.05000 230.397
40.06000 226.574
40.07000 223.260
40.08000 220.830
40.09000 218.878
40.10000 217.637
40.11000 219.034
40.12000 220.680
40.13000 222.216
40.14000 223.480
40.15000 224.729
40.16000 225.524
40.17000 217.841
40.18000 212.153
40.19000 212.365
40.20000 219.335
40.21000 226.304
40.22000 231.642
40.23000 235.765
40.24000 239.814
40.25000 236.386
40.26000 229.456
40.27000 222.924
40.28000 222.605
40.29000 224.414
40.30000 226.237
40.31000 228.189
40.32000 230.169
40.33000 231.876
40.34000 225.898
40.35000 219.859
40.36000 215.309
40.37000 216.087
40.38000 217.341
40.39000 217.571
40.40000 215.304
40.41000 212.925
40.42000 211.433
40.43000 211.802
40.44000 212.089
40.45000 213.823
40.46000 217.150
40.47000 220.443
40.48000 218.521
40.49000 212.861
40.50000 207.314
40.51000 210.234
40.52000 216.989
40.53000 223.392
40.54000 224.619
40.55000 224.135
40.56000 223.540
40.57000 222.036
40.58000 220.331
40.59000 218.870
40.60000 224.662
40.61000 230.425
40.62000 233.660
40.63000 228.168
40.64000 221.937
40.65000 217.662
40.66000 217.988
40.67000 218.506
40.68000 218.826
40.69000 217.517
40.70000 216.561
40.71000 214.483
40.72000 211.217
40.73000 207.991
40.74000 209.719
40.75000 214.869
40.76000 219.905
40.77000 217.301
40.78000 211.375
40.79000 205.844
40.80000 205.762
40.81000 207.418
40.82000 209.199
40.83000 211.957
40.84000 214.924
40.85000 217.448
40.86000 217.624
40.87000 217.502
40.88000 217.697
40.89000 218.950
40.90000 220.287
40.91000 219.706
40.92000 214.769
40.93000 209.663
40.94000 206.552
40.95000 204.813
40.96000 203.582
40.97000 202.447
40.98000 201.411
40.99000 200.424
41.00000 204.511
41.01000 211.976
41.02000 219.260
41.03000 221.806
41.04000 222.194
41.05000 222.426
41.06000 220.618
41.07000 218.181
41.08000 215.467
41.09000 210.657
41.10000 205.415
41.11000 200.988
41.12000 205.852
41.13000 210.938
41.14000 214.316
41.15000 212.202
41.16000 209.674
41.17000 207.764
41.18000 207.211
41.19000 206.706
41.20000 206.403
41.21000 208.233
41.22000 209.548
41.23000 210.513
41.24000 211.137
41.25000 211.795
41.26000 215.320
41.27000 220.686
41.28000 225.910
41.29000 221.830
41.30000 214.079
41.31000 206.784
41.32000 205.106
41.33000 205.098
41.34000 205.025
41.35000 204.479
41.36000 203.840
41.37000 203.303
41.38000 204.287
41.39000 205.265
41.40000 205.896
41.41000 205.456
41.42000 204.939
41.43000 204.364
41.44000 203.665
41.45000 202.962
41.46000 202.546
41.47000 202.841
41.48000 203.054
41.49000 205.293
41.50000 209.427
41.51000 213.482
41.52000 211.787
41.53000 206.530
41.54000 201.426
41.55000 204.472
41.56000 210.623
41.57000 216.258
41.58000 215.883
41.59000 213.784
41.60000 211.928
41.61000 211.754
41.62000 211.900
41.63000 212.022
41.64000 208.920
41.65000 206.030
41.66000 205.558
41.67000 212.330
41.68000 219.588
41.69000 222.628
41.70000 217.041
41.71000 211.199
41.72000 207.801
41.73000 211.329
41.74000 213.836
41.75000 214.892
41.76000 214.644
41.77000 214.388
41.78000 213.611
41.79000 212.524
41.80000 211.471
41.81000 207.174
41.82000 201.862
41.83000 197.261
41.84000 200.535
41.85000 205.986
41.86000 211.131
41.87000 214.249
41.88000 216.996
41.89000 219.268
41.90000 210.167
41.91000 201.591
41.92000 197.140
41.93000 204.618
41.94000 212.851
41.95000 216.791
41.96000 212.256
41.97000 207.493
41.98000 204.769
41.99000 201.238
42.00000 198.778
42.01000 202.820
42.02000 212.483
42.03000 221.982
42.04000 222.322
42.05000 217.382
42.06000 212.610
42.07000 211.688
42.08000 212.246
42.09000 212.814
42.10000 213.507
42.11000 214.232
42.12000 214.159
42.13000 209.026
42.14000 203.003
42.15000 198.059
42.16000 202.721
42.17000 207.406
42.18000 210.581
42.19000 209.536
42.20000 208.241
42.21000 207.248
42.22000 206.829
42.23000 206.425
42.24000 206.197
42.25000 214.230
42.26000 219.810
42.27000 217.421
42.28000 208.404
42.29000 199.587
42.30000 200.681
42.31000 207.291
42.32000 213.655
42.33000 214.755
42.34000 213.910
42.35000 212.832
42.36000 209.417
42.37000 205.401
42.38000 202.699
42.39000 207.994
42.40000 214.641
42.41000 220.055
42.42000 217.444
42.43000 214.630
42.44000 211.147
42.45000 205.862
42.46000 200.476
42.47000 199.080
42.48000 205.023
42.49000 211.126
42.50000 214.500
42.51000 219.529
42.52000 222.979
42.53000 219.377
42.54000 210.129
42.55000 201.059
42.56000 199.831
42.57000 202.814
42.58000 205.679
42.59000 204.524
42.60000 202.067
42.61000 199.994
42.62000 201.567
42.63000 204.044
42.64000 206.038
42.65000 205.217
42.66000 203.939
42.67000 202.907
42.68000 211.009
42.69000 218.332
42.70000 221.706
42.71000 214.798
42.72000 207.356
42.73000 203.673
42.74000 206.664
42.75000 209.783
42.76000 211.478
42.77000 212.778
42.78000 213.662
42.79000 212.940
42.80000 210.981
42.81000 208.963
42.82000 204.567
42.83000 198.939
42.84000 193.552
42.85000 198.094
42.86000 205.601
42.87000 212.577
42.88000 214.763
42.89000 215.804
42.90000 215.417
42.91000 207.021
42.92000 197.381
42.93000 189.651
42.94000 191.000
42.95000 192.781
42.96000 194.430
42.97000 195.749
42.98000 197.051
42.99000 198.016
43.00000 198.404
43.01000 198.782
43.02000 198.984
43.03000 199.239
43.04000 199.412
43.05000 199.470
43.06000 199.445
43.07000 199.398
43.08000 198.618
43.09000 197.471
43.10000 196.377
43.11000 199.149
43.12000 202.948
43.13000 206.389
43.14000 206.738
43.15000 206.376
43.16000 204.594
43.17000 195.161
43.18000 184.588
43.19000 176.179
43.20000 181.039
43.21000 185.906
43.22000 189.340
43.23000 189.296
43.24000 189.095
43.25000 190.278
43.26000 193.748
43.27000 197.253
43.28000 199.086
43.29000 202.186
43.30000 204.262
43.31000 202.979
43.32000 199.294
43.33000 195.749
43.34000 196.765
43.35000 199.984
43.36000 203.046
43.37000 202.726
43.38000 201.398
43.39000 199.820
43.40000 196.181
43.41000 192.084
43.42000 188.186
43.43000 185.314
43.44000 182.588
43.45000 180.438
43.46000 187.674
43.47000 194.111
43.48000 198.105
43.49000 196.369
43.50000 194.395
43.51000 192.230
43.52000 189.762
43.53000 187.289
43.54000 186.020
43.55000 183.536
43.56000 181.902
43.57000 184.660
43.58000 190.445
43.59000 196.045
43.60000 196.131
43.61000 193.644
43.62000 191.287
43.63000 192.283
43.64000 194.183
43.65000 196.199
43.66000 199.124
43.67000 202.243
43.68000 204.155
43.69000 200.054
43.70000 195.131
43.71000 191.281
43.72000 186.745
43.73000 183.080
43.74000 182.941
43.75000 190.784
43.76000 198.932
43.77000 202.497
43.78000 199.012
43.79000 195.450
43.80000 193.658
43.81000 193.932
43.82000 194.107
43.83000 193.543
43.84000 192.489
43.85000 191.493
43.86000 192.105
43.87000 193.441
43.88000 194.703
43.89000 195.450
43.90000 195.990
43.91000 196.418
43.92000 196.010
43.93000 195.430
43.94000 194.317
43.95000 190.653
43.96000 186.655
43.97000 183.555
43.98000 191.436
43.99000 198.354
44.00000 203.642
44.01000 205.369
44.02000 206.971
44.03000 204.600
44.04000 196.340
44.05000 188.025
44.06000 185.439
44.07000 188.417
44.08000 191.377
44.09000 192.812
44.10000 193.269
44.11000 193.600
44.12000 190.708
44.13000 186.414
44.14000 182.375
44.15000 184.660
44.16000 188.461
44.17000 192.094
44.18000 194.516
44.19000 196.698
44.20000 198.261
44.21000 196.969
44.22000 195.320
44.23000 194.053
44.24000 192.277
44.25000 190.845
44.26000 189.541
44.27000 188.510
44.28000 187.487
44.29000 187.400
44.30000 188.651
44.31000 189.912
44.32000 193.057
44.33000 197.959
44.34000 202.795
44.35000 202.849
44.36000 199.949
44.37000 197.169
44.38000 197.177
44.39000 198.356
44.40000 199.462
44.41000 202.623
44.42000 206.036
44.43000 208.870
44.44000 207.729
44.45000 205.832
44.46000 203.214
44.47000 197.388
44.48000 191.181
44.49000 186.456
44.50000 190.563
44.51000 194.260
44.52000 197.938
44.53000 201.577
44.54000 205.215
44.55000 206.115
44.56000 203.244
44.57000 200.350
44.58000 200.081
44.59000 202.163
44.60000 204.267
44.61000 207.855
44.62000 212.327
44.63000 216.531
44.64000 214.937
44.65000 210.992
44.66000 207.309
44.67000 203.476
44.68000 199.964
44.69000 197.310
44.70000 200.310
44.71000 204.343
44.72000 207.400
44.73000 206.285
44.74000 204.696
44.75000 203.497
44.76000 206.396
44.77000 208.868
44.78000 210.129
44.79000 209.009
44.80000 207.824
44.81000 209.160
44.82000 213.836
44.83000 218.526
44.84000 220.309
44.85000 219.588
44.86000 218.762
44.87000 212.097
44.88000 202.075
44.89000 192.732
44.90000 197.034
44.91000 206.683
44.92000 215.654
44.93000 221.711
44.94000 226.479
44.95000 229.843
44.96000 224.333
44.97000 217.266
44.98000 212.588
44.99000 217.749
45.00000 223.976
45.01000 228.626
45.02000 224.227
45.03000 220.382
45.04000 218.524
45.05000 220.438
45.06000 222.443
45.07000 222.888
45.08000 221.338
45.09000 219.783
45.10000 218.728
45.11000 218.089
45.12000 217.475
45.13000 218.082
45.14000 219.366
45.15000 220.627
45.16000 221.452
45.17000 222.114
45.18000 222.726
45.19000 221.380
45.20000 219.718
45.21000 218.150
45.22000 217.150
45.23000 216.245
45.24000 215.040
45.25000 212.638
45.26000 210.113
45.27000 208.247
45.28000 207.755
45.29000 207.432
45.30000 210.065
45.31000 218.119
45.32000 226.289
45.33000 227.892
45.34000 221.421
45.35000 214.941
45.36000 211.889
45.37000 211.573
45.38000 211.313
45.39000 213.501
45.40000 217.000
45.41000 220.116
45.42000 216.517
45.43000 210.465
45.44000 204.887
45.45000 203.715
45.46000 203.641
45.47000 203.750
45.48000 204.923
45.49000 206.269
45.50000 207.349
45.51000 207.411
45.52000 207.372
45.53000 207.344
45.54000 198.060
45.55000 190.528
45.56000 187.128
45.57000 191.045
45.58000 195.103
45.59000 195.607
45.60000 191.908
45.61000 188.211
45.62000 185.869
45.63000 184.577
45.64000 183.309
45.65000 182.991
45.66000 183.164
45.67000 183.381
45.68000 184.328
45.69000 185.533
45.70000 186.638
45.71000 192.730
45.72000 199.221
45.73000 203.911
45.74000 198.542
45.75000 191.615
45.76000 185.375
45.77000 181.673
45.78000 178.207
45.79000 175.697
45.80000 182.719
45.81000 188.464
45.82000 192.095
45.83000 192.117
45.84000 192.078
45.85000 186.997
45.86000 176.181
45.87000 165.393
45.88000 165.527
45.89000 173.677
45.90000 181.573
45.91000 180.427
45.92000 174.769
45.93000 169.509
45.94000 170.392
45.95000 173.367
45.96000 176.084
45.97000 171.048
45.98000 164.997
45.99000 160.752
46.00000 166.202
46.01000 173.092
46.02000 178.236
46.03000 177.170
46.04000 175.555
46.05000 174.398
46.06000 179.000
46.07000 182.713
46.08000 183.143
46.09000 178.160
46.10000 173.098
46.11000 172.745
46.12000 177.541
46.13000 182.320
46.14000 180.713
46.15000 174.614
46.16000 168.764
46.17000 170.969
46.18000 177.056
46.19000 182.723
46.20000 182.303
46.21000 179.881
46.22000 177.680
46.23000 177.225
46.24000 177.165
46.25000 177.461
46.26000 179.601
46.27000 182.002
46.28000 184.023
46.29000 184.737
46.30000 185.342
46.31000 185.771
46.32000 176.058
46.33000 168.355
46.34000 165.092
46.35000 168.888
46.36000 172.775
46.37000 172.827
46.38000 168.853
46.39000 164.898
46.40000 166.969
46.41000 173.104
46.42000 178.971
46.43000 176.851
46.44000 171.017
46.45000 165.573
46.46000 165.469
46.47000 167.061
46.48000 168.501
46.49000 166.614
46.50000 164.331
46.51000 163.162
46.52000 167.527
46.53000 172.645
46.54000 176.112
46.55000 174.105
46.56000 171.665
46.57000 169.955
46.58000 170.069
46.59000 170.208
46.60000 170.266
46.61000 170.200
46.62000 170.133
46.63000 172.795
46.64000 178.210
46.65000 183.592
46.66000 181.522
46.67000 174.617
46.68000 167.928
46.69000 167.157
46.70000 169.045
46.71000 171.207
46.72000 176.922
46.73000 183.725
46.74000 189.848
46.75000 186.487
46.76000 181.838
46.77000 178.053
46.78000 178.397
46.79000 179.277
46.80000 179.743
46.81000 178.881
46.82000 177.919
46.83000 177.253
46.84000 171.897
46.85000 167.742
46.86000 166.796
46.87000 170.591
46.88000 174.430
46.89000 174.162
46.90000 169.917
46.91000 165.703
46.92000 166.545
46.93000 170.548
46.94000 174.380
46.95000 173.937
46.96000 171.640
46.97000 169.500
46.98000 169.294
46.99000 169.658
47.00000 169.984
47.01000 168.475
47.02000 166.842
47.03000 165.858
47.04000 167.859
47.05000 170.232
47.06000 172.115
47.07000 172.489
47.08000 172.756
47.09000 172.939
47.10000 164.984
47.11000 158.832
47.12000 157.049
47.13000 161.493
47.14000 165.982
47.15000 167.639
47.16000 166.664
47.17000 165.698
47.18000 166.219
47.19000 167.631
47.20000 169.033
47.21000 170.220
47.22000 171.317
47.23000 172.044
47.24000 168.496
47.25000 163.729
47.26000 159.482
47.27000 163.566
47.28000 168.485
47.29000 171.934
47.30000 168.881
47.31000 165.055
47.32000 161.163
47.33000 157.076
47.34000 152.976
47.35000 150.202
47.36000 163.162
47.37000 173.159
47.38000 177.742
47.39000 174.895
47.40000 172.005
47.41000 172.590
47.42000 176.279
47.43000 179.932
47.44000 174.859
47.45000 164.821
47.46000 155.167
47.47000 153.734
47.48000 155.628
47.49000 157.484
47.50000 158.918
47.51000 160.237
47.52000 161.405
47.53000 168.579
47.54000 175.733
47.55000 179.979
47.56000 171.837
47.57000 162.291
47.58000 155.623
47.59000 157.231
47.60000 159.357
47.61000 160.778
47.62000 160.044
47.63000 159.458
47.64000 158.750
47.65000 157.882
47.66000 157.015
47.67000 157.669
47.68000 159.629
47.69000 161.567
47.70000 162.987
47.71000 164.084
47.72000 165.247
47.73000 167.713
47.74000 170.690
47.75000 173.150
47.76000 170.241
47.77000 165.908
47.78000 162.091
47.79000 162.546
47.80000 163.582
47.81000 165.221
47.82000 169.338
47.83000 173.722
47.84000 176.227
47.85000 173.517
47.86000 170.501
47.87000 168.511
47.88000 161.303
47.89000 155.897
47.90000 153.297
47.91000 154.270
47.92000 155.248
47.93000 152.544
47.94000 146.799
47.95000 141.130
47.96000 145.308
47.97000 154.676
47.98000 163.554
47.99000 163.288
48.00000 159.572
48.01000 156.322
48.02000 157.675
48.03000 160.205
48.04000 162.420
48.05000 162.796
48.06000 162.854
48.07000 162.362
48.08000 159.695
48.09000 156.805
48.10000 154.151
48.11000 152.129
48.12000 150.142
48.13000 148.848
48.14000 152.236
48.15000 154.794
48.16000 156.684
48.17000 157.754
48.18000 158.824
48.19000 160.294
48.20000 162.084
48.21000 163.848
48.22000 162.018
48.23000 158.381
48.24000 155.099
48.25000 158.023
48.26000 163.206
48.27000 167.752
48.28000 166.294
48.29000 163.357
48.30000 160.800
48.31000 160.961
48.32000 161.473
48.33000 161.940
48.34000 162.236
48.35000 162.516
48.36000 163.086
48.37000 164.407
48.38000 165.766
48.39000 166.640
48.40000 160.247
48.41000 155.483
48.42000 151.311
48.43000 147.836
48.44000 144.380
48.45000 145.172
48.46000 149.216
48.47000 153.193
48.48000 155.361
48.49000 156.556
48.50000 157.650
48.51000 157.095
48.52000 155.959
48.53000 154.936
48.54000 154.919
48.55000 155.141
48.56000 155.333
48.57000 152.623
48.58000 149.939
48.59000 148.349
48.60000 150.791
48.61000 153.607
48.62000 154.978
48.63000 152.737
48.64000 150.325
48.65000 148.796
48.66000 149.603
48.67000 150.216
48.68000 153.878
48.69000 160.995
48.70000 168.068
48.71000 166.861
48.72000 159.548
48.73000 152.370
48.74000 155.427
48.75000 163.287
48.76000 170.460
48.77000 167.114
48.78000 160.196
48.79000 154.073
48.80000 154.751
48.81000 156.985
48.82000 158.907
48.83000 156.755
48.84000 154.424
48.85000 151.824
48.86000 148.265
48.87000 144.623
48.88000 141.814
48.89000 141.016
48.90000 140.307
48.91000 139.864
48.92000 148.823
48.93000 155.387
48.94000 158.041
48.95000 156.436
48.96000 154.838
48.97000 154.519
48.98000 155.111
48.99000 155.690
49.00000 161.776
49.01000 170.170
49.02000 177.803
49.03000 174.462
49.04000 167.523
49.05000 161.008
49.06000 157.956
49.07000 155.668
49.08000 153.712
49.09000 155.670
49.10000 157.787
49.11000 158.911
49.12000 156.634
49.13000 154.073
49.14000 150.510
49.15000 144.609
49.16000 138.613
49.17000 134.919
49.18000 147.546
49.19000 156.754
49.20000 158.938
49.21000 153.770
49.22000 148.659
49.23000 150.378
49.24000 156.773
49.25000 163.023
49.26000 162.602
49.27000 159.232
49.28000 156.075
49.29000 155.805
49.30000 156.448
49.31000 157.229
49.32000 159.084
49.33000 161.166
49.34000 162.934
49.35000 161.167
49.36000 159.282
49.37000 158.304
49.38000 160.319
49.39000 162.570
49.40000 163.158
49.41000 159.999
49.42000 156.698
49.43000 154.694
49.44000 151.154
49.45000 148.616
49.46000 148.973
49.47000 152.241
49.48000 155.483
49.49000 156.236
49.50000 155.348
49.51000 154.482
49.52000 151.050
49.53000 146.675
49.54000 142.785
49.55000 145.121
49.56000 149.357
49.57000 152.816
49.58000 150.475
49.59000 146.952
49.60000 143.981
49.61000 143.336
49.62000 143.049
49.63000 142.861
49.64000 142.989
49.65000 143.140
49.66000 143.905
49.67000 146.007
49.68000 148.154
49.69000 149.438
49.70000 150.734
49.71000 151.653
49.72000 153.441
49.73000 156.068
49.74000 158.628
49.75000 155.660
49.76000 149.172
49.77000 142.862
49.78000 144.417
49.79000 149.135
49.80000 153.656
49.81000 155.784
49.82000 157.207
49.83000 157.917
49.84000 153.544
49.85000 148.173
49.86000 143.675
49.87000 145.081
49.88000 146.858
49.89000 149.075
49.90000 152.647
49.91000 156.314
49.92000 156.912
49.93000 151.064
49.94000 145.012
49.95000 141.450
49.96000 151.276
49.97000 158.275
49.98000 158.192
49.99000 151.548
50.00000 144.995
50.01000 144.894
50.02000 148.753
50.03000 152.497
50.04000 154.282
50.05000 155.199
50.06000 155.844
50.07000 153.368
50.08000 150.005
50.09000 147.114
50.10000 147.450
50.11000 148.394
50.12000 149.179
50.13000 152.435
50.14000 155.372
50.15000 157.021
50.16000 154.843
50.17000 152.412
50.18000 151.734
50.19000 154.607
50.20000 157.583
50.21000 159.307
50.22000 157.387
50.23000 156.025
50.24000 155.355
50.25000 155.300
50.26000 155.277
50.27000 157.287
50.28000 160.500
50.29000 163.610
50.30000 160.947
50.31000 156.230
50.32000 152.043
50.33000 153.634
50.34000 156.809
50.35000 158.689
50.36000 152.085
50.37000 143.944
50.38000 137.224
50.39000 144.351
50.40000 151.508
50.41000 156.626
50.42000 155.896
50.43000 154.801
50.44000 155.623
50.45000 160.194
50.46000 164.862
50.47000 167.522
50.48000 172.530
50.49000 176.022
50.50000 174.887
50.51000 169.790
50.52000 164.745
50.53000 162.467
50.54000 161.771
50.55000 161.099
50.56000 160.892
50.57000 160.868
50.58000 161.076
50.59000 163.691
50.60000 166.941
50.61000 169.605
50.62000 168.588
50.63000 166.930
50.64000 165.572
50.65000 162.460
50.66000 159.753
50.67000 158.309
50.68000 160.362
50.69000 162.618
50.70000 163.065
50.71000 160.093
50.72000 157.040
50.73000 155.330
50.74000 159.531
50.75000 162.452
50.76000 163.126
50.77000 161.950
50.78000 160.868
50.79000 164.334
50.80000 170.308
50.81000 176.056
50.82000 175.095
50.83000 171.827
50.84000 168.596
50.85000 165.746
50.86000 162.994
50.87000 160.727
50.88000 161.386
50.89000 162.534
50.90000 163.468
50.91000 159.187
50.92000 155.256
50.93000 153.854
50.94000 159.208
50.95000 164.930
50.96000 167.523
50.97000 164.408
50.98000 161.173
50.99000 159.393
51.00000 156.392
51.01000 154.327
51.02000 153.352
51.03000 153.242
51.04000 153.072
51.05000 150.333
51.06000 146.228
51.07000 142.289
51.08000 146.163
51.09000 152.436
51.10000 158.342
51.11000 160.804
51.12000 162.419
51.13000 163.148
51.14000 158.750
51.15000 153.530
51.16000 149.319
51.17000 146.972
51.18000 145.213
51.19000 144.358
51.20000 145.839
51.21000 147.439
51.22000 148.892
51.23000 150.086
51.24000 151.275
51.25000 151.918
51.26000 147.635
51.27000 144.704
51.28000 143.147
51.29000 142.639
51.30000 142.207
51.31000 144.725
51.32000 148.760
51.33000 152.618
51.34000 152.428
51.35000 150.930
51.36000 149.462
51.37000 148.265
51.38000 147.133
51.39000 146.331
51.40000 147.363
51.41000 148.678
51.42000 149.730
51.43000 148.816
51.44000 147.930
51.45000 146.933
51.46000 145.662
51.47000 144.377
51.48000 143.166
51.49000 142.080
51.50000 140.996
51.51000 140.421
51.52000 140.436
51.53000 140.448
51.54000 140.744
51.55000 141.248
51.56000 141.756
51.57000 142.356
51.58000 143.002
51.59000 143.618
51.60000 145.279
51.61000 147.148
51.62000 148.719
51.63000 147.752
51.64000 146.206
51.65000 145.586
51.66000 149.900
51.67000 154.942
51.68000 158.944
51.69000 152.296
51.70000 146.195
51.71000 141.968
51.72000 142.257
51.73000 142.744
51.74000 142.470
51.75000 140.950
51.76000 139.412
51.77000 138.611
51.78000 145.786
51.79000 150.598
51.80000 149.979
51.81000 145.515
51.82000 141.168
51.83000 140.575
51.84000 141.779
51.85000 142.924
51.86000 142.114
51.87000 140.777
51.88000 139.388
51.89000 137.587
51.90000 135.695
51.91000 134.024
51.92000 133.489
51.93000 133.114
51.94000 132.819
51.95000 134.176
51.96000 135.372
51.97000 136.106
51.98000 135.763
51.99000 135.377
52.00000 136.959
52.01000 141.648
52.02000 146.376
52.03000 148.791
52.04000 148.362
52.05000 148.056
52.06000 145.739
52.07000 142.051
52.08000 138.537
52.09000 140.144
52.10000 144.119
52.11000 147.883
52.12000 145.529
52.13000 141.586
52.14000 138.435
52.15000 141.423
52.16000 145.710
52.17000 148.628
52.18000 144.794
52.19000 140.048
52.20000 136.345
52.21000 136.389
52.22000 136.659
52.23000 136.248
52.24000 134.306
52.25000 132.307
52.26000 131.911
52.27000 133.956
52.28000 136.027
52.29000 137.063
52.30000 138.962
52.31000 140.208
52.32000 139.462
52.33000 137.405
52.34000 135.439
52.35000 135.912
52.36000 137.474
52.37000 138.948
52.38000 139.580
52.39000 139.925
52.40000 140.327
52.41000 141.152
52.42000 142.063
52.43000 143.224
52.44000 145.570
52.45000 148.069
52.46000 150.002
52.47000 148.602
52.48000 147.295
52.49000 146.063
52.50000 144.992
52.51000 143.928
52.52000 142.106
52.53000 139.173
52.54000 136.230
52.55000 135.159
52.56000 135.889
52.57000 136.618
52.58000 137.250
52.59000 137.822
52.60000 138.322
52.61000 137.023
52.62000 134.948
52.63000 132.998
52.64000 135.257
52.65000 138.448
52.66000 141.231
52.67000 141.110
52.68000 140.420
52.69000 139.923
52.70000 140.301
52.71000 140.787
52.72000 141.160
52.73000 145.783
52.74000 149.670
52.75000 149.667
52.76000 141.526
52.77000 133.128
52.78000 130.266
52.79000 135.241
52.80000 140.272
52.81000 143.039
52.82000 143.715
52.83000 144.359
52.84000 142.759
52.85000 139.786
52.86000 136.864
52.87000 135.110
52.88000 133.841
52.89000 132.654
52.90000 131.372
52.91000 130.183
52.92000 129.443
52.93000 131.759
52.94000 134.649
52.95000 137.373
52.96000 139.366
52.97000 141.272
52.98000 142.720
52.99000 145.066
53.00000 146.956
53.01000 146.744
53.02000 142.284
53.03000 137.703
53.04000 135.658
53.05000 137.074
53.06000 138.510
53.07000 141.610
53.08000 146.181
53.09000 150.638
53.10000 148.161
53.11000 141.591
53.12000 135.314
53.13000 135.293
53.14000 137.787
53.15000 140.113
53.16000 135.266
53.17000 129.101
53.18000 124.427
53.19000 129.485
53.20000 136.300
53.21000 141.328
53.22000 138.783
53.23000 135.387
53.24000 132.832
53.25000 134.283
53.26000 135.612
53.27000 137.760
53.28000 141.507
53.29000 145.296
53.30000 146.364
53.31000 143.857
53.32000 141.336
53.33000 140.848
53.34000 142.092
53.35000 143.298
53.36000 142.483
53.37000 140.515
53.38000 138.617
53.39000 138.101
53.40000 138.122
53.41000 138.141
53.42000 136.691
53.43000 135.033
53.44000 133.301
53.45000 131.100
53.46000 128.818
53.47000 127.703
53.48000 131.353
53.49000 135.512
53.50000 138.610
53.51000 142.621
53.52000 145.785
53.53000 147.047
53.54000 144.730
53.55000 142.328
53.56000 141.346
53.57000 142.160
53.58000 142.979
53.59000 145.127
53.60000 148.358
53.61000 151.504
53.62000 150.656
53.63000 147.612
53.64000 144.561
53.65000 141.403
53.66000 138.204
53.67000 135.246
53.68000 134.278
53.69000 133.863
53.70000 133.896
53.71000 136.614
53.72000 139.779
53.73000 142.262
53.74000 142.058
53.75000 141.580
53.76000 141.228
53.77000 136.187
53.78000 132.086
53.79000 131.371
53.80000 136.813
53.81000 142.385
53.82000 143.829
53.83000 140.247
53.84000 136.661
53.85000 133.873
53.86000 131.725
53.87000 129.647
53.88000 130.553
53.89000 133.043
53.90000 135.422
53.91000 135.882
53.92000 135.648
53.93000 135.432
53.94000 138.273
53.95000 141.484
53.96000 143.527
53.97000 138.844
53.98000 133.085
53.99000 129.251
54.00000 132.717
54.01000 136.891
54.02000 139.938
54.03000 142.627
54.04000 144.686
54.05000 145.064
54.06000 142.494
54.07000 139.868
54.08000 137.767
54.09000 136.280
54.10000 134.797
54.11000 131.340
54.12000 126.412
54.13000 121.706
54.14000 125.499
54.15000 133.647
54.16000 141.404
54.17000 142.825
54.18000 142.031
54.19000 141.304
54.20000 142.778
54.21000 144.555
54.22000 145.906
54.23000 144.904
54.24000 143.543
54.25000 141.983
54.26000 139.701
54.27000 137.353
54.28000 135.657
54.29000 135.058
54.30000 134.639
54.31000 134.242
54.32000 133.883
54.33000 133.524
54.34000 132.758
54.35000 131.535
54.36000 130.314
54.37000 129.362
54.38000 128.612
54.39000 127.907
54.40000 128.759
54.41000 130.382
54.42000 132.094
54.43000 135.151
54.44000 138.662
54.45000 141.865
54.46000 143.567
54.47000 144.775
54.48000 145.788
54.49000 145.771
54.50000 145.603
54.51000 144.946
54.52000 142.565
54.53000 140.034
54.54000 138.224
54.55000 143.467
54.56000 147.703
54.57000 147.794
54.58000 141.112
54.59000 134.334
54.60000 132.754
54.61000 136.799
54.62000 140.829
54.63000 142.975
54.64000 143.783
54.65000 144.579
54.66000 145.000
54.67000 145.241
54.68000 145.253
54.69000 141.980
54.70000 137.635
54.71000 133.691
54.72000 136.088
54.73000 139.432
54.74000 142.120
54.75000 141.457
54.76000 140.322
54.77000 140.352
54.78000 144.346
54.79000 148.667
54.80000 151.721
54.81000 141.755
54.82000 133.787
54.83000 132.638
54.84000 142.233
54.85000 151.959
54.86000 155.776
54.87000 153.448
54.88000 151.131
54.89000 145.776
54.90000 138.444
54.91000 131.407
54.92000 132.909
54.93000 138.348
54.94000 143.429
54.95000 143.680
54.96000 142.411
54.97000 141.265
54.98000 142.742
54.99000 144.527
55.00000 146.260
55.01000 147.734
55.02000 149.173
55.03000 149.848
55.04000 148.010
55.05000 145.976
55.06000 144.554
55.07000 138.842
55.08000 134.406
55.09000 131.987
55.10000 132.634
55.11000 133.312
55.12000 135.921
55.13000 140.456
55.14000 144.963
55.15000 144.707
55.16000 141.377
55.17000 138.320
55.18000 142.549
55.19000 150.023
55.20000 156.896
55.21000 156.114
55.22000 153.008
55.23000 150.216
55.24000 148.995
55.25000 148.204
55.26000 148.215
55.27000 152.017
55.28000 156.307
55.29000 158.601
55.30000 154.573
55.31000 150.078
55.32000 146.972
55.33000 148.811
55.34000 150.321
55.35000 153.208
55.36000 158.115
55.37000 163.038
55.38000 164.487
55.39000 162.605
55.40000 160.738
55.41000 159.805
55.42000 159.468
55.43000 159.173
55.44000 159.913
55.45000 161.098
55.46000 162.467
55.47000 166.050
55.48000 170.282
55.49000 174.066
55.50000 173.816
55.51000 172.911
55.52000 172.175
55.53000 172.204
55.54000 172.328
55.55000 172.399
55.56000 172.310
55.57000 172.209
55.58000 172.140
55.59000 182.053
55.60000 189.700
55.61000 192.830
55.62000 189.584
55.63000 186.295
55.64000 188.224
55.65000 194.956
55.66000 201.628
55.67000 206.249
55.68000 209.553
55.69000 212.719
55.70000 212.745
55.71000 211.468
55.72000 210.774
55.73000 216.737
55.74000 224.580
55.75000 231.556
55.76000 230.075
55.77000 227.414
55.78000 225.380
55.79000 226.098
55.80000 227.139
55.81000 229.647
55.82000 236.488
55.83000 243.613
55.84000 248.419
55.85000 241.498
55.86000 236.100
55.87000 235.999
55.88000 243.100
55.89000 250.237
55.90000 252.500
55.91000 250.451
55.92000 248.423
55.93000 245.191
55.94000 241.336
55.95000 237.620
55.96000 236.805
55.97000 237.153
55.98000 237.665
55.99000 239.937
56.00000 242.688
56.01000 245.123
56.02000 242.814
56.03000 240.080
56.04000 237.216
56.05000 233.801
56.06000 230.323
56.07000 227.543
56.08000 226.751
56.09000 226.081
56.10000 225.635
56.11000 226.012
56.12000 226.307
56.13000 223.334
56.14000 216.082
56.15000 208.821
56.16000 207.198
56.17000 210.373
56.18000 213.511
56.19000 213.353
56.20000 211.374
56.21000 209.294
56.22000 205.234
56.23000 200.407
56.24000 195.660
56.25000 191.725
56.26000 188.004
56.27000 184.731
56.28000 183.837
56.29000 183.421
56.30000 183.420
56.31000 185.106
56.32000 186.971
56.33000 186.150
56.34000 177.935
56.35000 169.295
56.36000 163.612
56.37000 162.662
56.38000 162.044
56.39000 161.981
56.40000 162.620
56.41000 163.251
56.42000 160.063
56.43000 153.748
56.44000 147.519
56.45000 148.577
56.46000 153.491
56.47000 158.211
56.48000 159.389
56.49000 159.243
56.50000 158.966
56.51000 157.421
56.52000 155.554
56.53000 153.922
56.54000 152.393
56.55000 151.099
56.56000 150.500
56.57000 152.626
56.58000 155.029
56.59000 155.322
56.60000 150.007
56.61000 144.389
56.62000 140.743
56.63000 141.059
56.64000 141.351
56.65000 143.540
56.66000 148.032
56.67000 152.499
56.68000 148.212
56.69000 137.029
56.70000 126.016
56.71000 127.383
56.72000 135.061
56.73000 142.283
56.74000 141.685
56.75000 138.263
56.76000 135.132
56.77000 134.704
56.78000 134.936
56.79000 135.138
56.80000 132.128
56.81000 129.123
56.82000 126.527
56.83000 125.476
56.84000 124.574
56.85000 124.508
56.86000 126.585
56.87000 128.771
56.88000 130.171
56.89000 128.954
56.90000 128.033
56.91000 127.009
56.92000 125.865
56.93000 124.725
56.94000 124.694
56.95000 125.505
56.96000 126.301
56.97000 128.119
56.98000 130.381
56.99000 132.556
57.00000 133.344
57.01000 133.648
57.02000 133.740
57.03000 131.943
57.04000 129.702
57.05000 127.766
57.06000 130.466
57.07000 133.361
57.08000 135.670
57.09000 135.841
57.10000 135.817
57.11000 136.342
57.12000 138.229
57.13000 140.179
57.14000 141.411
57.15000 131.414
57.16000 124.039
57.17000 121.437
57.18000 124.193
57.19000 126.933
57.20000 126.296
57.21000 123.192
57.22000 120.147
57.23000 120.871
57.24000 123.360
57.25000 125.821
57.26000 127.860
57.27000 129.757
57.28000 131.386
57.29000 130.738
57.30000 129.574
57.31000 128.575
57.32000 129.500
57.33000 130.520
57.34000 130.285
57.35000 125.633
57.36000 120.597
57.37000 119.059
57.38000 125.891
57.39000 133.086
57.40000 137.567
57.41000 129.038
57.42000 122.761
57.43000 120.697
57.44000 123.180
57.45000 125.635
57.46000 124.136
57.47000 119.852
57.48000 115.659
57.49000 119.667
57.50000 127.267
57.51000 134.190
57.52000 131.493
57.53000 125.669
57.54000 120.549
57.55000 121.096
57.56000 122.879
57.57000 124.401
57.58000 126.385
57.59000 128.109
57.60000 128.943
57.61000 126.752
57.62000 124.312
57.63000 123.110
57.64000 124.771
57.65000 126.546
57.66000 127.635
57.67000 128.722
57.68000 129.501
57.69000 127.473
57.70000 122.536
57.71000 117.654
57.72000 118.872
57.73000 124.228
57.74000 129.460
57.75000 127.594
57.76000 122.683
57.77000 117.936
57.78000 115.397
57.79000 113.551
57.80000 112.528
57.81000 117.857
57.82000 124.520
57.83000 130.167
57.84000 132.067
57.85000 133.238
57.86000 132.917
57.87000 127.713
57.88000 122.130
57.89000 117.864
57.90000 116.539
57.91000 115.323
57.92000 114.587
57.93000 121.044
57.94000 125.697
57.95000 129.152
57.96000 131.414
57.97000 133.636
57.98000 132.157
57.99000 128.257
58.00000 124.456
58.01000 121.939
58.02000 120.082
58.03000 118.405
58.04000 119.017
58.05000 120.323
58.06000 121.563
58.07000 122.316
58.08000 122.970
58.09000 123.521
58.10000 124.566
58.11000 125.491
58.12000 126.152
58.13000 125.981
58.14000 125.749
58.15000 124.897
58.16000 122.710
58.17000 120.478
58.18000 119.149
58.19000 120.642
58.20000 121.716
58.21000 123.853
58.22000 127.004
58.23000 130.109
58.24000 129.544
58.25000 126.665
58.26000 123.866
58.27000 124.129
58.28000 125.628
58.29000 126.928
58.30000 125.841
58.31000 124.059
58.32000 122.096
58.33000 118.869
58.34000 115.397
58.35000 112.494
58.36000 117.693
58.37000 122.833
58.38000 126.469
58.39000 125.517
58.40000 124.247
58.41000 123.336
58.42000 123.172
58.43000 123.031
58.44000 122.948
58.45000 125.728
58.46000 127.700
58.47000 127.787
58.48000 126.144
58.49000 124.468
58.50000 120.567
58.51000 115.313
58.52000 110.218
58.53000 113.492
58.54000 119.878
58.55000 125.839
58.56000 126.981
58.57000 126.765
58.58000 125.920
58.59000 120.817
58.60000 114.918
58.61000 110.022
58.62000 114.595
58.63000 119.289
58.64000 122.371
58.65000 120.704
58.66000 118.728
58.67000 117.620
58.68000 118.255
58.69000 118.939
58.70000 119.333
58.71000 116.295
58.72000 114.155
58.73000 112.916
58.74000 112.472
58.75000 112.073
58.76000 114.295
58.77000 118.056
58.78000 121.693
58.79000 123.477
58.80000 124.462
58.81000 125.057
58.82000 121.452
58.83000 116.707
58.84000 112.998
58.85000 116.006
58.86000 120.220
58.87000 123.691
58.88000 121.571
58.89000 119.313
58.90000 119.138
58.91000 124.881
58.92000 130.986
58.93000 133.865
58.94000 130.487
58.95000 126.949
58.96000 124.942
58.97000 115.603
58.98000 109.090
58.99000 109.484
59.00000 115.734
59.01000 121.905
59.02000 123.948
59.03000 123.653
59.04000 123.368
59.05000 121.532
59.06000 119.241
59.07000 117.473
59.08000 121.047
59.09000 126.020
59.10000 129.747
59.11000 125.734
59.12000 120.385
59.13000 116.012
59.14000 113.943
59.15000 112.449
59.16000 112.017
59.17000 114.497
59.18000 117.144
59.19000 119.841
59.20000 122.633
59.21000 125.427
59.22000 126.985
59.23000 123.127
59.24000 120.452
59.25000 120.629
59.26000 123.133
59.27000 125.580
59.28000 125.411
59.29000 123.811
59.30000 122.272
59.31000 121.871
59.32000 121.892
59.33000 121.557
59.34000 117.759
59.35000 113.086
59.36000 108.700
59.37000 106.026
59.38000 103.635
59.39000 101.695
59.40000 110.912
59.41000 119.346
59.42000 124.428
59.43000 120.633
59.44000 116.362
59.45000 114.436
59.46000 116.749
59.47000 119.150
59.48000 120.465
59.49000 121.990
59.50000 123.029
59.51000 121.195
59.52000 117.105
59.53000 113.113
59.54000 113.236
59.55000 115.530
59.56000 117.729
59.57000 118.106
59.58000 117.845
59.59000 117.216
59.60000 113.184
59.61000 108.323
59.62000 104.886
59.63000 109.597
59.64000 115.601
59.65000 120.435
59.66000 119.132
59.67000 117.595
59.68000 117.534
59.69000 121.249
59.70000 125.152
59.71000 126.980
59.72000 125.187
59.73000 123.329
59.74000 122.329
59.75000 116.658
59.76000 112.787
59.77000 110.836
59.78000 110.336
59.79000 109.900
59.80000 111.873
59.81000 115.074
59.82000 118.134
59.83000 116.701
59.84000 113.916
59.85000 111.593
59.86000 113.345
59.87000 116.052
59.88000 118.618
59.89000 120.405
59.90000 122.073
59.91000 123.405
59.92000 121.631
59.93000 119.969
59.94000 118.239
59.95000 116.341
59.96000 114.436
59.97000 114.144
59.98000 116.569
59.99000 119.037
60.00000 120.341
60.01000 120.038
60.02000 119.823
60.03000 118.253
60.04000 115.698
60.05000 113.238
60.06000 114.039
60.07000 116.443
60.08000 118.734
60.09000 120.421
60.10000 121.797
60.11000 123.300
60.12000 125.876
60.13000 128.693
60.14000 130.529
60.15000 127.178
60.16000 123.071
60.17000 119.817
60.18000 117.790
60.19000 116.245
60.20000 116.189
60.21000 119.687
60.22000 123.337
60.23000 125.053
60.24000 123.628
60.25000 122.159
60.26000 121.398
60.27000 116.038
60.28000 112.450
60.29000 112.896
60.30000 116.172
60.31000 119.338
60.32000 119.074
60.33000 117.182
60.34000 115.385
60.35000 116.560
60.36000 118.533
60.37000 120.358
60.38000 120.991
60.39000 121.365
60.40000 121.726
60.41000 122.025
60.42000 122.316
60.43000 122.544
60.44000 117.135
60.45000 112.439
60.46000 110.458
60.47000 114.736
60.48000 119.263
60.49000 122.678
60.50000 124.353
60.51000 126.007
60.52000 126.847
60.53000 117.841
60.54000 111.844
60.55000 110.135
60.56000 111.326
60.57000 112.509
60.58000 113.451
60.59000 114.282
60.60000 115.067
60.61000 117.312
60.62000 119.796
60.63000 121.787
60.64000 120.000
60.65000 117.421
60.66000 114.924
60.67000 112.823
60.68000 110.775
60.69000 109.180
60.70000 111.425
60.71000 113.450
60.72000 115.796
60.73000 118.860
60.74000 121.951
60.75000 120.964
60.76000 113.821
60.77000 106.615
60.78000 105.630
60.79000 110.809
60.80000 115.942
60.81000 116.846
60.82000 114.991
60.83000 113.222
60.84000 113.683
60.85000 115.131
60.86000 116.496
60.87000 117.729
60.88000 118.822
60.89000 120.365
60.90000 125.216
60.91000 130.733
60.92000 134.831
60.93000 132.261
60.94000 128.840
60.95000 126.200
60.96000 123.976
60.97000 122.238
60.98000 121.411
60.99000 122.542
61.00000 123.739
61.01000 124.682
61.02000 125.256
61.03000 125.827
61.04000 122.946
61.05000 116.779
61.06000 110.713
61.07000 112.498
61.08000 119.218
61.09000 125.735
61.10000 127.310
61.11000 126.771
61.12000 126.266
61.13000 126.499
61.14000 126.907
61.15000 127.132
61.16000 126.068
61.17000 124.755
61.18000 123.896
61.19000 125.095
61.20000 126.544
61.21000 127.652
61.22000 128.908
61.23000 129.907
61.24000 128.478
61.25000 122.012
61.26000 115.392
61.27000 113.834
61.28000 119.377
61.29000 124.968
61.30000 126.889
61.31000 125.457
61.32000 124.047
61.33000 124.117
61.34000 125.086
61.35000 125.838
61.36000 121.735
61.37000 115.627
61.38000 109.915
61.39000 114.969
61.40000 122.307
61.41000 128.641
61.42000 128.216
61.43000 126.532
61.44000 125.613
61.45000 128.024
61.46000 130.824
61.47000 132.945
61.48000 136.066
61.49000 138.568
61.50000 141.119
61.51000 143.770
61.52000 146.423
61.53000 153.433
61.54000 166.330
61.55000 179.253
61.56000 190.382
61.57000 199.919
61.58000 209.484
61.59000 220.675
61.60000 232.816
61.61000 245.043
61.62000 259.039
61.63000 273.741
61.64000 287.437
61.65000 290.461
61.66000 290.582
61.67000 291.427
61.68000 296.953
61.69000 303.317
61.70000 306.451
61.71000 296.035
61.72000 284.114
61.73000 275.169
61.74000 285.394
61.75000 294.294
61.76000 294.861
61.77000 279.314
61.78000 263.358
61.79000 249.721
61.80000 239.102
61.81000 228.506
61.82000 213.858
61.83000 195.832
61.84000 177.955
61.85000 167.843
61.86000 162.115
61.87000 156.476
61.88000 152.562
61.89000 149.312
61.90000 146.297
61.91000 142.201
61.92000 138.256
61.93000 134.941
61.94000 135.522
61.95000 136.772
61.96000 137.367
61.97000 135.310
61.98000 132.972
61.99000 131.235
62.00000 131.622
62.01000 132.017
62.02000 132.600
62.03000 133.532
62.04000 134.472
62.05000 133.655
62.06000 130.634
62.07000 127.611
62.08000 126.921
62.09000 128.124
62.10000 129.333
62.11000 130.877
62.12000 132.604
62.13000 134.193
62.14000 133.291
62.15000 131.462
62.16000 129.773
62.17000 130.113
62.18000 130.876
62.19000 131.421
62.20000 130.665
62.21000 129.695
62.22000 128.521
62.23000 126.552
62.24000 124.502
62.25000 122.995
62.26000 121.614
62.27000 120.551
62.28000 120.582
62.29000 122.584
62.30000 124.626
62.31000 123.959
62.32000 120.024
62.33000 116.090
62.34000 119.666
62.35000 129.071
62.36000 138.238
62.37000 137.518
62.38000 131.597
62.39000 126.081
62.40000 127.435
62.41000 131.255
62.42000 134.768
62.43000 136.401
62.44000 137.452
62.45000 138.009
62.46000 135.750
62.47000 133.046
62.48000 130.937
62.49000 131.066
62.50000 131.409
62.51000 131.660
62.52000 130.088
62.53000 128.808
62.54000 128.034
62.55000 128.142
62.56000 128.266
62.57000 129.492
62.58000 131.997
62.59000 134.496
62.60000 133.395
62.61000 129.608
62.62000 125.891
62.63000 124.826
62.64000 125.108
62.65000 125.500
62.66000 127.650
62.67000 130.408
62.68000 132.934
62.69000 136.460
62.70000 139.806
62.71000 142.333
62.72000 140.383
62.73000 137.754
62.74000 135.668
62.75000 135.545
62.76000 135.602
62.77000 135.642
62.78000 133.381
62.79000 131.567
62.80000 130.677
62.81000 131.335
62.82000 132.019
62.83000 130.831
62.84000 127.558
62.85000 124.295
62.86000 123.636
62.87000 124.858
62.88000 126.131
62.89000 129.139
62.90000 132.999
62.91000 136.823
62.92000 140.126
62.93000 143.253
62.94000 146.103
62.95000 143.494
62.96000 140.093
62.97000 137.227
62.98000 137.174
62.99000 137.531
63.00000 137.805
63.01000 137.793
63.02000 137.756
63.03000 137.729
63.04000 129.999
63.05000 123.855
63.06000 121.299
63.07000 124.553
63.08000 127.887
63.09000 131.918
63.10000 136.694
63.11000 141.450
63.12000 142.873
63.13000 141.975
63.14000 141.035
63.15000 138.803
63.16000 135.958
63.17000 133.117
63.18000 130.311
63.19000 127.516
63.20000 124.982
63.21000 126.812
63.22000 129.262
63.23000 131.419
63.24000 132.095
63.25000 132.565
63.26000 133.279
63.27000 134.816
63.28000 136.420
63.29000 137.550
63.30000 136.868
63.31000 136.296
63.32000 135.877
63.33000 135.698
63.34000 135.520
63.35000 137.095
63.36000 140.473
63.37000 143.833
63.38000 142.388
63.39000 137.763
63.40000 133.242
63.41000 131.623
63.42000 131.331
63.43000 130.975
63.44000 129.761
63.45000 128.280
63.46000 126.943
63.47000 131.573
63.48000 136.735
63.49000 141.130
63.50000 141.796
63.51000 141.965
63.52000 141.314
63.53000 137.991
63.54000 134.462
63.55000 132.002
63.56000 137.238
63.57000 141.401
63.58000 143.058
63.59000 140.943
63.60000 138.790
63.61000 138.976
63.62000 141.474
63.63000 143.954
63.64000 145.901
63.65000 147.476
63.66000 148.920
63.67000 146.942
63.68000 143.453
63.69000 140.274
63.70000 140.983
63.71000 142.862
63.72000 144.549
63.73000 144.408
63.74000 143.964
63.75000 143.475
63.76000 142.770
63.77000 142.038
63.78000 141.700
63.79000 142.597
63.80000 143.584
63.81000 144.263
63.82000 149.910
63.83000 154.274
63.84000 155.307
63.85000 151.505
63.86000 147.664
63.87000 145.869
63.88000 146.016
63.89000 146.162
63.90000 147.272
63.91000 148.956
63.92000 150.513
63.93000 149.014
63.94000 146.212
63.95000 143.463
63.96000 141.331
63.97000 139.378
63.98000 137.635
63.99000 139.649
64.00000 142.036
64.01000 144.471
64.02000 147.124
64.03000 149.804
64.04000 152.477
64.05000 155.126
64.06000 157.773
64.07000 159.575
64.08000 156.296
64.09000 153.730
64.10000 152.464
64.11000 153.014
64.12000 153.576
64.13000 153.033
64.14000 151.483
64.15000 149.947
64.16000 148.732
64.17000 147.732
64.18000 146.748
64.19000 146.132
64.20000 145.667
64.21000 145.318
64.22000 146.276
64.23000 147.601
64.24000 148.777
64.25000 147.740
64.26000 146.484
64.27000 146.651
64.28000 152.997
64.29000 160.059
64.30000 164.966
64.31000 163.567
64.32000 161.761
64.33000 160.547
64.34000 155.660
64.35000 151.953
64.36000 151.649
64.37000 155.930
64.38000 160.232
64.39000 161.913
64.40000 161.299
64.41000 160.691
64.42000 160.988
64.43000 161.795
64.44000 162.680
64.45000 165.184
64.46000 168.333
64.47000 171.095
64.48000 169.735
64.49000 167.262
64.50000 165.077
64.51000 163.529
64.52000 162.290
64.53000 161.257
64.54000 161.083
64.55000 161.005
64.56000 162.469
64.57000 168.290
64.58000 174.375
64.59000 178.415
64.60000 181.318
64.61000 183.442
64.62000 182.131
64.63000 176.364
64.64000 170.585
64.65000 168.635
64.66000 169.910
64.67000 171.170
64.68000 172.223
64.69000 173.136
64.70000 173.997
64.71000 173.857
64.72000 173.331
64.73000 172.880
64.74000 173.183
64.75000 173.681
64.76000 174.119
64.77000 169.985
64.78000 165.757
64.79000 163.550
64.80000 169.486
64.81000 176.279
64.82000 180.674
64.83000 178.528
64.84000 176.011
64.85000 174.360
64.86000 172.406
64.87000 170.964
64.88000 173.842
64.89000 182.117
64.90000 190.393
64.91000 193.043
64.92000 191.134
64.93000 189.251
64.94000 188.602
64.95000 188.623
64.96000 188.676
64.97000 189.298
64.98000 190.130
64.99000 191.048
65.00000 192.785
65.01000 194.729
65.02000 196.425
65.03000 195.405
65.04000 194.149
65.05000 193.171
65.06000 193.277
65.07000 193.491
65.08000 194.283
65.09000 196.597
65.10000 198.991
65.11000 200.541
65.12000 192.300
65.13000 186.128
65.14000 188.318
65.15000 200.558
65.16000 212.798
65.17000 219.531
65.18000 221.969
65.19000 224.368
65.20000 226.480
65.21000 228.380
65.22000 229.886
65.23000 224.768
65.24000 217.278
65.25000 210.605
65.26000 211.442
65.27000 214.095
65.28000 216.397
65.29000 222.172
65.30000 227.559
65.31000 232.011
65.32000 232.959
65.33000 233.573
65.34000 234.928
65.35000 238.168
65.36000 241.501
65.37000 243.628
65.38000 244.644
65.39000 245.369
65.40000 249.036
65.41000 256.106
65.42000 263.144
65.43000 262.883
65.44000 257.139
65.45000 251.496
65.46000 251.651
65.47000 254.638
65.48000 257.899
65.49000 265.516
65.50000 274.637
65.51000 283.238
65.52000 287.283
65.53000 290.266
65.54000 292.839
65.55000 299.767
65.56000 306.201
65.57000 313.225
65.58000 322.375
65.59000 331.718
65.60000 340.890
65.61000 349.641
65.62000 358.373
65.63000 363.869
65.64000 395.255
65.65000 418.257
65.66000 446.376
65.67000 480.182
65.68000 514.166
65.69000 575.926
65.70000 657.786
65.71000 738.049
65.72000 845.355
65.73000 961.402
65.74000 1078.413
65.75000 1209.764
65.76000 1345.899
65.77000 1479.055
65.78000 1587.330
65.79000 1690.020
65.80000 1778.050
65.81000 1859.517
65.82000 1927.516
65.83000 1983.270
65.84000 1996.346
65.85000 2005.765
65.86000 2011.794
65.87000 2009.783
65.88000 2007.429
65.89000 2005.969
65.90000 2005.929
65.91000 2005.914
65.92000 1976.736
65.93000 1916.415
65.94000 1855.814
65.95000 1760.481
65.96000 1640.927
65.97000 1523.957
65.98000 1396.986
65.99000 1270.603
66.00000 1144.803
66.01000 1027.177
66.02000 912.183
66.03000 800.983
66.04000 720.032
66.05000 645.620
66.06000 582.243
66.07000 537.803
66.08000 502.646
66.09000 471.215
66.10000 452.310
66.11000 434.420
66.12000 416.360
66.13000 397.909
66.14000 379.442
66.15000 368.148
66.16000 376.684
66.17000 382.957
66.18000 384.062
66.19000 379.865
66.20000 375.750
66.21000 380.341
66.22000 390.783
66.23000 400.976
66.24000 406.018
66.25000 408.595
66.26000 412.306
66.27000 430.998
66.28000 454.346
66.29000 477.375
66.30000 497.974
66.31000 518.066
66.32000 535.066
66.33000 550.546
66.34000 563.334
66.35000 575.992
66.36000 588.228
66.37000 600.432
66.38000 611.292
66.39000 619.182
66.40000 626.963
66.41000 631.652
66.42000 628.371
66.43000 625.980
66.44000 624.683
66.45000 624.461
66.46000 624.191
66.47000 619.541
66.48000 612.054
66.49000 604.762
66.50000 593.741
66.51000 581.670
66.52000 568.645
66.53000 543.707
66.54000 515.196
66.55000 488.196
66.56000 472.208
66.57000 458.423
66.58000 446.841
66.59000 419.586
66.60000 395.223
66.61000 376.311
66.62000 374.469
66.63000 373.863
66.64000 374.149
66.65000 376.339
66.66000 378.592
66.67000 379.928
66.68000 372.635
66.69000 367.426
66.70000 364.833
66.71000 364.715
66.72000 364.571
66.73000 362.456
66.74000 359.110
66.75000 355.859
66.76000 355.114
66.77000 355.418
66.78000 355.968
66.79000 359.426
66.80000 363.726
66.81000 367.610
66.82000 368.593
66.83000 369.017
66.84000 369.371
66.85000 369.880
66.86000 370.318
66.87000 370.088
66.88000 367.843
66.89000 365.460
66.90000 365.924
66.91000 372.261
66.92000 378.776
66.93000 382.580
66.94000 387.248
66.95000 390.534
66.96000 390.942
66.97000 388.735
66.98000 386.546
66.99000 385.563
67.00000 385.308
67.01000 385.060
67.02000 381.533
67.03000 376.921
67.04000 373.127
67.05000 378.492
67.06000 386.413
67.07000 393.075
67.08000 391.315
67.09000 387.996
67.10000 385.247
67.11000 392.785
67.12000 399.990
67.13000 405.774
67.14000 407.411
67.15000 408.783
67.16000 408.839
67.17000 406.277
67.18000 403.643
67.19000 402.129
67.20000 397.875
67.21000 394.893
67.22000 395.019
67.23000 397.857
67.24000 400.598
67.25000 397.724
67.26000 391.585
67.27000 385.652
67.28000 392.916
67.29000 404.702
67.30000 415.759
67.31000 419.074
67.32000 420.304
67.33000 420.723
67.34000 415.943
67.35000 410.240
67.36000 405.549
67.37000 417.207
67.38000 428.269
67.39000 437.211
67.40000 440.186
67.41000 442.802
67.42000 443.200
67.43000 439.335
67.44000 435.364
67.45000 433.120
67.46000 435.509
67.47000 437.174
67.48000 434.588
67.49000 428.433
67.50000 422.363
67.51000 420.635
67.52000 421.343
67.53000 422.026
67.54000 430.938
67.55000 442.274
67.56000 452.636
67.57000 453.167
67.58000 451.145
67.59000 448.803
67.60000 444.488
67.61000 439.837
67.62000 436.040
67.63000 454.591
67.64000 471.685
67.65000 480.931
67.66000 468.833
67.67000 455.531
67.68000 449.634
67.69000 457.479
67.70000 465.631
67.71000 470.158
67.72000 459.756
67.73000 452.567
67.74000 455.574
67.75000 466.820
67.76000 477.875
67.77000 480.256
67.78000 477.937
67.79000 475.709
67.80000 476.222
67.81000 477.651
67.82000 478.988
67.83000 479.446
67.84000 479.683
67.85000 480.436
67.86000 484.231
67.87000 488.524
67.88000 492.001
67.89000 492.387
67.90000 492.451
67.91000 492.219
67.92000 491.211
67.93000 490.163
67.94000 493.098
67.95000 503.170
67.96000 513.385
67.97000 518.957
67.98000 517.135
67.99000 515.889
68.00000 518.838
68.01000 525.047
68.02000 531.102
68.03000 530.846
68.04000 527.290
68.05000 523.884
68.06000 525.790
68.07000 529.336
68.08000 532.544
68.09000 532.659
68.10000 532.027
68.11000 530.877
68.12000 526.788
68.13000 522.238
68.14000 518.583
68.15000 528.232
68.16000 537.076
68.17000 543.928
68.18000 545.728
68.19000 547.279
68.20000 551.741
68.21000 561.237
68.22000 570.822
68.23000 575.956
68.24000 566.423
68.25000 559.953
68.26000 563.075
68.27000 573.379
68.28000 583.680
68.29000 593.892
68.30000 604.058
68.31000 613.766
68.32000 613.577
68.33000 610.234
68.34000 607.760
68.35000 612.868
68.36000 619.739
68.37000 627.722
68.38000 641.756
68.39000 656.701
68.40000 668.613
68.41000 661.309
68.42000 654.022
68.43000 648.562
68.44000 647.579
68.45000 646.800
68.46000 656.021
68.47000 681.921
68.48000 708.079
68.49000 721.831
68.50000 714.428
68.51000 709.460
68.52000 713.891
68.53000 725.102
68.54000 736.395
68.55000 750.455
68.56000 765.862
68.57000 780.526
68.58000 806.127
68.59000 833.192
68.60000 859.396
68.61000 878.445
68.62000 895.893
68.63000 916.809
68.64000 955.858
68.65000 997.522
68.66000 1030.454
68.67000 1086.728
68.68000 1133.514
68.69000 1178.304
68.70000 1218.375
68.71000 1258.247
68.72000 1302.616
68.73000 1354.224
68.74000 1405.928
68.75000 1432.589
68.76000 1485.314
68.77000 1520.865
68.78000 1560.360
68.79000 1602.597
68.80000 1645.222
68.81000 1699.678
68.82000 1759.703
68.83000 1816.636
68.84000 1882.513
68.85000 1945.899
68.86000 2014.155
68.87000 2121.090
68.88000 2236.357
68.89000 2379.914
68.90000 2665.684
68.91000 2971.094
68.92000 3210.441
68.93000 4182.839
68.94000 5007.300
68.95000 6217.902
68.96000 8310.481
68.97000 10437.517
68.98000 13051.182
68.99000 16419.947
69.00000 19797.381
69.01000 21504.621
69.02000 26874.180
69.03000 30460.664
69.04000 33382.629
69.05000 35859.301
69.06000 38306.277
69.07000 39922.219
69.08000 41160.477
69.09000 42330.793
69.10000 43135.195
69.11000 43769.801
69.12000 44400.668
69.13000 45003.160
69.14000 45599.770
69.15000 46214.738
69.16000 46918.512
69.17000 47634.016
69.18000 48189.875
69.19000 48027.375
69.20000 47854.496
69.21000 47040.320
69.22000 44811.637
69.23000 42532.102
69.24000 39903.355
69.25000 36752.141
69.26000 33595.902
69.27000 30999.898
69.28000 28953.625
69.29000 26913.846
69.30000 25446.119
69.31000 24347.992
69.32000 23268.574
69.33000 22670.852
69.34000 22284.531
69.35000 21920.742
69.36000 21572.596
69.37000 21258.410
69.38000 20860.053
69.39000 19850.340
69.40000 18718.689
69.41000 17472.863
69.42000 15695.653
69.43000 13851.342
69.44000 12431.313
69.45000 10167.562
69.46000 8327.360
69.47000 6713.018
69.48000 5579.729
69.49000 4462.294
69.50000 3570.361
69.51000 3003.643
69.52000 2439.602
69.53000 2048.663
69.54000 1820.883
69.55000 1594.180
69.56000 1448.668
69.57000 1353.746
69.58000 1260.240
69.59000 1200.374
69.60000 1154.766
69.61000 1111.980
69.62000 1060.560
69.63000 1011.443
69.64000 963.665
69.65000 925.191
69.66000 888.503
69.67000 855.307
69.68000 837.761
69.69000 822.102
69.70000 810.156
69.71000 772.570
69.72000 741.586
69.73000 717.531
69.74000 707.728
69.75000 698.352
69.76000 685.811
69.77000 668.870
69.78000 651.906
69.79000 643.711
69.80000 643.455
69.81000 643.080
69.82000 634.936
69.83000 622.121
69.84000 609.122
69.85000 592.074
69.86000 573.369
69.87000 555.890
69.88000 555.825
69.89000 560.164
69.90000 562.856
69.91000 554.575
69.92000 544.272
69.93000 535.644
69.94000 534.245
69.95000 533.678
69.96000 533.249
69.97000 525.618
69.98000 519.274
69.99000 512.193
70.00000 503.647
