20.00000 467.179
20.01000 464.546
20.02000 461.538
20.03000 458.605
20.04000 455.969
20.05000 453.364
20.06000 451.442
20.07000 458.939
20.08000 465.142
20.09000 467.703
20.10000 463.639
20.11000 459.437
20.12000 457.409
20.13000 458.027
20.14000 458.651
20.15000 461.089
20.16000 464.941
20.17000 468.749
20.18000 470.630
20.19000 471.489
20.20000 472.565
20.21000 477.391
20.22000 483.575
20.23000 489.270
20.24000 481.827
20.25000 472.292
20.26000 464.484
20.27000 466.631
20.28000 470.370
20.29000 472.809
20.30000 470.318
20.31000 467.349
20.32000 465.181
20.33000 464.703
20.34000 464.399
20.35000 459.955
20.36000 448.244
20.37000 436.398
20.38000 432.400
20.39000 437.597
20.40000 442.795
20.41000 450.905
20.42000 461.165
20.43000 471.096
20.44000 468.362
20.45000 459.136
20.46000 450.250
20.47000 446.850
20.48000 445.369
20.49000 444.011
20.50000 445.887
20.51000 448.238
20.52000 451.647
20.53000 460.910
20.54000 471.070
20.55000 479.284
20.56000 480.384
20.57000 480.829
20.58000 481.150
20.59000 467.774
20.60000 457.018
20.61000 449.552
20.62000 447.656
20.63000 445.852
20.64000 446.709
20.65000 450.566
20.66000 454.413
20.67000 458.014
20.68000 461.407
20.69000 464.657
20.70000 462.897
20.71000 458.659
20.72000 455.073
20.73000 461.373
20.74000 471.013
20.75000 479.807
20.76000 477.199
20.77000 472.585
20.78000 467.707
20.79000 461.420
20.80000 454.927
20.81000 451.213
20.82000 457.308
20.83000 464.258
20.84000 469.226
20.85000 464.315
20.86000 460.237
20.87000 458.674
20.88000 461.220
20.89000 463.824
20.90000 466.805
20.91000 470.193
20.92000 473.567
20.93000 469.281
20.94000 459.684
20.95000 450.573
20.96000 456.854
20.97000 470.486
20.98000 482.914
20.99000 478.127
21.00000 467.728
21.01000 458.285
21.02000 452.698
21.03000 448.508
21.04000 445.893
21.05000 451.326
21.06000 457.893
21.07000 462.953
21.08000 462.887
21.09000 462.398
21.10000 462.053
21.11000 458.024
21.12000 454.852
21.13000 453.400
21.14000 454.658
21.15000 455.950
21.16000 459.044
21.17000 464.014
21.18000 468.957
21.19000 466.301
21.20000 458.570
21.21000 451.126
21.22000 452.014
21.23000 456.745
21.24000 461.009
21.25000 458.966
21.26000 454.939
21.27000 451.300
21.28000 452.160
21.29000 453.749
21.30000 455.655
21.31000 459.116
21.32000 462.785
21.33000 465.682
21.34000 466.039
21.35000 466.198
21.36000 466.310
21.37000 457.075
21.38000 449.834
21.39000 446.321
21.40000 448.472
21.41000 450.682
21.42000 452.261
21.43000 453.209
21.44000 454.152
21.45000 457.701
21.46000 462.884
21.47000 467.751
21.48000 464.181
21.49000 456.853
21.50000 449.953
21.51000 448.500
21.52000 448.701
21.53000 448.881
21.54000 453.240
21.55000 457.798
21.56000 461.671
21.57000 462.299
21.58000 462.509
21.59000 461.958
21.60000 458.991
21.61000 455.847
21.62000 453.674
21.63000 451.918
21.64000 450.609
21.65000 452.857
21.66000 460.316
21.67000 467.819
21.68000 472.353
21.69000 474.041
21.70000 475.716
21.71000 468.469
21.72000 455.793
21.73000 443.956
21.74000 452.722
21.75000 470.351
21.76000 486.566
21.77000 485.770
21.78000 479.990
21.79000 474.820
21.80000 466.139
21.81000 457.971
21.82000 453.174
21.83000 463.722
21.84000 476.156
21.85000 487.408
21.86000 495.041
21.87000 502.423
21.88000 507.463
21.89000 497.225
21.90000 489.210
21.91000 487.330
21.92000 494.111
21.93000 500.950
21.94000 500.762
21.95000 494.103
21.96000 487.503
21.97000 489.685
21.98000 497.080
21.99000 504.238
22.00000 506.015
22.01000 505.557
22.02000 505.222
22.03000 506.288
22.04000 507.750
22.05000 509.050
22.06000 508.742
22.07000 508.212
22.08000 506.475
22.09000 499.444
22.10000 491.792
22.11000 487.479
22.12000 493.027
22.13000 499.221
22.14000 503.399
22.15000 508.642
22.16000 512.565
22.17000 511.479
22.18000 503.579
22.19000 495.643
22.20000 490.785
22.21000 488.650
22.22000 486.536
22.23000 491.085
22.24000 499.371
22.25000 507.207
22.26000 505.546
22.27000 500.075
22.28000 495.039
22.29000 494.692
22.30000 495.624
22.31000 496.449
22.32000 485.705
22.33000 474.616
22.34000 464.546
22.35000 458.775
22.36000 453.486
22.37000 451.766
22.38000 460.223
22.39000 469.305
22.40000 475.356
22.41000 474.193
22.42000 473.195
22.43000 472.761
22.44000 473.065
22.45000 473.372
22.46000 473.974
22.47000 474.826
22.48000 475.667
22.49000 470.863
22.50000 463.049
22.51000 455.421
22.52000 451.439
22.53000 448.870
22.54000 446.348
22.55000 444.309
22.56000 442.397
22.57000 440.716
22.58000 440.506
22.59000 440.544
22.60000 439.959
22.61000 436.837
22.62000 433.443
22.63000 431.379
22.64000 432.971
22.65000 434.775
22.66000 435.961
22.67000 445.155
22.68000 452.062
22.69000 455.363
22.70000 454.116
22.71000 452.853
22.72000 450.984
22.73000 448.618
22.74000 446.284
22.75000 447.659
22.76000 450.974
22.77000 453.929
22.78000 450.273
22.79000 444.145
22.80000 438.674
22.81000 439.619
22.82000 442.190
22.83000 444.438
22.84000 445.299
22.85000 445.839
22.86000 447.682
22.87000 454.638
22.88000 462.113
22.89000 464.175
22.90000 451.852
22.91000 438.753
22.92000 430.248
22.93000 440.220
22.94000 447.803
22.95000 452.123
22.96000 452.482
22.97000 452.820
22.98000 450.206
22.99000 445.266
23.00000 440.400
23.01000 436.457
23.02000 433.106
23.03000 430.097
23.04000 432.944
23.05000 437.907
23.06000 442.657
23.07000 445.433
23.08000 447.727
23.09000 449.722
23.10000 444.310
23.11000 438.687
23.12000 434.242
23.13000 434.254
23.14000 434.696
23.15000 433.697
23.16000 429.002
23.17000 424.121
23.18000 420.995
23.19000 427.183
23.20000 431.816
23.21000 435.290
23.22000 437.411
23.23000 439.521
23.24000 439.746
23.25000 438.542
23.26000 437.358
23.27000 438.469
23.28000 440.678
23.29000 442.480
23.30000 437.747
23.31000 430.735
23.32000 424.502
23.33000 425.164
23.34000 427.448
23.35000 429.422
23.36000 436.786
23.37000 443.739
23.38000 447.862
23.39000 441.662
23.40000 434.516
23.41000 429.785
23.42000 431.042
23.43000 432.578
23.44000 433.549
23.45000 429.265
23.46000 426.100
23.47000 426.511
23.48000 430.937
23.49000 435.339
23.50000 434.997
23.51000 431.189
23.52000 427.453
23.53000 428.471
23.54000 431.711
23.55000 434.734
23.56000 434.469
23.57000 433.097
23.58000 431.753
23.59000 430.647
23.60000 429.596
23.61000 428.693
23.62000 439.679
23.63000 450.440
23.64000 458.571
23.65000 457.454
23.66000 455.534
23.67000 454.500
23.68000 455.589
23.69000 456.770
23.70000 457.506
23.71000 445.873
23.72000 437.364
23.73000 435.795
23.74000 441.714
23.75000 447.650
23.76000 455.488
23.77000 464.666
23.78000 473.650
23.79000 475.459
23.80000 473.915
23.81000 472.821
23.82000 478.140
23.83000 485.544
23.84000 492.478
23.85000 495.629
23.86000 497.954
23.87000 499.937
23.88000 494.519
23.89000 489.086
23.90000 485.640
23.91000 488.939
23.92000 492.794
23.93000 494.270
23.94000 490.252
23.95000 486.012
23.96000 483.410
23.97000 503.336
23.98000 517.812
23.99000 525.436
24.00000 525.959
24.01000 526.427
24.02000 520.703
24.03000 510.779
24.04000 501.085
24.05000 499.322
24.06000 501.126
24.07000 502.892
24.08000 504.139
24.09000 505.224
24.10000 504.460
24.11000 489.445
24.12000 471.435
24.13000 456.172
24.14000 456.347
24.15000 458.228
24.16000 461.646
24.17000 470.098
24.18000 478.943
24.19000 482.336
24.20000 473.562
24.21000 464.338
24.22000 458.759
24.23000 455.554
24.24000 453.287
24.25000 450.339
24.26000 446.714
24.27000 443.082
24.28000 438.950
24.29000 434.490
24.30000 430.143
24.31000 431.972
24.32000 436.333
24.33000 439.836
24.34000 432.456
24.35000 421.782
24.36000 413.211
24.37000 420.140
24.38000 430.203
24.39000 438.673
24.40000 434.346
24.41000 429.368
24.42000 425.611
24.43000 425.714
24.44000 426.100
24.45000 424.829
24.46000 419.989
24.47000 415.028
24.48000 412.073
24.49000 412.289
24.50000 412.461
24.51000 412.321
24.52000 411.882
24.53000 411.403
24.54000 407.743
24.55000 402.074
24.56000 396.564
24.57000 397.558
24.58000 401.156
24.59000 404.917
24.60000 410.639
24.61000 416.934
24.62000 421.987
24.63000 418.272
24.64000 412.853
24.65000 408.323
24.66000 414.195
24.67000 420.128
24.68000 424.330
24.69000 423.248
24.70000 421.799
24.71000 418.544
24.72000 411.529
24.73000 404.397
24.74000 400.216
24.75000 396.825
24.76000 394.440
24.77000 393.218
24.78000 393.062
24.79000 393.001
24.80000 399.495
24.81000 409.976
24.82000 420.140
24.83000 421.439
24.84000 419.193
24.85000 416.917
24.86000 414.310
24.87000 411.610
24.88000 409.781
24.89000 413.833
24.90000 418.984
24.91000 423.259
24.92000 416.126
24.93000 409.127
24.94000 404.167
24.95000 405.214
24.96000 406.652
24.97000 406.015
24.98000 401.210
24.99000 396.288
25.00000 393.448
25.01000 404.443
25.02000 412.190
25.03000 412.362
25.04000 405.852
25.05000 399.432
25.06000 398.304
25.07000 400.284
25.08000 402.199
25.09000 401.929
25.10000 400.851
25.11000 399.467
25.12000 394.796
25.13000 389.233
25.14000 384.459
25.15000 384.804
25.16000 386.069
25.17000 387.110
25.18000 392.033
25.19000 396.440
25.20000 400.580
25.21000 403.961
25.22000 407.296
25.23000 410.548
25.24000 413.641
25.25000 416.730
25.26000 418.482
25.27000 410.959
25.28000 405.699
25.29000 403.918
25.30000 405.087
25.31000 406.206
25.32000 404.723
25.33000 401.766
25.34000 398.915
25.35000 398.204
25.36000 398.313
25.37000 397.889
25.38000 392.006
25.39000 384.694
25.40000 379.214
25.41000 385.112
25.42000 392.973
25.43000 399.401
25.44000 396.294
25.45000 392.919
25.46000 389.131
25.47000 384.210
25.48000 379.223
25.49000 379.331
25.50000 388.982
25.51000 398.851
25.52000 404.356
25.53000 396.405
25.54000 390.876
25.55000 386.681
25.56000 383.574
25.57000 380.540
25.58000 380.948
25.59000 383.238
25.60000 385.440
25.61000 389.535
25.62000 394.033
25.63000 398.468
25.64000 402.280
25.65000 405.935
25.66000 408.589
25.67000 405.278
25.68000 400.980
25.69000 397.492
25.70000 395.931
25.71000 394.818
25.72000 392.803
25.73000 388.398
25.74000 383.866
25.75000 378.106
25.76000 370.129
25.77000 362.106
25.78000 357.709
25.79000 369.934
25.80000 378.344
25.81000 379.974
25.82000 376.280
25.83000 372.713
25.84000 374.483
25.85000 379.068
25.86000 383.463
25.87000 386.240
25.88000 388.288
25.89000 390.540
25.90000 394.670
25.91000 399.257
25.92000 402.605
25.93000 398.862
25.94000 393.992
25.95000 390.072
25.96000 381.359
25.97000 373.914
25.98000 371.105
25.99000 380.156
26.00000 389.800
26.01000 394.275
26.02000 389.733
26.03000 385.027
26.04000 382.494
26.05000 398.164
26.06000 408.836
26.07000 407.649
26.08000 397.496
26.09000 387.581
26.10000 386.722
26.11000 390.475
26.12000 394.062
26.13000 392.033
26.14000 388.329
26.15000 384.666
26.16000 381.360
26.17000 378.139
26.18000 375.722
26.19000 377.722
26.20000 380.394
26.21000 382.529
26.22000 382.979
26.23000 383.219
26.24000 384.465
26.25000 388.197
26.26000 392.045
26.27000 391.744
26.28000 384.460
26.29000 377.064
26.30000 373.157
26.31000 382.031
26.32000 388.034
26.33000 388.985
26.34000 386.257
26.35000 383.577
26.36000 382.582
26.37000 382.416
26.38000 382.257
26.39000 378.758
26.40000 374.477
26.41000 371.583
26.42000 380.372
26.43000 391.800
26.44000 401.052
26.45000 398.815
26.46000 394.903
26.47000 391.804
26.48000 380.758
26.49000 371.325
26.50000 367.585
26.51000 377.429
26.52000 387.859
26.53000 396.491
26.54000 402.203
26.55000 407.875
26.56000 410.814
26.57000 401.495
26.58000 395.206
26.59000 389.152
26.60000 383.264
26.61000 377.665
26.62000 381.136
26.63000 388.914
26.64000 396.297
26.65000 393.128
26.66000 387.047
26.67000 380.981
26.68000 375.032
26.69000 369.109
26.70000 363.989
26.71000 362.953
26.72000 362.486
26.73000 362.120
26.74000 363.763
26.75000 365.209
26.76000 367.508
26.77000 371.772
26.78000 376.114
26.79000 377.153
26.80000 373.017
26.81000 368.819
26.82000 366.687
26.83000 370.444
26.84000 372.970
26.85000 376.365
26.86000 380.347
26.87000 384.111
26.88000 381.663
26.89000 376.366
26.90000 371.354
26.91000 375.407
26.92000 381.739
26.93000 386.820
26.94000 382.296
26.95000 375.761
26.96000 370.275
26.97000 369.913
26.98000 370.235
26.99000 370.486
27.00000 367.329
27.01000 364.604
27.02000 365.880
27.03000 376.060
27.04000 386.566
27.05000 388.646
27.06000 378.001
27.07000 367.226
27.08000 360.807
27.09000 358.706
27.10000 356.630
27.11000 356.880
27.12000 358.646
27.13000 360.560
27.14000 366.366
27.15000 373.895
27.16000 380.992
27.17000 378.539
27.18000 373.654
27.19000 369.179
27.20000 367.721
27.21000 366.871
27.22000 367.320
27.23000 373.877
27.24000 381.214
27.25000 386.877
27.26000 380.776
27.27000 375.258
27.28000 372.204
27.29000 374.446
27.30000 376.866
27.31000 377.635
27.32000 376.001
27.33000 374.347
27.34000 374.730
27.35000 377.051
27.36000 379.365
27.37000 381.165
27.38000 382.641
27.39000 383.972
27.40000 381.793
27.41000 378.115
27.42000 374.660
27.43000 373.072
27.44000 372.118
27.45000 370.804
27.46000 366.953
27.47000 362.611
27.48000 359.768
27.49000 363.703
27.50000 368.465
27.51000 372.107
27.52000 370.514
27.53000 368.973
27.54000 368.979
27.55000 372.194
27.56000 375.509
27.57000 376.514
27.58000 374.281
27.59000 372.025
27.60000 370.302
27.61000 369.066
27.62000 367.831
27.63000 366.655
27.64000 365.515
27.65000 364.488
27.66000 366.007
27.67000 368.577
27.68000 370.980
27.69000 372.232
27.70000 373.076
27.71000 373.265
27.72000 369.045
27.73000 364.004
27.74000 358.972
27.75000 353.975
27.76000 348.982
27.77000 345.199
27.78000 354.664
27.79000 362.769
27.80000 366.239
27.81000 360.423
27.82000 354.347
27.83000 350.537
27.84000 349.788
27.85000 349.056
27.86000 352.135
27.87000 358.554
27.88000 364.929
27.89000 368.672
27.90000 370.876
27.91000 373.012
27.92000 373.734
27.93000 373.891
27.94000 374.038
27.95000 371.241
27.96000 367.990
27.97000 365.465
27.98000 367.626
27.99000 370.627
28.00000 373.110
28.01000 373.426
28.02000 373.501
28.03000 373.557
28.04000 372.240
28.05000 371.145
28.06000 369.292
28.07000 365.973
28.08000 362.617
28.09000 359.421
28.10000 356.432
28.11000 353.447
28.12000 357.497
28.13000 367.467
28.14000 377.256
28.15000 377.606
28.16000 372.625
28.17000 367.627
28.18000 362.282
28.19000 356.803
28.20000 351.721
28.21000 353.408
28.22000 356.522
28.23000 359.074
28.24000 358.153
28.25000 356.635
28.26000 355.188
28.27000 354.035
28.28000 352.911
28.29000 352.077
28.30000 360.410
28.31000 367.295
28.32000 370.654
28.33000 367.430
28.34000 364.055
28.35000 363.311
28.36000 365.863
28.37000 368.421
28.38000 365.611
28.39000 358.461
28.40000 351.411
28.41000 348.966
28.42000 349.033
28.43000 349.464
28.44000 356.517
28.45000 366.033
28.46000 374.823
28.47000 367.759
28.48000 357.839
28.49000 348.686
28.50000 344.089
28.51000 340.243
28.52000 339.007
28.53000 347.943
28.54000 357.903
28.55000 365.230
28.56000 357.071
28.57000 350.119
28.58000 345.336
28.59000 344.462
28.60000 343.667
28.61000 345.169
28.62000 349.441
28.63000 353.710
28.64000 354.448
28.65000 352.434
28.66000 350.479
28.67000 350.983
28.68000 352.782
28.69000 354.652
28.70000 357.734
28.71000 361.250
28.72000 364.485
28.73000 361.488
28.74000 357.460
28.75000 354.282
28.76000 355.954
28.77000 358.393
28.78000 359.326
28.79000 354.598
28.80000 349.329
28.81000 345.492
28.82000 348.706
28.83000 351.451
28.84000 352.819
28.85000 351.793
28.86000 350.725
28.87000 352.973
28.88000 359.070
28.89000 365.156
28.90000 364.237
28.91000 358.081
28.92000 352.062
28.93000 351.177
28.94000 352.900
28.95000 354.496
28.96000 354.075
28.97000 352.955
28.98000 351.930
28.99000 350.120
29.00000 348.347
29.01000 347.017
29.02000 348.113
29.03000 349.577
29.04000 350.959
29.05000 352.043
29.06000 353.100
29.07000 353.861
29.08000 358.058
29.09000 361.394
29.10000 361.150
29.11000 354.899
29.12000 348.553
29.13000 346.259
29.14000 348.486
29.15000 350.709
29.16000 349.692
29.17000 346.353
29.18000 343.143
29.19000 344.298
29.20000 347.595
29.21000 350.647
29.22000 350.043
29.23000 348.217
29.24000 346.552
29.25000 343.076
29.26000 339.634
29.27000 337.939
29.28000 345.438
29.29000 354.274
29.30000 360.857
29.31000 359.560
29.32000 357.585
29.33000 356.178
29.34000 356.974
29.35000 357.652
29.36000 358.480
29.37000 359.549
29.38000 360.621
29.39000 360.767
29.40000 359.920
29.41000 359.077
29.42000 358.923
29.43000 359.247
29.44000 359.447
29.45000 355.779
29.46000 350.280
29.47000 345.001
29.48000 342.807
29.49000 341.610
29.50000 340.524
29.51000 346.399
29.52000 352.913
29.53000 358.788
29.54000 361.426
29.55000 363.614
29.56000 364.843
29.57000 362.841
29.58000 360.576
29.59000 358.979
29.60000 351.809
29.61000 346.203
29.62000 343.384
29.63000 344.917
29.64000 346.501
29.65000 346.074
29.66000 343.578
29.67000 341.095
29.68000 342.870
29.69000 347.457
29.70000 351.820
29.71000 349.817
29.72000 344.904
29.73000 340.523
29.74000 343.201
29.75000 348.080
29.76000 352.484
29.77000 357.216
29.78000 361.434
29.79000 364.453
29.80000 361.639
29.81000 358.049
29.82000 354.951
29.83000 353.457
29.84000 352.087
29.85000 351.133
29.86000 362.810
29.87000 371.970
29.88000 375.772
29.89000 371.505
29.90000 367.158
29.91000 364.632
29.92000 363.904
29.93000 363.180
29.94000 367.509
29.95000 375.009
29.96000 382.357
29.97000 385.751
29.98000 387.400
29.99000 388.709
30.00000 385.755
30.01000 381.518
30.02000 377.714
30.03000 376.107
30.04000 375.087
30.05000 374.053
30.06000 372.957
30.07000 371.852
30.08000 371.422
30.09000 373.110
30.10000 374.952
30.11000 376.222
30.12000 373.607
30.13000 371.547
30.14000 370.041
30.15000 369.341
30.16000 368.647
30.17000 369.439
30.18000 371.639
30.19000 373.823
30.20000 372.260
30.21000 368.416
30.22000 364.820
30.23000 367.180
30.24000 372.079
30.25000 376.550
30.26000 375.926
30.27000 373.822
30.28000 371.944
30.29000 364.638
30.30000 357.362
30.31000 352.456
30.32000 358.238
30.33000 365.319
30.34000 371.745
30.35000 376.184
30.36000 380.488
30.37000 383.417
30.38000 373.669
30.39000 366.099
30.40000 361.445
30.41000 360.871
30.42000 360.326
30.43000 362.186
30.44000 366.240
30.45000 370.256
30.46000 368.895
30.47000 364.374
30.48000 359.897
30.49000 356.426
30.50000 353.369
30.51000 351.025
30.52000 356.708
30.53000 364.640
30.54000 371.685
30.55000 369.436
30.56000 365.988
30.57000 363.316
30.58000 364.011
30.59000 365.096
30.60000 364.780
30.61000 360.361
30.62000 355.677
30.63000 352.528
30.64000 362.081
30.65000 369.443
30.66000 372.242
30.67000 368.895
30.68000 365.516
30.69000 364.003
30.70000 364.123
30.71000 364.243
30.72000 368.264
30.73000 374.419
30.74000 380.153
30.75000 377.150
30.76000 370.674
30.77000 365.640
30.78000 376.004
30.79000 390.527
30.80000 403.358
30.81000 399.564
30.82000 393.728
30.83000 389.025
30.84000 389.061
30.85000 389.621
30.86000 392.000
30.87000 399.520
30.88000 407.351
30.89000 412.551
30.90000 410.606
30.91000 409.035
30.92000 411.771
30.93000 420.095
30.94000 428.434
30.95000 432.361
30.96000 432.569
30.97000 432.775
30.98000 441.219
30.99000 453.970
31.00000 466.393
31.01000 472.484
31.02000 476.144
31.03000 479.676
31.04000 481.908
31.05000 483.801
31.06000 485.465
31.07000 508.004
31.08000 530.454
31.09000 551.078
31.10000 564.341
31.11000 576.828
31.12000 590.674
31.13000 608.226
31.14000 625.988
31.15000 637.633
31.16000 660.698
31.17000 677.848
31.18000 703.901
31.19000 741.079
31.20000 778.263
31.21000 805.642
31.22000 825.072
31.23000 844.233
31.24000 873.920
31.25000 908.332
31.26000 942.468
31.27000 971.640
31.28000 998.971
31.29000 1024.963
31.30000 1038.041
31.31000 1047.878
31.32000 1056.468
31.33000 1095.764
31.34000 1133.718
31.35000 1163.051
31.36000 1158.884
31.37000 1151.359
31.38000 1148.698
31.39000 1158.853
31.40000 1169.686
31.41000 1176.696
31.42000 1155.700
31.43000 1139.931
31.44000 1126.120
31.45000 1114.662
31.46000 1103.175
31.47000 1082.404
31.48000 1054.389
31.49000 1026.812
31.50000 998.004
31.51000 969.466
31.52000 940.921
31.53000 912.265
31.54000 883.569
31.55000 855.487
31.56000 833.036
31.57000 811.948
31.58000 793.642
31.59000 762.296
31.60000 733.835
31.61000 705.404
31.62000 677.089
31.63000 648.785
31.64000 624.667
31.65000 611.196
31.66000 598.251
31.67000 589.988
31.68000 559.010
31.69000 536.179
31.70000 513.821
31.71000 492.009
31.72000 470.235
31.73000 455.917
31.74000 447.203
31.75000 438.641
31.76000 438.209
31.77000 441.768
31.78000 444.794
31.79000 439.371
31.80000 431.028
31.81000 422.704
31.82000 414.548
31.83000 406.431
31.84000 399.428
31.85000 399.432
31.86000 400.334
31.87000 400.309
31.88000 396.936
31.89000 393.260
31.90000 388.049
31.91000 379.067
31.92000 369.913
31.93000 364.149
31.94000 362.025
31.95000 360.529
31.96000 361.863
31.97000 366.345
31.98000 370.794
31.99000 369.719
32.00000 364.645
32.01000 359.671
32.02000 362.724
32.03000 369.442
32.04000 374.975
32.05000 362.859
32.06000 344.855
32.07000 329.694
32.08000 338.277
32.09000 352.192
32.10000 364.121
32.11000 353.932
32.12000 342.623
32.13000 334.603
32.14000 338.050
32.15000 342.480
32.16000 347.286
32.17000 352.982
32.18000 358.717
32.19000 362.276
32.20000 347.884
32.21000 337.351
32.22000 335.444
32.23000 342.749
32.24000 350.023
32.25000 353.080
32.26000 353.194
32.27000 353.307
32.28000 350.267
32.29000 345.921
32.30000 341.807
32.31000 340.938
32.32000 341.115
32.33000 339.982
32.34000 328.398
32.35000 314.555
32.36000 302.764
32.37000 314.113
32.38000 326.353
32.39000 335.668
32.40000 335.152
32.41000 333.838
32.42000 332.525
32.43000 331.218
32.44000 329.911
32.45000 329.112
32.46000 326.171
32.47000 324.048
32.48000 325.247
32.49000 329.854
32.50000 334.410
32.51000 333.562
32.52000 329.079
32.53000 324.704
32.54000 326.811
32.55000 331.653
32.56000 335.539
32.57000 326.775
32.58000 314.079
32.59000 303.785
32.60000 311.792
32.61000 323.608
32.62000 333.605
32.63000 334.914
32.64000 335.046
32.65000 334.487
32.66000 331.689
32.67000 328.719
32.68000 325.135
32.69000 320.190
32.70000 315.195
32.71000 312.186
32.72000 318.446
32.73000 322.965
32.74000 322.754
32.75000 317.884
32.76000 313.074
32.77000 313.566
32.78000 317.494
32.79000 321.320
32.80000 337.183
32.81000 357.356
32.82000 377.428
32.83000 396.230
32.84000 414.653
32.85000 431.914
32.86000 440.714
32.87000 447.821
32.88000 453.792
32.89000 477.626
32.90000 499.371
32.91000 517.295
32.92000 523.249
32.93000 528.336
32.94000 530.939
32.95000 528.234
32.96000 525.352
32.97000 523.643
32.98000 531.328
32.99000 536.819
33.00000 539.284
33.01000 538.888
33.02000 538.370
33.03000 528.471
33.04000 512.709
33.05000 497.396
33.06000 481.765
33.07000 466.789
33.08000 451.591
33.09000 433.766
33.10000 415.182
33.11000 397.234
33.12000 383.738
33.13000 371.099
33.14000 360.552
33.15000 350.644
33.16000 342.491
33.17000 334.567
33.18000 327.339
33.19000 320.159
33.20000 314.530
33.21000 312.101
33.22000 309.769
33.23000 308.408
33.24000 309.247
33.25000 309.849
33.26000 312.352
33.27000 316.584
33.28000 320.683
33.29000 315.998
33.30000 306.016
33.31000 296.344
33.32000 290.269
33.33000 285.916
33.34000 282.072
33.35000 283.927
33.36000 287.374
33.37000 290.912
33.38000 295.064
33.39000 299.330
33.40000 302.864
33.41000 304.840
33.42000 306.322
33.43000 305.763
33.44000 299.247
33.45000 292.348
33.46000 286.737
33.47000 283.688
33.48000 280.710
33.49000 278.999
33.50000 280.088
33.51000 280.862
33.52000 283.727
33.53000 288.417
33.54000 293.003
33.55000 291.523
33.56000 286.513
33.57000 281.673
33.58000 284.666
33.59000 290.418
33.60000 295.839
33.61000 297.728
33.62000 298.667
33.63000 299.823
33.64000 302.372
33.65000 305.168
33.66000 307.467
33.67000 300.525
33.68000 293.983
33.69000 290.841
33.70000 297.280
33.71000 304.295
33.72000 307.970
33.73000 305.220
33.74000 302.310
33.75000 300.666
33.76000 294.283
33.77000 289.838
33.78000 288.157
33.79000 288.798
33.80000 289.436
33.81000 289.915
33.82000 290.304
33.83000 290.679
33.84000 292.785
33.85000 295.388
33.86000 298.163
33.87000 302.682
33.88000 307.654
33.89000 312.341
33.90000 315.280
33.91000 317.920
33.92000 320.076
33.93000 311.774
33.94000 304.085
33.95000 296.350
33.96000 288.487
33.97000 280.617
33.98000 279.665
33.99000 291.551
34.00000 303.725
34.01000 310.486
34.02000 311.186
34.03000 311.660
34.04000 313.160
34.05000 315.489
34.06000 317.759
34.07000 317.377
34.08000 315.557
34.09000 313.809
34.10000 313.730
34.11000 314.233
34.12000 315.107
34.13000 319.546
34.14000 324.877
34.15000 328.685
34.16000 323.507
34.17000 316.857
34.18000 311.472
34.19000 317.960
34.20000 324.208
34.21000 328.720
34.22000 328.669
34.23000 328.379
34.24000 327.814
34.25000 326.760
34.26000 325.695
34.27000 325.115
34.28000 332.129
34.29000 336.943
34.30000 338.317
34.31000 337.017
34.32000 335.737
34.33000 335.319
34.34000 335.352
34.35000 335.383
34.36000 333.510
34.37000 331.130
34.38000 329.054
34.39000 329.769
34.40000 331.157
34.41000 332.028
34.42000 329.977
34.43000 327.466
34.44000 325.449
34.45000 324.753
34.46000 324.291
34.47000 323.105
34.48000 320.085
34.49000 316.974
34.50000 316.228
34.51000 319.569
34.52000 322.982
34.53000 324.810
34.54000 314.825
34.55000 308.035
34.56000 307.945
34.57000 312.873
34.58000 317.671
34.59000 317.632
34.60000 315.150
34.61000 312.780
34.62000 308.586
34.63000 304.105
34.64000 300.088
34.65000 300.117
34.66000 301.086
34.67000 301.863
34.68000 301.589
34.69000 301.157
34.70000 300.813
34.71000 293.181
34.72000 286.495
34.73000 283.188
34.74000 288.159
34.75000 293.507
34.76000 294.441
34.77000 288.013
34.78000 281.471
34.79000 278.031
34.80000 282.713
34.81000 285.873
34.82000 286.199
34.83000 284.480
34.84000 282.861
34.85000 284.567
34.86000 287.895
34.87000 291.062
34.88000 286.598
34.89000 280.115
34.90000 274.161
34.91000 272.603
34.92000 272.028
34.93000 271.201
34.94000 269.051
34.95000 266.710
34.96000 264.860
34.97000 267.194
34.98000 269.354
34.99000 272.236
35.00000 276.825
35.01000 281.486
35.02000 281.436
35.03000 273.806
35.04000 266.074
35.05000 262.087
35.06000 269.328
35.07000 274.183
35.08000 275.818
35.09000 275.214
35.10000 274.549
35.11000 271.980
35.12000 268.515
35.13000 265.228
35.14000 268.020
35.15000 272.393
35.16000 275.577
35.17000 269.312
35.18000 261.011
35.19000 255.193
35.20000 261.857
35.21000 270.246
35.22000 276.820
35.23000 272.092
35.24000 267.584
35.25000 265.053
35.26000 267.039
35.27000 269.202
35.28000 269.641
35.29000 267.404
35.30000 265.136
35.31000 263.990
35.32000 261.603
35.33000 260.038
35.34000 261.782
35.35000 265.743
35.36000 269.508
35.37000 267.796
35.38000 263.593
35.39000 259.620
35.40000 262.288
35.41000 266.629
35.42000 270.461
35.43000 270.429
35.44000 269.596
35.45000 268.669
35.46000 267.286
35.47000 265.844
35.48000 264.723
35.49000 264.409
35.50000 264.208
35.51000 264.025
35.52000 263.884
35.53000 263.744
35.54000 264.678
35.55000 267.220
35.56000 269.777
35.57000 269.045
35.58000 265.086
35.59000 261.149
35.60000 259.174
35.61000 258.467
35.62000 257.886
35.63000 260.544
35.64000 264.623
35.65000 268.464
35.66000 267.931
35.67000 266.246
35.68000 264.332
35.69000 260.752
35.70000 256.840
35.71000 253.696
35.72000 254.127
35.73000 255.010
35.74000 255.690
35.75000 255.451
35.76000 255.209
35.77000 254.926
35.78000 254.555
35.79000 254.180
35.80000 254.943
35.81000 257.344
35.82000 259.759
35.83000 259.188
35.84000 255.805
35.85000 252.409
35.86000 248.084
35.87000 243.180
35.88000 238.746
35.89000 245.484
35.90000 256.958
35.91000 267.721
35.92000 265.319
35.93000 259.669
35.94000 254.082
35.95000 248.935
35.96000 243.873
35.97000 241.442
35.98000 250.799
35.99000 261.579
36.00000 269.803
36.01000 262.611
36.02000 256.120
36.03000 251.544
36.04000 250.910
36.05000 250.395
36.06000 252.661
36.07000 258.796
36.08000 264.954
36.09000 265.661
36.10000 261.437
36.11000 257.203
36.12000 252.242
36.13000 246.844
36.14000 241.746
36.15000 243.262
36.16000 247.484
36.17000 251.430
36.18000 256.291
36.19000 260.933
36.20000 264.892
36.21000 264.305
36.22000 262.879
36.23000 261.723
36.24000 261.727
36.25000 261.865
36.26000 261.970
36.27000 256.361
36.28000 251.678
36.29000 249.746
36.30000 253.278
36.31000 256.959
36.32000 258.938
36.33000 258.638
36.34000 258.327
36.35000 257.184
36.36000 255.321
36.37000 253.451
36.38000 251.223
36.39000 248.788
36.40000 246.401
36.41000 245.006
36.42000 244.004
36.43000 243.071
36.44000 247.087
36.45000 251.918
36.46000 256.497
36.47000 259.463
36.48000 262.144
36.49000 264.149
36.50000 263.344
36.51000 262.231
36.52000 261.397
36.53000 254.566
36.54000 248.955
36.55000 245.566
36.56000 246.439
36.57000 247.417
36.58000 246.970
36.59000 244.687
36.60000 242.399
36.61000 243.413
36.62000 247.181
36.63000 250.947
36.64000 254.668
36.65000 258.363
36.66000 261.950
36.67000 263.496
36.68000 264.262
36.69000 264.972
36.70000 265.356
36.71000 265.626
36.72000 265.708
36.73000 264.637
36.74000 263.370
36.75000 261.133
36.76000 255.005
36.77000 248.470
36.78000 243.626
36.79000 250.874
36.80000 257.028
36.81000 261.356
36.82000 262.302
36.83000 263.174
36.84000 263.762
36.85000 263.997
36.86000 264.230
36.87000 262.042
36.88000 257.920
36.89000 253.966
36.90000 257.619
36.91000 265.382
36.92000 272.499
36.93000 268.111
36.94000 259.482
36.95000 251.518
36.96000 255.643
36.97000 262.042
36.98000 267.271
36.99000 265.620
37.00000 262.844
37.01000 261.229
37.02000 264.092
37.03000 267.401
37.04000 269.829
37.05000 257.464
37.06000 247.311
37.07000 244.588
37.08000 255.139
37.09000 265.952
37.10000 268.352
37.11000 260.705
37.12000 253.055
37.13000 252.736
37.14000 258.069
37.15000 263.310
37.16000 264.776
37.17000 264.273
37.18000 263.713
37.19000 262.199
37.20000 260.346
37.21000 258.644
37.22000 257.066
37.23000 255.684
37.24000 254.610
37.25000 255.271
37.26000 256.204
37.27000 256.215
37.28000 252.791
37.29000 249.042
37.30000 246.319
37.31000 244.772
37.32000 243.626
37.33000 243.936
37.34000 246.753
37.35000 249.615
37.36000 251.277
37.37000 251.562
37.38000 251.844
37.39000 248.770
37.40000 243.230
37.41000 237.965
37.42000 242.711
37.43000 252.497
37.44000 261.617
37.45000 260.293
37.46000 255.380
37.47000 250.888
37.48000 247.939
37.49000 245.636
37.50000 243.856
37.51000 244.906
37.52000 246.381
37.53000 247.830
37.54000 249.182
37.55000 250.525
37.56000 251.490
37.57000 248.180
37.58000 245.498
37.59000 241.749
37.60000 236.225
37.61000 230.673
37.62000 232.330
37.63000 241.947
37.64000 251.533
37.65000 253.607
37.66000 250.310
37.67000 247.068
37.68000 245.647
37.69000 245.111
37.70000 244.852
37.71000 248.665
37.72000 253.830
37.73000 258.532
37.74000 253.620
37.75000 247.375
37.76000 241.650
37.77000 238.637
37.78000 236.014
37.79000 235.109
37.80000 240.155
37.81000 245.707
37.82000 249.654
37.83000 250.765
37.84000 251.521
37.85000 251.948
37.86000 251.849
37.87000 251.744
37.88000 250.269
37.89000 247.340
37.90000 244.426
37.91000 245.096
37.92000 248.217
37.93000 251.240
37.94000 251.309
37.95000 249.990
37.96000 248.673
37.97000 247.390
37.98000 246.117
37.99000 244.964
38.00000 251.585
38.01000 258.892
38.02000 263.613
38.03000 255.371
38.04000 245.345
38.05000 238.064
38.06000 239.959
38.07000 242.593
38.08000 244.444
38.09000 244.091
38.10000 243.759
38.11000 245.846
38.12000 251.678
38.13000 257.553
38.14000 258.611
38.15000 254.763
38.16000 250.937
38.17000 250.250
38.18000 251.642
38.19000 253.139
38.20000 257.582
38.21000 263.361
38.22000 268.660
38.23000 267.680
38.24000 264.760
38.25000 262.128
38.26000 265.026
38.27000 268.573
38.28000 271.600
38.29000 272.121
38.30000 272.313
38.31000 274.507
38.32000 283.164
38.33000 292.312
38.34000 298.670
38.35000 291.803
38.36000 286.272
38.37000 285.342
38.38000 291.274
38.39000 297.272
38.40000 300.501
38.41000 301.023
38.42000 301.541
38.43000 310.960
38.44000 325.875
38.45000 340.683
38.46000 352.729
38.47000 363.567
38.48000 374.477
38.49000 386.287
38.50000 398.366
38.51000 409.196
38.52000 437.041
38.53000 464.328
38.54000 488.544
38.55000 498.509
38.56000 506.680
38.57000 518.538
38.58000 541.876
38.59000 566.037
38.60000 582.632
38.61000 619.921
38.62000 648.389
38.63000 671.658
38.64000 687.450
38.65000 703.182
38.66000 718.151
38.67000 732.402
38.68000 746.536
38.69000 754.531
38.70000 758.634
38.71000 762.443
38.72000 759.275
38.73000 753.158
38.74000 746.574
38.75000 734.522
38.76000 720.895
38.77000 708.742
38.78000 708.009
38.79000 709.271
38.80000 704.686
38.81000 673.978
38.82000 640.131
38.83000 612.570
38.84000 603.902
38.85000 596.510
38.86000 591.493
38.87000 551.306
38.88000 520.545
38.89000 494.368
38.90000 474.545
38.91000 454.767
38.92000 440.679
38.93000 431.727
38.94000 422.860
38.95000 407.019
38.96000 387.410
38.97000 367.920
38.98000 351.020
38.99000 335.178
39.00000 319.940
39.01000 311.407
39.02000 304.736
39.03000 298.818
39.04000 297.645
39.05000 297.385
39.06000 295.152
39.07000 284.437
39.08000 272.749
39.09000 263.741
39.10000 262.503
39.11000 261.759
39.12000 261.260
39.13000 260.614
39.14000 260.132
39.15000 258.521
39.16000 255.403
39.17000 252.277
39.18000 248.292
39.19000 243.561
39.20000 238.884
39.21000 239.084
39.22000 242.035
39.23000 245.032
39.24000 248.952
39.25000 253.237
39.26000 256.848
39.27000 253.352
39.28000 247.955
39.29000 243.193
39.30000 240.932
39.31000 239.362
39.32000 239.152
39.33000 244.577
39.34000 250.618
39.35000 253.401
39.36000 247.062
39.37000 240.180
39.38000 235.624
39.39000 236.858
39.40000 237.873
39.41000 239.658
39.42000 242.433
39.43000 245.200
39.44000 242.444
39.45000 235.079
39.46000 227.808
39.47000 224.342
39.48000 223.036
39.49000 221.943
39.50000 224.910
39.51000 229.421
39.52000 233.704
39.53000 235.712
39.54000 237.133
39.55000 238.379
39.56000 237.796
39.57000 237.029
39.58000 237.192
39.59000 241.071
39.60000 245.336
39.61000 246.113
39.62000 237.456
39.63000 228.274
39.64000 222.273
39.65000 227.249
39.66000 231.081
39.67000 231.877
39.68000 228.918
39.69000 225.957
39.70000 226.230
39.71000 229.099
39.72000 231.926
39.73000 229.577
39.74000 224.588
39.75000 220.020
39.76000 222.911
39.77000 228.544
39.78000 233.393
39.79000 230.775
39.80000 226.299
39.81000 222.396
39.82000 225.013
39.83000 228.157
39.84000 230.014
39.85000 226.918
39.86000 223.331
39.87000 221.408
39.88000 223.826
39.89000 226.470
39.90000 228.175
39.91000 228.535
39.92000 228.778
39.93000 229.116
39.94000 229.567
39.95000 230.016
39.96000 230.047
39.97000 229.755
39.98000 229.468
39.99000 226.581
40.00000 222.476
40.01000 218.641
40.02000 219.288
40.03000 221.527
40.04000 223.314
40.05000 221.004
40.06000 217.712
40.07000 214.859
40.08000 221.834
40.09000 229.077
40.10000 233.848
40.11000 229.446
40.12000 224.180
40.13000 221.904
40.14000 227.167
40.15000 232.795
40.16000 236.375
40.17000 227.049
40.18000 220.112
40.19000 219.714
40.20000 226.804
40.21000 233.861
40.22000 233.142
40.23000 226.636
40.24000 220.247
40.25000 221.866
40.26000 227.308
40.27000 232.487
40.28000 233.582
40.29000 233.277
40.30000 232.667
40.31000 229.413
40.32000 225.550
40.33000 222.222
40.34000 224.110
40.35000 226.371
40.36000 227.130
40.37000 222.513
40.38000 217.416
40.39000 213.904
40.40000 214.254
40.41000 214.777
40.42000 215.106
40.43000 216.781
40.44000 218.007
40.45000 218.764
40.46000 219.007
40.47000 219.243
40.48000 218.593
40.49000 217.307
40.50000 216.047
40.51000 217.436
40.52000 220.008
40.53000 222.398
40.54000 222.118
40.55000 220.955
40.56000 220.191
40.57000 222.724
40.58000 225.990
40.59000 228.785
40.60000 224.763
40.61000 220.547
40.62000 217.619
40.63000 219.146
40.64000 221.050
40.65000 221.514
40.66000 218.593
40.67000 215.530
40.68000 213.636
40.69000 214.412
40.70000 214.996
40.71000 217.455
40.72000 221.899
40.73000 226.320
40.74000 227.860
40.75000 227.411
40.76000 226.971
40.77000 218.909
40.78000 207.758
40.79000 197.697
40.80000 202.693
40.81000 212.497
40.82000 221.102
40.83000 220.268
40.84000 217.413
40.85000 214.985
40.86000 212.783
40.87000 210.960
40.88000 210.339
40.89000 213.725
40.90000 217.432
40.91000 218.202
40.92000 212.303
40.93000 206.148
40.94000 202.397
40.95000 211.180
40.96000 217.556
40.97000 217.760
40.98000 211.697
40.99000 205.692
41.00000 205.618
41.01000 209.495
41.02000 213.278
41.03000 212.361
41.04000 209.456
41.05000 206.935
41.06000 209.434
41.07000 213.479
41.08000 217.651
41.09000 222.786
41.10000 228.119
41.11000 232.623
41.12000 222.852
41.13000 213.117
41.14000 205.790
41.15000 206.204
41.16000 207.203
41.17000 208.096
41.18000 208.758
41.19000 209.412
41.20000 209.804
41.21000 212.903
41.22000 215.123
41.23000 216.214
41.24000 216.204
41.25000 216.179
41.26000 214.917
41.27000 212.858
41.28000 210.855
41.29000 210.167
41.30000 210.058
41.31000 209.703
41.32000 206.312
41.33000 202.018
41.34000 198.127
41.35000 197.141
41.36000 196.731
41.37000 196.387
41.38000 196.961
41.39000 197.535
41.40000 198.061
41.41000 198.441
41.42000 198.811
41.43000 199.526
41.44000 200.969
41.45000 202.437
41.46000 203.304
41.47000 208.769
41.48000 212.654
41.49000 213.458
41.50000 211.378
41.51000 209.274
41.52000 205.440
41.53000 200.535
41.54000 195.771
41.55000 197.410
41.56000 201.526
41.57000 205.575
41.58000 208.853
41.59000 211.909
41.60000 214.475
41.61000 213.660
41.62000 212.201
41.63000 210.985
41.64000 206.284
41.65000 202.044
41.66000 199.079
41.67000 199.936
41.68000 201.050
41.69000 202.707
41.70000 205.476
41.71000 208.277
41.72000 209.906
41.73000 204.755
41.74000 201.109
41.75000 201.088
41.76000 204.327
41.77000 207.537
41.78000 208.900
41.79000 209.160
41.80000 209.412
41.81000 211.781
41.82000 214.836
41.83000 217.297
41.84000 213.178
41.85000 207.239
41.86000 201.787
41.87000 199.558
41.88000 197.919
41.89000 196.564
41.90000 203.936
41.91000 210.838
41.92000 215.516
41.93000 213.762
41.94000 211.603
41.95000 210.242
41.96000 210.459
41.97000 210.718
41.98000 210.866
41.99000 205.686
42.00000 202.056
42.01000 203.114
42.02000 208.226
42.03000 213.290
42.04000 215.686
42.05000 216.543
42.06000 217.371
42.07000 217.430
42.08000 217.199
42.09000 217.047
42.10000 217.716
42.11000 218.603
42.12000 219.342
42.13000 219.145
42.14000 218.783
42.15000 218.486
42.16000 214.135
42.17000 210.201
42.18000 207.619
42.19000 208.814
42.20000 210.232
42.21000 211.135
42.22000 211.055
42.23000 210.951
42.24000 210.892
42.25000 222.952
42.26000 231.331
42.27000 228.658
42.28000 216.793
42.29000 205.198
42.30000 207.008
42.31000 216.278
42.32000 225.205
42.33000 220.232
42.34000 210.612
42.35000 201.854
42.36000 201.691
42.37000 203.741
42.38000 205.414
42.39000 204.802
42.40000 203.805
42.41000 202.992
42.42000 209.748
42.43000 215.910
42.44000 219.695
42.45000 217.070
42.46000 214.090
42.47000 212.387
42.48000 213.032
42.49000 213.729
42.50000 214.114
42.51000 211.357
42.52000 209.457
42.53000 210.160
42.54000 212.945
42.55000 215.618
42.56000 213.322
42.57000 208.359
42.58000 203.594
42.59000 204.820
42.60000 208.020
42.61000 210.854
42.62000 210.212
42.63000 208.707
42.64000 206.757
42.65000 202.207
42.66000 197.235
42.67000 193.216
42.68000 201.655
42.69000 209.518
42.70000 215.596
42.71000 217.022
42.72000 218.208
42.73000 215.480
42.74000 205.803
42.75000 195.993
42.76000 190.664
42.77000 195.799
42.78000 199.316
42.79000 199.003
42.80000 195.738
42.81000 192.658
42.82000 196.927
42.83000 205.007
42.84000 212.741
42.85000 210.995
42.86000 206.243
42.87000 201.795
42.88000 200.094
42.89000 199.049
42.90000 198.128
42.91000 197.905
42.92000 197.791
42.93000 197.699
42.94000 200.258
42.95000 202.531
42.96000 203.331
42.97000 200.424
42.98000 197.338
42.99000 198.751
43.00000 207.870
43.01000 217.121
43.02000 222.054
43.03000 208.556
43.04000 199.366
43.05000 193.795
43.06000 190.909
43.07000 188.104
43.08000 188.170
43.09000 189.674
43.10000 191.108
43.11000 195.638
43.12000 200.825
43.13000 205.386
43.14000 204.559
43.15000 202.493
43.16000 200.613
43.17000 199.740
43.18000 199.018
43.19000 198.443
43.20000 195.193
43.21000 192.382
43.22000 190.527
43.23000 190.991
43.24000 191.559
43.25000 189.526
43.26000 183.196
43.27000 176.801
43.28000 173.455
43.29000 186.357
43.30000 195.041
43.31000 195.416
43.32000 189.851
43.33000 184.447
43.34000 184.284
43.35000 186.653
43.36000 188.906
43.37000 194.520
43.38000 200.736
43.39000 206.092
43.40000 204.386
43.41000 201.114
43.42000 197.513
43.43000 192.210
43.44000 186.664
43.45000 182.290
43.46000 186.282
43.47000 190.049
43.48000 193.633
43.49000 196.790
43.50000 199.929
43.51000 198.717
43.52000 190.567
43.53000 182.327
43.54000 178.099
43.55000 185.859
43.56000 191.035
43.57000 190.938
43.58000 187.209
43.59000 183.688
43.60000 186.384
43.61000 191.980
43.62000 197.284
43.63000 196.606
43.64000 194.227
43.65000 192.463
43.66000 195.522
43.67000 199.610
43.68000 202.387
43.69000 198.631
43.70000 193.982
43.71000 190.347
43.72000 190.215
43.73000 190.333
43.74000 191.531
43.75000 195.177
43.76000 198.917
43.77000 201.242
43.78000 201.394
43.79000 201.522
43.80000 201.586
43.81000 198.504
43.82000 196.468
43.83000 196.652
43.84000 198.309
43.85000 199.857
43.86000 198.403
43.87000 195.598
43.88000 192.948
43.89000 190.401
43.90000 188.093
43.91000 185.880
43.92000 184.389
43.93000 183.046
43.94000 182.829
43.95000 188.006
43.96000 193.888
43.97000 198.448
43.98000 191.199
43.99000 184.734
44.00000 181.238
44.01000 184.236
44.02000 187.462
44.03000 190.394
44.04000 192.889
44.05000 195.379
44.06000 197.392
44.07000 198.940
44.08000 200.424
44.09000 196.507
44.10000 189.133
44.11000 182.051
44.12000 182.357
44.13000 185.878
44.14000 189.190
44.15000 188.179
44.16000 186.084
44.17000 184.507
44.18000 186.652
44.19000 189.532
44.20000 192.292
44.21000 194.499
44.22000 196.637
44.23000 198.280
44.24000 195.263
44.25000 192.617
44.26000 190.413
44.27000 189.146
44.28000 187.908
44.29000 189.056
44.30000 193.612
44.31000 198.194
44.32000 197.307
44.33000 191.321
44.34000 185.440
44.35000 187.173
44.36000 193.608
44.37000 199.733
44.38000 198.630
44.39000 194.490
44.40000 190.610
44.41000 193.709
44.42000 198.347
44.43000 201.916
44.44000 198.126
44.45000 192.939
44.46000 190.007
44.47000 197.083
44.48000 205.352
44.49000 211.647
44.50000 208.131
44.51000 204.847
44.52000 203.244
44.53000 205.066
44.54000 206.989
44.55000 208.295
44.56000 208.751
44.57000 209.202
44.58000 209.575
44.59000 209.878
44.60000 210.177
44.61000 210.258
44.62000 210.209
44.63000 210.356
44.64000 214.740
44.65000 220.844
44.66000 226.541
44.67000 224.041
44.68000 219.724
44.69000 215.889
44.70000 215.227
44.71000 215.144
44.72000 214.959
44.73000 214.337
44.74000 213.665
44.75000 213.159
44.76000 213.058
44.77000 212.999
44.78000 213.373
44.79000 214.599
44.80000 215.848
44.81000 216.728
44.82000 217.118
44.83000 217.506
44.84000 219.524
44.85000 222.938
44.86000 226.260
44.87000 224.407
44.88000 219.581
44.89000 215.095
44.90000 217.457
44.91000 222.503
44.92000 227.195
44.93000 228.495
44.94000 228.856
44.95000 228.550
44.96000 224.035
44.97000 218.782
44.98000 214.700
44.99000 215.442
45.00000 216.707
45.01000 217.652
45.02000 224.782
45.03000 230.623
45.04000 233.380
45.05000 230.279
45.06000 227.037
45.07000 226.065
45.08000 227.993
45.09000 229.930
45.10000 229.944
45.11000 228.369
45.12000 226.794
45.13000 225.264
45.14000 223.757
45.15000 222.266
45.16000 221.074
45.17000 219.996
45.18000 218.997
45.19000 222.048
45.20000 225.726
45.21000 228.498
45.22000 225.782
45.23000 222.144
45.24000 219.427
45.25000 220.370
45.26000 221.692
45.27000 222.669
45.28000 218.251
45.29000 214.595
45.30000 210.980
45.31000 207.445
45.32000 203.911
45.33000 203.791
45.34000 207.870
45.35000 211.952
45.36000 214.926
45.37000 217.005
45.38000 218.951
45.39000 215.002
45.40000 207.897
45.41000 201.192
45.42000 201.516
45.43000 204.407
45.44000 207.073
45.45000 205.630
45.46000 203.429
45.47000 201.463
45.48000 200.865
45.49000 200.488
45.50000 200.660
45.51000 202.928
45.52000 205.403
45.53000 207.214
45.54000 201.174
45.55000 196.200
45.56000 193.002
45.57000 192.948
45.58000 192.954
45.59000 193.215
45.60000 193.777
45.61000 194.338
45.62000 195.898
45.63000 198.211
45.64000 200.334
45.65000 194.986
45.66000 185.776
45.67000 177.142
45.68000 177.962
45.69000 182.119
45.70000 185.933
45.71000 186.869
45.72000 187.092
45.73000 187.549
45.74000 189.314
45.75000 191.280
45.76000 192.061
45.77000 188.462
45.78000 184.455
45.79000 181.552
45.80000 175.775
45.81000 171.233
45.82000 170.241
45.83000 175.313
45.84000 180.488
45.85000 181.756
45.86000 178.578
45.87000 175.407
45.88000 175.215
45.89000 177.212
45.90000 179.145
45.91000 178.790
45.92000 177.292
45.93000 176.104
45.94000 179.672
45.95000 184.861
45.96000 189.600
45.97000 188.880
45.98000 187.129
45.99000 185.338
46.00000 183.334
46.01000 181.297
46.02000 179.646
46.03000 179.363
46.04000 179.202
46.05000 179.087
46.06000 174.412
46.07000 170.685
46.08000 169.195
46.09000 171.391
46.10000 173.641
46.11000 174.782
46.12000 174.708
46.13000 174.634
46.14000 172.009
46.15000 167.608
46.16000 163.478
46.17000 168.168
46.18000 177.107
46.19000 185.570
46.20000 187.126
46.21000 186.410
46.22000 185.759
46.23000 182.162
46.24000 178.407
46.25000 174.525
46.26000 169.992
46.27000 165.366
46.28000 163.918
46.29000 173.382
46.30000 183.760
46.31000 191.117
46.32000 178.662
46.33000 168.570
46.34000 163.973
46.35000 168.109
46.36000 172.358
46.37000 174.511
46.38000 174.463
46.39000 174.415
46.40000 178.323
46.41000 184.871
46.42000 191.169
46.43000 190.053
46.44000 185.487
46.45000 181.201
46.46000 180.738
46.47000 181.489
46.48000 182.168
46.49000 180.199
46.50000 177.969
46.51000 175.406
46.52000 171.193
46.53000 166.755
46.54000 164.091
46.55000 167.306
46.56000 170.988
46.57000 173.569
46.58000 174.250
46.59000 174.712
46.60000 174.448
46.61000 173.073
46.62000 171.685
46.63000 170.500
46.64000 169.518
46.65000 168.543
46.66000 168.527
46.67000 169.138
46.68000 169.762
46.69000 170.733
46.70000 171.860
46.71000 173.116
46.72000 176.034
46.73000 179.462
46.74000 182.548
46.75000 181.835
46.76000 180.528
46.77000 178.883
46.78000 175.620
46.79000 172.146
46.80000 169.559
46.81000 169.806
46.82000 170.266
46.83000 170.585
46.84000 169.979
46.85000 169.499
46.86000 171.126
46.87000 175.870
46.88000 180.642
46.89000 179.275
46.90000 171.964
46.91000 164.707
46.92000 164.651
46.93000 169.120
46.94000 173.297
46.95000 170.163
46.96000 163.857
46.97000 158.190
46.98000 160.326
46.99000 164.768
47.00000 168.745
47.01000 170.698
47.02000 172.054
47.03000 173.961
47.04000 178.402
47.05000 183.158
47.06000 184.631
47.07000 175.972
47.08000 166.598
47.09000 160.178
47.10000 164.848
47.11000 168.611
47.12000 171.278
47.13000 172.385
47.14000 173.480
47.15000 173.167
47.16000 171.544
47.17000 169.935
47.18000 167.155
47.19000 163.718
47.20000 160.563
47.21000 163.954
47.22000 170.087
47.23000 175.288
47.24000 169.712
47.25000 161.065
47.26000 153.362
47.27000 157.491
47.28000 163.027
47.29000 167.600
47.30000 167.914
47.31000 167.722
47.32000 166.897
47.33000 164.191
47.34000 161.359
47.35000 159.442
47.36000 161.533
47.37000 163.178
47.38000 161.948
47.39000 156.773
47.40000 151.577
47.41000 150.823
47.42000 154.039
47.43000 157.222
47.44000 158.498
47.45000 158.637
47.46000 158.929
47.47000 162.507
47.48000 167.415
47.49000 171.722
47.50000 169.460
47.51000 165.391
47.52000 161.787
47.53000 162.094
47.54000 162.977
47.55000 163.371
47.56000 161.683
47.57000 159.760
47.58000 158.683
47.59000 160.041
47.60000 161.551
47.61000 162.560
47.62000 172.201
47.63000 179.515
47.64000 178.751
47.65000 167.305
47.66000 155.822
47.67000 153.960
47.68000 160.363
47.69000 166.692
47.70000 166.922
47.71000 163.734
47.72000 160.700
47.73000 160.726
47.74000 161.947
47.75000 163.198
47.76000 164.756
47.77000 166.396
47.78000 167.840
47.79000 163.826
47.80000 159.546
47.81000 156.792
47.82000 160.307
47.83000 164.499
47.84000 168.197
47.85000 170.521
47.86000 172.765
47.87000 174.246
47.88000 170.332
47.89000 167.351
47.90000 163.630
47.91000 158.965
47.92000 154.301
47.93000 151.624
47.94000 150.590
47.95000 149.569
47.96000 151.182
47.97000 154.168
47.98000 157.119
47.99000 159.412
48.00000 161.457
48.01000 163.060
48.02000 160.291
48.03000 156.404
48.04000 153.000
48.05000 156.406
48.06000 160.307
48.07000 163.392
48.08000 163.244
48.09000 162.765
48.10000 161.290
48.11000 157.147
48.12000 152.857
48.13000 150.063
48.14000 149.735
48.15000 149.532
48.16000 151.690
48.17000 156.739
48.18000 161.777
48.19000 161.227
48.20000 156.232
48.21000 151.310
48.22000 148.356
48.23000 146.508
48.24000 144.778
48.25000 145.092
48.26000 146.151
48.27000 147.418
48.28000 150.640
48.29000 154.345
48.30000 157.570
48.31000 153.389
48.32000 148.800
48.33000 146.168
48.34000 151.002
48.35000 156.565
48.36000 160.613
48.37000 160.737
48.38000 160.659
48.39000 160.609
48.40000 161.248
48.41000 161.723
48.42000 161.281
48.43000 159.756
48.44000 158.234
48.45000 157.696
48.46000 157.913
48.47000 158.126
48.48000 158.338
48.49000 158.541
48.50000 158.789
48.51000 159.769
48.52000 161.005
48.53000 161.917
48.54000 159.920
48.55000 157.232
48.56000 154.906
48.57000 154.392
48.58000 154.192
48.59000 154.533
48.60000 156.863
48.61000 159.378
48.62000 161.082
48.63000 160.760
48.64000 160.340
48.65000 160.075
48.66000 162.102
48.67000 163.601
48.68000 164.206
48.69000 163.797
48.70000 163.386
48.71000 162.991
48.72000 162.607
48.73000 162.230
48.74000 162.461
48.75000 162.976
48.76000 163.395
48.77000 162.363
48.78000 160.836
48.79000 159.718
48.80000 162.083
48.81000 165.245
48.82000 167.964
48.83000 165.683
48.84000 163.125
48.85000 161.107
48.86000 161.006
48.87000 161.074
48.88000 160.621
48.89000 158.912
48.90000 157.148
48.91000 156.045
48.92000 154.629
48.93000 153.605
48.94000 152.712
48.95000 151.964
48.96000 151.231
48.97000 152.551
48.98000 155.330
48.99000 158.052
49.00000 159.291
49.01000 159.797
49.02000 160.362
49.03000 161.774
49.04000 163.463
49.05000 164.211
49.06000 157.278
49.07000 148.654
49.08000 141.284
49.09000 148.553
49.10000 156.427
49.11000 162.323
49.12000 161.454
49.13000 160.020
49.14000 159.570
49.15000 161.413
49.16000 163.350
49.17000 164.544
49.18000 163.036
49.19000 161.929
49.20000 158.254
49.21000 151.889
49.22000 145.560
49.23000 143.414
49.24000 144.132
49.25000 144.834
49.26000 147.356
49.27000 150.580
49.28000 153.675
49.29000 155.001
49.30000 155.767
49.31000 156.432
49.32000 156.309
49.33000 156.019
49.34000 155.772
49.35000 156.521
49.36000 157.262
49.37000 157.571
49.38000 156.452
49.39000 155.220
49.40000 154.065
49.41000 153.081
49.42000 152.103
49.43000 151.510
49.44000 152.128
49.45000 152.579
49.46000 152.626
49.47000 152.267
49.48000 151.921
49.49000 152.792
49.50000 154.467
49.51000 156.099
49.52000 154.769
49.53000 152.230
49.54000 149.682
49.55000 147.000
49.56000 144.277
49.57000 142.311
49.58000 145.984
49.59000 150.808
49.60000 154.875
49.61000 156.276
49.62000 157.156
49.63000 158.923
49.64000 163.513
49.65000 168.313
49.66000 169.296
49.67000 161.981
49.68000 154.378
49.69000 149.832
49.70000 152.520
49.71000 154.474
49.72000 155.963
49.73000 157.004
49.74000 158.007
49.75000 155.941
49.76000 151.920
49.77000 148.009
49.78000 151.969
49.79000 158.976
49.80000 165.168
49.81000 161.464
49.82000 154.844
49.83000 149.111
49.84000 149.706
49.85000 151.542
49.86000 153.080
49.87000 153.776
49.88000 154.268
49.89000 153.834
49.90000 150.549
49.91000 147.064
49.92000 144.980
49.93000 145.839
49.94000 146.791
49.95000 147.351
49.96000 152.514
49.97000 156.180
49.98000 157.542
49.99000 156.767
50.00000 155.961
50.01000 152.899
50.02000 148.452
50.03000 144.138
50.04000 142.040
50.05000 140.929
50.06000 139.771
50.07000 138.075
50.08000 136.227
50.09000 135.430
50.10000 141.810
50.11000 149.545
50.12000 155.977
50.13000 159.736
50.14000 162.586
50.15000 163.308
50.16000 157.709
50.17000 151.692
50.18000 147.512
50.19000 147.054
50.20000 146.704
50.21000 146.502
50.22000 147.708
50.23000 148.561
50.24000 149.548
50.25000 150.655
50.26000 151.751
50.27000 152.188
50.28000 152.235
50.29000 152.280
50.30000 151.099
50.31000 149.515
50.32000 148.115
50.33000 148.720
50.34000 149.876
50.35000 150.409
50.36000 146.859
50.37000 142.569
50.38000 139.028
50.39000 149.201
50.40000 158.855
50.41000 166.558
50.42000 168.663
50.43000 170.421
50.44000 169.753
50.45000 164.339
50.46000 158.801
50.47000 155.645
50.48000 158.583
50.49000 160.650
50.50000 161.202
50.51000 160.457
50.52000 159.736
50.53000 160.258
50.54000 161.491
50.55000 162.680
50.56000 163.273
50.57000 163.612
50.58000 163.873
50.59000 163.334
50.60000 162.584
50.61000 161.741
50.62000 160.321
50.63000 158.801
50.64000 157.556
50.65000 157.598
50.66000 157.745
50.67000 157.965
50.68000 158.384
50.69000 158.814
50.70000 158.791
50.71000 157.913
50.72000 157.015
50.73000 156.512
50.74000 152.128
50.75000 149.089
50.76000 149.468
50.77000 152.665
50.78000 155.850
50.79000 158.506
50.80000 160.869
50.81000 163.144
50.82000 168.096
50.83000 173.687
50.84000 178.393
50.85000 174.389
50.86000 168.166
50.87000 162.110
50.88000 157.067
50.89000 152.193
50.90000 148.230
50.91000 152.084
50.92000 155.883
50.93000 157.623
50.94000 153.860
50.95000 149.797
50.96000 148.023
50.97000 150.422
50.98000 152.910
50.99000 154.279
51.00000 151.698
51.01000 149.911
51.02000 147.616
51.03000 144.918
51.04000 142.327
51.05000 144.377
51.06000 148.896
51.07000 153.232
51.08000 154.931
51.09000 155.625
51.10000 156.190
51.11000 155.561
51.12000 154.639
51.13000 153.337
51.14000 149.846
51.15000 146.002
51.16000 142.902
51.17000 148.799
51.18000 154.301
51.19000 156.745
51.20000 151.293
51.21000 145.440
51.22000 141.933
51.23000 142.553
51.24000 143.251
51.25000 143.628
51.26000 147.465
51.27000 150.080
51.28000 149.209
51.29000 145.677
51.30000 142.234
51.31000 142.267
51.32000 144.084
51.33000 145.823
51.34000 142.391
51.35000 137.509
51.36000 133.297
51.37000 135.075
51.38000 138.271
51.39000 141.127
51.40000 142.100
51.41000 142.783
51.42000 143.330
51.43000 142.754
51.44000 142.205
51.45000 142.068
51.46000 142.956
51.47000 143.892
51.48000 144.025
51.49000 142.794
51.50000 141.539
51.51000 140.874
51.52000 143.382
51.53000 145.100
51.54000 148.433
51.55000 152.954
51.56000 157.338
51.57000 156.901
51.58000 154.072
51.59000 151.375
51.60000 148.745
51.61000 146.326
51.62000 143.918
51.63000 141.601
51.64000 139.305
51.65000 137.262
51.66000 136.571
51.67000 136.079
51.68000 135.689
51.69000 132.370
51.70000 129.492
51.71000 129.008
51.72000 134.286
51.73000 139.817
51.74000 142.275
51.75000 139.698
51.76000 137.048
51.77000 135.668
51.78000 144.581
51.79000 150.569
51.80000 151.306
51.81000 148.323
51.82000 145.401
51.83000 144.441
51.84000 144.420
51.85000 144.400
51.86000 144.628
51.87000 144.915
51.88000 145.308
51.89000 146.571
51.90000 148.024
51.91000 148.592
51.92000 144.619
51.93000 140.004
51.94000 136.373
51.95000 140.273
51.96000 143.900
51.97000 146.075
51.98000 144.878
51.99000 143.543
52.00000 142.237
52.01000 140.976
52.02000 139.715
52.03000 139.071
52.04000 135.212
52.05000 132.655
52.06000 134.014
52.07000 138.045
52.08000 141.889
52.09000 140.265
52.10000 136.111
52.11000 132.179
52.12000 131.782
52.13000 132.443
52.14000 133.464
52.15000 137.279
52.16000 141.684
52.17000 145.134
52.18000 143.880
52.19000 141.990
52.20000 140.515
52.21000 143.463
52.22000 146.091
52.23000 146.392
52.24000 141.468
52.25000 136.348
52.26000 133.209
52.27000 133.090
52.28000 133.002
52.29000 132.958
52.30000 139.058
52.31000 143.120
52.32000 146.672
52.33000 149.889
52.34000 152.916
52.35000 150.843
52.36000 146.492
52.37000 142.387
52.38000 135.948
52.39000 129.395
52.40000 124.163
52.41000 128.741
52.42000 135.315
52.43000 140.975
52.44000 142.304
52.45000 143.073
52.46000 143.668
52.47000 141.033
52.48000 138.751
52.49000 138.533
52.50000 142.791
52.51000 147.202
52.52000 146.692
52.53000 138.951
52.54000 131.147
52.55000 131.946
52.56000 141.016
52.57000 149.954
52.58000 148.132
52.59000 139.482
52.60000 131.141
52.61000 130.447
52.62000 133.051
52.63000 135.499
52.64000 134.893
52.65000 133.521
52.66000 132.699
52.67000 135.785
52.68000 139.634
52.69000 143.349
52.70000 146.445
52.71000 149.465
52.72000 151.780
52.73000 151.092
52.74000 150.383
52.75000 148.768
52.76000 145.258
52.77000 141.688
52.78000 139.481
52.79000 139.204
52.80000 138.941
52.81000 138.403
52.82000 137.611
52.83000 136.813
52.84000 135.633
52.85000 134.218
52.86000 132.907
52.87000 133.958
52.88000 135.993
52.89000 137.899
52.90000 133.820
52.91000 128.570
52.92000 124.625
52.93000 129.563
52.94000 136.172
52.95000 141.147
52.96000 138.937
52.97000 135.880
52.98000 133.559
52.99000 129.607
53.00000 126.417
53.01000 123.935
53.02000 122.884
53.03000 121.875
53.04000 123.500
53.05000 128.721
53.06000 133.960
53.07000 136.894
53.08000 137.781
53.09000 138.676
53.10000 140.080
53.11000 141.785
53.12000 143.368
53.13000 142.374
53.14000 140.344
53.15000 138.451
53.16000 138.392
53.17000 138.793
53.18000 139.609
53.19000 143.138
53.20000 147.158
53.21000 149.816
53.22000 146.711
53.23000 142.958
53.24000 140.135
53.25000 144.574
53.26000 148.397
53.27000 150.548
53.28000 149.436
53.29000 148.240
53.30000 145.871
53.31000 141.961
53.32000 138.046
53.33000 138.064
53.34000 141.428
53.35000 144.782
53.36000 147.528
53.37000 149.929
53.38000 152.167
53.39000 151.204
53.40000 148.998
53.41000 146.948
53.42000 144.651
53.43000 142.522
53.44000 141.341
53.45000 146.096
53.46000 151.881
53.47000 155.847
53.48000 152.386
53.49000 148.130
53.50000 144.960
53.51000 141.209
53.52000 138.263
53.53000 137.809
53.54000 142.049
53.55000 146.399
53.56000 146.053
53.57000 139.766
53.58000 133.468
53.59000 132.927
53.60000 137.100
53.61000 141.254
53.62000 144.542
53.63000 147.354
53.64000 149.941
53.65000 148.387
53.66000 145.280
53.67000 142.407
53.68000 140.831
53.69000 139.712
53.70000 138.681
53.71000 138.181
53.72000 137.770
53.73000 137.390
53.74000 137.134
53.75000 136.889
53.76000 136.709
53.77000 139.364
53.78000 141.539
53.79000 142.217
53.80000 140.174
53.81000 138.073
53.82000 136.564
53.83000 135.776
53.84000 134.991
53.85000 134.157
53.86000 133.289
53.87000 132.442
53.88000 132.509
53.89000 133.061
53.90000 133.699
53.91000 135.819
53.92000 138.476
53.93000 140.922
53.94000 141.336
53.95000 141.261
53.96000 141.659
53.97000 144.779
53.98000 148.333
53.99000 150.219
54.00000 145.776
54.01000 140.720
54.02000 137.029
54.03000 133.889
54.04000 131.490
54.05000 131.619
54.06000 136.185
54.07000 140.834
54.08000 143.308
54.09000 143.234
54.10000 143.157
54.11000 140.697
54.12000 136.452
54.13000 132.319
54.14000 132.519
54.15000 134.939
54.16000 137.243
54.17000 137.696
54.18000 137.502
54.19000 137.323
54.20000 134.764
54.21000 131.984
54.22000 129.649
54.23000 129.773
54.24000 130.274
54.25000 130.764
54.26000 131.213
54.27000 131.659
54.28000 131.981
54.29000 131.074
54.30000 130.334
54.31000 131.729
54.32000 136.742
54.33000 141.813
54.34000 144.572
54.35000 144.727
54.36000 144.879
54.37000 143.277
54.38000 140.413
54.39000 137.556
54.40000 134.933
54.41000 132.425
54.42000 130.081
54.43000 130.222
54.44000 131.202
54.45000 132.096
54.46000 131.200
54.47000 130.044
54.48000 129.574
54.49000 132.746
54.50000 136.454
54.51000 139.000
54.52000 137.450
54.53000 135.542
54.54000 134.179
54.55000 144.839
54.56000 153.375
54.57000 154.633
54.58000 144.004
54.59000 133.206
54.60000 127.522
54.61000 127.374
54.62000 127.229
54.63000 130.025
54.64000 134.847
54.65000 139.529
54.66000 139.734
54.67000 137.802
54.68000 135.916
54.69000 134.694
54.70000 133.689
54.71000 132.776
54.72000 132.949
54.73000 133.312
54.74000 133.457
54.75000 132.491
54.76000 131.369
54.77000 131.435
54.78000 135.545
54.79000 139.990
54.80000 143.132
54.81000 142.193
54.82000 141.355
54.83000 141.061
54.84000 141.625
54.85000 142.200
54.86000 143.195
54.87000 144.628
54.88000 146.054
54.89000 146.308
54.90000 145.772
54.91000 145.284
54.92000 146.203
54.93000 147.771
54.94000 149.151
54.95000 148.002
54.96000 146.057
54.97000 144.301
54.98000 143.844
54.99000 143.684
55.00000 143.485
55.01000 143.090
55.02000 142.669
55.03000 142.492
55.04000 143.117
55.05000 143.805
55.06000 144.286
55.07000 141.347
55.08000 139.030
55.09000 138.351
55.10000 140.161
55.11000 141.996
55.12000 144.372
55.13000 147.286
55.14000 150.182
55.15000 147.303
55.16000 140.732
55.17000 134.454
55.18000 135.961
55.19000 140.936
55.20000 145.849
55.21000 149.982
55.22000 153.879
55.23000 157.383
55.24000 155.329
55.25000 152.544
55.26000 149.689
55.27000 146.497
55.28000 143.262
55.29000 140.951
55.30000 141.571
55.31000 142.407
55.32000 142.984
55.33000 149.901
55.34000 155.264
55.35000 157.499
55.36000 155.153
55.37000 152.768
55.38000 154.352
55.39000 159.737
55.40000 165.081
55.41000 167.168
55.42000 167.193
55.43000 167.324
55.44000 170.051
55.45000 173.893
55.46000 177.523
55.47000 178.593
55.48000 178.914
55.49000 179.200
55.50000 179.097
55.51000 178.941
55.52000 180.271
55.53000 188.361
55.54000 197.282
55.55000 203.305
55.56000 200.463
55.57000 197.003
55.58000 194.642
55.59000 202.278
55.60000 208.222
55.61000 213.182
55.62000 216.751
55.63000 220.310
55.64000 224.498
55.65000 229.263
55.66000 233.986
55.67000 238.930
55.68000 243.910
55.69000 248.943
55.70000 255.176
55.71000 261.908
55.72000 268.485
55.73000 273.308
55.74000 277.634
55.75000 281.483
55.76000 296.811
55.77000 311.985
55.78000 324.498
55.79000 325.350
55.80000 324.833
55.81000 326.843
55.82000 336.318
55.83000 346.281
55.84000 353.001
55.85000 355.354
55.86000 357.012
55.87000 359.303
55.88000 362.456
55.89000 365.616
55.90000 372.164
55.91000 381.707
55.92000 391.153
55.93000 394.303
55.94000 393.761
55.95000 392.984
55.96000 387.277
55.97000 379.592
55.98000 372.698
55.99000 374.358
56.00000 378.349
56.01000 381.880
56.02000 379.696
56.03000 376.919
56.04000 374.244
56.05000 372.004
56.06000 369.813
56.07000 367.455
56.08000 364.620
56.09000 361.756
56.10000 359.848
56.11000 343.571
56.12000 331.249
56.13000 318.742
56.14000 305.992
56.15000 293.250
56.16000 285.728
56.17000 282.648
56.18000 279.604
56.19000 278.330
56.20000 278.069
56.21000 277.405
56.22000 268.823
56.23000 257.175
56.24000 245.937
56.25000 238.906
56.26000 232.981
56.27000 227.769
56.28000 221.788
56.29000 216.527
56.30000 212.116
56.31000 211.169
56.32000 210.591
56.33000 208.711
56.34000 203.246
56.35000 197.575
56.36000 193.845
56.37000 188.174
56.38000 183.966
56.39000 181.258
56.40000 180.442
56.41000 179.625
56.42000 175.830
56.43000 169.599
56.44000 163.451
56.45000 161.330
56.46000 161.413
56.47000 161.363
56.48000 158.892
56.49000 155.515
56.50000 152.766
56.51000 156.154
56.52000 161.096
56.53000 165.418
56.54000 166.296
56.55000 166.558
56.56000 165.579
56.57000 159.735
56.58000 153.396
56.59000 148.994
56.60000 149.736
56.61000 150.754
56.62000 151.416
56.63000 147.970
56.64000 145.385
56.65000 145.560
56.66000 149.087
56.67000 152.604
56.68000 151.009
56.69000 145.386
56.70000 139.848
56.71000 139.883
56.72000 142.776
56.73000 145.453
56.74000 144.421
56.75000 142.051
56.76000 140.008
56.77000 141.012
56.78000 142.761
56.79000 144.281
56.80000 143.150
56.81000 141.824
56.82000 140.437
56.83000 138.820
56.84000 137.181
56.85000 137.376
56.86000 142.276
56.87000 147.412
56.88000 150.702
56.89000 141.781
56.90000 135.118
56.91000 130.977
56.92000 129.779
56.93000 128.589
56.94000 128.004
56.95000 127.879
56.96000 127.755
56.97000 130.940
56.98000 135.652
56.99000 140.173
57.00000 141.618
57.01000 141.991
57.02000 141.943
57.03000 138.174
57.04000 133.530
57.05000 129.517
57.06000 132.880
57.07000 136.694
57.08000 139.344
57.09000 137.753
57.10000 135.774
57.11000 133.780
57.12000 131.753
57.13000 129.725
57.14000 128.443
57.15000 126.615
57.16000 125.285
57.17000 126.105
57.18000 129.341
57.19000 132.553
57.20000 131.493
57.21000 127.313
57.22000 123.212
57.23000 125.246
57.24000 130.122
57.25000 134.707
57.26000 134.897
57.27000 133.607
57.28000 132.699
57.29000 135.014
57.30000 138.059
57.31000 140.674
57.32000 140.899
57.33000 140.794
57.34000 140.578
57.35000 139.974
57.36000 139.337
57.37000 135.795
57.38000 125.305
57.39000 114.513
57.40000 107.791
57.41000 116.654
57.42000 123.197
57.43000 127.306
57.44000 128.786
57.45000 130.250
57.46000 129.659
57.47000 127.621
57.48000 125.625
57.49000 124.541
57.50000 123.916
57.51000 123.459
57.52000 125.384
57.53000 128.083
57.54000 130.667
57.55000 132.316
57.56000 133.761
57.57000 134.994
57.58000 128.701
57.59000 122.516
57.60000 118.000
57.61000 119.147
57.62000 120.759
57.63000 122.319
57.64000 123.755
57.65000 125.186
57.66000 126.065
57.67000 122.834
57.68000 120.483
57.69000 121.352
57.70000 125.555
57.71000 129.747
57.72000 132.501
57.73000 134.281
57.74000 136.020
57.75000 131.749
57.76000 125.015
57.77000 118.867
57.78000 120.588
57.79000 124.776
57.80000 128.556
57.81000 129.186
57.82000 129.153
57.83000 129.126
57.84000 130.144
57.85000 131.115
57.86000 131.363
57.87000 129.245
57.88000 126.944
57.89000 125.965
57.90000 127.940
57.91000 130.025
57.92000 131.285
57.93000 128.278
57.94000 126.104
57.95000 124.491
57.96000 123.437
57.97000 122.416
57.98000 124.481
57.99000 128.564
58.00000 132.543
58.01000 132.700
58.02000 131.231
58.03000 129.873
58.04000 129.922
58.05000 130.396
58.06000 130.830
58.07000 130.973
58.08000 131.058
58.09000 131.129
58.10000 128.135
58.11000 125.311
58.12000 123.314
58.13000 123.933
58.14000 124.745
58.15000 125.809
58.16000 127.417
58.17000 129.044
58.18000 130.013
58.19000 128.035
58.20000 126.616
58.21000 127.115
58.22000 129.445
58.23000 131.718
58.24000 129.443
58.25000 124.299
58.26000 119.298
58.27000 116.509
58.28000 114.758
58.29000 113.260
58.30000 114.789
58.31000 117.202
58.32000 119.181
58.33000 118.096
58.34000 116.416
58.35000 115.011
58.36000 115.880
58.37000 116.832
58.38000 118.289
58.39000 121.285
58.40000 124.388
58.41000 124.601
58.42000 118.799
58.43000 112.811
58.44000 109.300
58.45000 111.325
58.46000 112.779
58.47000 114.930
58.48000 117.720
58.49000 120.460
58.50000 119.851
58.51000 117.202
58.52000 114.635
58.53000 114.655
58.54000 115.689
58.55000 116.988
58.56000 121.297
58.57000 126.453
58.58000 130.373
58.59000 125.932
58.60000 119.930
58.61000 114.949
58.62000 113.892
58.63000 113.397
58.64000 113.275
58.65000 114.250
58.66000 115.295
58.67000 116.847
58.68000 119.414
58.69000 122.010
58.70000 123.508
58.71000 122.344
58.72000 121.519
58.73000 120.830
58.74000 120.261
58.75000 119.663
58.76000 117.357
58.77000 114.048
58.78000 110.847
58.79000 111.225
58.80000 112.932
58.81000 114.234
58.82000 111.185
58.83000 106.954
58.84000 103.626
58.85000 106.156
58.86000 109.736
58.87000 112.686
58.88000 113.993
58.89000 114.918
58.90000 116.233
58.91000 118.661
58.92000 121.157
58.93000 122.240
58.94000 120.582
58.95000 118.855
58.96000 117.875
58.97000 120.113
58.98000 121.676
58.99000 120.319
59.00000 116.487
59.01000 112.696
59.02000 111.113
59.03000 110.780
59.04000 110.459
59.05000 112.227
59.06000 114.650
59.07000 116.965
59.08000 118.184
59.09000 119.115
59.10000 119.886
59.11000 119.663
59.12000 119.269
59.13000 118.946
59.14000 120.059
59.15000 121.096
59.16000 121.893
59.17000 122.030
59.18000 122.129
59.19000 122.180
59.20000 122.141
59.21000 122.099
59.22000 122.076
59.23000 126.577
59.24000 129.693
59.25000 129.960
59.26000 127.901
59.27000 125.773
59.28000 120.429
59.29000 113.328
59.30000 106.499
59.31000 108.671
59.32000 113.852
59.33000 118.274
59.34000 115.320
59.35000 110.504
59.36000 106.984
59.37000 111.192
59.38000 116.678
59.39000 121.131
59.40000 121.030
59.41000 120.573
59.42000 120.260
59.43000 120.329
59.44000 120.418
59.45000 121.269
59.46000 123.497
59.47000 125.752
59.48000 126.988
59.49000 122.701
59.50000 119.746
59.51000 117.223
59.52000 115.041
59.53000 112.924
59.54000 113.558
59.55000 115.644
59.56000 117.644
59.57000 119.086
59.58000 120.245
59.59000 121.076
59.60000 118.871
59.61000 115.927
59.62000 113.703
59.63000 115.593
59.64000 118.136
59.65000 120.184
59.66000 118.976
59.67000 117.742
59.68000 115.445
59.69000 110.426
59.70000 105.272
59.71000 104.862
59.72000 112.729
59.73000 120.746
59.74000 125.061
59.75000 127.479
59.76000 129.106
59.77000 125.606
59.78000 118.230
59.79000 111.070
59.80000 112.084
59.81000 117.261
59.82000 122.208
59.83000 120.519
59.84000 116.803
59.85000 113.693
59.86000 115.931
59.87000 119.422
59.88000 122.059
59.89000 120.000
59.90000 117.225
59.91000 115.009
59.92000 116.067
59.93000 117.162
59.94000 118.094
59.95000 118.623
59.96000 119.132
59.97000 120.183
59.98000 122.145
59.99000 124.122
60.00000 125.166
60.01000 123.938
60.02000 123.085
60.03000 119.394
60.04000 113.635
60.05000 107.996
60.06000 106.479
60.07000 106.990
60.08000 107.476
60.09000 112.419
60.10000 118.384
60.11000 123.683
60.12000 123.370
60.13000 121.790
60.14000 120.437
60.15000 120.279
60.16000 120.296
60.17000 120.309
60.18000 116.451
60.19000 113.081
60.20000 111.885
60.21000 115.879
60.22000 120.097
60.23000 121.006
60.24000 116.541
60.25000 112.002
60.26000 109.650
60.27000 115.468
60.28000 119.377
60.29000 120.795
60.30000 120.463
60.31000 120.146
60.32000 120.260
60.33000 120.579
60.34000 120.882
60.35000 117.834
60.36000 114.018
60.37000 110.590
60.38000 110.274
60.39000 110.635
60.40000 111.405
60.41000 114.254
60.42000 117.393
60.43000 119.859
60.44000 113.906
60.45000 108.591
60.46000 105.801
60.47000 108.826
60.48000 112.083
60.49000 114.899
60.50000 117.025
60.51000 119.142
60.52000 120.218
60.53000 118.777
60.54000 117.825
60.55000 118.476
60.56000 120.209
60.57000 121.895
60.58000 122.228
60.59000 121.941
60.60000 121.669
60.61000 119.605
60.62000 117.194
60.63000 114.994
60.64000 114.417
60.65000 114.180
60.66000 113.586
60.67000 111.248
60.68000 108.678
60.69000 106.677
60.70000 109.436
60.71000 111.927
60.72000 113.141
60.73000 111.511
60.74000 109.777
60.75000 109.908
60.76000 112.857
60.77000 115.835
60.78000 118.038
60.79000 119.474
60.80000 120.882
60.81000 119.682
60.82000 116.782
60.83000 114.013
60.84000 114.689
60.85000 116.890
60.86000 118.965
60.87000 119.867
60.88000 120.370
60.89000 120.454
60.90000 117.472
60.91000 113.871
60.92000 111.910
60.93000 117.652
60.94000 124.379
60.95000 129.571
60.96000 126.149
60.97000 122.939
60.98000 121.569
60.99000 124.155
61.00000 126.874
61.01000 126.394
61.02000 121.258
61.03000 116.082
61.04000 114.053
61.05000 115.019
61.06000 115.990
61.07000 117.337
61.08000 118.920
61.09000 120.386
61.10000 119.023
61.11000 116.451
61.12000 114.035
61.13000 114.163
61.14000 114.956
61.15000 115.997
61.16000 118.789
61.17000 121.921
61.18000 124.536
61.19000 124.819
61.20000 124.816
61.21000 124.815
61.22000 128.591
61.23000 131.776
61.24000 131.879
61.25000 125.590
61.26000 119.104
61.27000 117.112
61.28000 121.426
61.29000 125.783
61.30000 126.500
61.31000 123.893
61.32000 121.330
61.33000 121.794
61.34000 124.095
61.35000 126.325
61.36000 126.942
61.37000 126.894
61.38000 126.848
61.39000 131.313
61.40000 136.519
61.41000 140.328
61.42000 134.736
61.43000 127.392
61.44000 121.326
61.45000 120.828
61.46000 120.978
61.47000 121.091
61.48000 127.724
61.49000 133.263
61.50000 139.830
61.51000 148.459
61.52000 157.146
61.53000 166.945
61.54000 178.247
61.55000 189.552
61.56000 200.960
61.57000 212.442
61.58000 223.935
61.59000 236.042
61.60000 248.509
61.61000 260.738
61.62000 268.021
61.63000 273.332
61.64000 278.279
61.65000 282.862
61.66000 286.919
61.67000 291.291
61.68000 297.698
61.69000 304.469
61.70000 308.288
61.71000 299.715
61.72000 289.766
61.73000 282.300
61.74000 286.209
61.75000 289.803
61.76000 286.666
61.77000 270.511
61.78000 254.027
61.79000 237.084
61.80000 219.542
61.81000 202.015
61.82000 186.417
61.83000 172.485
61.84000 158.746
61.85000 155.023
61.86000 156.955
61.87000 158.514
61.88000 152.816
61.89000 144.325
61.90000 136.446
61.91000 136.983
61.92000 139.447
61.93000 141.051
61.94000 137.337
61.95000 132.709
61.96000 129.213
61.97000 130.300
61.98000 131.871
61.99000 133.039
62.00000 130.425
62.01000 128.225
62.02000 126.493
62.03000 125.634
62.04000 124.795
62.05000 124.020
62.06000 123.323
62.07000 122.627
62.08000 124.089
62.09000 127.293
62.10000 130.486
62.11000 133.187
62.12000 135.620
62.13000 137.926
62.14000 137.951
62.15000 137.126
62.16000 136.364
62.17000 135.259
62.18000 134.190
62.19000 133.053
62.20000 131.514
62.21000 129.908
62.22000 129.082
62.23000 131.296
62.24000 133.816
62.25000 135.670
62.26000 132.725
62.27000 130.248
62.28000 128.567
62.29000 128.319
62.30000 128.099
62.31000 127.398
62.32000 126.116
62.33000 124.836
62.34000 126.333
62.35000 129.985
62.36000 133.616
62.37000 136.410
62.38000 138.763
62.39000 140.822
62.40000 137.906
62.41000 133.204
62.42000 128.879
62.43000 130.990
62.44000 134.271
62.45000 136.349
62.46000 131.573
62.47000 125.712
62.48000 122.038
62.49000 126.576
62.50000 131.900
62.51000 135.776
62.52000 127.419
62.53000 120.517
62.54000 115.872
62.55000 115.153
62.56000 114.505
62.57000 117.699
62.58000 125.350
62.59000 132.987
62.60000 132.889
62.61000 127.005
62.62000 121.361
62.63000 124.788
62.64000 132.820
62.65000 140.264
62.66000 138.346
62.67000 133.183
62.68000 128.457
62.69000 128.643
62.70000 129.830
62.71000 131.071
62.72000 132.600
62.73000 134.174
62.74000 135.261
62.75000 134.585
62.76000 133.749
62.77000 133.147
62.78000 127.938
62.79000 123.785
62.80000 121.434
62.81000 122.107
62.82000 122.827
62.83000 124.018
62.84000 125.734
62.85000 127.445
62.86000 128.161
62.87000 128.155
62.88000 128.238
62.89000 131.319
62.90000 135.870
62.91000 140.114
62.92000 139.761
62.93000 137.869
62.94000 136.144
62.95000 132.330
62.96000 128.533
62.97000 125.179
62.98000 124.162
62.99000 123.484
63.00000 122.875
63.01000 122.505
63.02000 122.156
63.03000 121.907
63.04000 124.047
63.05000 125.757
63.06000 126.779
63.07000 126.690
63.08000 126.585
63.09000 126.029
63.10000 124.990
63.11000 123.955
63.12000 125.102
63.13000 127.748
63.14000 130.418
63.15000 133.828
63.16000 137.588
63.17000 141.055
63.18000 140.405
63.19000 138.425
63.20000 136.630
63.21000 135.841
63.22000 135.338
63.23000 134.545
63.24000 132.285
63.25000 129.821
63.26000 128.416
63.27000 130.582
63.28000 133.038
63.29000 134.770
63.30000 135.061
63.31000 135.238
63.32000 134.819
63.33000 133.468
63.34000 132.106
63.35000 133.139
63.36000 136.639
63.37000 140.119
63.38000 137.036
63.39000 129.626
63.40000 122.491
63.41000 123.194
63.42000 127.480
63.43000 131.662
63.44000 134.461
63.45000 136.829
63.46000 138.966
63.47000 134.191
63.48000 128.729
63.49000 124.711
63.50000 127.721
63.51000 131.666
63.52000 134.819
63.53000 135.395
63.54000 135.773
63.55000 136.036
63.56000 134.884
63.57000 133.976
63.58000 133.011
63.59000 131.961
63.60000 130.910
63.61000 132.835
63.62000 137.700
63.63000 142.533
63.64000 144.725
63.65000 145.191
63.66000 145.530
63.67000 142.514
63.68000 138.018
63.69000 134.085
63.70000 137.224
63.71000 142.490
63.72000 147.219
63.73000 146.070
63.74000 144.033
63.75000 142.085
63.76000 140.559
63.77000 139.086
63.78000 137.925
63.79000 137.747
63.80000 137.640
63.81000 137.567
63.82000 140.809
63.83000 143.327
63.84000 145.046
63.85000 145.605
63.86000 146.154
63.87000 146.140
63.88000 145.591
63.89000 145.047
63.90000 147.322
63.91000 151.293
63.92000 154.930
63.93000 150.521
63.94000 142.683
63.95000 135.561
63.96000 136.944
63.97000 140.797
63.98000 144.238
63.99000 146.172
64.00000 147.602
64.01000 149.420
64.02000 152.986
64.03000 156.764
64.04000 157.835
64.05000 150.699
64.06000 143.000
64.07000 137.759
64.08000 138.648
64.09000 139.452
64.10000 142.426
64.11000 148.435
64.12000 154.462
64.13000 156.505
64.14000 154.918
64.15000 153.345
64.16000 152.616
64.17000 152.400
64.18000 152.051
64.19000 148.728
64.20000 144.181
64.21000 140.341
64.22000 144.457
64.23000 150.802
64.24000 156.439
64.25000 154.800
64.26000 152.208
64.27000 150.687
64.28000 153.817
64.29000 157.486
64.30000 159.306
64.31000 155.713
64.32000 151.772
64.33000 149.122
64.34000 150.742
64.35000 152.034
64.36000 151.517
64.37000 148.561
64.38000 145.595
64.39000 146.240
64.40000 150.046
64.41000 153.811
64.42000 155.753
64.43000 156.613
64.44000 157.380
64.45000 156.236
64.46000 154.332
64.47000 152.945
64.48000 157.064
64.49000 162.670
64.50000 167.623
64.51000 162.812
64.52000 157.155
64.53000 153.047
64.54000 155.417
64.55000 158.504
64.56000 160.089
64.57000 157.428
64.58000 154.510
64.59000 152.572
64.60000 154.623
64.61000 156.212
64.62000 159.265
64.63000 164.218
64.64000 169.174
64.65000 171.616
64.66000 171.941
64.67000 172.261
64.68000 172.083
64.69000 171.636
64.70000 171.209
64.71000 171.166
64.72000 171.271
64.73000 171.444
64.74000 172.310
64.75000 173.356
64.76000 174.275
64.77000 171.290
64.78000 168.150
64.79000 166.258
64.80000 169.397
64.81000 173.066
64.82000 176.398
64.83000 178.808
64.84000 181.166
64.85000 182.711
64.86000 179.958
64.87000 177.862
64.88000 177.834
64.89000 180.390
64.90000 182.949
64.91000 183.905
64.92000 183.563
64.93000 183.225
64.94000 189.079
64.95000 198.037
64.96000 206.349
64.97000 203.029
64.98000 195.397
64.99000 188.669
65.00000 190.661
65.01000 194.841
65.02000 198.492
65.03000 196.375
65.04000 193.753
65.05000 191.392
65.06000 190.043
65.07000 188.795
65.08000 189.478
65.09000 195.245
65.10000 201.281
65.11000 205.187
65.12000 200.511
65.13000 196.964
65.14000 198.618
65.15000 206.523
65.16000 214.414
65.17000 215.147
65.18000 210.296
65.19000 205.521
65.20000 206.501
65.21000 210.376
65.22000 214.306
65.23000 219.159
65.24000 224.342
65.25000 229.459
65.26000 233.980
65.27000 238.356
65.28000 242.155
65.29000 238.139
65.30000 233.668
65.31000 230.950
65.32000 234.800
65.33000 239.276
65.34000 244.050
65.35000 249.583
65.36000 255.154
65.37000 258.710
65.38000 255.699
65.39000 253.423
65.40000 254.064
65.41000 258.077
65.42000 262.082
65.43000 263.634
65.44000 263.343
65.45000 263.057
65.46000 265.217
65.47000 268.498
65.48000 272.121
65.49000 281.143
65.50000 292.030
65.51000 302.303
65.52000 307.203
65.53000 310.851
65.54000 313.998
65.55000 314.925
65.56000 315.426
65.57000 318.016
65.58000 328.150
65.59000 338.967
65.60000 351.229
65.61000 367.044
65.62000 383.021
65.63000 393.078
65.64000 427.084
65.65000 451.959
65.66000 482.215
65.67000 518.450
65.68000 554.835
65.69000 614.468
65.70000 690.924
65.71000 765.887
65.72000 878.142
65.73000 1003.776
65.74000 1129.113
65.75000 1250.019
65.76000 1369.447
65.77000 1485.942
65.78000 1577.937
65.79000 1664.434
65.80000 1738.582
65.81000 1806.359
65.82000 1862.820
65.83000 1910.276
65.84000 1926.348
65.85000 1939.730
65.86000 1952.846
65.87000 1965.331
65.88000 1977.788
65.89000 1985.519
65.90000 1960.782
65.91000 1942.665
65.92000 1895.640
65.93000 1817.742
65.94000 1739.657
65.95000 1638.716
65.96000 1521.836
65.97000 1407.482
65.98000 1287.995
65.99000 1170.999
66.00000 1054.591
66.01000 946.434
66.02000 840.933
66.03000 738.821
66.04000 663.732
66.05000 594.483
66.06000 535.505
66.07000 501.913
66.08000 476.630
66.09000 453.350
66.10000 436.806
66.11000 420.809
66.12000 405.648
66.13000 392.402
66.14000 379.231
66.15000 371.176
66.16000 376.619
66.17000 380.626
66.18000 379.665
66.19000 373.608
66.20000 367.613
66.21000 368.178
66.22000 373.152
66.23000 378.009
66.24000 392.218
66.25000 409.887
66.26000 427.250
66.27000 440.558
66.28000 452.606
66.29000 465.647
66.30000 486.254
66.31000 508.434
66.32000 527.200
66.33000 549.178
66.34000 567.930
66.35000 583.884
66.36000 590.757
66.37000 596.934
66.38000 604.745
66.39000 616.172
66.40000 627.729
66.41000 634.692
66.42000 627.647
66.43000 622.536
66.44000 622.334
66.45000 626.964
66.46000 631.529
66.47000 630.241
66.48000 625.159
66.49000 620.211
66.50000 598.441
66.51000 570.632
66.52000 542.980
66.53000 517.286
66.54000 492.179
66.55000 467.875
66.56000 449.417
66.57000 432.129
66.58000 417.603
66.59000 398.128
66.60000 381.380
66.61000 367.903
66.62000 364.669
66.63000 362.178
66.64000 359.085
66.65000 354.706
66.66000 350.285
66.67000 347.662
66.68000 349.181
66.69000 350.279
66.70000 349.958
66.71000 348.295
66.72000 346.681
66.73000 348.856
66.74000 353.399
66.75000 357.812
66.76000 357.344
66.77000 354.928
66.78000 352.580
66.79000 351.036
66.80000 349.724
66.81000 348.892
66.82000 351.411
66.83000 354.575
66.84000 357.216
66.85000 355.954
66.86000 354.515
66.87000 355.329
66.88000 362.952
66.89000 371.039
66.90000 375.885
66.91000 374.048
66.92000 372.008
66.93000 370.817
66.94000 368.022
66.95000 366.051
66.96000 368.363
66.97000 374.565
66.98000 380.683
66.99000 381.239
67.00000 378.441
67.01000 375.730
67.02000 379.190
67.03000 384.862
67.04000 390.102
67.05000 390.499
67.06000 389.543
67.07000 387.769
67.08000 380.533
67.09000 372.285
67.10000 365.453
67.11000 377.151
67.12000 388.577
67.13000 397.188
67.14000 397.583
67.15000 397.452
67.16000 394.192
67.17000 384.701
67.18000 375.039
67.19000 369.488
67.20000 371.047
67.21000 372.165
67.22000 375.672
67.23000 381.265
67.24000 386.798
67.25000 388.930
67.26000 389.082
67.27000 389.229
67.28000 394.335
67.29000 401.004
67.30000 407.693
67.31000 414.593
67.32000 421.549
67.33000 426.761
67.34000 420.801
67.35000 412.856
67.36000 406.321
67.37000 409.293
67.38000 412.596
67.39000 415.003
67.40000 414.891
67.41000 414.626
67.42000 413.354
67.43000 410.145
67.44000 406.888
67.45000 405.048
67.46000 401.366
67.47000 398.816
67.48000 404.180
67.49000 416.190
67.50000 428.006
67.51000 429.934
67.52000 426.313
67.53000 422.823
67.54000 424.175
67.55000 427.188
67.56000 430.004
67.57000 430.834
67.58000 431.149
67.59000 431.363
67.60000 430.955
67.61000 430.441
67.62000 430.022
67.63000 446.514
67.64000 461.457
67.65000 468.450
67.66000 453.820
67.67000 437.970
67.68000 429.016
67.69000 432.859
67.70000 436.987
67.71000 439.280
67.72000 437.114
67.73000 435.613
67.74000 435.873
67.75000 437.556
67.76000 439.296
67.77000 443.578
67.78000 449.238
67.79000 454.676
67.80000 453.909
67.81000 451.044
67.82000 449.182
67.83000 456.958
67.84000 467.147
67.85000 476.002
67.86000 476.991
67.87000 476.692
67.88000 476.450
67.89000 478.142
67.90000 479.677
67.91000 480.219
67.92000 478.154
67.93000 475.952
67.94000 476.571
67.95000 482.245
67.96000 488.019
67.97000 491.169
67.98000 494.807
67.99000 497.311
68.00000 501.110
68.01000 505.917
68.02000 510.665
68.03000 512.962
68.04000 513.978
68.05000 514.951
68.06000 513.339
68.07000 510.975
68.08000 508.581
68.09000 505.919
68.10000 503.192
68.11000 501.789
68.12000 507.881
68.13000 515.151
68.14000 520.993
68.15000 521.558
68.16000 521.611
68.17000 523.833
68.18000 531.554
68.19000 539.545
68.20000 545.685
68.21000 548.625
68.22000 551.509
68.23000 553.053
68.24000 551.712
68.25000 550.784
68.26000 547.940
68.27000 543.661
68.28000 539.698
68.29000 547.406
68.30000 561.007
68.31000 573.994
68.32000 587.198
68.33000 599.536
68.34000 611.130
68.35000 616.235
68.36000 619.833
68.37000 623.984
68.38000 631.142
68.39000 638.752
68.40000 644.818
68.41000 639.952
68.42000 635.232
68.43000 634.389
68.44000 643.042
68.45000 652.128
68.46000 660.907
68.47000 669.174
68.48000 677.433
68.49000 681.775
68.50000 682.862
68.51000 683.647
68.52000 692.072
68.53000 706.008
68.54000 719.936
68.55000 733.616
68.56000 747.176
68.57000 760.081
68.58000 778.750
68.59000 797.804
68.60000 818.413
68.61000 851.960
68.62000 888.402
68.63000 925.488
68.64000 965.942
68.65000 1006.882
68.66000 1039.240
68.67000 1078.001
68.68000 1109.563
68.69000 1145.690
68.70000 1192.611
68.71000 1239.989
68.72000 1281.226
68.73000 1312.583
68.74000 1343.809
68.75000 1359.911
68.76000 1450.412
68.77000 1511.319
68.78000 1563.872
68.79000 1610.617
68.80000 1657.155
68.81000 1697.370
68.82000 1734.610
68.83000 1769.931
68.84000 1835.257
68.85000 1904.371
68.86000 1978.033
68.87000 2087.823
68.88000 2205.396
68.89000 2352.757
68.90000 2649.868
68.91000 2967.660
68.92000 3216.710
68.93000 4369.887
68.94000 5349.869
68.95000 6698.282
68.96000 8888.222
68.97000 11111.036
68.98000 13816.349
68.99000 17270.350
69.00000 20732.947
69.01000 22483.236
69.02000 27558.363
69.03000 30947.330
69.04000 33618.715
69.05000 35809.258
69.06000 37974.484
69.07000 39431.266
69.08000 40566.082
69.09000 41638.633
69.10000 42296.793
69.11000 42783.293
69.12000 43304.477
69.13000 44089.020
69.14000 44928.172
69.15000 45720.742
69.16000 46288.059
69.17000 46825.617
69.18000 47243.234
69.19000 46720.691
69.20000 46247.957
69.21000 45148.840
69.22000 42668.121
69.23000 40137.738
69.24000 37435.625
69.25000 34476.582
69.26000 31515.086
69.27000 29180.182
69.28000 27460.094
69.29000 25744.773
69.30000 24449.275
69.31000 23425.023
69.32000 22421.432
69.33000 21949.699
69.34000 21711.391
69.35000 21486.982
69.36000 21017.432
69.37000 20520.857
69.38000 19953.592
69.39000 18872.898
69.40000 17689.797
69.41000 16386.377
69.42000 14522.966
69.43000 12588.842
69.44000 11099.661
69.45000 9092.077
69.46000 7473.223
69.47000 6043.593
69.48000 5016.994
69.49000 4003.675
69.50000 3194.475
69.51000 2679.651
69.52000 2167.250
69.53000 1820.186
69.54000 1628.953
69.55000 1438.690
69.56000 1321.637
69.57000 1250.199
69.58000 1179.328
69.59000 1121.908
69.60000 1070.191
69.61000 1021.674
69.62000 982.728
69.63000 949.762
69.64000 917.647
69.65000 891.449
69.66000 866.387
69.67000 842.126
69.68000 821.450
69.69000 801.207
69.70000 785.763
69.71000 757.872
69.72000 735.232
69.73000 714.576
69.74000 698.002
69.75000 681.550
69.76000 667.217
69.77000 655.827
69.78000 644.459
69.79000 637.741
69.80000 635.235
69.81000 632.618
69.82000 622.776
69.83000 608.590
69.84000 594.336
69.85000 578.567
69.86000 562.179
69.87000 546.865
69.88000 547.036
69.89000 551.102
69.90000 553.166
69.91000 541.897
69.92000 528.170
69.93000 516.717
69.94000 515.077
69.95000 514.565
69.96000 514.178
69.97000 511.941
69.98000 510.095
69.99000 505.490
70.00000 495.406
