20.00000 479.381
20.01000 481.169
20.02000 483.213
20.03000 483.587
20.04000 477.392
20.05000 470.527
20.06000 465.464
20.07000 467.062
20.08000 468.579
20.09000 468.930
20.10000 467.158
20.11000 465.342
20.12000 462.718
20.13000 459.110
20.14000 455.507
20.15000 457.927
20.16000 465.073
20.17000 472.042
20.18000 471.470
20.19000 466.895
20.20000 462.552
20.21000 462.200
20.22000 463.293
20.23000 464.300
20.24000 460.412
20.25000 455.862
20.26000 451.771
20.27000 450.318
20.28000 449.286
20.29000 447.978
20.30000 445.619
20.31000 443.159
20.32000 441.363
20.33000 448.472
20.34000 454.300
20.35000 457.952
20.36000 457.786
20.37000 457.549
20.38000 455.974
20.39000 452.832
20.40000 449.694
20.41000 450.810
20.42000 455.133
20.43000 459.499
20.44000 465.535
20.45000 472.427
20.46000 478.952
20.47000 479.538
20.48000 478.047
20.49000 476.680
20.50000 475.791
20.51000 475.099
20.52000 473.212
20.53000 464.714
20.54000 455.203
20.55000 448.888
20.56000 454.265
20.57000 460.719
20.58000 465.381
20.59000 458.907
20.60000 453.539
20.61000 454.308
20.62000 465.470
20.63000 476.801
20.64000 479.754
20.65000 473.269
20.66000 466.797
20.67000 467.958
20.68000 474.657
20.69000 481.076
20.70000 477.736
20.71000 469.569
20.72000 462.144
20.73000 465.993
20.74000 473.647
20.75000 480.631
20.76000 478.454
20.77000 474.675
20.78000 470.850
20.79000 466.777
20.80000 462.669
20.81000 460.966
20.82000 467.753
20.83000 475.282
20.84000 480.662
20.85000 465.114
20.86000 452.549
20.87000 446.452
20.88000 450.921
20.89000 455.540
20.90000 455.542
20.91000 450.547
20.92000 445.572
20.93000 451.868
20.94000 465.980
20.95000 479.663
20.96000 479.728
20.97000 473.286
20.98000 467.146
20.99000 465.305
21.00000 464.865
21.01000 464.466
21.02000 468.475
21.03000 472.869
21.04000 474.822
21.05000 464.305
21.06000 452.033
21.07000 445.290
21.08000 457.364
21.09000 470.993
21.10000 480.628
21.11000 472.961
21.12000 466.607
21.13000 462.259
21.14000 461.070
21.15000 459.921
21.16000 459.011
21.17000 458.352
21.18000 457.697
21.19000 461.527
21.20000 468.326
21.21000 474.919
21.22000 475.528
21.23000 473.378
21.24000 471.282
21.25000 469.913
21.26000 468.772
21.27000 467.742
21.28000 461.018
21.29000 454.049
21.30000 448.624
21.31000 450.792
21.32000 453.982
21.33000 456.158
21.34000 455.007
21.35000 453.596
21.36000 452.609
21.37000 453.785
21.38000 454.734
21.39000 455.601
21.40000 456.344
21.41000 457.085
21.42000 459.413
21.43000 463.326
21.44000 467.214
21.45000 465.898
21.46000 461.238
21.47000 456.745
21.48000 456.732
21.49000 458.714
21.50000 460.536
21.51000 460.321
21.52000 459.489
21.53000 458.741
21.54000 459.153
21.55000 459.720
21.56000 459.668
21.57000 456.687
21.58000 453.328
21.59000 452.055
21.60000 457.389
21.61000 463.212
21.62000 467.235
21.63000 463.958
21.64000 461.307
21.65000 462.665
21.66000 469.896
21.67000 477.178
21.68000 479.131
21.69000 475.975
21.70000 472.844
21.71000 475.526
21.72000 481.779
21.73000 488.036
21.74000 494.395
21.75000 500.798
21.76000 507.045
21.77000 511.409
21.78000 515.221
21.79000 518.630
21.80000 512.685
21.81000 505.911
21.82000 502.135
21.83000 512.010
21.84000 523.565
21.85000 531.534
21.86000 528.535
21.87000 524.772
21.88000 522.203
21.89000 537.784
21.90000 549.862
21.91000 557.998
21.92000 560.568
21.93000 563.098
21.94000 562.688
21.95000 559.572
21.96000 556.483
21.97000 555.185
21.98000 554.983
21.99000 555.125
22.00000 563.108
22.01000 574.348
22.02000 584.877
22.03000 587.306
22.04000 587.445
22.05000 587.569
22.06000 589.428
22.07000 591.324
22.08000 591.722
22.09000 585.552
22.10000 578.610
22.11000 573.620
22.12000 574.397
22.13000 575.550
22.14000 576.329
22.15000 571.576
22.16000 567.923
22.17000 563.496
22.18000 558.019
22.19000 552.532
22.20000 543.553
22.21000 531.484
22.22000 519.540
22.23000 518.961
22.24000 524.938
22.25000 530.636
22.26000 530.442
22.27000 527.883
22.28000 525.105
22.29000 519.943
22.30000 514.131
22.31000 508.990
22.32000 499.956
22.33000 491.540
22.34000 483.343
22.35000 476.067
22.36000 468.895
22.37000 463.583
22.38000 463.575
22.39000 463.894
22.40000 464.106
22.41000 464.522
22.42000 464.834
22.43000 466.298
22.44000 469.272
22.45000 472.247
22.46000 472.001
22.47000 469.016
22.48000 466.066
22.49000 464.366
22.50000 463.401
22.51000 462.314
22.52000 458.819
22.53000 454.393
22.54000 450.684
22.55000 454.345
22.56000 459.943
22.57000 464.868
22.58000 459.961
22.59000 454.274
22.60000 448.785
22.61000 444.104
22.62000 439.509
22.63000 435.488
22.64000 433.043
22.65000 430.690
22.66000 429.142
22.67000 441.739
22.68000 451.255
22.69000 454.738
22.70000 450.610
22.71000 446.458
22.72000 443.177
22.73000 440.607
22.74000 438.071
22.75000 438.863
22.76000 441.406
22.77000 443.672
22.78000 440.832
22.79000 436.082
22.80000 431.650
22.81000 430.322
22.82000 429.781
22.83000 429.308
22.84000 433.821
22.85000 438.397
22.86000 442.556
22.87000 445.078
22.88000 447.434
22.89000 448.717
22.90000 447.146
22.91000 445.420
22.92000 444.300
22.93000 437.239
22.94000 431.978
22.95000 428.779
22.96000 428.083
22.97000 427.407
22.98000 430.441
22.99000 436.397
23.00000 442.263
23.01000 443.551
23.02000 442.452
23.03000 441.539
23.04000 443.803
23.05000 447.214
23.06000 449.556
23.07000 441.957
23.08000 431.929
23.09000 423.212
23.10000 429.376
23.11000 436.658
23.12000 442.428
23.13000 442.480
23.14000 441.980
23.15000 438.956
23.16000 429.452
23.17000 419.623
23.18000 413.327
23.19000 414.050
23.20000 414.671
23.21000 413.331
23.22000 409.699
23.23000 406.096
23.24000 409.416
23.25000 417.987
23.26000 426.411
23.27000 432.650
23.28000 437.603
23.29000 441.941
23.30000 436.410
23.31000 427.437
23.32000 419.325
23.33000 418.848
23.34000 420.167
23.35000 421.307
23.36000 423.324
23.37000 425.150
23.38000 427.500
23.39000 431.759
23.40000 436.192
23.41000 436.516
23.42000 426.656
23.43000 416.319
23.44000 409.789
23.45000 412.482
23.46000 414.542
23.47000 416.162
23.48000 417.289
23.49000 418.422
23.50000 420.696
23.51000 423.804
23.52000 426.853
23.53000 424.629
23.54000 419.979
23.55000 415.549
23.56000 414.433
23.57000 414.432
23.58000 415.060
23.59000 421.000
23.60000 428.144
23.61000 434.278
23.62000 434.281
23.63000 433.525
23.64000 432.306
23.65000 429.458
23.66000 426.469
23.67000 424.744
23.68000 426.045
23.69000 427.477
23.70000 428.369
23.71000 427.972
23.72000 427.673
23.73000 425.384
23.74000 420.947
23.75000 416.531
23.76000 415.050
23.77000 415.636
23.78000 416.208
23.79000 421.259
23.80000 428.159
23.81000 435.094
23.82000 442.519
23.83000 450.103
23.84000 456.111
23.85000 449.397
23.86000 439.906
23.87000 431.810
23.88000 428.304
23.89000 425.895
23.90000 426.163
23.91000 435.513
23.92000 445.612
23.93000 453.586
23.94000 456.652
23.95000 459.520
23.96000 461.281
23.97000 446.625
23.98000 435.980
23.99000 433.979
24.00000 440.935
24.01000 447.788
24.02000 443.204
24.03000 430.860
24.04000 418.803
24.05000 419.121
24.06000 424.874
24.07000 430.480
24.08000 434.113
24.09000 437.127
24.10000 439.897
24.11000 440.791
24.12000 441.292
24.13000 441.716
24.14000 438.776
24.15000 435.935
24.16000 434.251
24.17000 436.356
24.18000 438.757
24.19000 438.280
24.20000 431.383
24.21000 424.248
24.22000 419.933
24.23000 417.268
24.24000 415.380
24.25000 414.640
24.26000 415.041
24.27000 415.423
24.28000 414.045
24.29000 411.516
24.30000 409.051
24.31000 409.818
24.32000 411.918
24.33000 414.110
24.34000 417.465
24.35000 421.171
24.36000 423.690
24.37000 417.454
24.38000 409.448
24.39000 402.710
24.40000 403.315
24.41000 404.605
24.42000 409.082
24.43000 423.627
24.44000 438.913
24.45000 446.911
24.46000 439.205
24.47000 430.966
24.48000 426.058
24.49000 422.283
24.50000 419.615
24.51000 416.579
24.52000 413.192
24.53000 409.830
24.54000 408.508
24.55000 408.471
24.56000 408.436
24.57000 401.151
24.58000 391.268
24.59000 382.733
24.60000 390.345
24.61000 402.673
24.62000 412.724
24.63000 406.700
24.64000 397.553
24.65000 389.906
24.66000 398.668
24.67000 407.613
24.68000 412.386
24.69000 404.432
24.70000 395.596
24.71000 389.560
24.72000 389.350
24.73000 389.320
24.74000 389.302
24.75000 409.106
24.76000 423.149
24.77000 423.692
24.78000 411.847
24.79000 400.084
24.80000 394.009
24.81000 391.393
24.82000 388.857
24.83000 400.631
24.84000 417.401
24.85000 432.408
24.86000 427.393
24.87000 416.737
24.88000 407.145
24.89000 404.739
24.90000 403.676
24.91000 402.794
24.92000 405.286
24.93000 407.672
24.94000 408.164
24.95000 403.082
24.96000 397.636
24.97000 397.951
24.98000 409.842
24.99000 422.061
25.00000 429.109
25.01000 411.512
25.02000 399.098
25.03000 394.264
25.04000 396.114
25.05000 397.940
25.06000 398.273
25.07000 397.731
25.08000 397.206
25.09000 399.651
25.10000 403.080
25.11000 406.564
25.12000 410.639
25.13000 414.875
25.14000 417.996
25.15000 413.901
25.16000 408.510
25.17000 404.068
25.18000 401.493
25.19000 399.546
25.20000 396.779
25.21000 391.683
25.22000 386.444
25.23000 383.636
25.24000 385.543
25.25000 387.572
25.26000 388.722
25.27000 392.142
25.28000 394.534
25.29000 399.638
25.30000 407.043
25.31000 414.298
25.32000 413.688
25.33000 408.622
25.34000 403.736
25.35000 400.333
25.36000 397.670
25.37000 395.483
25.38000 398.156
25.39000 402.102
25.40000 404.534
25.41000 397.566
25.42000 388.977
25.43000 381.953
25.44000 378.089
25.45000 375.198
25.46000 374.900
25.47000 381.717
25.48000 388.942
25.49000 392.625
25.50000 389.677
25.51000 386.577
25.52000 384.848
25.53000 387.363
25.54000 389.112
25.55000 390.408
25.56000 391.335
25.57000 392.184
25.58000 389.387
25.59000 384.598
25.60000 379.993
25.61000 377.741
25.62000 376.454
25.63000 375.554
25.64000 378.415
25.65000 382.226
25.66000 385.605
25.67000 386.403
25.68000 386.774
25.69000 387.075
25.70000 385.372
25.71000 383.819
25.72000 381.952
25.73000 379.252
25.74000 376.507
25.75000 378.725
25.76000 389.912
25.77000 401.283
25.78000 407.515
25.79000 383.757
25.80000 367.426
25.81000 366.613
25.82000 377.987
25.83000 389.272
25.84000 396.855
25.85000 402.483
25.86000 407.880
25.87000 401.531
25.88000 391.655
25.89000 382.522
25.90000 380.272
25.91000 379.696
25.92000 380.497
25.93000 389.171
25.94000 399.096
25.95000 407.086
25.96000 407.848
25.97000 407.903
25.98000 408.916
25.99000 412.379
26.00000 415.966
26.01000 413.027
26.02000 398.708
26.03000 384.181
26.04000 376.362
26.05000 386.582
26.06000 393.543
26.07000 391.791
26.08000 383.453
26.09000 375.393
26.10000 377.878
26.11000 385.734
26.12000 393.241
26.13000 395.021
26.14000 394.824
26.15000 393.902
26.16000 386.578
26.17000 377.752
26.18000 370.939
26.19000 375.189
26.20000 381.122
26.21000 385.861
26.22000 382.523
26.23000 379.232
26.24000 377.187
26.25000 378.220
26.26000 379.396
26.27000 380.833
26.28000 382.709
26.29000 384.593
26.30000 385.588
26.31000 382.482
26.32000 380.388
26.33000 381.127
26.34000 383.930
26.35000 386.683
26.36000 387.693
26.37000 387.847
26.38000 387.994
26.39000 388.665
26.40000 389.449
26.41000 389.955
26.42000 388.115
26.43000 385.746
26.44000 383.345
26.45000 380.770
26.46000 378.170
26.47000 376.111
26.48000 378.245
26.49000 380.252
26.50000 381.100
26.51000 379.179
26.52000 377.138
26.53000 375.828
26.54000 375.703
26.55000 375.595
26.56000 375.539
26.57000 375.641
26.58000 375.731
26.59000 378.622
26.60000 383.479
26.61000 388.189
26.62000 388.284
26.63000 386.188
26.64000 384.199
26.65000 378.846
26.66000 372.899
26.67000 367.679
26.68000 368.299
26.69000 370.191
26.70000 371.993
26.71000 373.343
26.72000 374.631
26.73000 375.643
26.74000 378.864
26.75000 381.586
26.76000 381.390
26.77000 374.466
26.78000 367.275
26.79000 364.268
26.80000 367.815
26.81000 371.440
26.82000 373.282
26.83000 378.594
26.84000 382.087
26.85000 378.105
26.86000 369.067
26.87000 360.344
26.88000 360.614
26.89000 365.007
26.90000 369.164
26.91000 373.297
26.92000 377.091
26.93000 380.197
26.94000 378.025
26.95000 374.747
26.96000 372.185
26.97000 373.120
26.98000 374.523
26.99000 375.616
27.00000 371.948
27.01000 368.734
27.02000 365.144
27.03000 360.717
27.04000 356.259
27.05000 357.188
27.06000 366.252
27.07000 375.398
27.08000 375.969
27.09000 368.039
27.10000 360.230
27.11000 363.524
27.12000 374.059
27.13000 384.293
27.14000 386.608
27.15000 385.417
27.16000 384.294
27.17000 382.474
27.18000 380.616
27.19000 379.015
27.20000 379.310
27.21000 379.986
27.22000 379.856
27.23000 375.938
27.24000 371.537
27.25000 368.140
27.26000 364.361
27.27000 361.343
27.28000 360.382
27.29000 363.841
27.30000 367.449
27.31000 370.793
27.32000 373.753
27.33000 376.710
27.34000 375.930
27.35000 371.594
27.36000 367.231
27.37000 360.700
27.38000 352.808
27.39000 345.561
27.40000 353.975
27.41000 369.085
27.42000 383.274
27.43000 382.370
27.44000 377.538
27.45000 372.886
27.46000 369.504
27.47000 366.367
27.48000 364.287
27.49000 366.992
27.50000 370.281
27.51000 372.796
27.52000 374.357
27.53000 375.537
27.54000 375.368
27.55000 372.399
27.56000 369.345
27.57000 367.204
27.58000 366.342
27.59000 365.490
27.60000 368.464
27.61000 374.934
27.62000 381.324
27.63000 382.328
27.64000 380.064
27.65000 377.617
27.66000 371.034
27.67000 362.744
27.68000 354.990
27.69000 358.398
27.70000 364.341
27.71000 369.727
27.72000 371.353
27.73000 372.279
27.74000 373.399
27.75000 375.363
27.76000 377.425
27.77000 378.987
27.78000 373.748
27.79000 369.288
27.80000 367.109
27.81000 369.499
27.82000 372.016
27.83000 370.439
27.84000 363.328
27.85000 356.190
27.86000 357.433
27.87000 366.031
27.88000 374.401
27.89000 369.336
27.90000 356.408
27.91000 344.155
27.92000 345.973
27.93000 353.402
27.94000 360.323
27.95000 360.941
27.96000 359.954
27.97000 359.378
27.98000 361.446
27.99000 363.988
28.00000 364.914
28.01000 359.065
28.02000 352.462
28.03000 347.508
28.04000 357.886
28.05000 366.724
28.06000 370.086
28.07000 362.858
28.08000 355.361
28.09000 352.125
28.10000 354.436
28.11000 356.768
28.12000 359.368
28.13000 362.188
28.14000 364.982
28.15000 366.425
28.16000 367.106
28.17000 367.711
28.18000 366.849
28.19000 365.422
28.20000 364.098
28.21000 364.916
28.22000 366.157
28.23000 367.393
28.24000 368.596
28.25000 369.793
28.26000 370.972
28.27000 372.075
28.28000 373.170
28.29000 373.984
28.30000 359.919
28.31000 348.324
28.32000 345.660
28.33000 359.675
28.34000 374.069
28.35000 379.269
28.36000 372.946
28.37000 366.596
28.38000 362.965
28.39000 361.551
28.40000 360.242
28.41000 363.795
28.42000 369.999
28.43000 375.495
28.44000 368.174
28.45000 356.087
28.46000 344.921
28.47000 348.130
28.48000 354.259
28.49000 359.818
28.50000 362.000
28.51000 363.625
28.52000 364.718
28.53000 363.741
28.54000 362.555
28.55000 361.683
28.56000 358.565
28.57000 356.060
28.58000 354.415
28.59000 354.323
28.60000 354.262
28.61000 354.352
28.62000 354.625
28.63000 354.897
28.64000 351.082
28.65000 344.102
28.66000 337.393
28.67000 341.913
28.68000 352.340
28.69000 362.183
28.70000 362.092
28.71000 358.434
28.72000 355.070
28.73000 351.413
28.74000 348.082
28.75000 344.940
28.76000 342.879
28.77000 340.989
28.78000 339.282
28.79000 338.267
28.80000 337.318
28.81000 336.627
28.82000 343.482
28.83000 349.048
28.84000 351.404
28.85000 348.177
28.86000 344.849
28.87000 345.618
28.88000 351.141
28.89000 356.655
28.90000 358.230
28.91000 356.845
28.92000 355.407
28.93000 351.952
28.94000 347.472
28.95000 343.644
28.96000 350.193
28.97000 360.339
28.98000 369.628
28.99000 367.829
29.00000 363.921
29.01000 359.556
29.02000 352.685
29.03000 345.433
29.04000 340.907
29.05000 346.259
29.06000 352.508
29.07000 357.011
29.08000 358.961
29.09000 360.364
29.10000 361.309
29.11000 361.486
29.12000 361.650
29.13000 357.123
29.14000 347.363
29.15000 337.633
29.16000 335.496
29.17000 338.842
29.18000 342.361
29.19000 351.760
29.20000 364.043
29.21000 375.118
29.22000 368.149
29.23000 355.141
29.24000 343.287
29.25000 346.129
29.26000 351.581
29.27000 356.126
29.28000 355.901
29.29000 354.982
29.30000 353.993
29.31000 352.756
29.32000 351.498
29.33000 350.601
29.34000 351.427
29.35000 352.114
29.36000 351.433
29.37000 348.540
29.38000 345.616
29.39000 343.211
29.40000 341.361
29.41000 339.519
29.42000 339.084
29.43000 339.626
29.44000 340.170
29.45000 340.757
29.46000 341.365
29.47000 342.051
29.48000 343.856
29.49000 346.022
29.50000 347.986
29.51000 349.877
29.52000 351.532
29.53000 352.951
29.54000 353.174
29.55000 353.230
29.56000 354.653
29.57000 360.686
29.58000 367.094
29.59000 371.611
29.60000 360.016
29.61000 350.737
29.62000 347.874
29.63000 355.030
29.64000 362.304
29.65000 364.800
29.66000 362.376
29.67000 359.966
29.68000 356.309
29.69000 351.869
29.70000 347.509
29.71000 345.430
29.72000 344.393
29.73000 343.801
29.74000 349.118
29.75000 356.277
29.76000 362.737
29.77000 366.636
29.78000 369.592
29.79000 372.763
29.80000 376.982
29.81000 381.342
29.82000 384.276
29.83000 382.572
29.84000 380.511
29.85000 379.074
29.86000 390.712
29.87000 399.855
29.88000 405.901
29.89000 407.286
29.90000 408.624
29.91000 407.115
29.92000 402.791
29.93000 398.495
29.94000 401.220
29.95000 408.399
29.96000 415.428
29.97000 418.553
29.98000 419.954
29.99000 420.943
30.00000 416.757
30.01000 411.014
30.02000 405.858
30.03000 409.255
30.04000 413.729
30.05000 417.438
30.06000 417.560
30.07000 417.226
30.08000 416.279
30.09000 413.404
30.10000 410.390
30.11000 408.313
30.12000 408.933
30.13000 409.467
30.14000 405.743
30.15000 395.838
30.16000 385.884
30.17000 383.149
30.18000 387.262
30.19000 391.343
30.20000 392.277
30.21000 391.254
30.22000 390.170
30.23000 387.605
30.24000 384.408
30.25000 380.953
30.26000 374.433
30.27000 367.023
30.28000 360.406
30.29000 354.948
30.30000 350.390
30.31000 347.755
30.32000 353.793
30.33000 360.887
30.34000 367.466
30.35000 372.489
30.36000 377.405
30.37000 380.752
30.38000 377.488
30.39000 374.898
30.40000 371.193
30.41000 365.925
30.42000 360.649
30.43000 358.911
30.44000 360.397
30.45000 361.869
30.46000 364.681
30.47000 368.232
30.48000 371.532
30.49000 369.247
30.50000 364.663
30.51000 360.323
30.52000 358.723
30.53000 357.890
30.54000 357.150
30.55000 363.345
30.56000 369.834
30.57000 374.491
30.58000 371.192
30.59000 366.971
30.60000 364.120
30.61000 365.283
30.62000 366.704
30.63000 367.660
30.64000 373.786
30.65000 378.444
30.66000 380.980
30.67000 380.656
30.68000 380.314
30.69000 377.581
30.70000 372.754
30.71000 367.978
30.72000 368.579
30.73000 372.232
30.74000 375.775
30.75000 377.053
30.76000 377.430
30.77000 378.517
30.78000 387.189
30.79000 397.911
30.80000 407.382
30.81000 408.477
30.82000 408.132
30.83000 408.494
30.84000 411.814
30.85000 415.461
30.86000 417.195
30.87000 413.519
30.88000 409.516
30.89000 406.857
30.90000 422.270
30.91000 433.998
30.92000 443.569
30.93000 450.340
30.94000 457.108
30.95000 468.778
30.96000 484.578
30.97000 500.184
30.98000 512.792
30.99000 523.435
31.00000 534.979
31.01000 563.906
31.02000 599.508
31.03000 634.683
31.04000 665.524
31.05000 695.236
31.06000 721.336
31.07000 758.384
31.08000 791.844
31.09000 828.842
31.10000 880.100
31.11000 932.861
31.12000 985.697
31.13000 1038.738
31.14000 1091.791
31.15000 1126.573
31.16000 1210.622
31.17000 1273.242
31.18000 1341.745
31.19000 1417.595
31.20000 1493.463
31.21000 1567.917
31.22000 1641.225
31.23000 1713.515
31.24000 1784.469
31.25000 1852.719
31.26000 1920.913
31.27000 1988.081
31.28000 2054.869
31.29000 2118.650
31.30000 2153.411
31.31000 2180.887
31.32000 2204.882
31.33000 2235.217
31.34000 2262.073
31.35000 2284.346
31.36000 2288.814
31.37000 2291.496
31.38000 2287.509
31.39000 2265.951
31.40000 2243.461
31.41000 2228.910
31.42000 2130.776
31.43000 2057.767
31.44000 1990.789
31.45000 1931.060
31.46000 1871.284
31.47000 1794.546
31.48000 1704.574
31.49000 1616.010
31.50000 1544.061
31.51000 1482.792
31.52000 1420.434
31.53000 1339.676
31.54000 1252.331
31.55000 1165.881
31.56000 1087.652
31.57000 1011.411
31.58000 945.230
31.59000 893.467
31.60000 851.297
31.61000 807.960
31.62000 760.255
31.63000 712.134
31.64000 669.755
31.65000 641.985
31.66000 614.937
31.67000 597.671
31.68000 561.069
31.69000 534.191
31.70000 513.888
31.71000 501.190
31.72000 488.494
31.73000 474.409
31.74000 459.280
31.75000 444.416
31.76000 436.087
31.77000 431.237
31.78000 426.178
31.79000 417.792
31.80000 408.256
31.81000 398.601
31.82000 387.897
31.83000 376.949
31.84000 367.503
31.85000 365.988
31.86000 365.719
31.87000 365.063
31.88000 363.008
31.89000 360.828
31.90000 361.009
31.91000 366.995
31.92000 373.247
31.93000 377.183
31.94000 364.809
31.95000 355.670
31.96000 350.205
31.97000 348.823
31.98000 347.433
31.99000 344.413
32.00000 340.212
32.01000 336.094
32.02000 338.064
32.03000 342.828
32.04000 347.285
32.05000 347.178
32.06000 345.549
32.07000 343.800
32.08000 341.056
32.09000 338.089
32.10000 335.546
32.11000 332.259
32.12000 329.392
32.13000 327.274
32.14000 327.767
32.15000 328.483
32.16000 329.930
32.17000 333.110
32.18000 336.364
32.19000 338.383
32.20000 333.474
32.21000 329.873
32.22000 326.349
32.23000 322.907
32.24000 319.505
32.25000 321.173
32.26000 326.378
32.27000 331.470
32.28000 332.109
32.29000 330.705
32.30000 328.849
32.31000 320.662
32.32000 310.435
32.33000 301.442
32.34000 302.289
32.35000 305.263
32.36000 307.797
32.37000 309.496
32.38000 310.827
32.39000 312.578
32.40000 315.739
32.41000 319.015
32.42000 321.323
32.43000 321.415
32.44000 321.420
32.45000 321.422
32.46000 320.490
32.47000 319.815
32.48000 319.722
32.49000 320.224
32.50000 320.722
32.51000 320.808
32.52000 320.617
32.53000 320.430
32.54000 321.357
32.55000 322.729
32.56000 324.113
32.57000 325.650
32.58000 327.233
32.59000 327.939
32.60000 321.948
32.61000 314.564
32.62000 308.317
32.63000 314.572
32.64000 321.196
32.65000 324.507
32.66000 317.069
32.67000 308.807
32.68000 304.087
32.69000 307.206
32.70000 310.608
32.71000 312.659
32.72000 305.881
32.73000 300.996
32.74000 304.087
32.75000 315.030
32.76000 325.884
32.77000 328.708
32.78000 326.326
32.79000 324.007
32.80000 334.527
32.81000 349.944
32.82000 365.752
32.83000 386.454
32.84000 408.625
32.85000 428.966
32.86000 435.970
32.87000 440.304
32.88000 443.946
32.89000 465.314
32.90000 484.990
32.91000 501.594
32.92000 508.576
32.93000 514.861
32.94000 517.461
32.95000 512.187
32.96000 506.651
32.97000 503.367
32.98000 509.776
32.99000 514.368
33.00000 520.560
33.01000 528.266
33.02000 535.747
33.03000 526.094
33.04000 505.731
33.05000 485.947
33.06000 464.278
33.07000 442.932
33.08000 422.631
33.09000 414.670
33.10000 410.281
33.11000 404.114
33.12000 385.532
33.13000 364.562
33.14000 347.063
33.15000 334.768
33.16000 325.092
33.17000 316.192
33.18000 309.636
33.19000 303.239
33.20000 299.079
33.21000 299.532
33.22000 300.125
33.23000 300.472
33.24000 297.630
33.25000 295.616
33.26000 294.469
33.27000 294.108
33.28000 293.678
33.29000 288.708
33.30000 280.999
33.31000 273.530
33.32000 280.308
33.33000 292.262
33.34000 303.271
33.35000 303.702
33.36000 301.179
33.37000 299.205
33.38000 300.903
33.39000 303.279
33.40000 305.248
33.41000 300.397
33.42000 295.740
33.43000 292.874
33.44000 295.234
33.45000 297.930
33.46000 299.291
33.47000 297.994
33.48000 296.624
33.49000 295.837
33.50000 301.511
33.51000 305.499
33.52000 307.584
33.53000 308.004
33.54000 308.392
33.55000 306.835
33.56000 304.147
33.57000 301.549
33.58000 300.165
33.59000 299.314
33.60000 298.078
33.61000 292.745
33.62000 286.310
33.63000 280.979
33.64000 282.730
33.65000 285.740
33.66000 288.216
33.67000 288.854
33.68000 289.213
33.69000 288.901
33.70000 286.701
33.71000 284.386
33.72000 284.153
33.73000 287.924
33.74000 291.795
33.75000 293.982
33.76000 290.424
33.77000 287.937
33.78000 286.550
33.79000 286.087
33.80000 285.712
33.81000 289.856
33.82000 296.536
33.83000 302.974
33.84000 299.126
33.85000 291.808
33.86000 285.189
33.87000 285.621
33.88000 287.884
33.89000 290.147
33.90000 292.412
33.91000 294.678
33.92000 296.527
33.93000 300.064
33.94000 303.102
33.95000 307.498
33.96000 315.591
33.97000 323.892
33.98000 326.654
33.99000 319.133
34.00000 311.383
34.01000 307.078
34.02000 305.431
34.03000 304.298
34.04000 303.395
34.05000 302.679
34.06000 301.979
34.07000 302.076
34.08000 302.605
34.09000 303.113
34.10000 303.430
34.11000 303.661
34.12000 303.960
34.13000 304.913
34.14000 306.030
34.15000 307.451
34.16000 310.669
34.17000 314.182
34.18000 317.027
34.19000 311.684
34.20000 306.668
34.21000 304.008
34.22000 307.538
34.23000 311.394
34.24000 312.695
34.25000 309.419
34.26000 306.052
34.27000 304.215
34.28000 295.806
34.29000 290.052
34.30000 291.983
34.31000 299.890
34.32000 307.654
34.33000 309.541
34.34000 308.353
34.35000 307.215
34.36000 303.862
34.37000 299.996
34.38000 296.802
34.39000 299.757
34.40000 304.195
34.41000 307.700
34.42000 305.930
34.43000 303.330
34.44000 301.241
34.45000 302.484
34.46000 303.747
34.47000 304.677
34.48000 304.760
34.49000 304.802
34.50000 305.407
34.51000 306.987
34.52000 308.584
34.53000 309.440
34.54000 308.330
34.55000 307.572
34.56000 307.033
34.57000 306.657
34.58000 306.250
34.59000 304.702
34.60000 302.577
34.61000 300.549
34.62000 300.083
34.63000 300.151
34.64000 299.840
34.65000 296.231
34.66000 291.856
34.67000 288.302
34.68000 289.213
34.69000 290.796
34.70000 292.057
34.71000 296.711
34.72000 300.712
34.73000 304.192
34.74000 306.397
34.75000 308.543
34.76000 306.387
34.77000 297.055
34.78000 287.612
34.79000 282.647
34.80000 278.614
34.81000 275.891
34.82000 274.775
34.83000 274.820
34.84000 275.013
34.85000 280.178
34.86000 287.767
34.87000 294.990
34.88000 293.048
34.89000 288.429
34.90000 283.359
34.91000 274.537
34.92000 264.876
34.93000 257.732
34.94000 263.751
34.95000 271.668
34.96000 277.927
34.97000 278.316
34.98000 278.226
34.99000 277.329
35.00000 274.521
35.01000 271.633
35.02000 269.366
35.03000 268.102
35.04000 266.850
35.05000 266.205
35.06000 269.465
35.07000 271.632
35.08000 270.129
35.09000 266.074
35.10000 262.169
35.11000 262.877
35.12000 265.756
35.13000 268.486
35.14000 271.513
35.15000 274.391
35.16000 276.828
35.17000 275.756
35.18000 273.927
35.19000 272.234
35.20000 271.218
35.21000 270.296
35.22000 269.573
35.23000 263.817
35.24000 258.892
35.25000 256.541
35.26000 260.071
35.27000 263.831
35.28000 263.444
35.29000 256.620
35.30000 249.723
35.31000 246.236
35.32000 263.380
35.33000 274.722
35.34000 272.484
35.35000 261.144
35.36000 250.247
35.37000 251.727
35.38000 258.832
35.39000 265.548
35.40000 264.473
35.41000 261.267
35.42000 258.653
35.43000 260.531
35.44000 263.341
35.45000 264.654
35.46000 258.731
35.47000 251.852
35.48000 246.507
35.49000 253.211
35.50000 259.276
35.51000 262.880
35.52000 261.056
35.53000 259.038
35.54000 257.768
35.55000 257.619
35.56000 257.482
35.57000 260.528
35.58000 266.699
35.59000 272.774
35.60000 270.399
35.61000 262.564
35.62000 255.097
35.63000 257.143
35.64000 263.365
35.65000 269.223
35.66000 267.717
35.67000 264.323
35.68000 261.687
35.69000 264.555
35.70000 268.520
35.71000 272.004
35.72000 273.240
35.73000 274.193
35.74000 274.927
35.75000 267.284
35.76000 260.754
35.77000 255.443
35.78000 252.724
35.79000 250.091
35.80000 251.726
35.81000 259.516
35.82000 267.355
35.83000 269.849
35.84000 267.307
35.85000 264.749
35.86000 260.936
35.87000 256.343
35.88000 251.901
35.89000 251.061
35.90000 251.747
35.91000 252.390
35.92000 255.093
35.93000 258.098
35.94000 260.400
35.95000 257.819
35.96000 254.302
35.97000 251.608
35.98000 252.604
35.99000 254.045
36.00000 255.144
36.01000 256.300
36.02000 257.213
36.03000 257.682
36.04000 257.237
36.05000 256.766
36.06000 255.039
36.07000 251.567
36.08000 248.084
36.09000 247.019
36.10000 248.142
36.11000 249.267
36.12000 250.561
36.13000 251.956
36.14000 253.314
36.15000 253.867
36.16000 254.092
36.17000 254.302
36.18000 255.115
36.19000 256.006
36.20000 256.310
36.21000 252.704
36.22000 248.377
36.23000 245.072
36.24000 246.181
36.25000 247.798
36.26000 249.020
36.27000 252.826
36.28000 255.940
36.29000 258.309
36.30000 259.201
36.31000 260.052
36.32000 260.332
36.33000 259.847
36.34000 259.358
36.35000 257.386
36.36000 254.128
36.37000 250.990
36.38000 254.767
36.39000 262.553
36.40000 269.917
36.41000 268.628
36.42000 263.920
36.43000 259.538
36.44000 260.344
36.45000 262.330
36.46000 263.109
36.47000 256.175
36.48000 247.875
36.49000 241.808
36.50000 245.024
36.51000 249.259
36.52000 252.429
36.53000 259.604
36.54000 265.389
36.55000 268.467
36.56000 266.355
36.57000 264.115
36.58000 261.287
36.59000 257.700
36.60000 254.115
36.61000 253.723
36.62000 255.998
36.63000 258.232
36.64000 258.364
36.65000 257.319
36.66000 256.065
36.67000 250.818
36.68000 244.046
36.69000 237.770
36.70000 243.249
36.71000 250.919
36.72000 257.804
36.73000 259.880
36.74000 261.138
36.75000 261.114
36.76000 255.952
36.77000 250.254
36.78000 246.030
36.79000 249.085
36.80000 251.774
36.81000 256.162
36.82000 263.693
36.83000 271.293
36.84000 273.127
36.85000 267.803
36.86000 262.467
36.87000 257.496
36.88000 252.839
36.89000 248.349
36.90000 251.430
36.91000 258.599
36.92000 265.570
36.93000 268.990
36.94000 271.102
36.95000 273.051
36.96000 272.341
36.97000 271.110
36.98000 269.889
36.99000 268.731
37.00000 267.584
37.01000 266.105
37.02000 263.350
37.03000 260.467
37.04000 258.352
37.05000 251.918
37.06000 246.771
37.07000 246.211
37.08000 253.842
37.09000 261.635
37.10000 264.516
37.11000 261.528
37.12000 258.537
37.13000 259.757
37.14000 264.218
37.15000 268.579
37.16000 268.854
37.17000 267.000
37.18000 265.155
37.19000 263.482
37.20000 261.868
37.21000 260.387
37.22000 256.692
37.23000 252.919
37.24000 248.926
37.25000 243.684
37.26000 238.247
37.27000 234.549
37.28000 237.327
37.29000 240.716
37.30000 243.178
37.31000 249.338
37.32000 254.214
37.33000 254.258
37.34000 245.973
37.35000 237.543
37.36000 235.377
37.37000 240.407
37.38000 245.431
37.39000 252.194
37.40000 260.196
37.41000 267.964
37.42000 267.186
37.43000 262.106
37.44000 257.473
37.45000 259.853
37.46000 264.641
37.47000 269.021
37.48000 265.410
37.49000 260.556
37.50000 256.528
37.51000 256.980
37.52000 258.104
37.53000 257.984
37.54000 253.399
37.55000 248.414
37.56000 244.832
37.57000 244.464
37.58000 244.294
37.59000 246.093
37.60000 251.166
37.61000 256.289
37.62000 257.516
37.63000 254.441
37.64000 251.374
37.65000 251.512
37.66000 253.933
37.67000 256.296
37.68000 256.722
37.69000 256.206
37.70000 255.758
37.71000 256.299
37.72000 257.169
37.73000 257.961
37.74000 260.711
37.75000 263.532
37.76000 264.006
37.77000 252.255
37.78000 238.745
37.79000 229.664
37.80000 235.928
37.81000 243.495
37.82000 248.874
37.83000 249.843
37.84000 250.440
37.85000 250.086
37.86000 248.208
37.87000 246.310
37.88000 249.756
37.89000 258.871
37.90000 267.944
37.91000 264.654
37.92000 252.925
37.93000 241.521
37.94000 239.964
37.95000 243.028
37.96000 245.896
37.97000 246.029
37.98000 245.287
37.99000 244.615
38.00000 246.386
38.01000 248.410
38.02000 250.220
38.03000 250.957
38.04000 251.546
38.05000 251.867
38.06000 251.293
38.07000 250.646
38.08000 250.192
38.09000 255.552
38.10000 259.783
38.11000 262.671
38.12000 263.481
38.13000 264.266
38.14000 263.238
38.15000 260.363
38.16000 257.504
38.17000 258.394
38.18000 261.743
38.19000 265.182
38.20000 271.109
38.21000 278.165
38.22000 284.772
38.23000 285.516
38.24000 284.447
38.25000 283.483
38.26000 290.982
38.27000 299.099
38.28000 305.764
38.29000 305.436
38.30000 304.187
38.31000 304.714
38.32000 310.967
38.33000 317.655
38.34000 322.303
38.35000 341.118
38.36000 355.679
38.37000 368.094
38.38000 377.307
38.39000 386.490
38.40000 402.220
38.41000 424.353
38.42000 446.332
38.43000 464.016
38.44000 478.700
38.45000 493.441
38.46000 509.642
38.47000 526.483
38.48000 544.045
38.49000 570.529
38.50000 599.672
38.51000 625.804
38.52000 646.874
38.53000 664.405
38.54000 682.316
38.55000 701.991
38.56000 721.889
38.57000 743.416
38.58000 770.018
38.59000 796.985
38.60000 815.507
38.61000 832.791
38.62000 845.721
38.63000 863.199
38.64000 887.218
38.65000 911.287
38.66000 925.786
38.67000 931.299
38.68000 936.766
38.69000 937.721
38.70000 935.907
38.71000 933.831
38.72000 925.572
38.73000 914.701
38.74000 903.633
38.75000 890.259
38.76000 876.222
38.77000 863.702
38.78000 836.174
38.79000 809.729
38.80000 784.423
38.81000 764.211
38.82000 744.611
38.83000 724.016
38.84000 700.435
38.85000 676.651
38.86000 660.509
38.87000 632.689
38.88000 611.675
38.89000 587.571
38.90000 559.187
38.91000 530.778
38.92000 504.618
38.93000 480.490
38.94000 456.593
38.95000 439.497
38.96000 426.745
38.97000 413.743
38.98000 395.242
38.99000 374.497
39.00000 354.340
39.01000 340.713
39.02000 328.899
39.03000 318.418
39.04000 309.155
39.05000 301.324
39.06000 294.464
39.07000 291.784
39.08000 289.583
39.09000 286.267
39.10000 279.713
39.11000 272.954
39.12000 268.423
39.13000 259.373
39.14000 252.566
39.15000 249.764
39.16000 252.309
39.17000 254.879
39.18000 256.437
39.19000 257.118
39.20000 257.792
39.21000 253.987
39.22000 247.741
39.23000 241.824
39.24000 242.609
39.25000 246.035
39.26000 249.451
39.27000 252.760
39.28000 256.042
39.29000 258.937
39.30000 255.418
39.31000 251.406
39.32000 247.602
39.33000 244.658
39.34000 241.808
39.35000 239.637
39.36000 239.369
39.37000 239.214
39.38000 239.111
39.39000 239.548
39.40000 239.880
39.41000 238.811
39.42000 235.943
39.43000 233.072
39.44000 232.218
39.45000 233.048
39.46000 233.867
39.47000 233.368
39.48000 232.167
39.49000 231.013
39.50000 230.749
39.51000 230.824
39.52000 230.876
39.53000 230.706
39.54000 230.479
39.55000 230.279
39.56000 231.675
39.57000 233.107
39.58000 233.896
39.59000 232.122
39.60000 230.081
39.61000 228.491
39.62000 228.118
39.63000 227.813
39.64000 227.614
39.65000 225.250
39.66000 223.480
39.67000 222.543
39.68000 222.637
39.69000 222.740
39.70000 224.609
39.71000 227.897
39.72000 231.137
39.73000 231.269
39.74000 229.771
39.75000 228.229
39.76000 225.918
39.77000 223.324
39.78000 220.754
39.79000 218.414
39.80000 216.130
39.81000 214.139
39.82000 219.151
39.83000 224.411
39.84000 228.487
39.85000 228.007
39.86000 227.076
39.87000 226.516
39.88000 226.928
39.89000 227.391
39.90000 227.689
39.91000 218.698
39.92000 211.997
39.93000 211.362
39.94000 217.949
39.95000 224.525
39.96000 225.067
39.97000 220.947
39.98000 216.892
39.99000 216.015
40.00000 216.764
40.01000 217.798
40.02000 223.569
40.03000 231.021
40.04000 237.683
40.05000 237.181
40.06000 234.961
40.07000 233.038
40.08000 231.356
40.09000 229.956
40.10000 226.867
40.11000 217.507
40.12000 207.556
40.13000 202.292
40.14000 208.846
40.15000 215.975
40.16000 220.509
40.17000 222.073
40.18000 223.172
40.19000 222.601
40.20000 220.118
40.21000 217.660
40.22000 220.254
40.23000 226.610
40.24000 232.851
40.25000 231.433
40.26000 226.354
40.27000 221.383
40.28000 218.093
40.29000 215.379
40.30000 212.764
40.31000 211.003
40.32000 209.439
40.33000 208.092
40.34000 211.040
40.35000 214.084
40.36000 215.902
40.37000 213.333
40.38000 210.372
40.39000 210.154
40.40000 216.613
40.41000 223.373
40.42000 227.614
40.43000 224.991
40.44000 223.021
40.45000 223.445
40.46000 226.504
40.47000 229.537
40.48000 228.264
40.49000 223.905
40.50000 219.633
40.51000 216.951
40.52000 215.111
40.53000 213.300
40.54000 211.914
40.55000 210.668
40.56000 209.299
40.57000 206.920
40.58000 204.316
40.59000 202.087
40.60000 205.771
40.61000 209.593
40.62000 213.546
40.63000 217.950
40.64000 222.393
40.65000 222.866
40.66000 214.001
40.67000 204.747
40.68000 199.024
40.69000 210.123
40.70000 218.258
40.71000 221.158
40.72000 218.523
40.73000 215.908
40.74000 215.736
40.75000 217.254
40.76000 218.739
40.77000 219.289
40.78000 219.398
40.79000 219.506
40.80000 219.615
40.81000 219.723
40.82000 219.659
40.83000 218.232
40.84000 216.514
40.85000 215.053
40.86000 210.882
40.87000 207.067
40.88000 204.086
40.89000 203.883
40.90000 203.902
40.91000 204.951
40.92000 208.339
40.93000 211.816
40.94000 213.935
40.95000 216.465
40.96000 218.275
40.97000 216.377
40.98000 210.711
40.99000 205.083
41.00000 203.303
41.01000 204.086
41.02000 204.850
41.03000 201.695
41.04000 196.985
41.05000 192.625
41.06000 192.807
41.07000 194.388
41.08000 196.407
41.09000 201.723
41.10000 207.718
41.11000 212.781
41.12000 211.150
41.13000 209.052
41.14000 206.354
41.15000 201.724
41.16000 196.948
41.17000 194.235
41.18000 196.046
41.19000 198.017
41.20000 199.200
41.21000 205.544
41.22000 210.086
41.23000 210.988
41.24000 208.341
41.25000 205.707
41.26000 204.098
41.27000 203.148
41.28000 202.223
41.29000 207.596
41.30000 215.331
41.31000 222.087
41.32000 216.788
41.33000 207.904
41.34000 200.174
41.35000 200.762
41.36000 202.999
41.37000 204.875
41.38000 204.685
41.39000 204.312
41.40000 203.451
41.41000 201.075
41.42000 198.591
41.43000 196.065
41.44000 193.451
41.45000 190.833
41.46000 189.287
41.47000 188.677
41.48000 188.252
41.49000 190.227
41.50000 194.451
41.51000 198.640
41.52000 200.354
41.53000 200.534
41.54000 200.709
41.55000 199.117
41.56000 196.901
41.57000 195.289
41.58000 200.720
41.59000 208.172
41.60000 214.735
41.61000 215.158
41.62000 214.412
41.63000 213.790
41.64000 210.811
41.65000 208.110
41.66000 205.976
41.67000 205.544
41.68000 205.227
41.69000 205.279
41.70000 206.087
41.71000 206.918
41.72000 207.401
41.73000 204.619
41.74000 202.652
41.75000 201.549
41.76000 201.225
41.77000 200.914
41.78000 201.457
41.79000 202.511
41.80000 203.531
41.81000 208.115
41.82000 213.822
41.83000 218.825
41.84000 216.045
41.85000 211.111
41.86000 206.370
41.87000 202.904
41.88000 199.671
41.89000 196.998
41.90000 197.299
41.91000 197.828
41.92000 198.751
41.93000 200.815
41.94000 202.951
41.95000 203.550
41.96000 201.116
41.97000 198.599
41.98000 197.160
41.99000 203.171
42.00000 207.386
42.01000 205.543
42.02000 198.462
42.03000 191.541
42.04000 193.612
42.05000 200.868
42.06000 207.875
42.07000 208.332
42.08000 206.338
42.09000 204.432
42.10000 203.467
42.11000 202.752
42.12000 201.852
42.13000 199.784
42.14000 197.510
42.15000 195.643
42.16000 195.779
42.17000 196.070
42.18000 196.138
42.19000 195.585
42.20000 194.996
42.21000 196.017
42.22000 200.107
42.23000 204.271
42.24000 206.614
42.25000 196.196
42.26000 188.947
42.27000 189.260
42.28000 195.861
42.29000 202.383
42.30000 204.938
42.31000 205.287
42.32000 205.622
42.33000 210.535
42.34000 216.779
42.35000 222.151
42.36000 218.826
42.37000 213.264
42.38000 208.043
42.39000 204.894
42.40000 202.095
42.41000 199.816
42.42000 204.705
42.43000 209.307
42.44000 211.648
42.45000 207.892
42.46000 203.798
42.47000 202.182
42.48000 205.126
42.49000 208.168
42.50000 209.851
42.51000 203.793
42.52000 199.608
42.53000 198.186
42.54000 198.975
42.55000 199.770
42.56000 200.837
42.57000 202.050
42.58000 203.215
42.59000 205.918
42.60000 208.974
42.61000 211.537
42.62000 209.421
42.63000 206.145
42.64000 202.974
42.65000 200.414
42.66000 197.952
42.67000 195.963
42.68000 193.747
42.69000 191.927
42.70000 191.916
42.71000 196.613
42.72000 201.555
42.73000 202.494
42.74000 196.327
42.75000 190.022
42.76000 186.598
42.77000 211.244
42.78000 228.110
42.79000 228.663
42.80000 216.648
42.81000 204.814
42.82000 200.180
42.83000 199.280
42.84000 198.418
42.85000 195.074
42.86000 191.141
42.87000 187.804
42.88000 189.863
42.89000 193.212
42.90000 196.313
42.91000 198.024
42.92000 199.519
42.93000 200.717
42.94000 195.816
42.95000 191.386
42.96000 190.203
42.97000 197.183
42.98000 204.556
42.99000 209.105
43.00000 208.814
43.01000 208.440
43.02000 208.241
43.03000 200.902
43.04000 195.927
43.05000 196.712
43.06000 201.770
43.07000 206.561
43.08000 201.770
43.09000 192.183
43.10000 183.036
43.11000 183.159
43.12000 186.212
43.13000 189.515
43.14000 194.965
43.15000 200.909
43.16000 205.309
43.17000 201.398
43.18000 196.248
43.19000 192.152
43.20000 195.031
43.21000 197.850
43.22000 198.398
43.23000 193.432
43.24000 188.219
43.25000 185.275
43.26000 186.079
43.27000 186.940
43.28000 187.391
43.29000 196.201
43.30000 202.153
43.31000 205.715
43.32000 207.569
43.33000 209.217
43.34000 204.125
43.35000 195.775
43.36000 187.836
43.37000 193.207
43.38000 202.232
43.39000 209.858
43.40000 205.973
43.41000 199.536
43.42000 194.340
43.43000 195.568
43.44000 197.713
43.45000 199.405
43.46000 194.696
43.47000 190.486
43.48000 188.512
43.49000 191.780
43.50000 195.265
43.51000 196.679
43.52000 194.791
43.53000 192.859
43.54000 191.868
43.55000 199.607
43.56000 204.748
43.57000 202.057
43.58000 193.972
43.59000 186.085
43.60000 184.107
43.61000 184.886
43.62000 185.625
43.63000 186.599
43.64000 187.565
43.65000 188.267
43.66000 186.895
43.67000 185.079
43.68000 183.681
43.69000 184.357
43.70000 185.317
43.71000 186.068
43.72000 189.499
43.73000 192.408
43.74000 194.164
43.75000 193.306
43.76000 192.349
43.77000 191.588
43.78000 191.128
43.79000 190.672
43.80000 190.442
43.81000 184.102
43.82000 179.913
43.83000 180.258
43.84000 183.614
43.85000 186.869
43.86000 187.351
43.87000 186.584
43.88000 185.859
43.89000 187.476
43.90000 189.619
43.91000 191.586
43.92000 192.234
43.93000 192.611
43.94000 192.889
43.95000 192.691
43.96000 192.431
43.97000 192.230
43.98000 185.568
43.99000 179.889
44.00000 177.460
44.01000 182.139
44.02000 187.069
44.03000 188.218
44.04000 183.765
44.05000 179.259
44.06000 180.218
44.07000 186.483
44.08000 192.684
44.09000 193.472
44.10000 190.795
44.11000 188.222
44.12000 188.255
44.13000 189.423
44.14000 190.522
44.15000 192.133
44.16000 193.745
44.17000 195.481
44.18000 198.107
44.19000 200.908
44.20000 202.915
44.21000 201.261
44.22000 199.149
44.23000 197.527
44.24000 193.196
44.25000 189.619
44.26000 187.382
44.27000 187.975
44.28000 188.658
44.29000 189.312
44.30000 189.923
44.31000 190.534
44.32000 192.856
44.33000 196.773
44.34000 200.645
44.35000 201.232
44.36000 199.792
44.37000 198.555
44.38000 202.075
44.39000 207.594
44.40000 212.766
44.41000 211.686
44.42000 209.075
44.43000 206.616
44.44000 205.200
44.45000 203.982
44.46000 203.448
44.47000 205.949
44.48000 208.812
44.49000 210.991
44.50000 210.210
44.51000 209.440
44.52000 208.116
44.53000 205.661
44.54000 203.174
44.55000 203.499
44.56000 207.696
44.57000 211.916
44.58000 216.031
44.59000 220.047
44.60000 223.986
44.61000 222.994
44.62000 219.064
44.63000 215.276
44.64000 214.566
44.65000 215.105
44.66000 215.608
44.67000 217.719
44.68000 220.035
44.69000 222.685
44.70000 227.536
44.71000 232.788
44.72000 237.385
44.73000 239.186
44.74000 240.669
44.75000 241.787
44.76000 241.747
44.77000 241.658
44.78000 242.816
44.79000 246.428
44.80000 250.106
44.81000 254.057
44.82000 258.372
44.83000 262.686
44.84000 262.232
44.85000 257.679
44.86000 253.224
44.87000 254.227
44.88000 258.367
44.89000 262.715
44.90000 271.259
44.91000 281.448
44.92000 290.920
44.93000 295.577
44.94000 298.624
44.95000 300.545
44.96000 295.343
44.97000 288.892
44.98000 283.983
44.99000 285.429
45.00000 287.563
45.01000 289.157
45.02000 289.932
45.03000 290.498
45.04000 290.522
45.05000 289.517
45.06000 288.486
45.07000 288.793
45.08000 290.806
45.09000 292.824
45.10000 291.795
45.11000 288.252
45.12000 284.801
45.13000 285.806
45.14000 289.284
45.15000 292.197
45.16000 284.525
45.17000 272.849
45.18000 262.038
45.19000 262.167
45.20000 264.805
45.21000 267.031
45.22000 266.763
45.23000 266.074
45.24000 264.824
45.25000 261.344
45.26000 257.633
45.27000 254.889
45.28000 251.918
45.29000 249.603
45.30000 246.831
45.31000 243.220
45.32000 239.590
45.33000 236.807
45.34000 235.064
45.35000 233.327
45.36000 230.889
45.37000 227.905
45.38000 224.931
45.39000 222.393
45.40000 220.089
45.41000 217.851
45.42000 216.781
45.43000 216.138
45.44000 215.545
45.45000 218.437
45.46000 221.797
45.47000 224.240
45.48000 221.347
45.49000 217.592
45.50000 215.785
45.51000 221.432
45.52000 227.811
45.53000 232.479
45.54000 226.559
45.55000 221.569
45.56000 218.423
45.57000 218.541
45.58000 218.722
45.59000 215.617
45.60000 208.623
45.61000 201.640
45.62000 199.967
45.63000 202.357
45.64000 204.668
45.65000 203.809
45.66000 201.312
45.67000 198.738
45.68000 194.907
45.69000 190.632
45.70000 186.710
45.71000 187.853
45.72000 189.948
45.73000 192.509
45.74000 197.673
45.75000 203.241
45.76000 207.396
45.77000 206.337
45.78000 204.792
45.79000 203.672
45.80000 202.049
45.81000 200.783
45.82000 196.256
45.83000 186.158
45.84000 175.965
45.85000 172.774
45.86000 177.550
45.87000 182.318
45.88000 182.439
45.89000 179.148
45.90000 175.981
45.91000 177.229
45.92000 180.679
45.93000 183.809
45.94000 181.998
45.95000 178.505
45.96000 175.314
45.97000 177.557
45.98000 180.655
45.99000 182.094
46.00000 174.625
46.01000 165.833
46.02000 159.868
46.03000 163.962
46.04000 168.945
46.05000 172.516
46.06000 175.012
46.07000 176.883
46.08000 178.259
46.09000 178.820
46.10000 179.368
46.11000 178.517
46.12000 176.136
46.13000 173.763
46.14000 172.642
46.15000 172.413
46.16000 172.192
46.17000 172.215
46.18000 172.354
46.19000 172.701
46.20000 176.061
46.21000 180.411
46.22000 184.366
46.23000 185.382
46.24000 185.707
46.25000 185.739
46.26000 184.258
46.27000 182.562
46.28000 181.167
46.29000 180.805
46.30000 180.530
46.31000 180.335
46.32000 177.638
46.33000 175.509
46.34000 174.460
46.35000 175.128
46.36000 175.819
46.37000 174.920
46.38000 172.353
46.39000 169.799
46.40000 169.714
46.41000 171.306
46.42000 172.921
46.43000 175.189
46.44000 177.762
46.45000 179.925
46.46000 176.479
46.47000 171.254
46.48000 166.527
46.49000 165.352
46.50000 164.983
46.51000 164.509
46.52000 163.508
46.53000 162.436
46.54000 161.708
46.55000 162.122
46.56000 162.627
46.57000 162.981
46.58000 172.445
46.59000 179.867
46.60000 183.649
46.61000 181.848
46.62000 179.987
46.63000 177.632
46.64000 174.780
46.65000 171.945
46.66000 172.708
46.67000 175.809
46.68000 178.815
46.69000 179.251
46.70000 178.531
46.71000 178.024
46.72000 180.249
46.73000 183.311
46.74000 186.068
46.75000 179.109
46.76000 171.265
46.77000 164.946
46.78000 165.906
46.79000 167.813
46.80000 170.204
46.81000 174.140
46.82000 178.192
46.83000 180.999
46.84000 179.326
46.85000 177.948
46.86000 175.486
46.87000 171.419
46.88000 167.338
46.89000 166.372
46.90000 168.422
46.91000 170.456
46.92000 171.618
46.93000 172.212
46.94000 172.830
46.95000 174.023
46.96000 175.467
46.97000 176.564
46.98000 173.440
46.99000 169.068
47.00000 165.153
47.01000 163.657
47.02000 162.767
47.03000 162.362
47.04000 164.193
47.05000 166.302
47.06000 167.712
47.07000 166.965
47.08000 166.067
47.09000 165.451
47.10000 162.424
47.11000 160.099
47.12000 161.463
47.13000 168.083
47.14000 174.741
47.15000 174.731
47.16000 168.523
47.17000 162.367
47.18000 162.840
47.19000 167.309
47.20000 171.590
47.21000 171.523
47.22000 169.635
47.23000 167.561
47.24000 163.339
47.25000 158.505
47.26000 154.199
47.27000 154.535
47.28000 155.590
47.29000 156.561
47.30000 157.158
47.31000 157.710
47.32000 159.386
47.33000 164.414
47.34000 169.664
47.35000 173.216
47.36000 169.957
47.37000 167.380
47.38000 164.125
47.39000 159.939
47.40000 155.752
47.41000 157.324
47.42000 164.042
47.43000 170.694
47.44000 169.857
47.45000 164.685
47.46000 159.809
47.47000 161.306
47.48000 165.380
47.49000 169.035
47.50000 168.089
47.51000 165.878
47.52000 163.919
47.53000 159.316
47.54000 154.918
47.55000 151.917
47.56000 154.874
47.57000 158.506
47.58000 160.688
47.59000 158.697
47.60000 156.446
47.61000 154.941
47.62000 156.072
47.63000 156.962
47.64000 157.864
47.65000 158.784
47.66000 159.702
47.67000 159.966
47.68000 159.667
47.69000 159.371
47.70000 155.840
47.71000 150.583
47.72000 145.627
47.73000 146.703
47.74000 150.134
47.75000 153.194
47.76000 152.394
47.77000 150.569
47.78000 148.961
47.79000 152.032
47.80000 155.382
47.81000 157.843
47.82000 156.651
47.83000 155.065
47.84000 154.447
47.85000 156.516
47.86000 158.744
47.87000 160.213
47.88000 159.294
47.89000 158.574
47.90000 158.203
47.91000 158.274
47.92000 158.347
47.93000 158.464
47.94000 158.618
47.95000 158.770
47.96000 157.481
47.97000 155.451
47.98000 153.618
47.99000 155.470
48.00000 158.713
48.01000 161.446
48.02000 159.145
48.03000 155.557
48.04000 152.414
48.05000 155.984
48.06000 160.013
48.07000 163.770
48.08000 166.451
48.09000 169.021
48.10000 170.995
48.11000 171.369
48.12000 171.655
48.13000 171.842
48.14000 168.171
48.15000 165.419
48.16000 164.559
48.17000 166.018
48.18000 167.479
48.19000 167.612
48.20000 166.688
48.21000 165.779
48.22000 163.911
48.23000 161.602
48.24000 159.275
48.25000 156.628
48.26000 153.864
48.27000 151.460
48.28000 152.455
48.29000 154.286
48.30000 155.881
48.31000 155.058
48.32000 154.023
48.33000 152.650
48.34000 149.990
48.35000 147.205
48.36000 145.252
48.37000 145.453
48.38000 145.765
48.39000 145.965
48.40000 153.471
48.41000 159.047
48.42000 162.329
48.43000 162.908
48.44000 163.478
48.45000 163.169
48.46000 162.187
48.47000 161.221
48.48000 164.056
48.49000 168.695
48.50000 172.890
48.51000 169.840
48.52000 164.241
48.53000 159.330
48.54000 160.580
48.55000 163.293
48.56000 165.640
48.57000 164.724
48.58000 163.516
48.59000 163.001
48.60000 165.036
48.61000 167.308
48.62000 167.172
48.63000 161.020
48.64000 154.581
48.65000 150.500
48.66000 153.384
48.67000 155.561
48.68000 157.328
48.69000 158.629
48.70000 159.918
48.71000 159.092
48.72000 156.709
48.73000 154.369
48.74000 153.009
48.75000 152.168
48.76000 151.546
48.77000 154.270
48.78000 158.132
48.79000 161.673
48.80000 162.482
48.81000 162.665
48.82000 162.822
48.83000 161.857
48.84000 160.900
48.85000 160.521
48.86000 162.192
48.87000 164.043
48.88000 165.013
48.89000 163.855
48.90000 162.602
48.91000 161.819
48.92000 157.770
48.93000 154.815
48.94000 152.342
48.95000 150.397
48.96000 148.481
48.97000 150.808
48.98000 156.149
48.99000 161.381
49.00000 161.415
49.01000 159.048
49.02000 156.780
49.03000 155.952
49.04000 155.595
49.05000 155.525
49.06000 157.793
49.07000 160.576
49.08000 162.954
49.09000 164.093
49.10000 164.906
49.11000 164.455
49.12000 159.681
49.13000 154.546
49.14000 150.651
49.15000 149.645
49.16000 148.757
49.17000 148.210
49.18000 150.713
49.19000 152.538
49.20000 153.103
49.21000 152.350
49.22000 151.583
49.23000 149.159
49.24000 145.600
49.25000 142.122
49.26000 143.977
49.27000 148.124
49.28000 152.173
49.29000 154.886
49.30000 157.176
49.31000 158.910
49.32000 156.319
49.33000 152.809
49.34000 149.830
49.35000 151.068
49.36000 152.585
49.37000 152.534
49.38000 147.301
49.39000 141.660
49.40000 140.002
49.41000 147.311
49.42000 154.959
49.43000 159.602
49.44000 153.755
49.45000 149.503
49.46000 148.769
49.47000 151.573
49.48000 154.338
49.49000 153.430
49.50000 150.096
49.51000 146.845
49.52000 147.616
49.53000 150.073
49.54000 152.282
49.55000 151.301
49.56000 149.347
49.57000 147.275
49.58000 144.328
49.59000 141.202
49.60000 138.567
49.61000 139.047
49.62000 139.787
49.63000 141.349
49.64000 145.535
49.65000 149.917
49.66000 152.891
49.67000 152.805
49.68000 152.613
49.69000 152.498
49.70000 153.819
49.71000 154.765
49.72000 154.126
49.73000 151.957
49.74000 149.805
49.75000 148.982
49.76000 149.005
49.77000 149.028
49.78000 151.595
49.79000 155.084
49.80000 158.160
49.81000 156.212
49.82000 152.786
49.83000 149.356
49.84000 145.912
49.85000 142.465
49.86000 139.579
49.87000 143.067
49.88000 146.624
49.89000 149.133
49.90000 148.416
49.91000 147.472
49.92000 148.298
49.93000 152.839
49.94000 157.498
49.95000 160.241
49.96000 159.313
49.97000 158.639
49.98000 154.960
49.99000 148.497
50.00000 142.127
50.01000 142.328
50.02000 146.564
50.03000 150.674
50.04000 152.662
50.05000 153.706
50.06000 154.736
50.07000 155.588
50.08000 156.389
50.09000 156.688
50.10000 153.555
50.11000 149.774
50.12000 146.630
50.13000 148.503
50.14000 150.544
50.15000 152.957
50.16000 156.474
50.17000 160.065
50.18000 160.734
50.19000 155.483
50.20000 150.060
50.21000 146.919
50.22000 155.061
50.23000 160.816
50.24000 165.076
50.25000 168.002
50.26000 170.893
50.27000 171.528
50.28000 170.829
50.29000 170.152
50.30000 169.677
50.31000 169.305
50.32000 168.994
50.33000 169.359
50.34000 169.910
50.35000 170.248
50.36000 169.200
50.37000 167.900
50.38000 166.827
50.39000 176.090
50.40000 184.681
50.41000 190.299
50.42000 187.393
50.43000 183.957
50.44000 182.633
50.45000 185.441
50.46000 188.358
50.47000 190.020
50.48000 189.234
50.49000 188.680
50.50000 188.843
50.51000 189.619
50.52000 190.420
50.53000 192.564
50.54000 195.474
50.55000 198.282
50.56000 200.876
50.57000 203.240
50.58000 205.296
50.59000 204.167
50.60000 202.196
50.61000 200.239
50.62000 198.369
50.63000 196.515
50.64000 194.996
50.65000 196.594
50.66000 198.179
50.67000 200.324
50.68000 204.018
50.69000 207.803
50.70000 207.632
50.71000 199.986
50.72000 192.163
50.73000 187.782
50.74000 196.123
50.75000 201.919
50.76000 201.445
50.77000 195.804
50.78000 190.250
50.79000 188.842
50.80000 189.722
50.81000 190.568
50.82000 191.138
50.83000 191.575
50.84000 191.816
50.85000 190.126
50.86000 187.944
50.87000 185.343
50.88000 180.220
50.89000 174.676
50.90000 170.167
50.91000 169.063
50.92000 168.446
50.93000 167.957
50.94000 167.808
50.95000 167.678
50.96000 165.377
50.97000 159.117
50.98000 152.773
50.99000 149.281
51.00000 161.357
51.01000 169.673
51.02000 169.451
51.03000 162.462
51.04000 155.524
51.05000 150.858
51.06000 147.401
51.07000 144.084
51.08000 146.147
51.09000 149.902
51.10000 153.325
51.11000 153.645
51.12000 153.204
51.13000 153.015
51.14000 154.292
51.15000 155.803
51.16000 157.023
51.17000 155.579
51.18000 154.197
51.19000 152.288
51.20000 149.023
51.21000 145.689
51.22000 144.830
51.23000 148.328
51.24000 151.908
51.25000 153.843
51.26000 150.201
51.27000 147.717
51.28000 148.788
51.29000 152.571
51.30000 156.227
51.31000 154.946
51.32000 151.128
51.33000 147.476
51.34000 146.435
51.35000 146.319
51.36000 146.060
51.37000 144.524
51.38000 142.686
51.39000 141.694
51.40000 145.397
51.41000 149.822
51.42000 153.364
51.43000 148.057
51.44000 143.104
51.45000 140.252
51.46000 142.635
51.47000 145.267
51.48000 147.284
51.49000 148.257
51.50000 149.214
51.51000 149.721
51.52000 148.139
51.53000 147.054
51.54000 144.688
51.55000 141.382
51.56000 138.216
51.57000 139.971
51.58000 144.168
51.59000 148.168
51.60000 145.490
51.61000 140.908
51.62000 136.705
51.63000 135.718
51.64000 135.466
51.65000 135.696
51.66000 138.504
51.67000 141.692
51.68000 144.222
51.69000 144.447
51.70000 144.466
51.71000 143.840
51.72000 141.662
51.73000 139.415
51.74000 137.538
51.75000 136.264
51.76000 134.999
51.77000 134.341
51.78000 136.424
51.79000 137.839
51.80000 140.063
51.81000 142.860
51.82000 145.631
51.83000 147.545
51.84000 149.050
51.85000 150.480
51.86000 150.506
51.87000 150.106
51.88000 149.577
51.89000 147.996
51.90000 146.184
51.91000 144.358
51.92000 142.462
51.93000 140.555
51.94000 139.054
51.95000 135.730
51.96000 132.946
51.97000 131.883
51.98000 134.821
51.99000 137.922
52.00000 137.884
52.01000 132.884
52.02000 127.823
52.03000 125.239
52.04000 132.966
52.05000 138.135
52.06000 140.942
52.07000 142.138
52.08000 143.363
52.09000 145.406
52.10000 147.829
52.11000 150.123
52.12000 147.119
52.13000 142.816
52.14000 138.683
52.15000 135.871
52.16000 133.338
52.17000 131.470
52.18000 132.881
52.19000 134.734
52.20000 136.181
52.21000 141.334
52.22000 145.674
52.23000 148.623
52.24000 148.448
52.25000 148.156
52.26000 145.524
52.27000 139.327
52.28000 133.092
52.29000 129.973
52.30000 134.242
52.31000 137.081
52.32000 139.186
52.33000 140.807
52.34000 142.343
52.35000 141.581
52.36000 139.792
52.37000 138.104
52.38000 138.668
52.39000 139.813
52.40000 141.149
52.41000 143.907
52.42000 146.954
52.43000 148.694
52.44000 144.231
52.45000 138.968
52.46000 134.897
52.47000 140.801
52.48000 146.073
52.49000 148.402
52.50000 144.351
52.51000 140.081
52.52000 137.080
52.53000 135.946
52.54000 134.828
52.55000 134.924
52.56000 136.186
52.57000 137.421
52.58000 136.449
52.59000 134.076
52.60000 131.868
52.61000 133.731
52.62000 137.349
52.63000 140.750
52.64000 141.092
52.65000 140.583
52.66000 140.264
52.67000 141.291
52.68000 142.582
52.69000 143.786
52.70000 144.598
52.71000 145.362
52.72000 145.948
52.73000 142.649
52.74000 139.828
52.75000 138.056
52.76000 138.478
52.77000 138.969
52.78000 139.711
52.79000 140.806
52.80000 141.905
52.81000 142.069
52.82000 141.371
52.83000 140.696
52.84000 141.666
52.85000 143.644
52.86000 145.511
52.87000 144.864
52.88000 143.169
52.89000 141.582
52.90000 141.479
52.91000 141.766
52.92000 141.464
52.93000 137.145
52.94000 132.071
52.95000 128.526
52.96000 131.699
52.97000 135.665
52.98000 138.677
52.99000 140.135
53.00000 141.201
53.01000 142.581
53.02000 144.593
53.03000 146.624
53.04000 146.738
53.05000 144.236
53.06000 141.720
53.07000 139.694
53.08000 138.105
53.09000 136.557
53.10000 137.500
53.11000 139.914
53.12000 142.384
53.13000 146.040
53.14000 150.174
53.15000 154.030
53.16000 151.329
53.17000 147.259
53.18000 143.944
53.19000 145.547
53.20000 148.038
53.21000 150.156
53.22000 150.694
53.23000 151.055
53.24000 151.326
53.25000 151.910
53.26000 152.382
53.27000 153.801
53.28000 157.066
53.29000 160.379
53.30000 163.266
53.31000 165.592
53.32000 167.915
53.33000 165.120
53.34000 157.974
53.35000 150.988
53.36000 152.598
53.37000 159.107
53.38000 165.231
53.39000 163.755
53.40000 159.326
53.41000 155.213
53.42000 145.648
53.43000 135.727
53.44000 128.092
53.45000 134.753
53.46000 143.896
53.47000 151.500
53.48000 152.823
53.49000 153.472
53.50000 153.956
53.51000 156.155
53.52000 157.945
53.53000 160.483
53.54000 164.431
53.55000 168.411
53.56000 164.814
53.57000 151.628
53.58000 138.427
53.59000 133.092
53.60000 134.211
53.61000 135.334
53.62000 136.632
53.63000 138.027
53.64000 139.193
53.65000 136.157
53.66000 131.544
53.67000 127.278
53.68000 131.341
53.69000 136.891
53.70000 141.581
53.71000 141.113
53.72000 139.785
53.73000 139.292
53.74000 142.081
53.75000 145.205
53.76000 147.510
53.77000 142.630
53.78000 138.548
53.79000 137.003
53.80000 140.073
53.81000 143.238
53.82000 143.119
53.83000 138.999
53.84000 134.877
53.85000 134.216
53.86000 136.280
53.87000 138.337
53.88000 140.104
53.89000 141.719
53.90000 143.179
53.91000 141.999
53.92000 139.862
53.93000 137.894
53.94000 139.507
53.95000 141.734
53.96000 143.288
53.97000 140.973
53.98000 138.039
53.99000 136.303
54.00000 139.114
54.01000 142.366
54.02000 144.740
54.03000 141.173
54.04000 138.192
54.05000 136.108
54.06000 135.600
54.07000 135.121
54.08000 134.786
54.09000 134.621
54.10000 134.456
54.11000 132.766
54.12000 129.933
54.13000 127.151
54.14000 126.297
54.15000 126.430
54.16000 126.556
54.17000 126.559
54.18000 126.520
54.19000 126.483
54.20000 131.384
54.21000 136.787
54.22000 141.150
54.23000 139.754
54.24000 137.476
54.25000 135.708
54.26000 135.809
54.27000 136.081
54.28000 136.278
54.29000 137.513
54.30000 138.498
54.31000 138.192
54.32000 135.700
54.33000 133.172
54.34000 132.810
54.35000 134.889
54.36000 136.963
54.37000 136.183
54.38000 133.336
54.39000 130.546
54.40000 129.765
54.41000 129.976
54.42000 130.415
54.43000 134.299
54.44000 139.347
54.45000 143.952
54.46000 140.631
54.47000 136.087
54.48000 132.603
54.49000 134.753
54.50000 137.731
54.51000 140.067
54.52000 140.142
54.53000 140.019
54.54000 139.931
54.55000 138.183
54.56000 136.794
54.57000 137.647
54.58000 142.163
54.59000 146.731
54.60000 148.600
54.61000 147.547
54.62000 146.497
54.63000 145.769
54.64000 145.274
54.65000 144.697
54.66000 141.544
54.67000 137.159
54.68000 133.008
54.69000 132.194
54.70000 132.467
54.71000 132.716
54.72000 134.179
54.73000 135.706
54.74000 137.368
54.75000 139.716
54.76000 142.162
54.77000 143.637
54.78000 141.807
54.79000 139.704
54.80000 138.218
54.81000 140.454
54.82000 142.266
54.83000 142.704
54.84000 140.977
54.85000 139.224
54.86000 138.868
54.87000 139.965
54.88000 141.057
54.89000 140.463
54.90000 138.744
54.91000 137.046
54.92000 135.954
54.93000 135.141
54.94000 134.466
54.95000 135.651
54.96000 137.421
54.97000 139.021
54.98000 142.615
54.99000 146.146
55.00000 149.183
55.01000 149.789
55.02000 150.068
55.03000 149.612
55.04000 146.743
55.05000 143.685
55.06000 141.548
55.07000 139.980
55.08000 138.812
55.09000 140.240
55.10000 145.612
55.11000 151.026
55.12000 151.734
55.13000 147.747
55.14000 143.785
55.15000 144.416
55.16000 148.008
55.17000 151.519
55.18000 152.909
55.19000 153.354
55.20000 153.604
55.21000 151.376
55.22000 148.395
55.23000 145.716
55.24000 147.874
55.25000 150.622
55.26000 153.775
55.27000 158.844
55.28000 164.159
55.29000 167.717
55.30000 165.706
55.31000 163.283
55.32000 161.609
55.33000 170.559
55.34000 177.560
55.35000 182.413
55.36000 184.119
55.37000 185.799
55.38000 188.428
55.39000 191.967
55.40000 195.479
55.41000 198.229
55.42000 200.459
55.43000 202.808
55.44000 208.082
55.45000 214.613
55.46000 220.875
55.47000 223.903
55.48000 225.984
55.49000 227.845
55.50000 242.395
55.51000 257.238
55.52000 269.834
55.53000 272.196
55.54000 273.300
55.55000 277.917
55.56000 293.282
55.57000 309.396
55.58000 320.397
55.59000 331.972
55.60000 340.642
55.61000 348.842
55.62000 356.380
55.63000 363.914
55.64000 375.103
55.65000 389.655
55.66000 404.078
55.67000 414.509
55.68000 422.349
55.69000 430.279
55.70000 440.230
55.71000 451.022
55.72000 462.053
55.73000 475.811
55.74000 490.340
55.75000 503.264
55.76000 516.892
55.77000 528.838
55.78000 540.111
55.79000 548.437
55.80000 556.416
55.81000 563.323
55.82000 567.063
55.83000 570.596
55.84000 572.979
55.85000 582.077
55.86000 588.988
55.87000 591.261
55.88000 587.226
55.89000 583.158
55.90000 581.841
55.91000 582.959
55.92000 584.065
55.93000 580.493
55.94000 574.306
55.95000 567.933
55.96000 557.654
55.97000 545.807
55.98000 534.773
55.99000 532.536
56.00000 532.697
56.01000 532.839
56.02000 511.864
56.03000 490.447
56.04000 472.149
56.05000 467.021
56.06000 463.368
56.07000 456.851
56.08000 442.170
56.09000 426.988
56.10000 416.874
56.11000 396.144
56.12000 380.597
56.13000 364.223
56.14000 346.764
56.15000 329.308
56.16000 316.426
56.17000 307.437
56.18000 298.554
56.19000 289.765
56.20000 281.245
56.21000 272.748
56.22000 264.697
56.23000 256.817
56.24000 249.088
56.25000 242.903
56.26000 237.123
56.27000 232.039
56.28000 227.526
56.29000 223.727
56.30000 218.634
56.31000 208.276
56.32000 197.357
56.33000 188.147
56.34000 183.644
56.35000 179.412
56.36000 176.628
56.37000 175.410
56.38000 174.539
56.39000 173.705
56.40000 172.918
56.41000 172.125
56.42000 169.271
56.43000 164.728
56.44000 160.247
56.45000 157.667
56.46000 156.173
56.47000 154.550
56.48000 150.571
56.49000 145.712
56.50000 141.165
56.51000 139.672
56.52000 138.952
56.53000 138.323
56.54000 137.399
56.55000 136.566
56.56000 136.566
56.57000 139.832
56.58000 143.429
56.59000 145.905
56.60000 145.405
56.61000 144.744
56.62000 144.316
56.63000 142.709
56.64000 141.514
56.65000 141.061
56.66000 141.509
56.67000 141.950
56.68000 139.749
56.69000 135.468
56.70000 131.252
56.71000 135.289
56.72000 143.439
56.73000 150.928
56.74000 147.088
56.75000 139.158
56.76000 131.915
56.77000 131.061
56.78000 131.768
56.79000 132.381
56.80000 131.148
56.81000 129.845
56.82000 128.746
56.83000 128.413
56.84000 128.154
56.85000 127.340
56.86000 125.104
56.87000 122.795
56.88000 121.317
56.89000 127.052
56.90000 131.327
56.91000 134.240
56.92000 135.563
56.93000 136.862
56.94000 133.556
56.95000 126.758
56.96000 120.077
56.97000 121.701
56.98000 127.372
56.99000 132.838
57.00000 135.003
57.01000 136.017
57.02000 136.693
57.03000 134.383
57.04000 131.371
57.05000 128.768
57.06000 125.235
57.07000 122.114
57.08000 119.830
57.09000 120.596
57.10000 121.642
57.11000 122.781
57.12000 124.148
57.13000 125.526
57.14000 126.397
57.15000 127.259
57.16000 127.884
57.17000 126.879
57.18000 124.043
57.19000 121.220
57.20000 120.529
57.21000 121.397
57.22000 122.249
57.23000 122.162
57.24000 121.633
57.25000 121.304
57.26000 124.004
57.27000 127.724
57.28000 130.797
57.29000 128.404
57.30000 124.772
57.31000 121.654
57.32000 120.126
57.33000 119.031
57.34000 119.114
57.35000 123.345
57.36000 127.936
57.37000 130.615
57.38000 128.721
57.39000 126.629
57.40000 125.325
57.41000 127.300
57.42000 128.756
57.43000 129.526
57.44000 129.554
57.45000 129.565
57.46000 127.176
57.47000 123.097
57.48000 119.105
57.49000 118.680
57.50000 119.903
57.51000 121.167
57.52000 123.008
57.53000 125.038
57.54000 126.757
57.55000 125.970
57.56000 124.636
57.57000 123.499
57.58000 121.458
57.59000 119.634
57.60000 118.699
57.61000 120.777
57.62000 123.104
57.63000 125.265
57.64000 127.045
57.65000 128.810
57.66000 129.893
57.67000 128.202
57.68000 126.966
57.69000 126.092
57.70000 125.593
57.71000 125.106
57.72000 125.934
57.73000 127.653
57.74000 129.333
57.75000 128.980
57.76000 127.749
57.77000 126.362
57.78000 122.897
57.79000 118.780
57.80000 115.156
57.81000 115.329
57.82000 116.300
57.83000 117.122
57.84000 118.338
57.85000 119.401
57.86000 119.542
57.87000 116.665
57.88000 113.553
57.89000 112.602
57.90000 116.475
57.91000 120.527
57.92000 122.977
57.93000 127.154
57.94000 130.143
57.95000 129.070
57.96000 123.957
57.97000 118.895
57.98000 118.547
57.99000 121.284
58.00000 123.951
58.01000 125.263
58.02000 125.942
58.03000 126.481
58.04000 125.258
58.05000 123.501
58.06000 122.036
58.07000 122.723
58.08000 123.846
58.09000 124.790
58.10000 124.846
58.11000 124.797
58.12000 123.031
58.13000 115.842
58.14000 108.255
58.15000 104.372
58.16000 108.473
58.17000 112.845
58.18000 115.448
58.19000 118.559
58.20000 120.766
58.21000 122.481
58.22000 123.726
58.23000 124.986
58.24000 127.377
58.25000 130.480
58.26000 133.496
58.27000 131.158
58.28000 126.752
58.29000 122.742
58.30000 123.475
58.31000 125.593
58.32000 127.340
58.33000 126.475
58.34000 125.103
58.35000 123.955
58.36000 123.407
58.37000 123.012
58.38000 122.006
58.39000 119.134
58.40000 116.134
58.41000 113.780
58.42000 112.771
58.43000 111.804
58.44000 111.237
58.45000 112.527
58.46000 113.443
58.47000 112.810
58.48000 110.753
58.49000 108.753
58.50000 110.635
58.51000 114.877
58.52000 118.991
58.53000 117.050
58.54000 112.836
58.55000 109.303
58.56000 113.505
58.57000 119.885
58.58000 125.209
58.59000 123.390
58.60000 120.237
58.61000 117.621
58.62000 118.849
58.63000 120.235
58.64000 121.529
58.65000 122.548
58.66000 123.550
58.67000 122.595
58.68000 117.710
58.69000 112.715
58.70000 109.833
58.71000 116.430
58.72000 121.084
58.73000 122.870
58.74000 122.126
58.75000 121.384
58.76000 120.780
58.77000 120.257
58.78000 119.752
58.79000 118.655
58.80000 117.396
58.81000 116.252
58.82000 116.354
58.83000 116.794
58.84000 117.186
58.85000 117.268
58.86000 117.294
58.87000 117.315
58.88000 117.742
58.89000 118.129
58.90000 119.341
58.91000 122.896
58.92000 126.594
58.93000 128.062
58.94000 125.205
58.95000 122.237
58.96000 120.553
58.97000 116.542
58.98000 113.745
58.99000 112.865
59.00000 113.612
59.01000 114.412
59.02000 118.004
59.03000 123.179
59.04000 128.169
59.05000 125.537
59.06000 120.293
59.07000 115.657
59.08000 117.237
59.09000 120.444
59.10000 122.945
59.11000 121.059
59.12000 118.417
59.13000 116.256
59.14000 113.360
59.15000 110.925
59.16000 110.563
59.17000 115.891
59.18000 121.546
59.19000 123.870
59.20000 119.957
59.21000 115.900
59.22000 113.638
59.23000 115.367
59.24000 116.567
59.25000 115.978
59.26000 113.928
59.27000 112.005
59.28000 115.974
59.29000 123.166
59.30000 130.080
59.31000 128.508
59.32000 124.068
59.33000 119.785
59.34000 117.017
59.35000 114.632
59.36000 112.491
59.37000 111.806
59.38000 111.362
59.39000 111.001
59.40000 110.966
59.41000 110.964
59.42000 111.225
59.43000 112.187
59.44000 113.186
59.45000 113.795
59.46000 113.699
59.47000 113.589
59.48000 113.529
59.49000 114.181
59.50000 114.631
59.51000 114.999
59.52000 115.303
59.53000 115.629
59.54000 116.874
59.55000 118.604
59.56000 120.263
59.57000 121.016
59.58000 121.413
59.59000 121.607
59.60000 119.922
59.61000 117.780
59.62000 116.355
59.63000 119.031
59.64000 122.360
59.65000 125.039
59.66000 121.957
59.67000 119.007
59.68000 116.237
59.69000 113.927
59.70000 111.640
59.71000 111.069
59.72000 113.489
59.73000 115.964
59.74000 117.296
59.75000 116.507
59.76000 115.961
59.77000 114.458
59.78000 112.231
59.79000 110.097
59.80000 111.434
59.81000 114.539
59.82000 117.506
59.83000 115.924
59.84000 112.981
59.85000 110.511
59.86000 112.208
59.87000 114.883
59.88000 116.885
59.89000 115.192
59.90000 112.936
59.91000 111.134
59.92000 112.655
59.93000 114.127
59.94000 115.037
59.95000 114.552
59.96000 114.004
59.97000 115.354
59.98000 119.903
59.99000 124.502
60.00000 126.932
60.01000 123.261
60.02000 120.759
60.03000 117.279
60.04000 113.087
60.05000 109.074
60.06000 111.196
60.07000 116.334
60.08000 121.229
60.09000 120.671
60.10000 118.458
60.11000 116.418
60.12000 115.827
60.13000 115.563
60.14000 115.129
60.15000 113.795
60.16000 112.330
60.17000 111.170
60.18000 112.057
60.19000 112.913
60.20000 113.145
60.21000 111.892
60.22000 110.574
60.23000 111.417
60.24000 115.767
60.25000 120.166
60.26000 122.445
60.27000 110.999
60.28000 103.329
60.29000 103.037
60.30000 107.922
60.31000 112.739
60.32000 115.401
60.33000 117.039
60.34000 118.594
60.35000 117.554
60.36000 115.817
60.37000 114.452
60.38000 116.074
60.39000 118.344
60.40000 120.451
60.41000 121.719
60.42000 122.871
60.43000 123.776
60.44000 118.453
60.45000 113.786
60.46000 109.511
60.47000 106.142
60.48000 102.809
60.49000 102.090
60.50000 105.466
60.51000 108.891
60.52000 110.630
60.53000 110.474
60.54000 110.368
60.55000 110.258
60.56000 110.145
60.57000 109.940
60.58000 107.143
60.59000 103.156
60.60000 99.384
60.61000 101.951
60.62000 106.133
60.63000 110.076
60.64000 112.191
60.65000 113.923
60.66000 115.292
60.67000 114.892
60.68000 114.255
60.69000 113.760
60.70000 117.668
60.71000 121.052
60.72000 123.313
60.73000 123.075
60.74000 122.746
60.75000 120.895
60.76000 116.746
60.77000 112.573
60.78000 110.212
60.79000 109.644
60.80000 109.095
60.81000 110.137
60.82000 112.219
60.83000 114.242
60.84000 114.747
60.85000 114.580
60.86000 114.422
60.87000 115.147
60.88000 116.054
60.89000 116.926
60.90000 117.546
60.91000 118.114
60.92000 118.762
60.93000 119.782
60.94000 120.850
60.95000 121.673
60.96000 123.387
60.97000 124.796
60.98000 125.166
60.99000 123.301
61.00000 121.362
61.01000 119.475
61.02000 117.663
61.03000 115.853
61.04000 116.483
61.05000 119.435
61.06000 122.329
61.07000 120.730
61.08000 116.304
61.09000 112.014
61.10000 111.006
61.11000 111.402
61.12000 111.774
61.13000 117.377
61.14000 123.876
61.15000 129.675
61.16000 130.556
61.17000 130.485
61.18000 130.379
61.19000 130.112
61.20000 129.826
61.21000 129.607
61.22000 130.733
61.23000 131.695
61.24000 131.679
61.25000 129.636
61.26000 127.531
61.27000 126.753
61.28000 127.836
61.29000 128.932
61.30000 127.483
61.31000 123.712
61.32000 120.017
61.33000 121.449
61.34000 125.989
61.35000 130.304
61.36000 129.534
61.37000 126.665
61.38000 123.981
61.39000 125.820
61.40000 128.644
61.41000 131.000
61.42000 130.212
61.43000 128.839
61.44000 127.908
61.45000 128.904
61.46000 130.124
61.47000 131.049
61.48000 141.561
61.49000 150.300
61.50000 156.734
61.51000 158.548
61.52000 160.232
61.53000 169.368
61.54000 188.574
61.55000 207.824
61.56000 222.476
61.57000 233.071
61.58000 243.671
61.59000 254.617
61.60000 265.765
61.61000 276.650
61.62000 282.055
61.63000 285.273
61.64000 288.272
61.65000 297.723
61.66000 307.854
61.67000 316.958
61.68000 319.437
61.69000 320.730
61.70000 321.474
61.71000 319.916
61.72000 318.101
61.73000 316.740
61.74000 303.592
61.75000 292.760
61.76000 280.100
61.77000 263.907
61.78000 247.624
61.79000 230.858
61.80000 213.463
61.81000 196.081
61.82000 184.535
61.83000 177.938
61.84000 171.331
61.85000 164.169
61.86000 156.695
61.87000 149.331
61.88000 144.099
61.89000 139.688
61.90000 135.595
61.91000 134.630
61.92000 134.496
61.93000 134.133
61.94000 132.354
61.95000 130.331
61.96000 128.444
61.97000 127.106
61.98000 125.826
61.99000 124.875
62.00000 124.068
62.01000 123.448
62.02000 122.710
62.03000 121.754
62.04000 120.793
62.05000 120.852
62.06000 122.190
62.07000 123.531
62.08000 124.201
62.09000 124.327
62.10000 124.505
62.11000 127.122
62.12000 131.067
62.13000 134.792
62.14000 134.508
62.15000 132.733
62.16000 131.094
62.17000 125.101
62.18000 118.741
62.19000 114.162
62.20000 120.160
62.21000 127.903
62.22000 134.368
62.23000 135.857
62.24000 136.844
62.25000 137.570
62.26000 131.860
62.27000 127.177
62.28000 124.916
62.29000 127.020
62.30000 129.213
62.31000 128.845
62.32000 125.387
62.33000 121.930
62.34000 121.086
62.35000 122.283
62.36000 123.466
62.37000 124.105
62.38000 124.458
62.39000 124.923
62.40000 127.283
62.41000 130.323
62.42000 133.120
62.43000 128.662
62.44000 123.105
62.45000 118.961
62.46000 122.861
62.47000 128.034
62.48000 132.015
62.49000 131.518
62.50000 130.593
62.51000 129.919
62.52000 133.117
62.53000 135.727
62.54000 135.559
62.55000 130.562
62.56000 125.479
62.57000 124.212
62.58000 127.372
62.59000 130.529
62.60000 131.273
62.61000 130.207
62.62000 129.148
62.63000 128.367
62.64000 127.727
62.65000 127.089
62.66000 126.493
62.67000 125.911
62.68000 125.379
62.69000 123.676
62.70000 121.917
62.71000 120.895
62.72000 123.908
62.73000 127.533
62.74000 130.061
62.75000 128.613
62.76000 126.804
62.77000 125.500
62.78000 130.902
62.79000 135.278
62.80000 136.650
62.81000 132.982
62.82000 129.234
62.83000 127.895
62.84000 129.242
62.85000 130.586
62.86000 129.949
62.87000 127.892
62.88000 125.914
62.89000 126.645
62.90000 128.703
62.91000 130.584
62.92000 129.810
62.93000 128.147
62.94000 126.631
62.95000 127.998
62.96000 129.784
62.97000 131.558
62.98000 133.273
62.99000 134.979
63.00000 135.649
63.01000 132.699
63.02000 129.437
63.03000 127.112
63.04000 125.422
63.05000 124.154
63.06000 125.143
63.07000 129.785
63.08000 134.478
63.09000 135.826
63.10000 133.590
63.11000 131.363
63.12000 130.887
63.13000 131.626
63.14000 132.294
63.15000 130.732
63.16000 128.114
63.17000 125.767
63.18000 127.232
63.19000 129.928
63.20000 132.373
63.21000 133.201
63.22000 133.622
63.23000 134.093
63.24000 134.817
63.25000 135.576
63.26000 136.153
63.27000 136.116
63.28000 136.029
63.29000 135.968
63.30000 135.549
63.31000 135.220
63.32000 134.720
63.33000 133.952
63.34000 133.181
63.35000 131.671
63.36000 129.400
63.37000 127.143
63.38000 129.103
63.39000 133.846
63.40000 138.397
63.41000 137.542
63.42000 134.215
63.43000 130.988
63.44000 129.106
63.45000 127.643
63.46000 126.322
63.47000 132.751
63.48000 139.819
63.49000 145.027
63.50000 141.181
63.51000 136.129
63.52000 132.014
63.53000 130.945
63.54000 130.112
63.55000 129.531
63.56000 131.251
63.57000 132.612
63.58000 133.176
63.59000 132.541
63.60000 131.894
63.61000 132.363
63.62000 133.936
63.63000 135.498
63.64000 132.767
63.65000 127.329
63.66000 122.301
63.67000 127.986
63.68000 138.400
63.69000 147.911
63.70000 146.095
63.71000 140.870
63.72000 136.180
63.73000 132.292
63.74000 129.033
63.75000 127.737
63.76000 135.635
63.77000 144.703
63.78000 150.328
63.79000 145.139
63.80000 139.163
63.81000 135.047
63.82000 140.463
63.83000 144.768
63.84000 148.216
63.85000 150.420
63.86000 152.613
63.87000 152.632
63.88000 150.589
63.89000 148.563
63.90000 146.504
63.91000 144.461
63.92000 142.485
63.93000 142.094
63.94000 142.379
63.95000 142.798
63.96000 144.809
63.97000 147.281
63.98000 149.489
63.99000 145.503
64.00000 140.989
64.01000 137.909
64.02000 141.291
64.03000 145.459
64.04000 146.778
64.05000 139.466
64.06000 131.562
64.07000 126.181
64.08000 136.458
64.09000 144.490
64.10000 147.973
64.11000 145.091
64.12000 142.166
64.13000 141.008
64.14000 141.460
64.15000 141.907
64.16000 143.156
64.17000 144.856
64.18000 146.416
64.19000 144.853
64.20000 142.003
64.21000 139.634
64.22000 142.671
64.23000 147.221
64.24000 151.263
64.25000 151.463
64.26000 151.018
64.27000 150.664
64.28000 150.706
64.29000 150.794
64.30000 151.780
64.31000 155.394
64.32000 159.178
64.33000 161.722
64.34000 158.909
64.35000 156.708
64.36000 155.355
64.37000 155.144
64.38000 154.943
64.39000 157.751
64.40000 163.195
64.41000 168.581
64.42000 167.329
64.43000 162.319
64.44000 157.376
64.45000 153.786
64.46000 150.736
64.47000 148.035
64.48000 149.071
64.49000 151.115
64.50000 152.921
64.51000 156.723
64.52000 160.313
64.53000 163.507
64.54000 165.042
64.55000 166.395
64.56000 166.539
64.57000 163.273
64.58000 159.799
64.59000 157.493
64.60000 158.807
64.61000 159.845
64.62000 160.845
64.63000 161.795
64.64000 162.747
64.65000 165.475
64.66000 169.697
64.67000 173.867
64.68000 172.309
64.69000 167.646
64.70000 163.258
64.71000 164.153
64.72000 167.078
64.73000 169.550
64.74000 167.442
64.75000 164.142
64.76000 161.243
64.77000 168.865
64.78000 176.965
64.79000 182.312
64.80000 176.556
64.81000 169.630
64.82000 166.583
64.83000 174.120
64.84000 182.258
64.85000 187.592
64.86000 191.643
64.87000 194.600
64.88000 195.214
64.89000 192.900
64.90000 190.578
64.91000 188.578
64.92000 186.840
64.93000 185.126
64.94000 186.631
64.95000 189.793
64.96000 192.990
64.97000 196.816
64.98000 200.876
64.99000 205.145
65.00000 211.437
65.01000 218.236
65.02000 224.173
65.03000 220.141
65.04000 215.287
65.05000 211.217
65.06000 210.189
65.07000 209.467
65.08000 211.648
65.09000 221.479
65.10000 231.714
65.11000 238.337
65.12000 239.445
65.13000 240.174
65.14000 243.795
65.15000 250.889
65.16000 257.974
65.17000 260.539
65.18000 259.576
65.19000 258.629
65.20000 257.841
65.21000 257.158
65.22000 256.807
65.23000 262.073
65.24000 269.349
65.25000 276.083
65.26000 277.842
65.27000 278.398
65.28000 278.880
65.29000 288.908
65.30000 298.734
65.31000 306.868
65.32000 308.660
65.33000 309.848
65.34000 310.088
65.35000 307.919
65.36000 305.630
65.37000 304.169
65.38000 312.682
65.39000 319.004
65.40000 324.141
65.41000 327.907
65.42000 331.680
65.43000 337.127
65.44000 343.833
65.45000 350.421
65.46000 357.001
65.47000 363.351
65.48000 369.576
65.49000 373.807
65.50000 377.349
65.51000 380.812
65.52000 383.590
65.53000 386.207
65.54000 388.465
65.55000 395.664
65.56000 402.404
65.57000 409.017
65.58000 415.175
65.59000 421.291
65.60000 430.044
65.61000 445.275
65.62000 460.803
65.63000 470.578
65.64000 518.500
65.65000 553.605
65.66000 596.694
65.67000 648.657
65.68000 700.768
65.69000 775.450
65.70000 866.467
65.71000 955.707
65.72000 1082.425
65.73000 1222.072
65.74000 1360.961
65.75000 1488.569
65.76000 1612.412
65.77000 1735.644
65.78000 1853.767
65.79000 1970.743
65.80000 2071.019
65.81000 2118.732
65.82000 2152.601
65.83000 2180.002
65.84000 2184.867
65.85000 2187.800
65.86000 2192.422
65.87000 2201.049
65.88000 2209.847
65.89000 2215.307
65.90000 2168.447
65.91000 2134.216
65.92000 2070.423
65.93000 1975.059
65.94000 1879.448
65.95000 1753.235
65.96000 1605.682
65.97000 1461.317
65.98000 1327.611
65.99000 1204.124
66.00000 1081.665
66.01000 973.610
66.02000 870.195
66.03000 770.086
66.04000 696.353
66.05000 628.320
66.06000 570.378
66.07000 527.523
66.08000 493.251
66.09000 463.795
66.10000 450.532
66.11000 438.582
66.12000 427.360
66.13000 417.803
66.14000 408.312
66.15000 402.507
66.16000 389.130
66.17000 379.495
66.18000 377.913
66.19000 384.589
66.20000 391.277
66.21000 399.092
66.22000 407.664
66.23000 416.033
66.24000 425.536
66.25000 435.121
66.26000 445.437
66.27000 465.418
66.28000 488.403
66.29000 511.717
66.30000 537.543
66.31000 563.891
66.32000 586.183
66.33000 603.744
66.34000 617.917
66.35000 633.086
66.36000 651.487
66.37000 670.136
66.38000 681.689
66.39000 677.546
66.40000 672.834
66.41000 669.995
66.42000 666.108
66.43000 663.335
66.44000 654.215
66.45000 638.846
66.46000 623.551
66.47000 614.822
66.48000 610.348
66.49000 605.991
66.50000 589.681
66.51000 569.119
66.52000 548.366
66.53000 525.234
66.54000 501.387
66.55000 477.691
66.56000 455.088
66.57000 432.703
66.58000 413.894
66.59000 398.404
66.60000 385.849
66.61000 375.953
66.62000 374.385
66.63000 373.420
66.64000 372.870
66.65000 373.208
66.66000 373.575
66.67000 373.792
66.68000 369.639
66.69000 366.675
66.70000 364.482
66.71000 363.020
66.72000 361.595
66.73000 363.047
66.74000 366.297
66.75000 369.454
66.76000 367.357
66.77000 363.244
66.78000 359.593
66.79000 361.407
66.80000 364.802
66.81000 367.295
66.82000 363.492
66.83000 358.477
66.84000 354.293
66.85000 359.167
66.86000 364.119
66.87000 368.692
66.88000 372.118
66.89000 375.466
66.90000 377.353
66.91000 376.226
66.92000 375.008
66.93000 374.297
66.94000 376.830
66.95000 378.628
66.96000 381.535
66.97000 385.450
66.98000 389.290
66.99000 388.203
67.00000 384.144
67.01000 380.211
67.02000 382.676
67.03000 387.496
67.04000 391.811
67.05000 390.468
67.06000 387.545
67.07000 385.160
67.08000 386.371
67.09000 388.247
67.10000 389.801
67.11000 398.345
67.12000 406.066
67.13000 408.531
67.14000 395.661
67.15000 381.806
67.16000 376.949
67.17000 390.009
67.18000 403.561
67.19000 411.347
67.20000 390.559
67.21000 375.934
67.22000 376.194
67.23000 389.448
67.24000 402.513
67.25000 404.568
67.26000 400.220
67.27000 396.018
67.28000 393.126
67.29000 390.888
67.30000 389.581
67.31000 398.172
67.32000 409.428
67.33000 419.959
67.34000 425.848
67.35000 430.912
67.36000 435.077
67.37000 422.195
67.38000 410.065
67.39000 402.150
67.40000 406.110
67.41000 410.784
67.42000 415.144
67.43000 418.901
67.44000 422.643
67.45000 424.756
67.46000 433.545
67.47000 439.670
67.48000 444.254
67.49000 447.542
67.50000 450.735
67.51000 448.988
67.52000 444.470
67.53000 440.116
67.54000 442.215
67.55000 446.509
67.56000 450.258
67.57000 448.506
67.58000 445.325
67.59000 442.918
67.60000 445.258
67.61000 448.408
67.62000 450.979
67.63000 463.568
67.64000 474.726
67.65000 480.343
67.66000 470.890
67.67000 460.586
67.68000 454.833
67.69000 457.527
67.70000 460.408
67.71000 462.009
67.72000 459.332
67.73000 457.484
67.74000 459.517
67.75000 464.685
67.76000 469.751
67.77000 470.167
67.78000 468.064
67.79000 466.044
67.80000 465.264
67.81000 464.962
67.82000 465.240
67.83000 471.084
67.84000 478.319
67.85000 485.694
67.86000 493.891
67.87000 502.222
67.88000 508.970
67.89000 496.370
67.90000 484.537
67.91000 480.430
67.92000 496.616
67.93000 513.871
67.94000 523.177
67.95000 518.247
67.96000 513.033
67.97000 510.188
67.98000 517.314
67.99000 522.201
68.00000 522.087
68.01000 518.082
68.02000 514.179
68.03000 514.430
68.04000 516.855
68.05000 519.177
68.06000 520.885
68.07000 522.274
68.08000 523.958
68.09000 528.341
68.10000 533.374
68.11000 537.474
68.12000 536.295
68.13000 534.287
68.14000 532.674
68.15000 533.513
68.16000 534.381
68.17000 539.080
68.18000 553.496
68.19000 568.388
68.20000 576.143
68.21000 571.559
68.22000 566.758
68.23000 564.186
68.24000 571.020
68.25000 575.713
68.26000 584.634
68.27000 596.722
68.28000 608.635
68.29000 614.091
68.30000 616.287
68.31000 618.384
68.32000 616.677
68.33000 613.873
68.34000 611.729
68.35000 615.334
68.36000 620.275
68.37000 625.626
68.38000 633.207
68.39000 641.125
68.40000 647.436
68.41000 645.547
68.42000 643.428
68.43000 643.439
68.44000 648.665
68.45000 654.129
68.46000 664.643
68.47000 683.578
68.48000 702.643
68.49000 712.666
68.50000 716.734
68.51000 719.541
68.52000 730.383
68.53000 747.022
68.54000 763.573
68.55000 777.157
68.56000 789.295
68.57000 800.847
68.58000 831.766
68.59000 866.348
68.60000 899.607
68.61000 921.855
68.62000 941.639
68.63000 964.876
68.64000 1006.164
68.65000 1050.055
68.66000 1084.747
68.67000 1142.483
68.68000 1190.422
68.69000 1239.393
68.70000 1290.806
68.71000 1342.322
68.72000 1389.301
68.73000 1428.980
68.74000 1468.561
68.75000 1488.972
68.76000 1576.284
68.77000 1635.026
68.78000 1683.559
68.79000 1724.996
68.80000 1766.884
68.81000 1822.558
68.82000 1884.720
68.83000 1943.681
68.84000 2023.682
68.85000 2103.673
68.86000 2195.044
68.87000 2376.823
68.88000 2578.080
68.89000 2818.123
68.90000 3253.158
68.91000 3715.122
68.92000 4077.158
68.93000 5624.436
68.94000 6937.528
68.95000 8699.563
68.96000 11487.021
68.97000 14314.539
68.98000 17559.127
68.99000 21450.879
69.00000 25350.063
69.01000 27321.039
69.02000 32567.711
69.03000 36070.977
69.04000 38806.594
69.05000 41027.816
69.06000 43218.523
69.07000 44555.523
69.08000 45504.527
69.09000 46401.465
69.10000 47157.453
69.11000 47811.625
69.12000 48483.965
69.13000 49294.258
69.14000 50133.156
69.15000 50924.320
69.16000 51484.652
69.17000 52014.492
69.18000 52426.105
69.19000 51220.313
69.20000 50162.977
69.21000 48498.352
69.22000 45494.230
69.23000 42441.949
69.24000 39528.941
69.25000 36824.301
69.26000 34121.711
69.27000 31740.689
69.28000 29675.232
69.29000 27618.016
69.30000 26286.537
69.31000 25423.953
69.32000 24575.014
69.33000 24077.305
69.34000 23733.742
69.35000 23410.219
69.36000 22770.172
69.37000 22098.113
69.38000 21334.646
69.39000 19907.285
69.40000 18347.504
69.41000 16715.590
69.42000 14747.961
69.43000 12737.939
69.44000 11190.322
69.45000 9205.330
69.46000 7608.981
69.47000 6179.661
69.48000 5106.095
69.49000 4044.253
69.50000 3216.190
69.51000 2725.283
69.52000 2237.140
69.53000 1903.600
69.54000 1715.779
69.55000 1528.755
69.56000 1401.789
69.57000 1312.248
69.58000 1223.995
69.59000 1166.387
69.60000 1121.767
69.61000 1079.909
69.62000 1035.392
69.63000 994.135
69.64000 954.773
69.65000 928.591
69.66000 904.935
69.67000 878.764
69.68000 841.320
69.69000 802.516
69.70000 772.911
69.71000 760.608
69.72000 751.841
69.73000 739.401
69.74000 719.410
69.75000 699.192
69.76000 678.553
69.77000 657.330
69.78000 636.109
69.79000 624.252
69.80000 620.873
69.81000 617.431
69.82000 609.890
69.83000 599.886
69.84000 590.226
69.85000 588.148
69.86000 589.174
69.87000 590.133
69.88000 582.544
69.89000 573.499
69.90000 563.682
69.91000 548.724
69.92000 532.819
69.93000 521.718
69.94000 531.352
69.95000 543.371
69.96000 552.455
69.97000 537.494
69.98000 524.560
69.99000 514.149
70.00000 508.747
