20.00000 463.351
20.01000 462.395
20.02000 461.302
20.03000 462.231
20.04000 471.117
20.05000 480.814
20.06000 487.966
20.07000 487.437
20.08000 486.704
20.09000 483.135
20.10000 474.409
20.11000 465.575
20.12000 460.342
20.13000 459.496
20.14000 458.661
20.15000 460.929
20.16000 465.627
20.17000 470.330
20.18000 475.242
20.19000 480.266
20.20000 484.923
20.21000 483.266
20.22000 479.320
20.23000 475.687
20.24000 471.570
20.25000 467.781
20.26000 464.866
20.27000 466.982
20.28000 469.902
20.29000 470.355
20.30000 461.449
20.31000 451.635
20.32000 444.470
20.33000 446.641
20.34000 448.678
20.35000 451.219
20.36000 454.644
20.37000 458.086
20.38000 461.336
20.39000 464.359
20.40000 467.375
20.41000 463.124
20.42000 453.408
20.43000 443.968
20.44000 445.132
20.45000 451.730
20.46000 458.019
20.47000 459.311
20.48000 458.856
20.49000 458.439
20.50000 457.890
20.51000 457.372
20.52000 457.598
20.53000 461.936
20.54000 466.904
20.55000 469.327
20.56000 462.435
20.57000 454.687
20.58000 449.089
20.59000 457.229
20.60000 463.969
20.61000 469.699
20.62000 473.719
20.63000 477.711
20.64000 477.001
20.65000 470.993
20.66000 465.001
20.67000 465.111
20.68000 469.656
20.69000 474.077
20.70000 474.189
20.71000 472.170
20.72000 470.022
20.73000 465.919
20.74000 461.156
20.75000 456.811
20.76000 460.859
20.77000 466.143
20.78000 470.130
20.79000 467.229
20.80000 463.316
20.81000 460.257
20.82000 460.209
20.83000 460.425
20.84000 460.579
20.85000 459.847
20.86000 459.258
20.87000 462.348
20.88000 471.446
20.89000 480.630
20.90000 479.979
20.91000 468.682
20.92000 457.429
20.93000 457.131
20.94000 464.492
20.95000 471.651
20.96000 472.375
20.97000 470.025
20.98000 467.094
20.99000 455.847
21.00000 441.889
21.01000 429.215
21.02000 433.872
21.03000 441.336
21.04000 448.993
21.05000 457.629
21.06000 466.404
21.07000 473.601
21.08000 475.425
21.09000 476.805
21.10000 477.780
21.11000 472.093
21.12000 467.569
21.13000 464.226
21.14000 462.743
21.15000 461.284
21.16000 462.416
21.17000 466.245
21.18000 470.054
21.19000 466.533
21.20000 458.128
21.21000 450.107
21.22000 453.199
21.23000 461.418
21.24000 468.553
21.25000 461.093
21.26000 449.040
21.27000 438.150
21.28000 450.023
21.29000 464.684
21.30000 477.008
21.31000 477.846
21.32000 477.138
21.33000 474.392
21.34000 464.955
21.35000 454.994
21.36000 448.032
21.37000 450.400
21.38000 452.451
21.39000 454.224
21.40000 455.571
21.41000 456.915
21.42000 456.286
21.43000 453.689
21.44000 451.109
21.45000 453.619
21.46000 459.384
21.47000 465.116
21.48000 469.960
21.49000 474.407
21.50000 477.617
21.51000 465.065
21.52000 447.727
21.53000 432.141
21.54000 438.426
21.55000 447.812
21.56000 455.651
21.57000 456.169
21.58000 455.744
21.59000 456.454
21.60000 460.762
21.61000 465.337
21.62000 468.497
21.63000 474.034
21.64000 478.258
21.65000 477.472
21.66000 469.347
21.67000 461.159
21.68000 462.433
21.69000 472.775
21.70000 483.038
21.71000 485.770
21.72000 483.770
21.73000 481.924
21.74000 483.861
21.75000 487.426
21.76000 489.979
21.77000 480.359
21.78000 467.173
21.79000 455.381
21.80000 467.078
21.81000 481.272
21.82000 492.484
21.83000 490.116
21.84000 486.079
21.85000 487.286
21.86000 504.532
21.87000 522.895
21.88000 535.433
21.89000 522.706
21.90000 512.597
21.91000 507.522
21.92000 509.554
21.93000 511.636
21.94000 512.846
21.95000 513.252
21.96000 513.655
21.97000 522.113
21.98000 535.227
21.99000 547.750
22.00000 546.818
22.01000 540.297
22.02000 534.808
22.03000 541.078
22.04000 550.671
22.05000 559.204
22.06000 560.850
22.07000 561.159
22.08000 561.656
22.09000 562.981
22.10000 564.403
22.11000 563.149
22.12000 553.994
22.13000 544.322
22.14000 537.798
22.15000 543.282
22.16000 547.617
22.17000 546.826
22.18000 539.065
22.19000 531.268
22.20000 526.889
22.21000 525.535
22.22000 524.194
22.23000 520.057
22.24000 514.398
22.25000 508.885
22.26000 506.420
22.27000 505.178
22.28000 504.341
22.29000 507.887
22.30000 512.627
22.31000 516.820
22.32000 511.780
22.33000 505.986
22.34000 500.884
22.35000 498.705
22.36000 496.853
22.37000 493.954
22.38000 488.070
22.39000 482.002
22.40000 477.959
22.41000 465.657
22.42000 456.393
22.43000 454.576
22.44000 462.515
22.45000 470.487
22.46000 472.036
22.47000 468.122
22.48000 464.254
22.49000 465.487
22.50000 469.516
22.51000 473.092
22.52000 467.763
22.53000 458.983
22.54000 451.001
22.55000 451.210
22.56000 453.572
22.57000 455.650
22.58000 459.668
22.59000 463.414
22.60000 465.385
22.61000 460.132
22.62000 454.107
22.63000 448.633
22.64000 444.672
22.65000 440.798
22.66000 438.250
22.67000 427.617
22.68000 419.650
22.69000 416.994
22.70000 421.036
22.71000 425.100
22.72000 428.917
22.73000 432.532
22.74000 436.099
22.75000 438.780
22.76000 440.915
22.77000 443.024
22.78000 444.673
22.79000 446.150
22.80000 447.296
22.81000 445.206
22.82000 442.296
22.83000 439.751
22.84000 442.705
22.85000 446.018
22.86000 447.546
22.87000 442.071
22.88000 435.885
22.89000 430.990
22.90000 429.522
22.91000 428.239
22.92000 427.406
22.93000 420.400
22.94000 415.175
22.95000 415.402
22.96000 422.247
22.97000 429.083
22.98000 428.746
22.99000 422.760
23.00000 416.865
23.01000 421.813
23.02000 432.176
23.03000 442.041
23.04000 443.382
23.05000 441.643
23.06000 439.529
23.07000 433.914
23.08000 427.445
23.09000 421.821
23.10000 437.265
23.11000 453.303
23.12000 462.723
23.13000 447.122
23.14000 429.106
23.15000 416.962
23.16000 419.890
23.17000 423.577
23.18000 425.938
23.19000 419.210
23.20000 414.187
23.21000 416.261
23.22000 426.621
23.23000 436.949
23.24000 437.675
23.25000 431.116
23.26000 424.670
23.27000 425.876
23.28000 430.822
23.29000 435.050
23.30000 427.746
23.31000 416.420
23.32000 406.901
23.33000 413.393
23.34000 423.653
23.35000 432.518
23.36000 426.114
23.37000 418.695
23.38000 413.050
23.39000 413.874
23.40000 415.292
23.41000 417.729
23.42000 422.694
23.43000 427.777
23.44000 430.988
23.45000 432.252
23.46000 433.145
23.47000 432.915
23.48000 431.424
23.49000 429.945
23.50000 430.665
23.51000 432.992
23.52000 435.274
23.53000 427.884
23.54000 416.167
23.55000 405.168
23.56000 405.040
23.57000 408.570
23.58000 412.682
23.59000 421.709
23.60000 431.850
23.61000 440.557
23.62000 434.861
23.63000 428.262
23.64000 423.765
23.65000 426.662
23.66000 430.201
23.67000 431.682
23.68000 428.237
23.69000 424.577
23.70000 422.298
23.71000 427.171
23.72000 430.755
23.73000 434.675
23.74000 438.956
23.75000 443.221
23.76000 445.341
23.77000 445.951
23.78000 446.549
23.79000 451.337
23.80000 457.853
23.81000 463.890
23.82000 463.107
23.83000 460.107
23.84000 458.131
23.85000 464.406
23.86000 472.482
23.87000 479.372
23.88000 467.281
23.89000 454.864
23.90000 448.007
23.91000 460.015
23.92000 473.576
23.93000 483.181
23.94000 483.641
23.95000 483.735
23.96000 483.792
23.97000 486.849
23.98000 489.066
23.99000 491.035
24.00000 492.748
24.01000 494.430
24.02000 492.845
24.03000 489.043
24.04000 485.328
24.05000 484.363
24.06000 484.649
24.07000 485.254
24.08000 490.127
24.09000 496.339
24.10000 500.578
24.11000 489.613
24.12000 475.454
24.13000 463.455
24.14000 459.075
24.15000 456.261
24.16000 453.470
24.17000 450.751
24.18000 448.039
24.19000 446.529
24.20000 447.702
24.21000 448.975
24.22000 449.745
24.23000 438.011
24.24000 429.557
24.25000 430.105
24.26000 439.609
24.27000 448.966
24.28000 444.645
24.29000 431.378
24.30000 418.449
24.31000 416.663
24.32000 419.679
24.33000 422.665
24.34000 425.277
24.35000 427.774
24.36000 429.597
24.37000 426.446
24.38000 422.290
24.39000 418.791
24.40000 411.481
24.41000 404.975
24.42000 401.850
24.43000 409.407
24.44000 417.750
24.45000 421.595
24.46000 415.749
24.47000 409.573
24.48000 405.895
24.49000 400.329
24.50000 396.375
24.51000 400.655
24.52000 412.802
24.53000 424.858
24.54000 429.704
24.55000 430.001
24.56000 430.290
24.57000 424.051
24.58000 415.458
24.59000 407.125
24.60000 401.915
24.61000 397.617
24.62000 394.715
24.63000 401.661
24.64000 410.521
24.65000 417.927
24.66000 424.729
24.67000 430.316
24.68000 431.907
24.69000 421.313
24.70000 409.875
24.71000 399.930
24.72000 393.092
24.73000 386.351
24.74000 382.398
24.75000 387.719
24.76000 391.512
24.77000 394.013
24.78000 395.330
24.79000 396.586
24.80000 393.743
24.81000 388.406
24.82000 383.231
24.83000 383.812
24.84000 386.621
24.85000 389.190
24.86000 389.022
24.87000 388.083
24.88000 388.041
24.89000 394.062
24.90000 401.216
24.91000 407.154
24.92000 407.571
24.93000 407.383
24.94000 405.782
24.95000 400.023
24.96000 393.992
24.97000 391.341
24.98000 395.481
24.99000 399.813
25.00000 402.312
25.01000 402.207
25.02000 402.120
25.03000 399.039
25.04000 393.316
25.05000 387.603
25.06000 382.408
25.07000 377.518
25.08000 372.789
25.09000 377.420
25.10000 385.326
25.11000 392.395
25.12000 390.447
25.13000 386.050
25.14000 383.153
25.15000 389.967
25.16000 398.525
25.17000 405.576
25.18000 401.254
25.19000 396.654
25.20000 394.006
25.21000 396.905
25.22000 400.142
25.23000 402.483
25.24000 403.081
25.25000 403.635
25.26000 403.949
25.27000 389.972
25.28000 380.211
25.29000 378.417
25.30000 383.377
25.31000 388.246
25.32000 388.309
25.33000 385.649
25.34000 383.084
25.35000 385.005
25.36000 388.441
25.37000 391.604
25.38000 391.973
25.39000 391.610
25.40000 391.459
25.41000 392.626
25.42000 394.020
25.43000 395.160
25.44000 399.720
25.45000 403.753
25.46000 405.032
25.47000 398.751
25.48000 392.036
25.49000 389.355
25.50000 394.225
25.51000 399.270
25.52000 402.083
25.53000 403.165
25.54000 403.899
25.55000 399.970
25.56000 392.237
25.57000 384.719
25.58000 387.238
25.59000 395.246
25.60000 402.946
25.61000 398.861
25.62000 390.914
25.63000 384.165
25.64000 389.076
25.65000 396.931
25.66000 403.456
25.67000 402.050
25.68000 399.332
25.69000 397.126
25.70000 388.002
25.71000 379.993
25.72000 376.566
25.73000 385.281
25.74000 394.647
25.75000 397.420
25.76000 388.276
25.77000 378.887
25.78000 373.741
25.79000 387.434
25.80000 396.847
25.81000 396.618
25.82000 388.817
25.83000 381.169
25.84000 379.948
25.85000 382.118
25.86000 384.199
25.87000 388.908
25.88000 394.187
25.89000 399.190
25.90000 401.633
25.91000 403.452
25.92000 404.378
25.93000 400.192
25.94000 395.195
25.95000 391.172
25.96000 401.731
25.97000 411.437
25.98000 415.458
25.99000 404.933
26.00000 393.680
26.01000 386.308
26.02000 385.704
26.03000 385.224
26.04000 384.966
26.05000 378.893
26.06000 374.749
26.07000 373.348
26.08000 374.021
26.09000 374.833
26.10000 380.936
26.11000 389.734
26.12000 398.142
26.13000 393.675
26.14000 385.357
26.15000 377.645
26.16000 375.280
26.17000 374.168
26.18000 373.106
26.19000 372.309
26.20000 371.553
26.21000 370.949
26.22000 379.400
26.23000 386.893
26.24000 393.498
26.25000 397.906
26.26000 402.213
26.27000 401.394
26.28000 391.950
26.29000 382.368
26.30000 377.306
26.31000 367.507
26.32000 360.899
26.33000 362.489
26.34000 370.049
26.35000 377.525
26.36000 382.120
26.37000 385.297
26.38000 388.325
26.39000 390.714
26.40000 392.729
26.41000 393.516
26.42000 383.959
26.43000 372.066
26.44000 363.349
26.45000 371.400
26.46000 381.898
26.47000 390.213
26.48000 381.096
26.49000 372.554
26.50000 367.616
26.51000 371.280
26.52000 375.316
26.53000 376.403
26.54000 372.703
26.55000 368.936
26.56000 366.984
26.57000 377.679
26.58000 384.857
26.59000 386.719
26.60000 384.850
26.61000 382.957
26.62000 380.297
26.63000 377.274
26.64000 374.404
26.65000 376.741
26.66000 380.455
26.67000 383.583
26.68000 381.997
26.69000 379.385
26.70000 377.729
26.71000 380.924
26.72000 384.798
26.73000 387.840
26.74000 385.808
26.75000 383.850
26.76000 381.552
26.77000 378.472
26.78000 375.360
26.79000 375.301
26.80000 380.022
26.81000 384.800
26.82000 387.228
26.83000 389.274
26.84000 390.616
26.85000 388.718
26.86000 384.628
26.87000 380.503
26.88000 375.375
26.89000 369.786
26.90000 364.499
26.91000 364.818
26.92000 366.724
26.93000 368.843
26.94000 372.602
26.95000 376.704
26.96000 379.293
26.97000 374.488
26.98000 368.696
26.99000 364.185
27.00000 366.627
27.01000 369.001
27.02000 371.716
27.03000 375.188
27.04000 378.689
27.05000 380.110
27.06000 378.391
27.07000 376.640
27.08000 372.910
27.09000 367.219
27.10000 361.575
27.11000 360.282
27.12000 361.827
27.13000 363.430
27.14000 366.562
27.15000 370.371
27.16000 373.961
27.17000 375.102
27.18000 375.471
27.19000 375.442
27.20000 372.489
27.21000 368.948
27.22000 366.139
27.23000 366.775
27.24000 367.852
27.25000 368.682
27.26000 364.885
27.27000 361.606
27.28000 359.595
27.29000 360.307
27.30000 361.112
27.31000 361.120
27.32000 359.969
27.33000 358.809
27.34000 361.958
27.35000 369.206
27.36000 376.355
27.37000 375.789
27.38000 370.372
27.39000 365.144
27.40000 364.520
27.41000 365.866
27.42000 367.129
27.43000 360.563
27.44000 352.496
27.45000 346.210
27.46000 352.442
27.47000 361.100
27.48000 368.960
27.49000 373.207
27.50000 377.013
27.51000 379.924
27.52000 371.723
27.53000 364.650
27.54000 360.048
27.55000 360.574
27.56000 361.259
27.57000 361.768
27.58000 362.033
27.59000 362.296
27.60000 361.525
27.61000 359.807
27.62000 358.101
27.63000 357.135
27.64000 356.617
27.65000 356.273
27.66000 359.818
27.67000 364.970
27.68000 369.790
27.69000 370.071
27.70000 369.169
27.71000 368.652
27.72000 370.724
27.73000 373.278
27.74000 375.451
27.75000 375.968
27.76000 376.293
27.77000 376.538
27.78000 366.160
27.79000 357.473
27.80000 354.675
27.81000 363.680
27.82000 373.016
27.83000 376.848
27.84000 373.240
27.85000 369.593
27.86000 364.756
27.87000 358.882
27.88000 353.135
27.89000 354.895
27.90000 361.049
27.91000 367.092
27.92000 370.809
27.93000 373.599
27.94000 376.198
27.95000 374.758
27.96000 372.465
27.97000 370.214
27.98000 368.227
27.99000 366.287
28.00000 365.425
28.01000 369.086
28.02000 373.249
28.03000 376.373
28.04000 364.892
28.05000 355.227
28.06000 350.770
28.07000 356.387
28.08000 362.259
28.09000 365.706
28.10000 365.996
28.11000 366.273
28.12000 361.364
28.13000 352.095
28.14000 343.106
28.15000 348.711
28.16000 362.560
28.17000 375.806
28.18000 377.375
28.19000 374.445
28.20000 371.728
28.21000 366.477
28.22000 361.151
28.23000 356.715
28.24000 357.789
28.25000 359.811
28.26000 359.920
28.27000 352.294
28.28000 343.849
28.29000 337.574
28.30000 349.903
28.31000 360.313
28.32000 367.783
28.33000 369.765
28.34000 371.621
28.35000 371.362
28.36000 368.453
28.37000 365.541
28.38000 364.518
28.39000 365.030
28.40000 365.499
28.41000 363.923
28.42000 361.232
28.43000 358.536
28.44000 355.727
28.45000 352.877
28.46000 350.244
28.47000 353.230
28.48000 357.178
28.49000 359.976
28.50000 355.943
28.51000 350.783
28.52000 347.235
28.53000 349.972
28.54000 353.342
28.55000 355.821
28.56000 352.585
28.57000 349.846
28.58000 349.882
28.59000 354.921
28.60000 360.062
28.61000 362.998
28.62000 363.277
28.63000 363.550
28.64000 362.038
28.65000 359.146
28.66000 356.300
28.67000 355.413
28.68000 355.556
28.69000 355.627
28.70000 354.487
28.71000 352.912
28.72000 351.463
28.73000 346.517
28.74000 341.339
28.75000 337.876
28.76000 344.193
28.77000 352.058
28.78000 358.744
28.79000 361.003
28.80000 362.839
28.81000 364.175
28.82000 364.013
28.83000 363.831
28.84000 363.036
28.85000 361.178
28.86000 359.301
28.87000 356.073
28.88000 351.280
28.89000 346.497
28.90000 345.291
28.91000 346.772
28.92000 348.230
28.93000 348.864
28.94000 349.080
28.95000 349.551
28.96000 354.077
28.97000 360.010
28.98000 365.441
28.99000 365.095
29.00000 363.585
29.01000 362.824
29.02000 366.172
29.03000 370.142
29.04000 372.163
29.05000 367.122
29.06000 361.439
29.07000 357.345
29.08000 349.093
29.09000 342.625
29.10000 339.740
29.11000 342.869
29.12000 346.094
29.13000 345.205
29.14000 339.727
29.15000 334.265
29.16000 333.045
29.17000 334.889
29.18000 336.788
29.19000 340.537
29.20000 345.194
29.21000 349.378
29.22000 346.481
29.23000 341.214
29.24000 336.414
29.25000 338.917
29.26000 342.592
29.27000 345.736
29.28000 346.083
29.29000 346.024
29.30000 347.017
29.31000 351.691
29.32000 356.682
29.33000 360.239
29.34000 351.442
29.35000 344.334
29.36000 338.754
29.37000 335.650
29.38000 332.581
29.39000 333.017
29.40000 337.212
29.41000 341.389
29.42000 344.068
29.43000 345.681
29.44000 347.193
29.45000 345.557
29.46000 342.429
29.47000 339.865
29.48000 345.231
29.49000 353.158
29.50000 360.347
29.51000 358.417
29.52000 354.970
29.53000 352.503
29.54000 354.990
29.55000 358.166
29.56000 360.740
29.57000 361.277
29.58000 361.649
29.59000 361.911
29.60000 357.216
29.61000 353.506
29.62000 349.797
29.63000 346.092
29.64000 342.386
29.65000 337.627
29.66000 331.783
29.67000 325.971
29.68000 323.255
29.69000 322.636
29.70000 322.316
29.71000 330.488
29.72000 342.544
29.73000 353.958
29.74000 356.841
29.75000 357.065
29.76000 357.266
29.77000 360.811
29.78000 364.539
29.79000 367.847
29.80000 369.115
29.81000 370.112
29.82000 369.331
29.83000 362.765
29.84000 355.753
29.85000 350.866
29.86000 359.257
29.87000 365.955
29.88000 369.208
29.89000 367.274
29.90000 365.290
29.91000 361.190
29.92000 355.001
29.93000 348.853
29.94000 354.594
29.95000 367.860
29.96000 380.789
29.97000 384.886
29.98000 385.084
29.99000 384.958
30.00000 380.762
30.01000 375.341
30.02000 370.475
30.03000 381.434
30.04000 393.800
30.05000 401.221
30.06000 385.471
30.07000 366.772
30.08000 354.327
30.09000 361.525
30.10000 370.152
30.11000 376.096
30.12000 373.479
30.13000 371.299
30.14000 370.602
30.15000 372.058
30.16000 373.531
30.17000 371.298
30.18000 365.550
30.19000 359.848
30.20000 362.575
30.21000 370.448
30.22000 377.709
30.23000 370.208
30.24000 356.414
30.25000 343.501
30.26000 341.061
30.27000 341.661
30.28000 342.196
30.29000 347.974
30.30000 353.888
30.31000 359.208
30.32000 361.845
30.33000 364.155
30.34000 365.465
30.35000 363.738
30.36000 361.803
30.37000 360.486
30.38000 352.393
30.39000 346.194
30.40000 345.969
30.41000 354.099
30.42000 362.284
30.43000 366.155
30.44000 366.095
30.45000 366.036
30.46000 363.630
30.47000 359.881
30.48000 356.309
30.49000 356.683
30.50000 358.683
30.51000 360.660
30.52000 362.376
30.53000 364.018
30.54000 365.477
30.55000 365.105
30.56000 364.487
30.57000 363.365
30.58000 360.055
30.59000 356.492
30.60000 352.929
30.61000 349.368
30.62000 345.806
30.63000 343.411
30.64000 348.843
30.65000 353.041
30.66000 355.920
30.67000 357.023
30.68000 358.118
30.69000 361.649
30.70000 367.313
30.71000 372.918
30.72000 370.074
30.73000 362.478
30.74000 355.152
30.75000 353.427
30.76000 353.929
30.77000 354.372
30.78000 354.189
30.79000 353.837
30.80000 353.525
30.81000 361.749
30.82000 370.163
30.83000 377.043
30.84000 377.500
30.85000 377.246
30.86000 378.005
30.87000 381.627
30.88000 385.423
30.89000 387.943
30.90000 386.156
30.91000 384.755
30.92000 383.478
30.93000 382.363
30.94000 381.260
30.95000 386.254
30.96000 396.385
30.97000 406.392
30.98000 411.829
30.99000 414.621
31.00000 418.155
31.01000 436.010
31.02000 459.365
31.03000 481.283
31.04000 488.623
31.05000 492.166
31.06000 495.279
31.07000 516.854
31.08000 538.120
31.09000 557.460
31.10000 569.040
31.11000 579.803
31.12000 593.415
31.13000 614.800
31.14000 636.625
31.15000 650.935
31.16000 680.905
31.17000 703.203
31.18000 728.422
31.19000 757.288
31.20000 786.179
31.21000 819.955
31.22000 857.691
31.23000 894.903
31.24000 930.315
31.25000 963.780
31.26000 996.992
31.27000 1025.667
31.28000 1052.660
31.29000 1078.868
31.30000 1097.513
31.31000 1114.258
31.32000 1128.881
31.33000 1151.673
31.34000 1172.328
31.35000 1188.668
31.36000 1188.233
31.37000 1186.116
31.38000 1181.140
31.39000 1168.633
31.40000 1155.727
31.41000 1147.377
31.42000 1116.013
31.43000 1092.734
31.44000 1077.764
31.45000 1072.784
31.46000 1067.745
31.47000 1041.416
31.48000 998.474
31.49000 956.204
31.50000 924.597
31.51000 899.391
31.52000 873.940
31.53000 844.347
31.54000 813.271
31.55000 782.036
31.56000 749.348
31.57000 716.309
31.58000 687.629
31.59000 658.910
31.60000 634.433
31.61000 611.649
31.62000 595.208
31.63000 579.370
31.64000 560.946
31.65000 535.942
31.66000 510.613
31.67000 494.445
31.68000 486.729
31.69000 481.225
31.70000 471.327
31.71000 456.348
31.72000 441.372
31.73000 428.531
31.74000 417.293
31.75000 406.252
31.76000 402.719
31.77000 402.978
31.78000 402.913
31.79000 397.712
31.80000 390.735
31.81000 383.982
31.82000 379.186
31.83000 374.846
31.84000 371.102
31.85000 372.080
31.86000 373.516
31.87000 373.514
31.88000 368.315
31.89000 362.646
31.90000 358.052
31.91000 356.097
31.92000 354.263
31.93000 353.109
31.94000 349.591
31.95000 347.020
31.96000 340.856
31.97000 330.700
31.98000 320.603
31.99000 320.454
32.00000 327.504
32.01000 334.417
32.02000 338.459
32.03000 341.000
32.04000 343.421
32.05000 344.064
32.06000 344.113
32.07000 344.349
32.08000 346.135
32.09000 348.270
32.10000 350.101
32.11000 346.662
32.12000 343.114
32.13000 339.662
32.14000 336.547
32.15000 333.461
32.16000 328.663
32.17000 319.803
32.18000 310.770
32.19000 305.164
32.20000 317.195
32.21000 326.024
32.22000 328.534
32.23000 324.292
32.24000 320.068
32.25000 318.328
32.26000 318.322
32.27000 318.316
32.28000 319.538
32.29000 321.269
32.30000 322.974
32.31000 324.335
32.32000 325.586
32.33000 326.773
32.34000 327.459
32.35000 328.036
32.36000 328.528
32.37000 327.153
32.38000 325.779
32.39000 322.263
32.40000 311.544
32.41000 300.240
32.42000 295.309
32.43000 304.980
32.44000 315.226
32.45000 321.493
32.46000 328.702
32.47000 333.869
32.48000 332.995
32.49000 325.925
32.50000 318.934
32.51000 320.463
32.52000 327.719
32.53000 334.802
32.54000 331.164
32.55000 323.009
32.56000 314.952
32.57000 308.194
32.58000 301.840
32.59000 296.172
32.60000 295.745
32.61000 296.407
32.62000 296.967
32.63000 307.545
32.64000 317.511
32.65000 323.266
32.66000 315.358
32.67000 306.402
32.68000 301.635
32.69000 306.135
32.70000 310.971
32.71000 313.885
32.72000 314.995
32.73000 315.773
32.74000 315.782
32.75000 315.035
32.76000 314.305
32.77000 315.052
32.78000 316.758
32.79000 318.420
32.80000 327.142
32.81000 338.421
32.82000 350.028
32.83000 365.754
32.84000 382.715
32.85000 399.717
32.86000 417.028
32.87000 434.399
32.88000 448.997
32.89000 463.649
32.90000 475.862
32.91000 485.237
32.92000 485.723
32.93000 485.564
32.94000 489.100
32.95000 500.530
32.96000 512.222
32.97000 519.159
32.98000 511.078
32.99000 505.275
33.00000 501.200
33.01000 498.759
33.02000 496.286
33.03000 491.298
33.04000 484.740
33.05000 478.368
33.06000 463.187
33.07000 445.208
33.08000 427.582
33.09000 414.125
33.10000 401.874
33.11000 389.144
33.12000 373.067
33.13000 356.346
33.14000 342.393
33.15000 329.303
33.16000 318.532
33.17000 309.617
33.18000 306.312
33.19000 303.390
33.20000 302.424
33.21000 305.494
33.22000 308.686
33.23000 310.550
33.24000 308.898
33.25000 307.718
33.26000 303.653
33.27000 296.968
33.28000 290.354
33.29000 288.429
33.30000 289.331
33.31000 290.205
33.32000 289.866
33.33000 289.072
33.34000 288.357
33.35000 288.512
33.36000 288.911
33.37000 289.124
33.38000 288.094
33.39000 286.835
33.40000 285.791
33.41000 281.423
33.42000 277.498
33.43000 276.043
33.44000 281.792
33.45000 288.003
33.46000 293.792
33.47000 298.739
33.48000 303.663
33.49000 306.492
33.50000 295.749
33.51000 288.190
33.52000 284.392
33.53000 283.877
33.54000 283.416
33.55000 286.070
33.56000 290.537
33.57000 294.854
33.58000 294.978
33.59000 293.527
33.60000 292.180
33.61000 291.933
33.62000 291.983
33.63000 291.665
33.64000 288.996
33.65000 285.908
33.66000 283.369
33.67000 287.552
33.68000 291.599
33.69000 295.193
33.70000 297.513
33.71000 299.756
33.72000 301.017
33.73000 300.386
33.74000 299.708
33.75000 299.325
33.76000 304.339
33.77000 307.828
33.78000 305.261
33.79000 297.610
33.80000 290.009
33.81000 285.007
33.82000 281.464
33.83000 278.050
33.84000 282.519
33.85000 289.555
33.86000 295.821
33.87000 294.302
33.88000 290.761
33.89000 288.351
33.90000 292.888
33.91000 298.610
33.92000 303.281
33.93000 300.413
33.94000 297.420
33.95000 295.287
33.96000 295.495
33.97000 295.835
33.98000 296.028
33.99000 295.947
34.00000 295.861
34.01000 295.813
34.02000 304.133
34.03000 309.881
34.04000 309.157
34.05000 303.203
34.06000 297.435
34.07000 300.140
34.08000 307.436
34.09000 314.446
34.10000 317.069
34.11000 318.006
34.12000 318.744
34.13000 317.569
34.14000 315.915
34.15000 314.086
34.16000 311.223
34.17000 308.192
34.18000 305.737
34.19000 308.605
34.20000 311.374
34.21000 312.953
34.22000 311.411
34.23000 309.704
34.24000 308.961
34.25000 309.946
34.26000 310.965
34.27000 311.521
34.28000 326.508
34.29000 336.777
34.30000 335.948
34.31000 326.489
34.32000 317.133
34.33000 312.043
34.34000 309.184
34.35000 306.445
34.36000 307.223
34.37000 309.119
34.38000 311.600
34.39000 319.421
34.40000 328.530
34.41000 336.759
34.42000 340.003
34.43000 342.465
34.44000 344.443
34.45000 332.621
34.46000 321.977
34.47000 314.381
34.48000 314.515
34.49000 315.029
34.50000 314.762
34.51000 313.146
34.52000 311.506
34.53000 310.627
34.54000 309.591
34.55000 308.887
34.56000 308.998
34.57000 309.718
34.58000 310.427
34.59000 310.755
34.60000 310.890
34.61000 311.020
34.62000 310.357
34.63000 309.487
34.64000 308.687
34.65000 308.490
34.66000 308.435
34.67000 308.153
34.68000 306.641
34.69000 304.943
34.70000 303.591
34.71000 299.926
34.72000 296.801
34.73000 293.960
34.74000 291.817
34.75000 289.705
34.76000 288.218
34.77000 287.775
34.78000 287.347
34.79000 287.122
34.80000 291.783
34.81000 294.909
34.82000 292.416
34.83000 285.868
34.84000 279.457
34.85000 277.638
34.86000 278.058
34.87000 278.457
34.88000 280.880
34.89000 283.746
34.90000 286.057
34.91000 283.762
34.92000 280.435
34.93000 278.220
34.94000 281.814
34.95000 286.246
34.96000 289.750
34.97000 289.985
34.98000 289.951
34.99000 287.729
35.00000 280.334
35.01000 272.720
35.02000 266.883
35.03000 263.907
35.04000 260.969
35.05000 259.453
35.06000 260.072
35.07000 260.494
35.08000 261.570
35.09000 263.099
35.10000 264.645
35.11000 266.706
35.12000 269.009
35.13000 271.194
35.14000 274.977
35.15000 278.939
35.16000 282.104
35.17000 278.938
35.18000 274.407
35.19000 269.987
35.20000 266.121
35.21000 262.331
35.22000 259.361
35.23000 260.072
35.24000 260.878
35.25000 260.721
35.26000 258.364
35.27000 255.922
35.28000 254.522
35.29000 254.742
35.30000 254.980
35.31000 255.100
35.32000 267.045
35.33000 274.962
35.34000 274.913
35.35000 269.524
35.36000 264.262
35.37000 262.529
35.38000 262.400
35.39000 262.278
35.40000 264.717
35.41000 267.686
35.42000 270.322
35.43000 270.423
35.44000 269.999
35.45000 269.860
35.46000 271.095
35.47000 272.513
35.48000 273.614
35.49000 267.357
35.50000 261.933
35.51000 259.243
35.52000 262.588
35.53000 266.149
35.54000 266.130
35.55000 260.753
35.56000 255.324
35.57000 255.672
35.58000 261.689
35.59000 267.651
35.60000 268.893
35.61000 267.084
35.62000 265.227
35.63000 262.124
35.64000 258.475
35.65000 255.039
35.66000 256.303
35.67000 258.746
35.68000 260.752
35.69000 259.580
35.70000 257.774
35.71000 256.496
35.72000 257.674
35.73000 259.162
35.74000 260.308
35.75000 250.951
35.76000 242.943
35.77000 239.413
35.78000 245.418
35.79000 251.738
35.80000 254.406
35.81000 251.808
35.82000 249.167
35.83000 250.438
35.84000 255.392
35.85000 260.240
35.86000 257.097
35.87000 248.973
35.88000 241.273
35.89000 243.657
35.90000 250.317
35.91000 256.564
35.92000 261.762
35.93000 266.223
35.94000 269.373
35.95000 263.412
35.96000 255.704
35.97000 250.082
35.98000 253.812
35.99000 258.670
36.00000 262.376
36.01000 255.501
36.02000 249.519
36.03000 247.916
36.04000 255.319
36.05000 262.994
36.06000 267.090
36.07000 266.211
36.08000 265.300
36.09000 262.337
36.10000 257.521
36.11000 252.775
36.12000 252.611
36.13000 255.203
36.14000 257.632
36.15000 256.461
36.16000 253.816
36.17000 251.344
36.18000 250.130
36.19000 249.346
36.20000 249.129
36.21000 252.688
36.22000 256.943
36.23000 260.566
36.24000 261.464
36.25000 262.048
36.26000 262.489
36.27000 261.998
36.28000 261.566
36.29000 261.432
36.30000 261.890
36.31000 262.363
36.32000 261.359
36.33000 258.375
36.34000 255.382
36.35000 252.700
36.36000 250.291
36.37000 247.892
36.38000 246.074
36.39000 244.593
36.40000 243.405
36.41000 248.216
36.42000 255.399
36.43000 262.083
36.44000 264.867
36.45000 266.435
36.46000 266.694
36.47000 258.587
36.48000 248.999
36.49000 241.051
36.50000 239.922
36.51000 239.542
36.52000 239.258
36.53000 246.277
36.54000 252.096
36.55000 254.541
36.56000 250.515
36.57000 246.330
36.58000 246.550
36.59000 252.451
36.60000 258.367
36.61000 258.582
36.62000 254.035
36.63000 249.550
36.64000 248.200
36.65000 248.604
36.66000 248.959
36.67000 248.379
36.68000 247.443
36.69000 246.574
36.70000 253.305
36.71000 261.134
36.72000 267.590
36.73000 265.642
36.74000 262.264
36.75000 259.431
36.76000 258.784
36.77000 258.364
36.78000 258.053
36.79000 257.705
36.80000 257.433
36.81000 258.928
36.82000 263.694
36.83000 268.532
36.84000 268.900
36.85000 263.720
36.86000 258.532
36.87000 257.562
36.88000 259.980
36.89000 262.406
36.90000 265.156
36.91000 268.081
36.92000 271.177
36.93000 277.304
36.94000 284.549
36.95000 291.234
36.96000 288.004
36.97000 282.891
36.98000 278.486
36.99000 278.242
37.00000 278.677
37.01000 279.326
37.02000 280.801
37.03000 282.358
37.04000 283.500
37.05000 276.847
37.06000 271.390
37.07000 269.605
37.08000 274.381
37.09000 279.286
37.10000 282.596
37.11000 284.002
37.12000 285.400
37.13000 283.004
37.14000 277.696
37.15000 272.397
37.16000 267.446
37.17000 262.677
37.18000 258.140
37.19000 257.466
37.20000 258.168
37.21000 258.813
37.22000 260.542
37.23000 262.318
37.24000 263.965
37.25000 264.884
37.26000 265.689
37.27000 265.633
37.28000 262.371
37.29000 258.806
37.30000 256.217
37.31000 252.117
37.32000 248.908
37.33000 248.439
37.34000 252.691
37.35000 257.026
37.36000 259.192
37.37000 258.867
37.38000 258.540
37.39000 259.523
37.40000 261.471
37.41000 263.321
37.42000 261.595
37.43000 258.070
37.44000 254.855
37.45000 256.508
37.46000 259.835
37.47000 262.877
37.48000 264.319
37.49000 265.272
37.50000 265.258
37.51000 260.003
37.52000 253.961
37.53000 248.702
37.54000 246.256
37.55000 244.061
37.56000 242.484
37.57000 243.512
37.58000 244.390
37.59000 243.115
37.60000 238.260
37.61000 233.349
37.62000 235.762
37.63000 246.262
37.64000 256.726
37.65000 262.221
37.66000 264.123
37.67000 265.836
37.68000 261.276
37.69000 253.667
37.70000 246.511
37.71000 246.029
37.72000 247.761
37.73000 249.338
37.74000 253.628
37.75000 257.960
37.76000 261.275
37.77000 259.288
37.78000 256.538
37.79000 253.960
37.80000 251.977
37.81000 250.043
37.82000 248.669
37.83000 249.871
37.84000 250.869
37.85000 252.509
37.86000 255.178
37.87000 257.862
37.88000 256.090
37.89000 249.590
37.90000 243.120
37.91000 238.664
37.92000 235.638
37.93000 232.807
37.94000 235.893
37.95000 241.757
37.96000 247.433
37.97000 250.497
37.98000 252.724
37.99000 254.742
38.00000 255.442
38.01000 255.810
38.02000 255.303
38.03000 250.411
38.04000 244.915
38.05000 239.711
38.06000 235.480
38.07000 231.327
38.08000 228.408
38.09000 242.784
38.10000 254.183
38.11000 261.011
38.12000 260.766
38.13000 260.441
38.14000 260.572
38.15000 261.166
38.16000 261.757
38.17000 261.666
38.18000 261.128
38.19000 260.709
38.20000 263.579
38.21000 267.941
38.22000 271.953
38.23000 271.375
38.24000 269.379
38.25000 267.580
38.26000 268.918
38.27000 270.663
38.28000 273.398
38.29000 280.915
38.30000 289.061
38.31000 295.329
38.32000 295.540
38.33000 295.291
38.34000 295.117
38.35000 310.348
38.36000 322.242
38.37000 334.977
38.38000 348.967
38.39000 362.968
38.40000 372.326
38.41000 377.143
38.42000 381.926
38.43000 396.995
38.44000 418.352
38.45000 439.493
38.46000 455.138
38.47000 468.377
38.48000 482.705
38.49000 510.503
38.50000 542.317
38.51000 570.844
38.52000 600.236
38.53000 626.068
38.54000 652.567
38.55000 682.157
38.56000 712.137
38.57000 741.515
38.58000 769.022
38.59000 796.395
38.60000 815.197
38.61000 852.191
38.62000 880.377
38.63000 902.710
38.64000 916.625
38.65000 930.476
38.66000 952.885
38.67000 983.330
38.68000 1013.525
38.69000 1026.709
38.70000 1029.276
38.71000 1032.065
38.72000 1040.087
38.73000 1050.320
38.74000 1059.446
38.75000 1055.593
38.76000 1048.006
38.77000 1041.238
38.78000 1024.271
38.79000 1007.812
38.80000 988.939
38.81000 959.287
38.82000 928.338
38.83000 896.668
38.84000 862.829
38.85000 828.842
38.86000 805.777
38.87000 770.072
38.88000 743.154
38.89000 711.119
38.90000 671.992
38.91000 632.822
38.92000 597.207
38.93000 564.799
38.94000 532.703
38.95000 507.344
38.96000 486.464
38.97000 465.426
38.98000 440.930
38.99000 415.024
39.00000 389.639
39.01000 370.039
39.02000 352.045
39.03000 336.082
39.04000 322.153
39.05000 310.411
39.06000 300.209
39.07000 296.639
39.08000 293.830
39.09000 289.371
39.10000 280.129
39.11000 270.583
39.12000 264.183
39.13000 262.400
39.14000 261.170
39.15000 259.485
39.16000 257.191
39.17000 254.896
39.18000 254.035
39.19000 254.416
39.20000 254.794
39.21000 255.800
39.22000 257.138
39.23000 258.384
39.24000 257.778
39.25000 256.442
39.26000 254.782
39.27000 249.713
39.28000 243.732
39.29000 238.456
39.30000 235.629
39.31000 233.564
39.32000 232.841
39.33000 237.679
39.34000 243.124
39.35000 246.176
39.36000 242.520
39.37000 238.464
39.38000 235.780
39.39000 237.065
39.40000 238.085
39.41000 238.353
39.42000 237.653
39.43000 236.949
39.44000 236.411
39.45000 236.012
39.46000 235.618
39.47000 234.290
39.48000 232.488
39.49000 230.772
39.50000 230.685
39.51000 231.217
39.52000 232.164
39.53000 237.266
39.54000 243.441
39.55000 248.857
39.56000 243.662
39.57000 237.657
39.58000 232.858
39.59000 232.880
39.60000 233.403
39.61000 233.161
39.62000 230.854
39.63000 228.430
39.64000 226.847
39.65000 225.735
39.66000 224.926
39.67000 226.476
39.68000 230.946
39.69000 235.411
39.70000 235.599
39.71000 232.354
39.72000 229.155
39.73000 226.377
39.74000 223.899
39.75000 221.631
39.76000 223.084
39.77000 225.904
39.78000 227.975
39.79000 222.910
39.80000 216.070
39.81000 210.105
39.82000 211.421
39.83000 213.558
39.84000 216.186
39.85000 220.702
39.86000 225.405
39.87000 227.631
39.88000 223.388
39.89000 218.809
39.90000 215.856
39.91000 218.629
39.92000 220.736
39.93000 221.549
39.94000 220.822
39.95000 220.083
39.96000 217.373
39.97000 213.139
39.98000 208.974
39.99000 212.197
40.00000 219.038
40.01000 225.358
40.02000 223.043
40.03000 217.665
40.04000 213.475
40.05000 220.072
40.06000 229.256
40.07000 237.216
40.08000 233.569
40.09000 228.924
40.10000 224.488
40.11000 220.834
40.12000 217.252
40.13000 214.937
40.14000 215.814
40.15000 216.847
40.16000 217.504
40.17000 222.197
40.18000 225.657
40.19000 225.404
40.20000 220.899
40.21000 216.401
40.22000 214.009
40.23000 213.185
40.24000 212.375
40.25000 213.091
40.26000 214.521
40.27000 216.212
40.28000 221.989
40.29000 229.166
40.30000 234.793
40.31000 227.017
40.32000 216.145
40.33000 206.781
40.34000 210.597
40.35000 215.502
40.36000 219.416
40.37000 219.780
40.38000 219.828
40.39000 219.802
40.40000 219.593
40.41000 219.376
40.42000 219.240
40.43000 217.672
40.44000 216.524
40.45000 214.610
40.46000 211.853
40.47000 209.115
40.48000 209.307
40.49000 211.599
40.50000 213.846
40.51000 216.976
40.52000 220.398
40.53000 223.263
40.54000 217.947
40.55000 209.926
40.56000 203.085
40.57000 205.984
40.58000 211.049
40.59000 215.385
40.60000 218.899
40.61000 221.765
40.62000 223.075
40.63000 219.010
40.64000 214.491
40.65000 212.249
40.66000 215.364
40.67000 218.702
40.68000 220.767
40.69000 223.801
40.70000 225.991
40.71000 222.292
40.72000 212.368
40.73000 202.520
40.74000 202.111
40.75000 208.225
40.76000 214.204
40.77000 212.728
40.78000 207.968
40.79000 203.499
40.80000 203.044
40.81000 203.871
40.82000 205.274
40.83000 211.214
40.84000 218.125
40.85000 224.002
40.86000 217.116
40.87000 209.863
40.88000 204.896
40.89000 207.550
40.90000 210.814
40.91000 212.974
40.92000 212.631
40.93000 212.190
40.94000 211.922
40.95000 209.273
40.96000 207.361
40.97000 209.251
40.98000 215.002
40.99000 220.672
41.00000 218.132
41.01000 210.124
41.02000 202.310
41.03000 203.668
41.04000 208.926
41.05000 213.648
41.06000 211.375
41.07000 206.948
41.08000 202.903
41.09000 201.740
41.10000 201.171
41.11000 200.690
41.12000 201.998
41.13000 203.287
41.14000 204.327
41.15000 204.564
41.16000 204.741
41.17000 204.397
41.18000 202.909
41.19000 201.382
41.20000 200.465
41.21000 203.202
41.22000 205.171
41.23000 205.266
41.24000 203.533
41.25000 201.835
41.26000 203.167
41.27000 206.445
41.28000 209.635
41.29000 210.428
41.30000 210.187
41.31000 210.268
41.32000 214.322
41.33000 219.558
41.34000 223.558
41.35000 218.651
41.36000 211.980
41.37000 206.383
41.38000 202.525
41.39000 199.496
41.40000 197.728
41.41000 199.875
41.42000 202.303
41.43000 205.052
41.44000 208.484
41.45000 211.938
41.46000 213.979
41.47000 204.838
41.48000 198.318
41.49000 194.365
41.50000 192.812
41.51000 191.321
41.52000 194.336
41.53000 200.142
41.54000 205.779
41.55000 207.405
41.56000 207.343
41.57000 207.383
41.58000 208.609
41.59000 210.175
41.60000 211.131
41.61000 207.869
41.62000 203.803
41.63000 200.416
41.64000 203.043
41.65000 205.815
41.66000 207.967
41.67000 208.262
41.68000 208.431
41.69000 208.075
41.70000 206.646
41.71000 205.185
41.72000 204.335
41.73000 205.812
41.74000 206.857
41.75000 203.795
41.76000 197.040
41.77000 190.439
41.78000 193.667
41.79000 202.769
41.80000 211.583
41.81000 211.610
41.82000 208.254
41.83000 205.181
41.84000 205.238
41.85000 206.160
41.86000 206.849
41.87000 205.987
41.88000 204.842
41.89000 203.895
41.90000 204.990
41.91000 206.086
41.92000 205.940
41.93000 202.205
41.94000 198.242
41.95000 196.022
41.96000 197.241
41.97000 198.553
41.98000 199.303
41.99000 205.930
42.00000 210.575
42.01000 213.260
42.02000 214.250
42.03000 215.159
42.04000 211.528
42.05000 205.279
42.06000 199.245
42.07000 200.058
42.08000 203.361
42.09000 206.828
42.10000 212.013
42.11000 217.657
42.12000 222.185
42.13000 219.644
42.14000 215.858
42.15000 212.750
42.16000 205.823
42.17000 199.795
42.18000 196.780
42.19000 202.179
42.20000 208.077
42.21000 210.346
42.22000 205.698
42.23000 200.882
42.24000 198.173
42.25000 202.750
42.26000 205.939
42.27000 205.824
42.28000 202.961
42.29000 200.191
42.30000 202.054
42.31000 206.495
42.32000 210.772
42.33000 210.736
42.34000 209.167
42.35000 207.539
42.36000 205.329
42.37000 202.969
42.38000 200.630
42.39000 198.415
42.40000 196.220
42.41000 194.433
42.42000 195.387
42.43000 196.399
42.44000 198.426
42.45000 203.188
42.46000 208.101
42.47000 211.993
42.48000 214.004
42.49000 215.975
42.50000 217.064
42.51000 214.277
42.52000 212.346
42.53000 210.431
42.54000 208.527
42.55000 206.627
42.56000 204.861
42.57000 203.168
42.58000 201.542
42.59000 203.356
42.60000 206.231
42.61000 209.009
42.62000 210.859
42.63000 212.480
42.64000 213.591
42.65000 211.729
42.66000 209.385
42.67000 207.491
42.68000 201.576
42.69000 196.443
42.70000 194.143
42.71000 199.221
42.72000 204.680
42.73000 206.827
42.74000 203.092
42.75000 199.242
42.76000 197.152
42.77000 205.418
42.78000 211.082
42.79000 212.726
42.80000 211.271
42.81000 209.812
42.82000 208.174
42.83000 206.444
42.84000 204.787
42.85000 201.563
42.86000 198.041
42.87000 195.025
42.88000 196.572
42.89000 199.209
42.90000 200.610
42.91000 195.074
42.92000 188.461
42.93000 183.157
42.94000 184.835
42.95000 186.723
42.96000 190.817
42.97000 200.459
42.98000 210.367
42.99000 212.796
43.00000 202.407
43.01000 191.799
43.02000 186.143
43.03000 192.843
43.04000 197.404
43.05000 199.502
43.06000 199.774
43.07000 199.988
43.08000 198.154
43.09000 195.295
43.10000 192.567
43.11000 193.050
43.12000 194.517
43.13000 195.956
43.14000 197.158
43.15000 198.304
43.16000 198.502
43.17000 193.587
43.18000 187.911
43.19000 183.397
43.20000 191.057
43.21000 198.101
43.22000 202.247
43.23000 199.352
43.24000 196.142
43.25000 194.210
43.26000 194.389
43.27000 194.600
43.28000 194.710
43.29000 194.285
43.30000 193.982
43.31000 191.530
43.32000 187.542
43.33000 183.694
43.34000 184.449
43.35000 187.429
43.36000 190.262
43.37000 195.700
43.38000 201.522
43.39000 206.161
43.40000 201.074
43.41000 193.831
43.42000 187.257
43.43000 184.142
43.44000 181.521
43.45000 179.453
43.46000 187.299
43.47000 194.262
43.48000 198.085
43.49000 194.550
43.50000 190.708
43.51000 190.515
43.52000 196.138
43.53000 201.836
43.54000 204.760
43.55000 198.955
43.56000 195.084
43.57000 195.323
43.58000 198.392
43.59000 201.365
43.60000 201.468
43.61000 200.231
43.62000 199.060
43.63000 194.031
43.64000 188.268
43.65000 182.855
43.66000 180.192
43.67000 178.116
43.68000 177.319
43.69000 182.892
43.70000 189.335
43.71000 194.374
43.72000 194.326
43.73000 193.965
43.74000 193.168
43.75000 191.385
43.76000 189.564
43.77000 190.082
43.78000 194.197
43.79000 198.351
43.80000 200.441
43.81000 187.736
43.82000 179.331
43.83000 179.044
43.84000 184.149
43.85000 189.098
43.86000 189.771
43.87000 188.517
43.88000 187.332
43.89000 188.178
43.90000 189.526
43.91000 190.423
43.92000 187.936
43.93000 184.755
43.94000 182.143
43.95000 182.263
43.96000 182.740
43.97000 183.110
43.98000 181.925
43.99000 180.891
44.00000 182.056
44.01000 188.029
44.02000 194.171
44.03000 198.372
44.04000 199.695
44.05000 200.991
44.06000 199.790
44.07000 196.162
44.08000 192.552
44.09000 190.468
44.10000 189.361
44.11000 188.349
44.12000 189.740
44.13000 192.176
44.14000 194.468
44.15000 194.522
44.16000 193.965
44.17000 193.463
44.18000 193.354
44.19000 193.324
44.20000 193.290
44.21000 193.242
44.22000 193.193
44.23000 193.155
44.24000 193.717
44.25000 194.195
44.26000 194.630
44.27000 194.975
44.28000 195.317
44.29000 197.932
44.30000 203.798
44.31000 209.687
44.32000 210.695
44.33000 207.150
44.34000 203.640
44.35000 202.735
44.36000 203.438
44.37000 203.954
44.38000 200.093
44.39000 194.392
44.40000 189.050
44.41000 191.947
44.42000 196.729
44.43000 201.520
44.44000 206.376
44.45000 211.245
44.46000 214.596
44.47000 211.212
44.48000 207.025
44.49000 203.839
44.50000 203.540
44.51000 203.457
44.52000 200.982
44.53000 193.632
44.54000 186.138
44.55000 184.486
44.56000 190.880
44.57000 197.320
44.58000 201.669
44.59000 204.139
44.60000 206.615
44.61000 209.456
44.62000 212.514
44.63000 215.485
44.64000 216.578
44.65000 216.908
44.66000 217.216
44.67000 218.294
44.68000 219.464
44.69000 221.004
44.70000 224.984
44.71000 229.409
44.72000 232.438
44.73000 229.499
44.74000 225.880
44.75000 223.152
44.76000 224.421
44.77000 225.612
44.78000 226.285
44.79000 225.935
44.80000 225.559
44.81000 228.221
44.82000 234.915
44.83000 241.623
44.84000 243.412
44.85000 240.966
44.86000 238.526
44.87000 236.389
44.88000 234.425
44.89000 232.761
44.90000 237.118
44.91000 243.834
44.92000 250.078
44.93000 248.925
44.94000 246.107
44.95000 243.814
44.96000 244.836
44.97000 246.440
44.98000 249.028
44.99000 255.669
45.00000 262.750
45.01000 268.037
45.02000 263.115
45.03000 258.809
45.04000 256.878
45.05000 259.460
45.06000 262.151
45.07000 262.219
45.08000 258.938
45.09000 255.650
45.10000 254.080
45.11000 253.936
45.12000 253.801
45.13000 254.101
45.14000 254.643
45.15000 254.950
45.16000 250.853
45.17000 245.091
45.18000 239.756
45.19000 242.001
45.20000 245.769
45.21000 250.211
45.22000 258.748
45.23000 267.974
45.24000 272.302
45.25000 257.183
45.26000 240.057
45.27000 227.395
45.28000 234.030
45.29000 240.001
45.30000 242.925
45.31000 240.258
45.32000 237.472
45.33000 233.375
45.34000 227.667
45.35000 221.964
45.36000 222.357
45.37000 227.589
45.38000 232.638
45.39000 229.648
45.40000 222.352
45.41000 215.298
45.42000 212.471
45.43000 211.188
45.44000 210.005
45.45000 207.494
45.46000 204.951
45.47000 202.543
45.48000 200.926
45.49000 199.436
45.50000 198.923
45.51000 202.151
45.52000 205.745
45.53000 208.376
45.54000 206.646
45.55000 205.138
45.56000 204.281
45.57000 204.578
45.58000 204.898
45.59000 203.742
45.60000 200.841
45.61000 197.943
45.62000 194.877
45.63000 191.699
45.64000 188.635
45.65000 190.069
45.66000 193.828
45.67000 197.331
45.68000 196.643
45.69000 194.475
45.70000 192.485
45.71000 196.385
45.72000 201.113
45.73000 204.817
45.74000 202.798
45.75000 199.893
45.76000 196.865
45.77000 193.384
45.78000 189.861
45.79000 187.309
45.80000 191.778
45.81000 195.468
45.82000 196.081
45.83000 191.436
45.84000 186.702
45.85000 185.027
45.86000 186.831
45.87000 188.632
45.88000 190.953
45.89000 193.638
45.90000 196.289
45.91000 197.769
45.92000 198.664
45.93000 199.191
45.94000 194.041
45.95000 186.958
45.96000 180.487
45.97000 180.379
45.98000 181.578
45.99000 181.987
46.00000 178.149
46.01000 173.680
46.02000 171.225
46.03000 175.939
46.04000 181.288
46.05000 185.120
46.06000 185.381
46.07000 185.459
46.08000 184.313
46.09000 181.149
46.10000 177.955
46.11000 177.448
46.12000 179.877
46.13000 182.297
46.14000 183.723
46.15000 184.433
46.16000 184.996
46.17000 180.818
46.18000 174.355
46.19000 168.423
46.20000 170.184
46.21000 174.474
46.22000 178.374
46.23000 178.091
46.24000 177.024
46.25000 176.506
46.26000 178.828
46.27000 181.554
46.28000 184.212
46.29000 186.637
46.30000 189.043
46.31000 190.748
46.32000 186.302
46.33000 182.729
46.34000 177.526
46.35000 169.730
46.36000 161.901
46.37000 159.586
46.38000 163.064
46.39000 166.525
46.40000 168.606
46.41000 169.726
46.42000 170.770
46.43000 169.564
46.44000 167.309
46.45000 165.412
46.46000 168.391
46.47000 172.917
46.48000 177.012
46.49000 174.327
46.50000 170.694
46.51000 167.254
46.52000 164.774
46.53000 162.425
46.54000 161.025
46.55000 162.769
46.56000 164.762
46.57000 166.159
46.58000 173.693
46.59000 179.569
46.60000 181.316
46.61000 176.733
46.62000 172.081
46.63000 169.895
46.64000 170.197
46.65000 170.498
46.66000 170.308
46.67000 169.801
46.68000 169.371
46.69000 171.035
46.70000 173.639
46.71000 175.950
46.72000 174.475
46.73000 171.842
46.74000 169.471
46.75000 171.376
46.76000 173.814
46.77000 175.699
46.78000 174.948
46.79000 173.855
46.80000 172.873
46.81000 172.250
46.82000 171.654
46.83000 171.241
46.84000 166.916
46.85000 163.557
46.86000 163.422
46.87000 168.051
46.88000 172.723
46.89000 174.836
46.90000 174.472
46.91000 174.111
46.92000 169.481
46.93000 162.247
46.94000 155.430
46.95000 159.063
46.96000 167.230
46.97000 174.752
46.98000 174.399
46.99000 171.718
47.00000 169.318
47.01000 165.443
47.02000 161.808
47.03000 158.108
47.04000 154.111
47.05000 150.078
47.06000 148.110
47.07000 152.516
47.08000 157.373
47.09000 160.698
47.10000 159.001
47.11000 157.609
47.12000 156.773
47.13000 156.727
47.14000 156.688
47.15000 157.709
47.16000 159.714
47.17000 161.702
47.18000 163.376
47.19000 164.828
47.20000 166.241
47.21000 166.725
47.22000 166.820
47.23000 166.595
47.24000 162.668
47.25000 157.685
47.26000 153.247
47.27000 157.188
47.28000 161.992
47.29000 166.835
47.30000 171.845
47.31000 176.875
47.32000 179.444
47.33000 174.681
47.34000 169.431
47.35000 165.878
47.36000 161.505
47.37000 158.228
47.38000 158.209
47.39000 162.660
47.40000 167.138
47.41000 170.136
47.42000 171.813
47.43000 173.474
47.44000 173.354
47.45000 172.201
47.46000 170.758
47.47000 163.070
47.48000 152.856
47.49000 143.739
47.50000 146.647
47.51000 152.864
47.52000 158.370
47.53000 162.175
47.54000 165.200
47.55000 167.567
47.56000 167.132
47.57000 166.380
47.58000 164.548
47.59000 159.609
47.60000 154.477
47.61000 151.047
47.62000 156.862
47.63000 161.354
47.64000 163.255
47.65000 161.730
47.66000 160.190
47.67000 159.512
47.68000 159.574
47.69000 159.636
47.70000 159.098
47.71000 158.237
47.72000 157.517
47.73000 159.614
47.74000 162.811
47.75000 165.074
47.76000 157.613
47.77000 147.573
47.78000 138.729
47.79000 145.072
47.80000 152.823
47.81000 158.964
47.82000 158.491
47.83000 157.304
47.84000 157.068
47.85000 159.474
47.86000 162.035
47.87000 163.725
47.88000 160.751
47.89000 158.476
47.90000 156.843
47.91000 156.027
47.92000 155.216
47.93000 154.924
47.94000 155.061
47.95000 155.196
47.96000 155.908
47.97000 156.911
47.98000 157.964
47.99000 159.959
48.00000 162.308
48.01000 164.147
48.02000 160.940
48.03000 156.442
48.04000 152.503
48.05000 154.412
48.06000 156.891
48.07000 158.001
48.08000 153.691
48.09000 148.824
48.10000 145.829
48.11000 147.856
48.12000 150.158
48.13000 151.657
48.14000 153.619
48.15000 155.066
48.16000 156.871
48.17000 159.117
48.18000 161.352
48.19000 159.888
48.20000 155.483
48.21000 151.142
48.22000 149.390
48.23000 149.032
48.24000 148.829
48.25000 151.350
48.26000 154.864
48.27000 158.016
48.28000 157.761
48.29000 156.666
48.30000 155.713
48.31000 158.310
48.32000 161.015
48.33000 162.251
48.34000 157.880
48.35000 152.960
48.36000 151.452
48.37000 158.775
48.38000 166.550
48.39000 171.547
48.40000 169.004
48.41000 167.046
48.42000 163.856
48.43000 159.216
48.44000 154.587
48.45000 153.237
48.46000 154.398
48.47000 155.540
48.48000 160.101
48.49000 166.220
48.50000 171.688
48.51000 166.544
48.52000 157.665
48.53000 149.843
48.54000 151.488
48.55000 155.380
48.56000 158.749
48.57000 158.100
48.58000 157.021
48.59000 156.206
48.60000 156.360
48.61000 156.605
48.62000 157.470
48.63000 159.887
48.64000 162.378
48.65000 163.957
48.66000 156.073
48.67000 150.238
48.68000 147.545
48.69000 148.414
48.70000 149.285
48.71000 149.911
48.72000 150.356
48.73000 150.793
48.74000 148.904
48.75000 145.966
48.76000 143.221
48.77000 143.439
48.78000 144.662
48.79000 146.254
48.80000 151.001
48.81000 156.468
48.82000 161.171
48.83000 157.536
48.84000 153.415
48.85000 150.632
48.86000 152.597
48.87000 154.980
48.88000 155.113
48.89000 149.815
48.90000 144.276
48.91000 140.814
48.92000 153.236
48.93000 162.367
48.94000 165.189
48.95000 161.137
48.96000 157.104
48.97000 156.098
48.98000 157.242
48.99000 158.364
49.00000 156.322
49.01000 152.899
49.02000 149.532
49.03000 146.987
49.04000 144.710
49.05000 142.952
49.06000 145.424
49.07000 148.828
49.08000 151.736
49.09000 155.905
49.10000 159.567
49.11000 161.513
49.12000 157.580
49.13000 153.157
49.14000 151.142
49.15000 154.743
49.16000 158.574
49.17000 160.934
49.18000 158.959
49.19000 157.503
49.20000 156.417
49.21000 155.718
49.22000 155.030
49.23000 155.624
49.24000 157.095
49.25000 158.533
49.26000 158.465
49.27000 157.730
49.28000 156.926
49.29000 155.191
49.30000 153.161
49.31000 150.908
49.32000 146.917
49.33000 142.558
49.34000 138.858
49.35000 144.617
49.36000 150.524
49.37000 155.366
49.38000 156.691
49.39000 157.739
49.40000 157.011
49.41000 152.289
49.42000 147.417
49.43000 144.459
49.44000 147.050
49.45000 148.942
49.46000 151.613
49.47000 155.067
49.48000 158.485
49.49000 158.371
49.50000 155.925
49.51000 153.541
49.52000 154.718
49.53000 157.365
49.54000 159.690
49.55000 157.891
49.56000 154.831
49.57000 151.867
49.58000 149.611
49.59000 147.499
49.60000 145.719
49.61000 145.548
49.62000 145.580
49.63000 146.373
49.64000 149.595
49.65000 152.998
49.66000 153.430
49.67000 147.404
49.68000 141.155
49.69000 137.418
49.70000 143.936
49.71000 148.626
49.72000 150.246
49.73000 148.903
49.74000 147.600
49.75000 149.616
49.76000 153.745
49.77000 157.761
49.78000 158.120
49.79000 156.955
49.80000 155.848
49.81000 155.449
49.82000 155.258
49.83000 155.064
49.84000 154.850
49.85000 154.633
49.86000 154.452
49.87000 151.647
49.88000 149.045
49.89000 148.660
49.90000 155.096
49.91000 162.011
49.92000 163.806
49.93000 154.849
49.94000 145.550
49.95000 140.077
49.96000 146.534
49.97000 151.151
49.98000 151.768
49.99000 148.680
50.00000 145.609
50.01000 143.778
50.02000 142.709
50.03000 141.671
50.04000 145.179
50.05000 150.306
50.06000 154.876
50.07000 153.050
50.08000 149.405
50.09000 146.112
50.10000 145.220
50.11000 144.782
50.12000 144.417
50.13000 146.021
50.14000 147.541
50.15000 148.980
50.16000 150.180
50.17000 151.364
50.18000 152.369
50.19000 153.009
50.20000 153.639
50.21000 154.003
50.22000 150.705
50.23000 148.378
50.24000 147.526
50.25000 147.988
50.26000 148.455
50.27000 149.191
50.28000 150.086
50.29000 150.951
50.30000 155.941
50.31000 162.226
50.32000 167.717
50.33000 164.533
50.34000 158.971
50.35000 154.339
50.36000 155.791
50.37000 158.346
50.38000 160.456
50.39000 162.109
50.40000 163.428
50.41000 162.915
50.42000 157.147
50.43000 151.052
50.44000 147.235
50.45000 147.877
50.46000 148.635
50.47000 149.067
50.48000 155.080
50.49000 159.290
50.50000 163.190
50.51000 166.825
50.52000 170.443
50.53000 173.139
50.54000 175.309
50.55000 177.403
50.56000 174.852
50.57000 170.747
50.58000 167.014
50.59000 167.130
50.60000 168.265
50.61000 169.271
50.62000 169.469
50.63000 169.526
50.64000 169.572
50.65000 169.424
50.66000 169.285
50.67000 169.487
50.68000 170.634
50.69000 171.836
50.70000 174.041
50.71000 178.140
50.72000 182.285
50.73000 184.606
50.74000 182.934
50.75000 181.765
50.76000 180.578
50.77000 179.376
50.78000 178.128
50.79000 174.697
50.80000 170.063
50.81000 165.603
50.82000 166.601
50.83000 169.464
50.84000 171.670
50.85000 167.396
50.86000 161.471
50.87000 156.431
50.88000 156.719
50.89000 157.898
50.90000 158.856
50.91000 154.205
50.92000 149.940
50.93000 147.818
50.94000 151.420
50.95000 155.335
50.96000 159.720
50.97000 164.965
50.98000 170.227
50.99000 173.124
51.00000 157.969
51.01000 147.526
51.02000 145.165
51.03000 149.211
51.04000 153.120
51.05000 151.157
51.06000 146.068
51.07000 141.186
51.08000 140.882
51.09000 142.152
51.10000 143.749
51.11000 148.408
51.12000 153.820
51.13000 157.734
51.14000 152.993
51.15000 146.863
51.16000 141.918
51.17000 141.680
51.18000 141.860
51.19000 142.760
51.20000 145.520
51.21000 148.374
51.22000 150.126
51.23000 149.938
51.24000 149.714
51.25000 149.593
51.26000 140.239
51.27000 133.855
51.28000 134.026
51.29000 139.200
51.30000 144.240
51.31000 144.071
51.32000 141.226
51.33000 138.505
51.34000 139.280
51.35000 141.141
51.36000 142.717
51.37000 141.736
51.38000 140.150
51.39000 138.715
51.40000 138.116
51.41000 137.646
51.42000 137.270
51.43000 135.430
51.44000 133.833
51.45000 132.604
51.46000 132.293
51.47000 132.025
51.48000 132.555
51.49000 134.439
51.50000 136.346
51.51000 137.358
51.52000 137.013
51.53000 136.791
51.54000 138.860
51.55000 142.612
51.56000 146.296
51.57000 147.603
51.58000 147.732
51.59000 147.854
51.60000 146.828
51.61000 145.515
51.62000 144.314
51.63000 144.060
51.64000 144.021
51.65000 144.069
51.66000 144.579
51.67000 145.156
51.68000 145.614
51.69000 145.527
51.70000 145.417
51.71000 144.346
51.72000 140.958
51.73000 137.469
51.74000 135.625
51.75000 136.474
51.76000 137.362
51.77000 137.824
51.78000 138.888
51.79000 139.616
51.80000 141.547
51.81000 144.330
51.82000 147.034
51.83000 147.233
51.84000 146.232
51.85000 145.280
51.86000 143.907
51.87000 142.510
51.88000 141.001
51.89000 138.575
51.90000 135.948
51.91000 133.808
51.92000 134.165
51.93000 134.874
51.94000 135.432
51.95000 132.652
51.96000 130.202
51.97000 129.583
51.98000 133.220
51.99000 137.029
52.00000 139.891
52.01000 141.254
52.02000 142.598
52.03000 143.285
52.04000 141.143
52.05000 139.714
52.06000 139.423
52.07000 139.908
52.08000 140.479
52.09000 143.544
52.10000 147.763
52.11000 151.758
52.12000 146.993
52.13000 140.065
52.14000 133.987
52.15000 134.506
52.16000 136.419
52.17000 137.908
52.18000 137.310
52.19000 136.430
52.20000 135.744
52.21000 132.106
52.22000 129.020
52.23000 126.427
52.24000 124.939
52.25000 123.493
52.26000 125.030
52.27000 131.112
52.28000 137.243
52.29000 140.311
52.30000 140.123
52.31000 139.976
52.32000 137.693
52.33000 134.005
52.34000 130.461
52.35000 130.759
52.36000 132.774
52.37000 134.675
52.38000 134.540
52.39000 133.848
52.40000 133.201
52.41000 132.890
52.42000 132.648
52.43000 132.648
52.44000 133.793
52.45000 135.087
52.46000 136.087
52.47000 133.902
52.48000 131.980
52.49000 132.285
52.50000 137.414
52.51000 142.710
52.52000 144.087
52.53000 139.708
52.54000 135.278
52.55000 132.297
52.56000 130.711
52.57000 129.162
52.58000 130.691
52.59000 134.174
52.60000 137.581
52.61000 139.141
52.62000 139.903
52.63000 140.620
52.64000 137.109
52.65000 132.770
52.66000 128.701
52.67000 126.542
52.68000 124.757
52.69000 123.511
52.70000 124.726
52.71000 126.245
52.72000 127.409
52.73000 128.555
52.74000 129.460
52.75000 131.773
52.76000 137.035
52.77000 142.390
52.78000 144.805
52.79000 143.058
52.80000 141.280
52.81000 140.467
52.82000 140.544
52.83000 140.613
52.84000 140.079
52.85000 139.176
52.86000 138.257
52.87000 136.948
52.88000 135.476
52.89000 134.099
52.90000 134.116
52.91000 134.491
52.92000 135.445
52.93000 140.347
52.94000 145.992
52.95000 150.052
52.96000 147.149
52.97000 143.425
52.98000 140.597
52.99000 138.894
53.00000 137.614
53.01000 135.766
53.02000 132.772
53.03000 129.744
53.04000 130.579
53.05000 136.683
53.06000 142.814
53.07000 144.081
53.08000 141.035
53.09000 138.003
53.10000 135.790
53.11000 134.061
53.12000 132.441
53.13000 133.119
53.14000 134.722
53.15000 136.216
53.16000 141.368
53.17000 146.938
53.18000 151.315
53.19000 147.915
53.20000 143.109
53.21000 139.906
53.22000 143.488
53.23000 147.833
53.24000 151.101
53.25000 145.853
53.26000 141.336
53.27000 138.833
53.28000 140.260
53.29000 141.790
53.30000 144.393
53.31000 148.407
53.32000 152.424
53.33000 154.804
53.34000 155.784
53.35000 156.763
53.36000 157.677
53.37000 158.555
53.38000 159.310
53.39000 157.646
53.40000 155.042
53.41000 152.624
53.42000 152.800
53.43000 153.576
53.44000 154.144
53.45000 153.412
53.46000 152.455
53.47000 152.565
53.48000 157.031
53.49000 161.964
53.50000 165.638
53.51000 161.348
53.52000 157.649
53.53000 153.905
53.54000 150.079
53.55000 146.251
53.56000 144.115
53.57000 144.121
53.58000 144.134
53.59000 144.307
53.60000 144.612
53.61000 144.961
53.62000 147.388
53.63000 150.958
53.64000 154.282
53.65000 153.048
53.66000 150.104
53.67000 147.382
53.68000 145.033
53.69000 143.009
53.70000 141.770
53.71000 145.249
53.72000 149.513
53.73000 152.298
53.74000 149.262
53.75000 145.633
53.76000 142.956
53.77000 142.023
53.78000 141.374
53.79000 141.300
53.80000 142.273
53.81000 143.268
53.82000 142.565
53.83000 139.796
53.84000 137.027
53.85000 138.033
53.86000 142.003
53.87000 145.904
53.88000 146.868
53.89000 146.274
53.90000 145.555
53.91000 142.681
53.92000 139.027
53.93000 135.663
53.94000 138.385
53.95000 142.153
53.96000 144.748
53.97000 140.588
53.98000 135.347
53.99000 131.530
54.00000 133.109
54.01000 135.211
54.02000 136.746
54.03000 142.863
54.04000 147.756
54.05000 150.763
54.06000 150.460
54.07000 150.096
54.08000 147.306
54.09000 141.675
54.10000 136.053
54.11000 132.571
54.12000 130.730
54.13000 128.967
54.14000 130.252
54.15000 133.098
54.16000 135.969
54.17000 139.245
54.18000 142.662
54.19000 145.795
54.20000 144.175
54.21000 141.733
54.22000 140.077
54.23000 142.765
54.24000 146.118
54.25000 147.459
54.26000 141.441
54.27000 134.746
54.28000 129.909
54.29000 133.514
54.30000 136.583
54.31000 137.778
54.32000 135.799
54.33000 133.768
54.34000 135.088
54.35000 140.181
54.36000 145.260
54.37000 143.975
54.38000 138.075
54.39000 132.296
54.40000 130.711
54.41000 131.201
54.42000 131.632
54.43000 131.155
54.44000 130.371
54.45000 129.656
54.46000 130.721
54.47000 132.024
54.48000 133.523
54.49000 136.061
54.50000 138.751
54.51000 140.951
54.52000 141.421
54.53000 141.741
54.54000 141.969
54.55000 148.836
54.56000 154.299
54.57000 154.689
54.58000 146.791
54.59000 138.776
54.60000 137.525
54.61000 143.595
54.62000 149.643
54.63000 147.931
54.64000 140.815
54.65000 133.825
54.66000 130.835
54.67000 129.754
54.68000 128.937
54.69000 131.881
54.70000 136.052
54.71000 139.839
54.72000 139.383
54.73000 138.161
54.74000 136.601
54.75000 133.313
54.76000 129.782
54.77000 128.307
54.78000 133.830
54.79000 139.932
54.80000 144.245
54.81000 135.958
54.82000 129.278
54.83000 128.146
54.84000 135.755
54.85000 143.472
54.86000 145.400
54.87000 141.310
54.88000 137.241
54.89000 138.132
54.90000 142.345
54.91000 146.474
54.92000 148.118
54.93000 148.617
54.94000 149.036
54.95000 148.382
54.96000 147.390
54.97000 146.494
54.98000 146.756
54.99000 147.202
55.00000 147.912
55.01000 149.927
55.02000 152.117
55.03000 152.593
55.04000 147.441
55.05000 141.849
55.06000 137.940
55.07000 139.708
55.08000 141.203
55.09000 141.932
55.10000 141.498
55.11000 141.051
55.12000 143.901
55.13000 150.042
55.14000 156.143
55.15000 156.003
55.16000 151.830
55.17000 147.836
55.18000 148.618
55.19000 151.527
55.20000 154.047
55.21000 151.617
55.22000 147.684
55.23000 144.149
55.24000 144.730
55.25000 145.971
55.26000 147.778
55.27000 152.268
55.28000 157.103
55.29000 160.038
55.30000 156.951
55.31000 153.418
55.32000 150.978
55.33000 154.047
55.34000 156.497
55.35000 159.299
55.36000 162.620
55.37000 165.944
55.38000 167.407
55.39000 167.085
55.40000 166.765
55.41000 169.345
55.42000 173.686
55.43000 177.955
55.44000 180.468
55.45000 182.225
55.46000 184.440
55.47000 192.167
55.48000 201.508
55.49000 209.861
55.50000 210.018
55.51000 208.761
55.52000 208.629
55.53000 213.619
55.54000 219.238
55.55000 224.560
55.56000 228.977
55.57000 233.331
55.58000 236.303
55.59000 252.575
55.60000 265.055
55.61000 277.478
55.62000 289.819
55.63000 302.159
55.64000 313.897
55.65000 325.081
55.66000 336.165
55.67000 348.020
55.68000 360.108
55.69000 372.154
55.70000 383.282
55.71000 394.029
55.72000 404.775
55.73000 415.530
55.74000 426.287
55.75000 435.856
55.76000 445.875
55.77000 454.647
55.78000 466.025
55.79000 488.832
55.80000 512.979
55.81000 534.108
55.82000 546.325
55.83000 557.959
55.84000 565.806
55.85000 572.743
55.86000 577.886
55.87000 584.211
55.88000 592.145
55.89000 600.090
55.90000 611.264
55.91000 625.294
55.92000 639.180
55.93000 642.358
55.94000 639.303
55.95000 636.285
55.96000 634.070
55.97000 632.178
55.98000 629.526
55.99000 618.663
56.00000 605.562
56.01000 593.973
56.02000 583.590
56.03000 574.803
56.04000 565.542
56.05000 554.277
56.06000 542.788
56.07000 530.353
56.08000 515.224
56.09000 499.929
56.10000 489.739
56.11000 476.302
56.12000 466.294
56.13000 454.652
56.14000 440.868
56.15000 427.066
56.16000 408.441
56.17000 385.711
56.18000 363.251
56.19000 348.049
56.20000 337.242
56.21000 326.316
56.22000 313.047
56.23000 298.871
56.24000 285.289
56.25000 277.800
56.26000 271.913
56.27000 266.734
56.28000 261.234
56.29000 256.453
56.30000 250.890
56.31000 242.143
56.32000 233.058
56.33000 224.862
56.34000 219.114
56.35000 213.507
56.36000 209.819
56.37000 202.567
56.38000 197.167
56.39000 191.234
56.40000 184.630
56.41000 178.030
56.42000 173.924
56.43000 171.858
56.44000 169.821
56.45000 168.101
56.46000 166.596
56.47000 165.052
56.48000 162.782
56.49000 160.239
56.50000 157.833
56.51000 156.755
56.52000 156.014
56.53000 155.366
56.54000 153.297
56.55000 151.322
56.56000 149.163
56.57000 146.280
56.58000 143.323
56.59000 142.110
56.60000 145.528
56.61000 149.196
56.62000 151.577
56.63000 146.263
56.64000 142.255
56.65000 139.345
56.66000 137.769
56.67000 136.206
56.68000 137.732
56.69000 141.689
56.70000 145.586
56.71000 142.708
56.72000 136.442
56.73000 130.486
56.74000 129.866
56.75000 131.172
56.76000 132.761
56.77000 136.973
56.78000 141.827
56.79000 146.046
56.80000 142.936
56.81000 139.286
56.82000 135.491
56.83000 131.149
56.84000 126.754
56.85000 123.425
56.86000 122.829
56.87000 122.370
56.88000 122.077
56.89000 116.995
56.90000 113.229
56.91000 113.453
56.92000 118.335
56.93000 123.228
56.94000 129.002
56.95000 135.444
56.96000 141.776
56.97000 139.359
56.98000 132.703
56.99000 126.499
57.00000 127.570
57.01000 131.177
57.02000 134.334
57.03000 133.508
57.04000 131.745
57.05000 130.221
57.06000 133.979
57.07000 137.855
57.08000 139.619
57.09000 133.683
57.10000 127.041
57.11000 122.701
57.12000 124.062
57.13000 125.691
57.14000 126.720
57.15000 127.546
57.16000 128.141
57.17000 128.310
57.18000 127.999
57.19000 127.689
57.20000 127.647
57.21000 127.802
57.22000 127.953
57.23000 127.601
57.24000 127.022
57.25000 126.685
57.26000 129.996
57.27000 134.535
57.28000 138.497
57.29000 137.571
57.30000 135.539
57.31000 133.794
57.32000 128.988
57.33000 124.545
57.34000 121.583
57.35000 123.827
57.36000 126.523
57.37000 129.879
57.38000 134.817
57.39000 139.823
57.40000 142.941
57.41000 132.976
57.42000 125.662
57.43000 123.078
57.44000 125.594
57.45000 128.097
57.46000 128.610
57.47000 127.722
57.48000 126.853
57.49000 126.825
57.50000 127.184
57.51000 127.504
57.52000 127.282
57.53000 126.884
57.54000 126.425
57.55000 125.474
57.56000 124.415
57.57000 123.512
57.58000 122.896
57.59000 122.412
57.60000 122.421
57.61000 124.108
57.62000 125.933
57.63000 125.815
57.64000 121.206
57.65000 116.417
57.66000 113.478
57.67000 116.392
57.68000 118.531
57.69000 121.246
57.70000 124.558
57.71000 127.839
57.72000 127.730
57.73000 125.322
57.74000 122.970
57.75000 123.076
57.76000 124.258
57.77000 125.447
57.78000 126.724
57.79000 128.030
57.80000 129.108
57.81000 128.433
57.82000 127.390
57.83000 126.507
57.84000 125.576
57.85000 124.790
57.86000 124.129
57.87000 123.875
57.88000 123.652
57.89000 122.175
57.90000 117.898
57.91000 113.518
57.92000 110.869
57.93000 114.342
57.94000 116.862
57.95000 118.383
57.96000 118.911
57.97000 119.451
57.98000 121.161
57.99000 123.637
58.00000 126.050
58.01000 124.155
58.02000 120.522
58.03000 117.180
58.04000 117.524
58.05000 118.984
58.06000 120.470
58.07000 122.146
58.08000 123.861
58.09000 125.304
58.10000 120.846
58.11000 116.497
58.12000 113.888
58.13000 116.777
58.14000 120.071
58.15000 122.123
58.16000 121.499
58.17000 120.785
58.18000 120.360
58.19000 114.953
58.20000 111.092
58.21000 110.295
58.22000 112.423
58.23000 114.545
58.24000 116.203
58.25000 117.567
58.26000 118.894
58.27000 120.052
58.28000 121.085
58.29000 122.157
58.30000 123.684
58.31000 125.345
58.32000 126.435
58.33000 123.492
58.34000 119.765
58.35000 116.649
58.36000 119.184
58.37000 121.863
58.38000 123.389
58.39000 121.399
58.40000 119.166
58.41000 117.974
58.42000 118.950
58.43000 119.993
58.44000 120.604
58.45000 123.700
58.46000 125.891
58.47000 126.049
58.48000 124.340
58.49000 122.645
58.50000 121.854
58.51000 121.614
58.52000 121.381
58.53000 120.741
58.54000 119.974
58.55000 119.503
58.56000 122.387
58.57000 126.217
58.58000 129.133
58.59000 125.878
58.60000 121.469
58.61000 117.811
58.62000 120.999
58.63000 124.296
58.64000 126.942
58.65000 127.673
58.66000 128.280
58.67000 126.948
58.68000 121.723
58.69000 116.388
58.70000 113.310
58.71000 114.571
58.72000 115.472
58.73000 118.142
58.74000 122.371
58.75000 126.506
58.76000 125.011
58.77000 120.211
58.78000 115.570
58.79000 115.784
58.80000 117.818
58.81000 119.269
58.82000 114.425
58.83000 107.871
58.84000 102.498
58.85000 104.764
58.86000 108.402
58.87000 111.400
58.88000 114.500
58.89000 117.060
58.90000 118.894
58.91000 118.663
58.92000 118.305
58.93000 118.781
58.94000 120.871
58.95000 123.004
58.96000 124.213
58.97000 123.520
58.98000 123.035
58.99000 124.355
59.00000 127.205
59.01000 129.971
59.02000 128.280
59.03000 124.065
59.04000 120.000
59.05000 116.862
59.06000 114.247
59.07000 112.013
59.08000 113.672
59.09000 116.351
59.10000 118.145
59.11000 114.445
59.12000 109.798
59.13000 105.997
59.14000 108.905
59.15000 111.871
59.16000 114.615
59.17000 116.751
59.18000 118.852
59.19000 120.963
59.20000 123.091
59.21000 125.220
59.22000 126.408
59.23000 125.323
59.24000 124.564
59.25000 122.662
59.26000 119.827
59.27000 117.029
59.28000 115.992
59.29000 115.918
59.30000 115.846
59.31000 118.201
59.32000 121.255
59.33000 123.945
59.34000 123.093
59.35000 121.346
59.36000 119.984
59.37000 120.918
59.38000 122.231
59.39000 123.297
59.40000 124.766
59.41000 125.996
59.42000 126.349
59.43000 124.376
59.44000 122.279
59.45000 121.455
59.46000 122.932
59.47000 124.457
59.48000 125.292
59.49000 118.362
59.50000 113.599
59.51000 113.199
59.52000 116.225
59.53000 119.175
59.54000 118.954
59.55000 117.060
59.56000 115.245
59.57000 115.268
59.58000 115.907
59.59000 116.621
59.60000 118.023
59.61000 119.592
59.62000 120.718
59.63000 119.304
59.64000 117.488
59.65000 116.026
59.66000 117.436
59.67000 118.804
59.68000 118.992
59.69000 116.161
59.70000 113.179
59.71000 112.256
59.72000 114.928
59.73000 117.665
59.74000 119.137
59.75000 117.523
59.76000 116.411
59.77000 114.211
59.78000 111.188
59.79000 108.284
59.80000 109.892
59.81000 113.798
59.82000 117.530
59.83000 119.157
59.84000 119.989
59.85000 120.633
59.86000 119.614
59.87000 118.204
59.88000 116.703
59.89000 114.700
59.90000 112.621
59.91000 110.960
59.92000 107.062
59.93000 103.749
59.94000 103.661
59.95000 111.540
59.96000 119.791
59.97000 124.759
59.98000 124.203
59.99000 123.558
60.00000 123.218
60.01000 112.750
60.02000 105.670
60.03000 104.207
60.04000 106.836
60.05000 109.424
60.06000 110.639
60.07000 111.179
60.08000 111.693
60.09000 114.050
60.10000 116.806
60.11000 119.036
60.12000 116.836
60.13000 113.635
60.14000 111.052
60.15000 111.730
60.16000 112.883
60.17000 113.797
60.18000 110.615
60.19000 107.771
60.20000 106.152
60.21000 107.452
60.22000 108.878
60.23000 109.893
60.24000 110.243
60.25000 110.583
60.26000 110.759
60.27000 115.439
60.28000 118.578
60.29000 118.987
60.30000 117.481
60.31000 115.913
60.32000 112.422
60.33000 108.017
60.34000 103.836
60.35000 109.186
60.36000 116.974
60.37000 123.812
60.38000 123.022
60.39000 120.573
60.40000 118.451
60.41000 117.987
60.42000 117.755
60.43000 117.573
60.44000 114.137
60.45000 111.174
60.46000 110.110
60.47000 113.418
60.48000 116.900
60.49000 118.788
60.50000 118.176
60.51000 117.535
60.52000 117.209
60.53000 112.707
60.54000 109.722
60.55000 110.386
60.56000 113.517
60.57000 116.483
60.58000 114.735
60.59000 110.824
60.60000 107.125
60.61000 110.267
60.62000 115.122
60.63000 119.321
60.64000 118.475
60.65000 116.573
60.66000 114.591
60.67000 112.218
60.68000 109.794
60.69000 107.906
60.70000 106.180
60.71000 104.815
60.72000 105.695
60.73000 111.572
60.74000 117.632
60.75000 121.229
60.76000 121.106
60.77000 120.946
60.78000 119.241
60.79000 116.006
60.80000 112.812
60.81000 113.416
60.82000 116.494
60.83000 119.505
60.84000 120.720
60.85000 121.141
60.86000 121.537
60.87000 120.207
60.88000 118.512
60.89000 117.405
60.90000 120.612
60.91000 124.689
60.92000 126.971
60.93000 120.819
60.94000 113.590
60.95000 108.012
60.96000 112.936
60.97000 117.448
60.98000 120.656
60.99000 121.062
61.00000 121.374
61.01000 121.215
61.02000 120.370
61.03000 119.520
61.04000 119.031
61.05000 118.885
61.06000 118.742
61.07000 118.832
61.08000 119.067
61.09000 119.258
61.10000 118.385
61.11000 117.056
61.12000 115.809
61.13000 120.236
61.14000 125.780
61.15000 130.289
61.16000 127.523
61.17000 123.349
61.18000 119.768
61.19000 118.872
61.20000 118.304
61.21000 117.870
61.22000 117.071
61.23000 116.422
61.24000 115.917
61.25000 115.713
61.26000 115.517
61.27000 116.957
61.28000 120.689
61.29000 124.436
61.30000 124.576
61.31000 121.420
61.32000 118.269
61.33000 115.418
61.34000 112.750
61.35000 110.408
61.36000 115.383
61.37000 123.379
61.38000 130.857
61.39000 133.960
61.40000 135.661
61.41000 137.169
61.42000 137.371
61.43000 137.330
61.44000 136.497
61.45000 132.209
61.46000 127.518
61.47000 123.965
61.48000 127.699
61.49000 131.001
61.50000 136.460
61.51000 146.241
61.52000 156.143
61.53000 168.092
61.54000 182.808
61.55000 197.531
61.56000 208.974
61.57000 217.521
61.58000 226.118
61.59000 237.692
61.60000 251.008
61.61000 264.099
61.62000 272.489
61.63000 279.006
61.64000 285.076
61.65000 293.950
61.66000 302.665
61.67000 309.750
61.68000 306.319
61.69000 301.006
61.70000 296.639
61.71000 296.238
61.72000 296.278
61.73000 296.308
61.74000 280.875
61.75000 268.083
61.76000 257.314
61.77000 250.458
61.78000 243.701
61.79000 233.215
61.80000 217.878
61.81000 202.534
61.82000 191.968
61.83000 185.456
61.84000 178.871
61.85000 168.414
61.86000 155.771
61.87000 143.484
61.88000 138.088
61.89000 135.347
61.90000 132.804
61.91000 133.549
61.92000 134.994
61.93000 135.780
61.94000 132.487
61.95000 128.494
61.96000 125.591
61.97000 127.096
61.98000 129.067
61.99000 130.532
62.00000 128.258
62.01000 126.325
62.02000 126.882
62.03000 132.088
62.04000 137.401
62.05000 137.895
62.06000 132.353
62.07000 126.800
62.08000 122.355
62.09000 118.826
62.10000 115.423
62.11000 117.906
62.12000 123.597
62.13000 129.005
62.14000 129.281
62.15000 127.650
62.16000 126.142
62.17000 125.123
62.18000 124.319
62.19000 124.183
62.20000 128.016
62.21000 132.503
62.22000 135.819
62.23000 134.568
62.24000 132.858
62.25000 131.600
62.26000 127.213
62.27000 123.691
62.28000 120.832
62.29000 119.168
62.30000 117.528
62.31000 116.846
62.32000 117.319
62.33000 117.794
62.34000 119.729
62.35000 122.790
62.36000 125.791
62.37000 126.232
62.38000 125.328
62.39000 124.338
62.40000 121.910
62.41000 118.966
62.42000 116.258
62.43000 119.740
62.44000 124.193
62.45000 128.074
62.46000 128.692
62.47000 128.795
62.48000 129.135
62.49000 130.364
62.50000 131.678
62.51000 132.635
62.52000 128.247
62.53000 124.665
62.54000 123.744
62.55000 127.454
62.56000 131.246
62.57000 131.214
62.58000 126.746
62.59000 122.284
62.60000 121.473
62.61000 123.400
62.62000 125.345
62.63000 127.981
62.64000 130.968
62.65000 133.614
62.66000 130.835
62.67000 126.175
62.68000 121.910
62.69000 122.972
62.70000 125.026
62.71000 126.093
62.72000 121.749
62.73000 116.584
62.74000 114.825
62.75000 125.408
62.76000 137.112
62.77000 145.544
62.78000 133.186
62.79000 122.983
62.80000 118.349
62.81000 123.060
62.82000 127.919
62.83000 128.213
62.84000 123.415
62.85000 118.631
62.86000 119.057
62.87000 123.228
62.88000 127.308
62.89000 128.281
62.90000 127.729
62.91000 127.118
62.92000 125.632
62.93000 123.852
62.94000 122.230
62.95000 126.146
62.96000 130.720
62.97000 134.217
62.98000 132.038
62.99000 129.034
63.00000 126.966
63.01000 128.167
63.02000 129.649
63.03000 130.706
63.04000 130.562
63.05000 130.414
63.06000 129.438
63.07000 127.123
63.08000 124.790
63.09000 123.738
63.10000 124.058
63.11000 124.376
63.12000 128.797
63.13000 136.009
63.14000 143.017
63.15000 143.659
63.16000 141.289
63.17000 138.975
63.18000 137.459
63.19000 136.200
63.20000 135.058
63.21000 130.213
63.22000 125.231
63.23000 121.298
63.24000 122.676
63.25000 124.793
63.26000 126.443
63.27000 126.522
63.28000 126.473
63.29000 126.439
63.30000 131.614
63.31000 135.696
63.32000 138.007
63.33000 137.554
63.34000 137.068
63.35000 135.913
63.36000 134.069
63.37000 132.235
63.38000 131.848
63.39000 132.428
63.40000 133.051
63.41000 134.895
63.42000 137.296
63.43000 139.281
63.44000 135.741
63.45000 130.478
63.46000 125.730
63.47000 129.297
63.48000 133.956
63.49000 137.737
63.50000 137.248
63.51000 136.191
63.52000 135.331
63.53000 135.114
63.54000 134.946
63.55000 134.828
63.56000 137.387
63.57000 139.392
63.58000 140.753
63.59000 141.146
63.60000 141.529
63.61000 139.252
63.62000 134.347
63.63000 129.475
63.64000 130.062
63.65000 134.135
63.66000 137.986
63.67000 136.016
63.68000 131.477
63.69000 127.394
63.70000 129.030
63.71000 132.387
63.72000 135.401
63.73000 140.457
63.74000 145.237
63.75000 148.374
63.76000 143.812
63.77000 138.270
63.78000 134.190
63.79000 134.702
63.80000 135.547
63.81000 136.130
63.82000 133.861
63.83000 132.086
63.84000 133.454
63.85000 139.381
63.86000 145.346
63.87000 147.773
63.88000 146.847
63.89000 145.927
63.90000 145.304
63.91000 144.873
63.92000 144.469
63.93000 144.703
63.94000 145.209
63.95000 145.701
63.96000 146.036
63.97000 146.326
63.98000 146.585
63.99000 141.537
64.00000 136.248
64.01000 132.924
64.02000 138.462
64.03000 145.077
64.04000 148.456
64.05000 142.023
64.06000 134.917
64.07000 130.080
64.08000 138.766
64.09000 145.563
64.10000 150.411
64.11000 152.534
64.12000 154.637
64.13000 153.569
64.14000 149.612
64.15000 145.691
64.16000 143.586
64.17000 142.600
64.18000 141.705
64.19000 142.867
64.20000 144.874
64.21000 146.467
64.22000 143.393
64.23000 139.011
64.24000 135.119
64.25000 139.949
64.26000 145.540
64.27000 150.029
64.28000 149.726
64.29000 148.867
64.30000 149.026
64.31000 152.162
64.32000 155.490
64.33000 157.728
64.34000 152.748
64.35000 148.898
64.36000 145.418
64.37000 142.437
64.38000 139.464
64.39000 142.799
64.40000 151.659
64.41000 160.424
64.42000 162.454
64.43000 160.598
64.44000 158.668
64.45000 155.202
64.46000 151.124
64.47000 147.571
64.48000 149.624
64.49000 153.190
64.50000 156.340
64.51000 157.217
64.52000 157.625
64.53000 157.323
64.54000 154.048
64.55000 150.445
64.56000 147.913
64.57000 148.410
64.58000 149.091
64.59000 149.543
64.60000 155.079
64.61000 159.266
64.62000 161.884
64.63000 162.467
64.64000 163.042
64.65000 164.003
64.66000 165.288
64.67000 166.559
64.68000 164.700
64.69000 161.171
64.70000 157.844
64.71000 158.399
64.72000 160.444
64.73000 162.524
64.74000 164.952
64.75000 167.469
64.76000 169.681
64.77000 164.399
64.78000 158.756
64.79000 155.194
64.80000 160.025
64.81000 165.739
64.82000 169.668
64.83000 168.729
64.84000 167.514
64.85000 166.718
64.86000 169.783
64.87000 172.100
64.88000 172.694
64.89000 171.135
64.90000 169.572
64.91000 169.107
64.92000 169.531
64.93000 169.949
64.94000 172.191
64.95000 175.333
64.96000 178.505
64.97000 182.220
64.98000 186.138
64.99000 189.540
65.00000 187.978
65.01000 185.169
65.02000 182.717
65.03000 188.253
65.04000 194.115
65.05000 198.328
65.06000 196.133
65.07000 193.297
65.08000 191.467
65.09000 192.288
65.10000 193.250
65.11000 193.873
65.12000 194.534
65.13000 195.018
65.14000 197.529
65.15000 202.476
65.16000 207.425
65.17000 211.473
65.18000 214.817
65.19000 218.110
65.20000 219.462
65.21000 219.786
65.22000 220.328
65.23000 224.548
65.24000 230.085
65.25000 234.799
65.26000 231.961
65.27000 227.296
65.28000 223.246
65.29000 224.479
65.30000 226.238
65.31000 228.561
65.32000 232.996
65.33000 237.633
65.34000 240.784
65.35000 240.156
65.36000 239.342
65.37000 238.823
65.38000 246.760
65.39000 252.644
65.40000 257.935
65.41000 262.541
65.42000 267.139
65.43000 270.358
65.44000 272.541
65.45000 274.686
65.46000 275.480
65.47000 275.586
65.48000 275.828
65.49000 278.238
65.50000 281.397
65.51000 285.043
65.52000 292.956
65.53000 301.864
65.54000 309.548
65.55000 318.880
65.56000 327.008
65.57000 335.008
65.58000 342.544
65.59000 350.038
65.60000 358.984
65.61000 371.498
65.62000 384.176
65.63000 392.156
65.64000 426.221
65.65000 451.163
65.66000 484.331
65.67000 526.640
65.68000 569.144
65.69000 641.482
65.70000 735.410
65.71000 827.504
65.72000 939.341
65.73000 1056.313
65.74000 1173.379
65.75000 1291.821
65.76000 1410.723
65.77000 1527.498
65.78000 1626.515
65.79000 1721.545
65.80000 1803.008
65.81000 1872.000
65.82000 1928.740
65.83000 1974.694
65.84000 1983.061
65.85000 1988.206
65.86000 1989.842
65.87000 1983.154
65.88000 1976.112
65.89000 1971.742
65.90000 1956.226
65.91000 1944.953
65.92000 1901.011
65.93000 1822.179
65.94000 1743.124
65.95000 1636.577
65.96000 1510.859
65.97000 1387.857
65.98000 1254.889
65.99000 1122.767
66.00000 993.058
66.01000 897.144
66.02000 812.114
66.03000 728.235
66.04000 653.538
66.05000 580.824
66.06000 518.894
66.07000 491.161
66.08000 471.829
66.09000 451.664
66.10000 428.700
66.11000 405.509
66.12000 389.539
66.13000 390.111
66.14000 391.335
66.15000 392.083
66.16000 368.826
66.17000 351.984
66.18000 346.530
66.19000 352.755
66.20000 358.986
66.21000 365.790
66.22000 372.981
66.23000 380.000
66.24000 387.084
66.25000 393.888
66.26000 401.849
66.27000 425.092
66.28000 453.085
66.29000 480.414
66.30000 502.680
66.31000 523.894
66.32000 541.841
66.33000 560.122
66.34000 575.459
66.35000 587.776
66.36000 590.293
66.37000 592.057
66.38000 595.807
66.39000 603.947
66.40000 612.246
66.41000 617.246
66.42000 615.162
66.43000 613.629
66.44000 613.320
66.45000 614.217
66.46000 615.076
66.47000 612.604
66.48000 607.973
66.49000 603.462
66.50000 585.781
66.51000 563.399
66.52000 540.724
66.53000 514.387
66.54000 486.952
66.55000 460.367
66.56000 439.986
66.57000 420.846
66.58000 404.763
66.59000 396.960
66.60000 391.333
66.61000 383.396
66.62000 368.225
66.63000 352.530
66.64000 342.916
66.65000 346.291
66.66000 350.098
66.67000 352.357
66.68000 349.621
66.69000 347.658
66.70000 347.331
66.71000 348.551
66.72000 349.753
66.73000 349.558
66.74000 348.491
66.75000 347.454
66.76000 351.635
66.77000 357.713
66.78000 362.895
66.79000 357.494
66.80000 349.030
66.81000 341.846
66.82000 343.587
66.83000 347.046
66.84000 349.932
66.85000 346.845
66.86000 343.684
66.87000 343.104
66.88000 350.323
66.89000 358.073
66.90000 363.832
66.91000 365.485
66.92000 367.013
66.93000 367.906
66.94000 358.694
66.95000 352.171
66.96000 353.828
66.97000 362.915
66.98000 371.881
66.99000 372.940
67.00000 369.230
67.01000 365.635
67.02000 361.469
67.03000 357.303
67.04000 353.828
67.05000 358.089
67.06000 364.509
67.07000 370.395
67.08000 372.711
67.09000 374.366
67.10000 375.737
67.11000 373.035
67.12000 370.416
67.13000 370.227
67.14000 377.128
67.15000 384.483
67.16000 388.499
67.17000 385.863
67.18000 383.044
67.19000 381.424
67.20000 379.254
67.21000 377.735
67.22000 378.022
67.23000 379.884
67.24000 381.767
67.25000 384.814
67.26000 388.540
67.27000 392.141
67.28000 393.063
67.29000 392.932
67.30000 393.341
67.31000 399.495
67.32000 407.195
67.33000 413.287
67.34000 409.077
67.35000 403.036
67.36000 398.069
67.37000 396.548
67.38000 395.609
67.39000 395.271
67.40000 396.624
67.41000 398.079
67.42000 400.686
67.43000 405.509
67.44000 410.386
67.45000 413.142
67.46000 424.325
67.47000 432.104
67.48000 429.876
67.49000 419.246
67.50000 408.841
67.51000 409.906
67.52000 417.410
67.53000 424.641
67.54000 419.741
67.55000 410.772
67.56000 403.115
67.57000 408.698
67.58000 417.719
67.59000 425.516
67.60000 425.797
67.61000 424.796
67.62000 423.978
67.63000 436.572
67.64000 448.025
67.65000 453.267
67.66000 441.614
67.67000 429.008
67.68000 424.443
67.69000 434.800
67.70000 445.490
67.71000 451.426
67.72000 450.832
67.73000 450.419
67.74000 453.817
67.75000 460.294
67.76000 466.513
67.77000 461.014
67.78000 449.167
67.79000 437.784
67.80000 441.969
67.81000 451.274
67.82000 459.730
67.83000 460.030
67.84000 458.290
67.85000 457.639
67.86000 463.417
67.87000 470.249
67.88000 475.782
67.89000 478.921
67.90000 481.284
67.91000 481.835
67.92000 477.628
67.93000 473.171
67.94000 470.352
67.95000 470.466
67.96000 470.639
67.97000 470.734
67.98000 480.961
67.99000 487.965
68.00000 486.777
68.01000 479.215
68.02000 471.995
68.03000 478.710
68.04000 492.712
68.05000 506.125
68.06000 508.059
68.07000 506.041
68.08000 504.999
68.09000 512.882
68.10000 522.918
68.11000 530.833
68.12000 526.746
68.13000 520.773
68.14000 515.974
68.15000 523.320
68.16000 530.207
68.17000 535.395
68.18000 536.270
68.19000 536.934
68.20000 538.726
68.21000 542.470
68.22000 546.249
68.23000 548.273
68.24000 541.354
68.25000 536.674
68.26000 541.775
68.27000 554.202
68.28000 566.585
68.29000 577.349
68.30000 587.296
68.31000 596.794
68.32000 601.144
68.33000 603.538
68.34000 605.341
68.35000 601.982
68.36000 597.425
68.37000 595.027
68.38000 604.371
68.39000 615.484
68.40000 624.341
68.41000 626.414
68.42000 627.593
68.43000 629.310
68.44000 632.343
68.45000 635.436
68.46000 641.495
68.47000 652.502
68.48000 663.586
68.49000 669.413
68.50000 680.951
68.51000 688.816
68.52000 702.893
68.53000 721.452
68.54000 739.766
68.55000 749.868
68.56000 755.967
68.57000 761.772
68.58000 783.877
68.59000 809.355
68.60000 835.176
68.61000 863.852
68.62000 893.167
68.63000 924.433
68.64000 965.903
68.65000 1008.845
68.66000 1042.786
68.67000 1087.539
68.68000 1124.215
68.69000 1163.321
68.70000 1208.176
68.71000 1253.273
68.72000 1291.995
68.73000 1320.458
68.74000 1348.784
68.75000 1363.391
68.76000 1438.711
68.77000 1489.433
68.78000 1537.309
68.79000 1583.206
68.80000 1629.030
68.81000 1672.632
68.82000 1715.189
68.83000 1755.553
68.84000 1843.043
68.85000 1937.659
68.86000 2035.227
68.87000 2156.236
68.88000 2282.295
68.89000 2444.611
68.90000 2789.196
68.91000 3158.952
68.92000 3448.727
68.93000 4712.146
68.94000 5784.720
68.95000 7252.118
68.96000 9621.327
68.97000 12025.767
68.98000 14877.553
68.99000 18423.484
69.00000 21977.387
69.01000 23773.828
69.02000 28547.637
69.03000 31736.068
69.04000 34320.121
69.05000 36499.188
69.06000 38647.125
69.07000 39924.109
69.08000 40805.270
69.09000 41638.082
69.10000 42335.914
69.11000 42938.375
69.12000 43551.590
69.13000 44246.484
69.14000 44958.313
69.15000 45656.992
69.16000 46292.082
69.17000 46918.766
69.18000 47405.625
69.19000 46423.977
69.20000 45553.977
69.21000 44142.004
69.22000 41534.602
69.23000 38884.227
69.24000 36259.441
69.25000 33672.945
69.26000 31086.852
69.27000 28866.313
69.28000 27004.484
69.29000 25149.527
69.30000 23899.803
69.31000 23041.113
69.32000 22196.623
69.33000 21717.674
69.34000 21399.154
69.35000 21099.213
69.36000 20679.232
69.37000 20262.225
69.38000 19748.559
69.39000 18532.846
69.40000 17177.104
69.41000 15733.359
69.42000 13880.031
69.43000 11974.982
69.44000 10508.189
69.45000 8593.275
69.46000 7051.792
69.47000 5688.909
69.48000 4706.432
69.49000 3736.489
69.50000 2983.745
69.51000 2544.239
69.52000 2107.301
69.53000 1800.625
69.54000 1616.735
69.55000 1433.617
69.56000 1308.808
69.57000 1220.331
69.58000 1133.141
69.59000 1076.556
69.60000 1032.942
69.61000 992.027
69.62000 962.550
69.63000 938.701
69.64000 914.128
69.65000 884.530
69.66000 853.968
69.67000 824.049
69.68000 797.009
69.69000 770.316
69.70000 749.951
69.71000 735.706
69.72000 724.810
69.73000 711.548
69.74000 693.421
69.75000 675.148
69.76000 658.333
69.77000 643.544
69.78000 628.774
69.79000 617.975
69.80000 610.778
69.81000 603.611
69.82000 598.370
69.83000 594.286
69.84000 590.003
69.85000 581.334
69.86000 570.870
69.87000 561.091
69.88000 556.749
69.89000 554.181
69.90000 549.873
69.91000 533.971
69.92000 515.932
69.93000 503.565
69.94000 515.676
69.95000 530.603
69.96000 541.885
69.97000 524.360
69.98000 509.179
69.99000 499.699
70.00000 501.543
