20.00000 488.157
20.01000 491.902
20.02000 496.181
20.03000 496.960
20.04000 483.964
20.05000 469.565
20.06000 458.944
20.07000 468.859
20.08000 477.403
20.09000 482.110
20.10000 479.843
20.11000 477.429
20.12000 475.698
20.13000 474.798
20.14000 473.902
20.15000 471.984
20.16000 469.273
20.17000 466.710
20.18000 470.446
20.19000 477.527
20.20000 484.398
20.21000 487.637
20.22000 489.561
20.23000 491.333
20.24000 483.199
20.25000 473.753
20.26000 464.966
20.27000 459.969
20.28000 455.579
20.29000 453.863
20.30000 462.290
20.31000 471.701
20.32000 478.571
20.33000 470.526
20.34000 463.743
20.35000 459.896
20.36000 461.201
20.37000 462.601
20.38000 467.750
20.39000 477.290
20.40000 486.812
20.41000 483.230
20.42000 469.764
20.43000 456.538
20.44000 452.540
20.45000 453.271
20.46000 453.823
20.47000 451.482
20.48000 448.130
20.49000 445.058
20.50000 452.416
20.51000 461.163
20.52000 469.060
20.53000 472.259
20.54000 474.737
20.55000 475.628
20.56000 470.711
20.57000 465.259
20.58000 461.321
20.59000 462.113
20.60000 462.892
20.61000 464.991
20.62000 469.326
20.63000 473.698
20.64000 470.875
20.65000 459.950
20.66000 449.054
20.67000 451.305
20.68000 463.095
20.69000 474.543
20.70000 474.086
20.71000 467.738
20.72000 461.638
20.73000 459.299
20.74000 458.230
20.75000 457.254
20.76000 468.966
20.77000 481.912
20.78000 490.697
20.79000 477.355
20.80000 460.763
20.81000 449.744
20.82000 458.389
20.83000 468.750
20.84000 476.156
20.85000 473.087
20.86000 470.396
20.87000 467.840
20.88000 465.505
20.89000 463.172
20.90000 465.292
20.91000 472.232
20.92000 479.145
20.93000 480.384
20.94000 477.645
20.95000 474.923
20.96000 472.752
20.97000 470.843
20.98000 468.882
20.99000 466.152
21.00000 463.172
21.01000 460.466
21.02000 463.299
21.03000 466.873
21.04000 470.559
21.05000 474.815
21.06000 479.152
21.07000 482.623
21.08000 483.151
21.09000 483.435
21.10000 483.635
21.11000 477.197
21.12000 472.103
21.13000 467.893
21.14000 465.076
21.15000 462.276
21.16000 465.322
21.17000 474.447
21.18000 483.525
21.19000 483.960
21.20000 478.578
21.21000 473.329
21.22000 471.911
21.23000 472.260
21.24000 472.776
21.25000 475.547
21.26000 479.028
21.27000 482.174
21.28000 475.154
21.29000 467.098
21.30000 460.691
21.31000 462.399
21.32000 465.200
21.33000 467.042
21.34000 465.736
21.35000 464.184
21.36000 463.099
21.37000 467.886
21.38000 471.669
21.39000 472.494
21.40000 468.823
21.41000 465.105
21.42000 464.293
21.43000 466.380
21.44000 468.454
21.45000 468.509
21.46000 467.256
21.47000 465.931
21.48000 462.688
21.49000 458.591
21.50000 454.684
21.51000 453.205
21.52000 452.464
21.53000 451.797
21.54000 447.721
21.55000 443.547
21.56000 441.856
21.57000 451.914
21.58000 463.486
21.59000 472.882
21.60000 475.389
21.61000 477.387
21.62000 478.767
21.63000 489.496
21.64000 497.802
21.65000 499.155
21.66000 490.324
21.67000 481.406
21.68000 484.487
21.69000 499.067
21.70000 513.536
21.71000 522.716
21.72000 528.451
21.73000 533.776
21.74000 529.024
21.75000 519.936
21.76000 512.405
21.77000 523.610
21.78000 540.304
21.79000 555.234
21.80000 566.949
21.81000 576.615
21.82000 585.166
21.83000 588.633
21.84000 591.474
21.85000 595.806
21.86000 604.696
21.87000 613.904
21.88000 620.191
21.89000 634.029
21.90000 644.554
21.91000 650.414
21.92000 649.687
21.93000 648.915
21.94000 654.528
21.95000 666.019
21.96000 677.408
21.97000 686.709
21.98000 694.581
21.99000 702.128
22.00000 702.292
22.01000 699.390
22.02000 696.432
22.03000 692.844
22.04000 689.079
22.05000 685.729
22.06000 679.634
22.07000 673.896
22.08000 668.828
22.09000 666.699
22.10000 664.915
22.11000 661.826
22.12000 654.884
22.13000 647.689
22.14000 642.836
22.15000 629.820
22.16000 619.963
22.17000 606.380
22.18000 587.731
22.19000 569.057
22.20000 554.911
22.21000 544.772
22.22000 534.737
22.23000 535.269
22.24000 541.874
22.25000 548.064
22.26000 545.511
22.27000 539.449
22.28000 533.498
22.29000 528.731
22.30000 524.288
22.31000 520.357
22.32000 518.353
22.33000 516.920
22.34000 513.700
22.35000 502.929
22.36000 491.313
22.37000 481.243
22.38000 475.581
22.39000 470.190
22.40000 466.598
22.41000 476.526
22.42000 484.133
22.43000 484.448
22.44000 475.210
22.45000 465.938
22.46000 460.937
22.47000 459.571
22.48000 458.222
22.49000 456.127
22.50000 453.672
22.51000 451.316
22.52000 450.907
22.53000 451.253
22.54000 451.808
22.55000 454.508
22.56000 457.773
22.57000 460.645
22.58000 455.632
22.59000 450.144
22.60000 444.560
22.61000 438.585
22.62000 432.569
22.63000 430.150
22.64000 437.633
22.65000 445.687
22.66000 450.985
22.67000 436.922
22.68000 426.237
22.69000 424.454
22.70000 433.899
22.71000 443.360
22.72000 444.561
22.73000 439.001
22.74000 433.515
22.75000 434.355
22.76000 438.546
22.77000 442.153
22.78000 435.065
22.79000 423.977
22.80000 414.320
22.81000 418.634
22.82000 426.488
22.83000 433.357
22.84000 432.173
22.85000 430.013
22.86000 429.997
22.87000 438.389
22.88000 447.635
22.89000 453.078
22.90000 448.417
22.91000 443.211
22.92000 439.831
22.93000 434.440
22.94000 430.461
22.95000 424.835
22.96000 417.213
22.97000 409.618
22.98000 411.604
22.99000 421.138
23.00000 430.527
23.01000 433.488
23.02000 433.061
23.03000 432.685
23.04000 433.183
23.05000 433.996
23.06000 434.798
23.07000 435.499
23.08000 436.175
23.09000 436.763
23.10000 430.459
23.11000 424.144
23.12000 419.914
23.13000 423.568
23.14000 427.983
23.15000 430.913
23.16000 430.027
23.17000 428.950
23.18000 428.260
23.19000 433.468
23.20000 437.340
23.21000 435.607
23.22000 427.328
23.23000 419.050
23.24000 412.958
23.25000 408.523
23.26000 404.165
23.27000 410.318
23.28000 421.458
23.29000 432.062
23.30000 434.041
23.31000 433.013
23.32000 432.002
23.33000 431.151
23.34000 430.338
23.35000 429.635
23.36000 424.609
23.37000 419.779
23.38000 416.090
23.39000 416.559
23.40000 417.409
23.41000 418.127
23.42000 418.517
23.43000 418.891
23.44000 419.128
23.45000 424.303
23.46000 428.111
23.47000 428.482
23.48000 424.994
23.49000 421.510
23.50000 419.319
23.51000 418.072
23.52000 416.848
23.53000 416.476
23.54000 416.522
23.55000 416.412
23.56000 413.943
23.57000 410.680
23.58000 407.521
23.59000 405.242
23.60000 403.162
23.61000 401.377
23.62000 410.020
23.63000 418.619
23.64000 425.002
23.65000 423.588
23.66000 421.497
23.67000 422.409
23.68000 430.507
23.69000 438.918
23.70000 444.157
23.71000 437.071
23.72000 431.840
23.73000 426.613
23.74000 421.391
23.75000 416.212
23.76000 416.982
23.77000 421.940
23.78000 426.794
23.79000 429.361
23.80000 430.780
23.81000 431.524
23.82000 422.674
23.83000 410.705
23.84000 400.656
23.85000 406.086
23.86000 414.894
23.87000 422.409
23.88000 426.233
23.89000 429.016
23.90000 431.180
23.91000 431.242
23.92000 431.132
23.93000 430.452
23.94000 428.454
23.95000 426.403
23.96000 425.144
23.97000 417.431
23.98000 411.848
23.99000 409.267
24.00000 409.799
24.01000 410.323
24.02000 410.004
24.03000 409.113
24.04000 408.243
24.05000 410.537
24.06000 414.127
24.07000 418.204
24.08000 428.807
24.09000 441.456
24.10000 452.502
24.11000 451.179
24.12000 447.259
24.13000 443.936
24.14000 431.986
24.15000 421.004
24.16000 411.587
24.17000 407.297
24.18000 403.406
24.19000 400.796
24.20000 401.046
24.21000 401.401
24.22000 401.615
24.23000 408.525
24.24000 413.498
24.25000 416.102
24.26000 416.350
24.27000 416.568
24.28000 414.102
24.29000 409.879
24.30000 405.764
24.31000 406.975
24.32000 410.386
24.33000 413.709
24.34000 415.905
24.35000 417.759
24.36000 418.799
24.37000 413.824
24.38000 407.633
24.39000 402.423
24.40000 404.435
24.41000 406.886
24.42000 409.455
24.43000 412.393
24.44000 415.358
24.45000 413.733
24.46000 402.215
24.47000 390.361
24.48000 383.300
24.49000 392.518
24.50000 399.147
24.51000 400.500
24.52000 396.812
24.53000 393.159
24.54000 392.224
24.55000 393.002
24.56000 393.760
24.57000 394.063
24.58000 394.167
24.59000 394.775
24.60000 401.422
24.61000 409.832
24.62000 416.463
24.63000 410.537
24.64000 402.171
24.65000 395.177
24.66000 392.649
24.67000 391.003
24.68000 391.548
24.69000 398.771
24.70000 406.457
24.71000 409.550
24.72000 403.085
24.73000 396.324
24.74000 392.360
24.75000 403.648
24.76000 411.672
24.77000 411.529
24.78000 403.893
24.79000 396.378
24.80000 397.176
24.81000 403.031
24.82000 408.709
24.83000 402.293
24.84000 391.469
24.85000 381.784
24.86000 385.024
24.87000 391.907
24.88000 397.609
24.89000 395.328
24.90000 391.555
24.91000 388.423
24.92000 396.590
24.93000 404.433
24.94000 408.775
24.95000 402.810
24.96000 396.174
24.97000 392.966
24.98000 396.649
24.99000 400.527
25.00000 402.764
25.01000 396.415
25.02000 391.936
25.03000 389.376
25.04000 388.506
25.05000 387.664
25.06000 388.450
25.07000 390.192
25.08000 391.877
25.09000 395.564
25.10000 399.800
25.11000 403.518
25.12000 401.654
25.13000 398.274
25.14000 396.227
25.15000 402.811
25.16000 410.945
25.17000 417.647
25.18000 404.042
25.19000 390.985
25.20000 382.888
25.21000 388.890
25.22000 395.754
25.23000 398.811
25.24000 394.481
25.25000 389.962
25.26000 387.398
25.27000 396.667
25.28000 403.146
25.29000 404.002
25.30000 400.089
25.31000 396.210
25.32000 394.179
25.33000 393.195
25.34000 392.246
25.35000 392.651
25.36000 393.524
25.37000 394.265
25.38000 393.652
25.39000 392.684
25.40000 391.751
25.41000 391.038
25.42000 390.364
25.43000 389.812
25.44000 391.498
25.45000 393.073
25.46000 394.515
25.47000 395.594
25.48000 396.652
25.49000 397.900
25.50000 399.503
25.51000 401.115
25.52000 402.014
25.53000 398.513
25.54000 396.076
25.55000 391.797
25.56000 386.017
25.57000 380.445
25.58000 384.663
25.59000 394.233
25.60000 403.435
25.61000 392.971
25.62000 376.292
25.63000 361.966
25.64000 370.519
25.65000 384.852
25.66000 397.129
25.67000 397.154
25.68000 395.152
25.69000 393.528
25.70000 396.045
25.71000 398.439
25.72000 399.842
25.73000 398.617
25.74000 397.251
25.75000 395.713
25.76000 393.865
25.77000 392.010
25.78000 390.994
25.79000 388.384
25.80000 386.573
25.81000 380.725
25.82000 371.706
25.83000 362.986
25.84000 366.766
25.85000 377.144
25.86000 387.093
25.87000 389.335
25.88000 388.838
25.89000 388.637
25.90000 391.183
25.91000 394.397
25.92000 397.042
25.93000 396.427
25.94000 395.295
25.95000 394.383
25.96000 391.317
25.97000 388.660
25.98000 387.657
25.99000 390.883
26.00000 394.320
26.01000 392.579
26.02000 381.806
26.03000 370.868
26.04000 364.980
26.05000 374.972
26.06000 381.795
26.07000 383.949
26.08000 382.572
26.09000 381.139
26.10000 377.546
26.11000 372.853
26.12000 368.368
26.13000 374.026
26.14000 382.568
26.15000 390.413
26.16000 392.100
26.17000 392.343
26.18000 391.362
26.19000 383.651
26.20000 374.916
26.21000 367.939
26.22000 368.328
26.23000 369.184
26.24000 372.072
26.25000 379.981
26.26000 388.123
26.27000 391.792
26.28000 387.931
26.29000 383.951
26.30000 381.848
26.31000 379.929
26.32000 378.617
26.33000 375.908
26.34000 372.180
26.35000 368.613
26.36000 370.549
26.37000 375.191
26.38000 379.613
26.39000 379.659
26.40000 378.340
26.41000 377.178
26.42000 377.339
26.43000 377.799
26.44000 377.204
26.45000 371.041
26.46000 364.066
26.47000 358.542
26.48000 368.107
26.49000 376.846
26.50000 383.658
26.51000 385.867
26.52000 387.877
26.53000 385.648
26.54000 376.533
26.55000 367.322
26.56000 362.548
26.57000 372.738
26.58000 379.563
26.59000 379.127
26.60000 373.598
26.61000 368.156
26.62000 365.431
26.63000 363.998
26.64000 362.636
26.65000 362.639
26.66000 363.049
26.67000 363.937
26.68000 368.666
26.69000 374.230
26.70000 379.149
26.71000 380.796
26.72000 381.986
26.73000 382.920
26.74000 376.227
26.75000 370.371
26.76000 366.517
26.77000 367.275
26.78000 368.218
26.79000 369.312
26.80000 370.644
26.81000 371.979
26.82000 372.657
26.83000 365.857
26.84000 361.366
26.85000 364.242
26.86000 372.100
26.87000 379.575
26.88000 376.113
26.89000 367.636
26.90000 359.616
26.91000 363.596
26.92000 370.704
26.93000 376.729
26.94000 374.431
26.95000 370.390
26.96000 368.469
26.97000 376.902
26.98000 386.718
26.99000 394.361
27.00000 384.894
27.01000 376.299
27.02000 371.268
27.03000 374.168
27.04000 377.360
27.05000 377.910
27.06000 374.472
27.07000 370.993
27.08000 366.123
27.09000 359.873
27.10000 353.761
27.11000 360.307
27.12000 375.108
27.13000 389.428
27.14000 391.120
27.15000 387.221
27.16000 383.545
27.17000 385.268
27.18000 388.336
27.19000 390.535
27.20000 386.347
27.21000 380.873
27.22000 376.305
27.23000 376.001
27.24000 376.241
27.25000 376.426
27.26000 370.037
27.27000 364.592
27.28000 361.200
27.29000 362.221
27.30000 363.391
27.31000 364.178
27.32000 364.409
27.33000 364.634
27.34000 363.696
27.35000 361.650
27.36000 359.674
27.37000 363.187
27.38000 370.153
27.39000 376.901
27.40000 378.354
27.41000 377.544
27.42000 376.783
27.43000 369.959
27.44000 362.126
27.45000 355.810
27.46000 360.164
27.47000 366.586
27.48000 371.730
27.49000 371.091
27.50000 369.746
27.51000 368.718
27.52000 367.702
27.53000 366.902
27.54000 367.660
27.55000 371.654
27.56000 375.748
27.57000 376.581
27.58000 372.839
27.59000 369.066
27.60000 366.957
27.61000 366.368
27.62000 365.686
27.63000 358.642
27.64000 347.740
27.65000 337.478
27.66000 341.615
27.67000 351.699
27.68000 361.130
27.69000 362.246
27.70000 361.137
27.71000 360.639
27.72000 364.251
27.73000 368.628
27.74000 371.710
27.75000 369.147
27.76000 365.927
27.77000 363.487
27.78000 357.120
27.79000 351.922
27.80000 351.245
27.81000 359.625
27.82000 368.259
27.83000 372.632
27.84000 371.244
27.85000 369.826
27.86000 364.891
27.87000 356.877
27.88000 348.995
27.89000 348.879
27.90000 353.308
27.91000 357.524
27.92000 357.278
27.93000 355.253
27.94000 353.366
27.95000 357.755
27.96000 363.263
27.97000 367.596
27.98000 364.349
27.99000 359.745
28.00000 355.586
28.01000 353.295
28.02000 351.212
28.03000 349.649
28.04000 362.686
28.05000 373.566
28.06000 375.495
28.07000 360.111
28.08000 344.287
28.09000 339.538
28.10000 349.206
28.11000 358.925
28.12000 365.655
28.13000 369.848
28.14000 373.954
28.15000 373.511
28.16000 370.500
28.17000 367.745
28.18000 369.962
28.19000 374.094
28.20000 377.928
28.21000 375.630
28.22000 372.117
28.23000 368.436
28.24000 363.724
28.25000 358.833
28.26000 355.599
28.27000 359.058
28.28000 363.226
28.29000 366.324
28.30000 363.971
28.31000 361.900
28.32000 362.963
28.33000 369.879
28.34000 376.928
28.35000 376.315
28.36000 366.097
28.37000 355.865
28.38000 354.546
28.39000 360.454
28.40000 366.269
28.41000 367.788
28.42000 366.965
28.43000 366.160
28.44000 365.684
28.45000 365.330
28.46000 365.003
28.47000 366.085
28.48000 367.374
28.49000 367.346
28.50000 359.498
28.51000 350.362
28.52000 343.881
28.53000 347.758
28.54000 352.677
28.55000 356.295
28.56000 347.819
28.57000 340.763
28.58000 339.329
28.59000 348.028
28.60000 356.932
28.61000 359.540
28.62000 354.551
28.63000 349.557
28.64000 350.135
28.65000 355.051
28.66000 359.832
28.67000 359.048
28.68000 355.335
28.69000 351.521
28.70000 345.979
28.71000 339.818
28.72000 334.150
28.73000 346.789
28.74000 362.052
28.75000 373.450
28.76000 362.811
28.77000 348.686
28.78000 338.220
28.79000 341.506
28.80000 346.108
28.81000 349.458
28.82000 359.042
28.83000 366.659
28.84000 366.770
28.85000 353.824
28.86000 340.642
28.87000 338.282
28.88000 348.475
28.89000 358.658
28.90000 364.857
28.91000 368.033
28.92000 371.006
28.93000 366.389
28.94000 357.918
28.95000 349.992
28.96000 350.733
28.97000 354.478
28.98000 357.908
28.99000 351.324
29.00000 343.383
29.01000 337.462
29.02000 342.604
29.03000 349.425
29.04000 355.103
29.05000 356.636
29.06000 357.793
29.07000 358.627
29.08000 354.370
29.09000 350.929
29.10000 351.432
29.11000 358.553
29.12000 365.778
29.13000 366.405
29.14000 359.671
29.15000 352.956
29.16000 352.600
29.17000 356.826
29.18000 360.818
29.19000 356.887
29.20000 349.070
29.21000 341.920
29.22000 344.727
29.23000 350.866
29.24000 356.461
29.25000 353.618
29.26000 349.415
29.27000 345.402
29.28000 342.397
29.29000 339.537
29.30000 338.557
29.31000 344.146
29.32000 350.300
29.33000 354.687
29.34000 355.571
29.35000 356.131
29.36000 354.894
29.37000 350.751
29.38000 346.567
29.39000 346.684
29.40000 351.409
29.41000 356.114
29.42000 359.844
29.43000 362.859
29.44000 365.618
29.45000 360.431
29.46000 351.481
29.47000 343.076
29.48000 342.347
29.49000 344.097
29.50000 345.685
29.51000 347.826
29.52000 349.820
29.53000 351.703
29.54000 353.017
29.55000 354.252
29.56000 355.491
29.57000 356.744
29.58000 357.997
29.59000 358.881
29.60000 363.048
29.61000 366.307
29.62000 368.104
29.63000 367.616
29.64000 367.100
29.65000 364.668
29.66000 360.263
29.67000 355.882
29.68000 359.799
29.69000 369.191
29.70000 378.309
29.71000 379.662
29.72000 377.464
29.73000 375.647
29.74000 378.904
29.75000 383.741
29.76000 388.107
29.77000 396.755
29.78000 405.137
29.79000 412.314
29.80000 413.627
29.81000 414.159
29.82000 416.776
29.83000 426.180
29.84000 436.107
29.85000 443.026
29.86000 439.972
29.87000 437.393
29.88000 435.526
29.89000 434.732
29.90000 433.948
29.91000 434.034
29.92000 434.980
29.93000 435.920
29.94000 438.713
29.95000 442.650
29.96000 446.542
29.97000 449.269
29.98000 451.483
29.99000 453.500
30.00000 453.055
30.01000 451.869
30.02000 450.804
30.03000 452.117
30.04000 453.684
30.05000 454.612
30.06000 452.547
30.07000 450.101
30.08000 447.971
30.09000 446.832
30.10000 445.766
30.11000 445.031
30.12000 437.766
30.13000 432.148
30.14000 428.807
30.15000 428.773
30.16000 428.767
30.17000 428.995
30.18000 429.447
30.19000 429.896
30.20000 423.531
30.21000 413.080
30.22000 403.082
30.23000 403.985
30.24000 409.537
30.25000 414.379
30.26000 410.795
30.27000 404.765
30.28000 399.379
30.29000 398.863
30.30000 399.232
30.31000 398.634
30.32000 393.672
30.33000 388.180
30.34000 383.718
30.35000 382.381
30.36000 381.258
30.37000 380.493
30.38000 380.130
30.39000 379.868
30.40000 378.356
30.41000 375.094
30.42000 371.821
30.43000 370.429
30.44000 370.753
30.45000 371.074
30.46000 369.437
30.47000 366.672
30.48000 363.953
30.49000 362.267
30.50000 361.007
30.51000 360.956
30.52000 374.504
30.53000 391.861
30.54000 407.280
30.55000 396.727
30.56000 383.395
30.57000 373.156
30.58000 376.357
30.59000 381.117
30.60000 384.104
30.61000 381.904
30.62000 379.370
30.63000 377.665
30.64000 386.913
30.65000 394.010
30.66000 395.893
30.67000 390.749
30.68000 385.573
30.69000 386.221
30.70000 391.972
30.71000 397.661
30.72000 397.973
30.73000 395.211
30.74000 392.779
30.75000 397.176
30.76000 404.290
30.77000 410.915
30.78000 412.331
30.79000 412.340
30.80000 412.349
30.81000 412.714
30.82000 413.085
30.83000 415.154
30.84000 424.326
30.85000 434.283
30.86000 445.175
30.87000 458.707
30.88000 472.399
30.89000 481.492
30.90000 485.367
30.91000 488.135
30.92000 496.756
30.93000 512.974
30.94000 529.218
30.95000 542.408
30.96000 553.026
30.97000 563.513
30.98000 583.088
30.99000 607.154
31.00000 632.009
31.01000 672.089
31.02000 718.016
31.03000 764.146
31.04000 812.333
31.05000 861.057
31.06000 903.856
31.07000 956.541
31.08000 1003.287
31.09000 1058.775
31.10000 1149.506
31.11000 1243.951
31.12000 1329.223
31.13000 1389.467
31.14000 1448.292
31.15000 1486.859
31.16000 1616.085
31.17000 1712.614
31.18000 1814.643
31.19000 1923.544
31.20000 2032.449
31.21000 2135.302
31.22000 2233.248
31.23000 2329.833
31.24000 2412.269
31.25000 2484.908
31.26000 2557.590
31.27000 2631.023
31.28000 2704.736
31.29000 2777.790
31.30000 2844.501
31.31000 2909.619
31.32000 2966.485
31.33000 2972.808
31.34000 2971.109
31.35000 2969.002
31.36000 2965.312
31.37000 2961.462
31.38000 2941.249
31.39000 2877.926
31.40000 2812.318
31.41000 2769.868
31.42000 2689.698
31.43000 2630.503
31.44000 2554.653
31.45000 2458.779
31.46000 2362.825
31.47000 2256.318
31.48000 2141.576
31.49000 2028.632
31.50000 1912.778
31.51000 1799.048
31.52000 1686.411
31.53000 1592.208
31.54000 1504.605
31.55000 1417.619
31.56000 1336.296
31.57000 1256.343
31.58000 1186.941
31.59000 1095.827
31.60000 1015.272
31.61000 941.319
31.62000 892.105
31.63000 845.247
31.64000 796.562
31.65000 743.228
31.66000 689.665
31.67000 655.474
31.68000 621.884
31.69000 597.455
31.70000 574.063
31.71000 551.868
31.72000 529.703
31.73000 513.154
31.74000 500.827
31.75000 488.715
31.76000 477.021
31.77000 465.931
31.78000 454.677
31.79000 440.852
31.80000 426.138
31.81000 412.687
31.82000 410.297
31.83000 410.485
31.84000 410.648
31.85000 405.710
31.86000 400.867
31.87000 394.945
31.88000 385.125
31.89000 374.952
31.90000 368.005
31.91000 368.986
31.92000 370.331
31.93000 371.177
31.94000 365.071
31.95000 360.574
31.96000 356.182
31.97000 351.908
31.98000 347.641
31.99000 344.621
32.00000 342.502
32.01000 340.424
32.02000 343.378
32.03000 348.592
32.04000 353.727
32.05000 357.706
32.06000 361.298
32.07000 363.533
32.08000 354.439
32.09000 342.800
32.10000 332.822
32.11000 336.096
32.12000 340.483
32.13000 344.303
32.14000 346.151
32.15000 347.830
32.16000 346.039
32.17000 336.015
32.18000 325.641
32.19000 319.202
32.20000 314.711
32.21000 311.497
32.22000 312.446
32.23000 317.841
32.24000 323.210
32.25000 325.191
32.26000 324.808
32.27000 324.433
32.28000 325.582
32.29000 327.375
32.30000 328.794
32.31000 324.969
32.32000 319.455
32.33000 315.120
32.34000 320.187
32.35000 327.286
32.36000 333.333
32.37000 324.399
32.38000 315.140
32.39000 308.006
32.40000 308.012
32.41000 308.599
32.42000 309.492
32.43000 311.089
32.44000 312.714
32.45000 313.708
32.46000 324.074
32.47000 331.571
32.48000 329.192
32.49000 316.683
32.50000 304.296
32.51000 304.931
32.52000 314.320
32.53000 323.485
32.54000 323.841
32.55000 320.339
32.56000 317.301
32.57000 320.387
32.58000 325.377
32.59000 329.021
32.60000 322.407
32.61000 313.658
32.62000 306.257
32.63000 301.687
32.64000 298.178
32.65000 296.470
32.66000 300.608
32.67000 305.196
32.68000 308.845
32.69000 310.419
32.70000 311.918
32.71000 312.821
32.72000 316.787
32.73000 319.631
32.74000 321.197
32.75000 321.506
32.76000 321.861
32.77000 326.274
32.78000 333.317
32.79000 340.177
32.80000 349.146
32.81000 358.581
32.82000 369.031
32.83000 392.172
32.84000 419.121
32.85000 444.701
32.86000 460.309
32.87000 473.921
32.88000 485.359
32.89000 509.672
32.90000 531.289
32.91000 548.497
32.92000 551.896
32.93000 554.295
32.94000 556.709
32.95000 559.156
32.96000 561.605
32.97000 563.057
32.98000 572.468
32.99000 579.171
33.00000 577.278
33.01000 567.259
33.02000 557.229
33.03000 546.374
33.04000 535.004
33.05000 523.957
33.06000 497.654
33.07000 466.507
33.08000 436.292
33.09000 417.106
33.10000 401.113
33.11000 385.570
33.12000 373.177
33.13000 361.390
33.14000 351.555
33.15000 343.138
33.16000 336.299
33.17000 329.985
33.18000 325.256
33.19000 320.636
33.20000 314.885
33.21000 306.800
33.22000 298.645
33.23000 293.883
33.24000 292.499
33.25000 291.541
33.26000 289.861
33.27000 287.524
33.28000 285.285
33.29000 289.523
33.30000 297.665
33.31000 305.556
33.32000 301.879
33.33000 293.904
33.34000 287.146
33.35000 294.018
33.36000 304.696
33.37000 313.252
33.38000 307.625
33.39000 299.374
33.40000 292.538
33.41000 290.836
33.42000 289.920
33.43000 288.326
33.44000 284.753
33.45000 281.052
33.46000 278.582
33.47000 278.563
33.48000 278.612
33.49000 278.640
33.50000 283.624
33.51000 287.124
33.52000 287.501
33.53000 285.152
33.54000 282.882
33.55000 285.263
33.56000 290.349
33.57000 295.265
33.58000 293.846
33.59000 290.140
33.60000 286.533
33.61000 283.995
33.62000 281.744
33.63000 279.980
33.64000 281.338
33.65000 283.251
33.66000 284.825
33.67000 286.230
33.68000 287.369
33.69000 287.488
33.70000 284.732
33.71000 281.803
33.72000 280.776
33.73000 283.409
33.74000 286.134
33.75000 287.673
33.76000 285.432
33.77000 283.865
33.78000 282.824
33.79000 282.224
33.80000 281.664
33.81000 283.078
33.82000 285.601
33.83000 288.032
33.84000 284.110
33.85000 278.140
33.86000 272.880
33.87000 274.798
33.88000 278.580
33.89000 282.181
33.90000 284.666
33.91000 286.961
33.92000 288.834
33.93000 293.221
33.94000 297.026
33.95000 297.594
33.96000 289.356
33.97000 280.622
33.98000 276.336
33.99000 280.311
34.00000 284.469
34.01000 286.779
34.02000 278.674
34.03000 273.065
34.04000 272.121
34.05000 274.946
34.06000 277.904
34.07000 286.932
34.08000 299.248
34.09000 311.083
34.10000 309.859
34.11000 304.194
34.12000 298.481
34.13000 292.311
34.14000 286.026
34.15000 280.502
34.16000 279.460
34.17000 279.154
34.18000 278.905
34.19000 279.195
34.20000 279.475
34.21000 279.114
34.22000 277.073
34.23000 274.943
34.24000 274.647
34.25000 277.636
34.26000 280.690
34.27000 282.357
34.28000 276.899
34.29000 273.148
34.30000 271.282
34.31000 270.882
34.32000 270.519
34.33000 271.670
34.34000 273.613
34.35000 275.474
34.36000 279.466
34.37000 283.899
34.38000 287.094
34.39000 278.967
34.40000 268.109
34.41000 259.170
34.42000 261.101
34.43000 264.739
34.44000 267.663
34.45000 264.780
34.46000 261.997
34.47000 261.593
34.48000 267.226
34.49000 273.155
34.50000 275.067
34.51000 270.034
34.52000 264.879
34.53000 262.117
34.54000 273.480
34.55000 281.229
34.56000 285.636
34.57000 287.538
34.58000 289.391
34.59000 289.390
34.60000 288.454
34.61000 287.560
34.62000 287.628
34.63000 288.000
34.64000 288.099
34.65000 285.826
34.66000 283.002
34.67000 280.548
34.68000 280.108
34.69000 279.972
34.70000 279.864
34.71000 277.664
34.72000 275.737
34.73000 271.733
34.74000 262.640
34.75000 253.315
34.76000 251.238
34.77000 261.252
34.78000 271.453
34.79000 276.816
34.80000 270.481
34.81000 266.208
34.82000 266.151
34.83000 269.138
34.84000 272.125
34.85000 275.103
34.86000 278.078
34.87000 280.909
34.88000 276.288
34.89000 269.714
34.90000 264.391
34.91000 269.463
34.92000 276.862
34.93000 281.851
34.94000 274.241
34.95000 264.813
34.96000 257.361
34.97000 258.166
34.98000 259.378
34.99000 260.881
35.00000 263.073
35.01000 265.294
35.02000 265.457
35.03000 262.307
35.04000 259.113
35.05000 257.466
35.06000 261.790
35.07000 264.698
35.08000 266.767
35.09000 268.254
35.10000 269.741
35.11000 271.250
35.12000 272.768
35.13000 274.209
35.14000 274.947
35.15000 275.419
35.16000 276.119
35.17000 278.623
35.18000 281.515
35.19000 283.403
35.20000 280.239
35.21000 276.377
35.22000 273.351
35.23000 271.357
35.24000 269.830
35.25000 268.069
35.26000 265.771
35.27000 263.452
35.28000 263.474
35.29000 267.129
35.30000 270.826
35.31000 272.695
35.32000 262.412
35.33000 255.577
35.34000 253.538
35.35000 254.713
35.36000 255.862
35.37000 256.287
35.38000 256.382
35.39000 256.472
35.40000 256.705
35.41000 256.960
35.42000 257.805
35.43000 263.140
35.44000 269.406
35.45000 274.810
35.46000 276.044
35.47000 276.728
35.48000 277.258
35.49000 270.598
35.50000 264.864
35.51000 262.743
35.52000 268.594
35.53000 274.731
35.54000 275.153
35.55000 267.023
35.56000 258.810
35.57000 256.863
35.58000 261.066
35.59000 265.228
35.60000 265.688
35.61000 263.757
35.62000 261.730
35.63000 257.248
35.64000 251.689
35.65000 246.454
35.66000 243.726
35.67000 241.917
35.68000 240.852
35.69000 245.189
35.70000 250.604
35.71000 254.898
35.72000 253.973
35.73000 252.390
35.74000 251.170
35.75000 250.793
35.76000 250.543
35.77000 249.897
35.78000 248.405
35.79000 246.886
35.80000 247.227
35.81000 250.249
35.82000 253.294
35.83000 254.023
35.84000 252.572
35.85000 251.226
35.86000 257.775
35.87000 269.244
35.88000 280.252
35.89000 280.303
35.90000 275.710
35.91000 271.401
35.92000 268.371
35.93000 265.947
35.94000 263.751
35.95000 263.145
35.96000 262.843
35.97000 262.292
35.98000 260.625
35.99000 258.823
36.00000 257.448
36.01000 253.892
36.02000 250.974
36.03000 250.561
36.04000 255.298
36.05000 260.191
36.06000 262.790
36.07000 262.200
36.08000 261.589
36.09000 258.914
36.10000 254.375
36.11000 249.882
36.12000 248.437
36.13000 248.823
36.14000 249.220
36.15000 249.844
36.16000 250.562
36.17000 251.232
36.18000 253.734
36.19000 256.466
36.20000 258.519
36.21000 256.046
36.22000 252.738
36.23000 250.212
36.24000 251.065
36.25000 252.306
36.26000 253.244
36.27000 254.072
36.28000 254.716
36.29000 254.221
36.30000 251.464
36.31000 248.646
36.32000 249.413
36.33000 254.983
36.34000 260.573
36.35000 261.300
36.36000 257.798
36.37000 254.346
36.38000 253.764
36.39000 254.846
36.40000 255.974
36.41000 258.046
36.42000 260.490
36.43000 262.766
36.44000 261.293
36.45000 259.052
36.46000 256.697
36.47000 253.606
36.48000 250.385
36.49000 248.310
36.50000 251.003
36.51000 254.220
36.52000 256.628
36.53000 257.986
36.54000 258.996
36.55000 257.546
36.56000 251.379
36.57000 245.095
36.58000 243.372
36.59000 247.530
36.60000 251.706
36.61000 255.390
36.62000 258.653
36.63000 261.786
36.64000 258.318
36.65000 251.157
36.66000 244.393
36.67000 245.227
36.68000 248.960
36.69000 252.420
36.70000 255.329
36.71000 257.820
36.72000 259.597
36.73000 257.000
36.74000 253.659
36.75000 251.710
36.76000 255.335
36.77000 259.543
36.78000 262.662
36.79000 265.540
36.80000 267.764
36.81000 268.607
36.82000 266.893
36.83000 265.122
36.84000 262.714
36.85000 259.515
36.86000 256.319
36.87000 257.371
36.88000 261.828
36.89000 266.225
36.90000 267.959
36.91000 268.254
36.92000 268.618
36.93000 270.191
36.94000 272.210
36.95000 274.074
36.96000 271.057
36.97000 267.262
36.98000 263.802
36.99000 262.310
37.00000 261.139
37.01000 260.911
37.02000 264.323
37.03000 268.097
37.04000 270.866
37.05000 265.849
37.06000 261.656
37.07000 256.124
37.08000 248.201
37.09000 240.231
37.10000 240.321
37.11000 250.040
37.12000 259.755
37.13000 260.920
37.14000 255.487
37.15000 250.091
37.16000 246.195
37.17000 243.083
37.18000 240.289
37.19000 242.812
37.20000 247.227
37.21000 251.284
37.22000 253.055
37.23000 254.146
37.24000 254.878
37.25000 253.586
37.26000 251.977
37.27000 250.369
37.28000 248.764
37.29000 247.160
37.30000 245.994
37.31000 253.079
37.32000 258.836
37.33000 261.384
37.34000 258.400
37.35000 255.320
37.36000 250.562
37.37000 243.877
37.38000 237.210
37.39000 238.278
37.40000 245.071
37.41000 251.791
37.42000 255.850
37.43000 258.570
37.44000 261.057
37.45000 259.906
37.46000 257.505
37.47000 255.309
37.48000 253.477
37.49000 251.923
37.50000 250.328
37.51000 248.508
37.52000 246.654
37.53000 245.686
37.54000 247.897
37.55000 250.394
37.56000 252.187
37.57000 241.258
37.58000 232.454
37.59000 228.344
37.60000 232.039
37.61000 235.854
37.62000 239.158
37.63000 241.897
37.64000 244.625
37.65000 245.964
37.66000 246.300
37.67000 246.663
37.68000 247.931
37.69000 249.640
37.70000 251.159
37.71000 249.888
37.72000 247.692
37.73000 245.693
37.74000 245.476
37.75000 245.636
37.76000 245.948
37.77000 247.057
37.78000 248.280
37.79000 249.521
37.80000 250.827
37.81000 252.138
37.82000 253.070
37.83000 250.623
37.84000 248.652
37.85000 248.833
37.86000 252.465
37.87000 256.143
37.88000 256.631
37.89000 253.734
37.90000 250.849
37.91000 245.767
37.92000 239.235
37.93000 233.064
37.94000 237.803
37.95000 247.663
37.96000 256.788
37.97000 255.719
37.98000 251.385
37.99000 247.459
38.00000 248.165
38.01000 249.664
38.02000 251.036
38.03000 251.776
38.04000 252.428
38.05000 251.717
38.06000 246.448
38.07000 240.813
38.08000 236.852
38.09000 242.451
38.10000 246.974
38.11000 250.696
38.12000 253.179
38.13000 255.649
38.14000 258.248
38.15000 260.981
38.16000 263.698
38.17000 267.817
38.18000 272.807
38.19000 277.668
38.20000 278.961
38.21000 278.637
38.22000 278.435
38.23000 279.819
38.24000 281.695
38.25000 283.385
38.26000 286.368
38.27000 289.221
38.28000 291.182
38.29000 288.842
38.30000 285.937
38.31000 288.139
38.32000 306.818
38.33000 326.749
38.34000 340.600
38.35000 337.762
38.36000 335.173
38.37000 338.871
38.38000 351.946
38.39000 365.110
38.40000 373.905
38.41000 378.428
38.42000 382.919
38.43000 390.929
38.44000 401.045
38.45000 411.455
38.46000 429.387
38.47000 450.610
38.48000 470.965
38.49000 480.570
38.50000 486.969
38.51000 492.708
38.52000 511.859
38.53000 530.924
38.54000 547.483
38.55000 552.414
38.56000 555.881
38.57000 560.934
38.58000 570.922
38.59000 581.264
38.60000 588.368
38.61000 607.543
38.62000 622.216
38.63000 632.048
38.64000 634.916
38.65000 637.729
38.66000 638.841
38.67000 638.355
38.68000 637.873
38.69000 640.297
38.70000 644.452
38.71000 648.186
38.72000 641.993
38.73000 631.605
38.74000 621.381
38.75000 613.088
38.76000 605.350
38.77000 598.449
38.78000 582.043
38.79000 566.189
38.80000 551.562
38.81000 542.415
38.82000 533.927
38.83000 521.424
38.84000 496.855
38.85000 471.471
38.86000 454.244
38.87000 429.105
38.88000 410.176
38.89000 399.131
38.90000 399.011
38.91000 398.956
38.92000 390.014
38.93000 373.053
38.94000 356.255
38.95000 342.980
38.96000 332.047
38.97000 321.023
38.98000 308.011
38.99000 294.187
39.00000 281.471
39.01000 281.055
39.02000 284.052
39.03000 286.711
39.04000 284.536
39.05000 281.884
39.06000 279.077
39.07000 275.612
39.08000 272.071
39.09000 269.679
39.10000 270.618
39.11000 271.769
39.12000 272.540
39.13000 260.621
39.14000 251.520
39.15000 245.130
39.16000 242.357
39.17000 239.603
39.18000 237.381
39.19000 235.621
39.20000 233.881
39.21000 234.242
39.22000 235.781
39.23000 237.265
39.24000 237.631
39.25000 237.555
39.26000 237.663
39.27000 239.696
39.28000 242.244
39.29000 244.492
39.30000 239.742
39.31000 234.580
39.32000 231.021
39.33000 234.105
39.34000 237.916
39.35000 239.899
39.36000 236.763
39.37000 233.322
39.38000 231.044
39.39000 227.708
39.40000 225.226
39.41000 223.933
39.42000 224.169
39.43000 224.415
39.44000 227.058
39.45000 231.701
39.46000 236.285
39.47000 235.908
39.48000 232.844
39.49000 230.039
39.50000 232.147
39.51000 236.124
39.52000 239.496
39.53000 236.799
39.54000 232.537
39.55000 228.799
39.56000 222.797
39.57000 217.313
39.58000 214.018
39.59000 219.470
39.60000 225.832
39.61000 231.976
39.62000 237.529
39.63000 243.049
39.64000 246.656
39.65000 236.182
39.66000 228.263
39.67000 224.644
39.68000 226.345
39.69000 228.066
39.70000 231.566
39.71000 236.495
39.72000 241.352
39.73000 237.515
39.74000 229.240
39.75000 221.401
39.76000 221.270
39.77000 223.972
39.78000 226.315
39.79000 225.234
39.80000 223.302
39.81000 221.616
39.82000 219.191
39.83000 217.015
39.84000 215.955
39.85000 219.195
39.86000 222.860
39.87000 225.343
39.88000 224.737
39.89000 223.971
39.90000 223.476
39.91000 218.616
39.92000 215.003
39.93000 215.425
39.94000 220.651
39.95000 225.873
39.96000 227.839
39.97000 227.289
39.98000 226.748
39.99000 226.042
40.00000 225.275
40.01000 224.571
40.02000 224.919
40.03000 225.639
40.04000 226.353
40.05000 227.002
40.06000 227.635
40.07000 228.185
40.08000 225.464
40.09000 222.714
40.10000 220.004
40.11000 217.442
40.12000 214.893
40.13000 214.339
40.14000 218.811
40.15000 223.527
40.16000 226.527
40.17000 222.165
40.18000 218.903
40.19000 217.484
40.20000 218.173
40.21000 218.868
40.22000 220.294
40.23000 222.265
40.24000 224.200
40.25000 224.862
40.26000 224.884
40.27000 224.619
40.28000 219.875
40.29000 213.597
40.30000 207.942
40.31000 207.674
40.32000 208.649
40.33000 209.489
40.34000 210.261
40.35000 210.907
40.36000 210.979
40.37000 209.000
40.38000 206.839
40.39000 207.188
40.40000 213.652
40.41000 220.392
40.42000 224.620
40.43000 214.986
40.44000 207.873
40.45000 205.979
40.46000 209.830
40.47000 213.672
40.48000 215.860
40.49000 216.861
40.50000 217.842
40.51000 215.625
40.52000 212.000
40.53000 208.780
40.54000 211.496
40.55000 216.176
40.56000 220.108
40.57000 217.871
40.58000 214.262
40.59000 211.173
40.60000 209.525
40.61000 208.308
40.62000 206.670
40.63000 203.578
40.64000 200.364
40.65000 200.465
40.66000 208.362
40.67000 216.586
40.68000 221.671
40.69000 219.570
40.70000 217.992
40.71000 215.246
40.72000 211.265
40.73000 207.320
40.74000 207.857
40.75000 211.490
40.76000 215.043
40.77000 216.689
40.78000 217.411
40.79000 218.176
40.80000 219.535
40.81000 221.084
40.82000 222.003
40.83000 217.958
40.84000 212.850
40.85000 208.506
40.86000 210.598
40.87000 213.095
40.88000 214.435
40.89000 211.916
40.90000 209.087
40.91000 207.567
40.92000 209.015
40.93000 210.579
40.94000 211.531
40.95000 220.799
40.96000 227.488
40.97000 227.751
40.98000 221.489
40.99000 215.254
41.00000 211.751
41.01000 210.066
41.02000 208.423
41.03000 208.877
41.04000 210.217
41.05000 211.272
41.06000 208.615
41.07000 204.816
41.08000 201.919
41.09000 205.826
41.10000 211.135
41.11000 215.619
41.12000 214.023
41.13000 212.023
41.14000 210.653
41.15000 211.315
41.16000 212.130
41.17000 212.359
41.18000 211.300
41.19000 210.197
41.20000 209.534
41.21000 206.241
41.22000 203.883
41.23000 205.837
41.24000 211.993
41.25000 218.076
41.26000 217.949
41.27000 213.833
41.28000 209.827
41.29000 209.498
41.30000 210.713
41.31000 212.091
41.32000 215.475
41.33000 219.456
41.34000 221.838
41.35000 212.694
41.36000 201.266
41.37000 191.679
41.38000 199.593
41.39000 208.006
41.40000 213.742
41.41000 211.168
41.42000 208.002
41.43000 206.466
41.44000 208.382
41.45000 210.409
41.46000 211.608
41.47000 207.290
41.48000 204.208
41.49000 198.127
41.50000 189.238
41.51000 180.515
41.52000 184.072
41.53000 195.236
41.54000 206.076
41.55000 209.700
41.56000 210.254
41.57000 210.683
41.58000 209.647
41.59000 208.190
41.60000 206.292
41.61000 201.339
41.62000 195.804
41.63000 191.193
41.64000 196.063
41.65000 201.037
41.66000 204.658
41.67000 204.226
41.68000 203.522
41.69000 204.927
41.70000 210.644
41.71000 216.488
41.72000 219.887
41.73000 215.807
41.74000 212.909
41.75000 210.164
41.76000 207.557
41.77000 204.920
41.78000 200.318
41.79000 194.541
41.80000 188.948
41.81000 189.313
41.82000 191.952
41.83000 194.343
41.84000 193.988
41.85000 192.874
41.86000 192.811
41.87000 199.704
41.88000 207.871
41.89000 214.625
41.90000 209.156
41.91000 203.495
41.92000 199.015
41.93000 197.954
41.94000 197.108
41.95000 196.779
41.96000 197.472
41.97000 198.193
41.98000 198.605
41.99000 198.743
42.00000 198.841
42.01000 201.278
42.02000 205.736
42.03000 210.165
42.04000 212.923
42.05000 214.717
42.06000 216.450
42.07000 211.558
42.08000 204.494
42.09000 197.773
42.10000 194.640
42.11000 192.464
42.12000 190.968
42.13000 193.781
42.14000 197.353
42.15000 200.285
42.16000 199.241
42.17000 198.028
42.18000 197.270
42.19000 197.781
42.20000 198.366
42.21000 198.327
42.22000 197.099
42.23000 195.842
42.24000 195.135
42.25000 198.252
42.26000 200.418
42.27000 199.217
42.28000 195.216
42.29000 191.304
42.30000 191.760
42.31000 194.646
42.32000 197.426
42.33000 195.830
42.34000 192.773
42.35000 190.637
42.36000 197.685
42.37000 207.096
42.38000 214.556
42.39000 210.155
42.40000 203.750
42.41000 198.532
42.42000 197.182
42.43000 196.405
42.44000 196.495
42.45000 198.920
42.46000 201.474
42.47000 201.908
42.48000 198.441
42.49000 194.890
42.50000 192.927
42.51000 192.088
42.52000 191.515
42.53000 192.473
42.54000 194.654
42.55000 196.864
42.56000 200.303
42.57000 204.403
42.58000 208.339
42.59000 203.757
42.60000 196.551
42.61000 190.112
42.62000 190.949
42.63000 193.590
42.64000 196.435
42.65000 200.468
42.66000 204.694
42.67000 208.110
42.68000 205.015
42.69000 201.976
42.70000 199.262
42.71000 197.394
42.72000 195.569
42.73000 196.382
42.74000 201.879
42.75000 207.466
42.76000 210.501
42.77000 204.235
42.78000 199.929
42.79000 196.008
42.80000 192.384
42.81000 188.988
42.82000 194.685
42.83000 205.095
42.84000 215.060
42.85000 211.251
42.86000 203.161
42.87000 195.893
42.88000 196.056
42.89000 197.996
42.90000 199.742
42.91000 200.403
42.92000 200.895
42.93000 201.289
42.94000 205.594
42.95000 209.375
42.96000 211.074
42.97000 207.537
42.98000 203.746
42.99000 201.128
43.00000 200.517
43.01000 199.940
43.02000 199.632
43.03000 205.480
43.04000 209.444
43.05000 208.830
43.06000 204.820
43.07000 200.905
43.08000 200.445
43.09000 201.713
43.10000 202.923
43.11000 202.548
43.12000 201.697
43.13000 200.608
43.14000 197.459
43.15000 193.838
43.16000 191.169
43.17000 193.632
43.18000 196.859
43.19000 199.427
43.20000 196.934
43.21000 194.563
43.22000 193.509
43.23000 195.650
43.24000 197.934
43.25000 200.605
43.26000 203.916
43.27000 207.236
43.28000 208.973
43.29000 204.282
43.30000 201.117
43.31000 199.900
43.32000 200.075
43.33000 200.234
43.34000 199.833
43.35000 199.162
43.36000 198.524
43.37000 197.546
43.38000 196.538
43.39000 195.943
43.40000 198.752
43.41000 202.314
43.42000 204.287
43.43000 198.028
43.44000 190.593
43.45000 184.728
43.46000 189.509
43.47000 194.061
43.48000 197.360
43.49000 197.718
43.50000 197.954
43.51000 197.713
43.52000 196.710
43.53000 195.697
43.54000 195.177
43.55000 193.740
43.56000 192.774
43.57000 191.774
43.58000 190.751
43.59000 189.789
43.60000 190.639
43.61000 192.334
43.62000 193.941
43.63000 198.282
43.64000 203.082
43.65000 207.358
43.66000 207.521
43.67000 206.807
43.68000 205.440
43.69000 200.822
43.70000 195.761
43.71000 191.804
43.72000 184.656
43.73000 178.748
43.74000 177.005
43.75000 184.694
43.76000 192.744
43.77000 199.052
43.78000 202.681
43.79000 206.280
43.80000 208.090
43.81000 207.986
43.82000 207.895
43.83000 205.698
43.84000 202.103
43.85000 198.521
43.86000 195.325
43.87000 192.303
43.88000 189.448
43.89000 188.884
43.90000 189.011
43.91000 189.191
43.92000 189.766
43.93000 190.422
43.94000 191.086
43.95000 191.789
43.96000 192.497
43.97000 193.046
43.98000 188.788
43.99000 185.118
44.00000 183.574
44.01000 186.683
44.02000 189.956
44.03000 191.160
44.04000 189.300
44.05000 187.411
44.06000 186.533
44.07000 186.639
44.08000 186.788
44.09000 190.693
44.10000 197.001
44.11000 203.045
44.12000 202.413
44.13000 198.877
44.14000 195.549
44.15000 192.159
44.16000 189.043
44.17000 186.530
44.18000 188.346
44.19000 191.017
44.20000 193.052
44.21000 192.158
44.22000 190.898
44.23000 189.931
44.24000 185.775
44.25000 182.310
44.26000 181.418
44.27000 185.957
44.28000 190.671
44.29000 193.867
44.30000 194.893
44.31000 195.903
44.32000 200.290
44.33000 207.825
44.34000 215.289
44.35000 217.546
44.36000 216.588
44.37000 215.552
44.38000 212.688
44.39000 209.056
44.40000 205.652
44.41000 203.696
44.42000 202.293
44.43000 201.491
44.44000 204.824
44.45000 208.944
44.46000 212.458
44.47000 213.284
44.48000 213.791
44.49000 214.176
44.50000 209.560
44.51000 205.665
44.52000 205.750
44.53000 213.952
44.54000 222.392
44.55000 225.601
44.56000 221.606
44.57000 217.568
44.58000 222.259
44.59000 234.762
44.60000 247.121
44.61000 250.450
44.62000 248.398
44.63000 246.537
44.64000 248.798
44.65000 252.732
44.66000 256.404
44.67000 254.524
44.68000 251.430
44.69000 249.499
44.70000 255.224
44.71000 262.348
44.72000 269.614
44.73000 277.490
44.74000 285.436
44.75000 291.428
44.76000 298.274
44.77000 303.679
44.78000 309.066
44.79000 314.421
44.80000 319.776
44.81000 325.005
44.82000 330.069
44.83000 335.128
44.84000 340.503
44.85000 346.139
44.86000 351.779
44.87000 357.646
44.88000 363.644
44.89000 369.398
44.90000 370.272
44.91000 369.233
44.92000 368.267
44.93000 381.019
44.94000 395.825
44.95000 408.222
44.96000 405.390
44.97000 399.887
44.98000 393.406
44.99000 382.895
45.00000 371.949
45.01000 363.774
45.02000 375.857
45.03000 386.205
45.04000 389.429
45.05000 379.115
45.06000 368.476
45.07000 360.068
45.08000 354.508
45.09000 348.965
45.10000 345.044
45.11000 342.476
45.12000 339.851
45.13000 334.430
45.14000 327.458
45.15000 320.903
45.16000 322.151
45.17000 326.353
45.18000 330.243
45.19000 327.152
45.20000 322.764
45.21000 317.381
45.22000 305.969
45.23000 293.543
45.24000 283.257
45.25000 281.471
45.26000 280.563
45.27000 279.891
45.28000 279.582
45.29000 279.357
45.30000 277.291
45.31000 271.846
45.32000 266.328
45.33000 262.494
45.34000 260.730
45.35000 258.975
45.36000 256.544
45.37000 253.588
45.38000 250.556
45.39000 244.194
45.40000 236.048
45.41000 228.419
45.42000 229.860
45.43000 234.614
45.44000 238.997
45.45000 242.156
45.46000 244.713
45.47000 245.858
45.48000 238.786
45.49000 230.385
45.50000 222.749
45.51000 218.036
45.52000 213.609
45.53000 210.370
45.54000 208.579
45.55000 207.254
45.56000 208.727
45.57000 215.150
45.58000 221.668
45.59000 222.816
45.60000 217.613
45.61000 212.411
45.62000 206.786
45.63000 200.873
45.64000 195.171
45.65000 197.829
45.66000 204.808
45.67000 211.493
45.68000 213.337
45.69000 213.475
45.70000 213.600
45.71000 209.828
45.72000 205.636
45.73000 201.782
45.74000 199.813
45.75000 198.136
45.76000 197.104
45.77000 198.453
45.78000 200.024
45.79000 201.162
45.80000 189.474
45.81000 180.024
45.82000 177.240
45.83000 185.842
45.84000 194.637
45.85000 195.629
45.86000 187.746
45.87000 179.880
45.88000 179.701
45.89000 185.165
45.90000 190.525
45.91000 192.156
45.92000 191.926
45.93000 191.492
45.94000 187.927
45.95000 183.295
45.96000 179.064
45.97000 181.319
45.98000 184.643
45.99000 186.888
46.00000 183.342
46.01000 178.935
46.02000 175.463
46.03000 175.318
46.04000 175.468
46.05000 175.575
46.06000 172.500
46.07000 170.042
46.08000 169.456
46.09000 171.955
46.10000 174.500
46.11000 174.828
46.12000 172.731
46.13000 170.641
46.14000 173.092
46.15000 178.725
46.16000 184.162
46.17000 183.250
46.18000 179.279
46.19000 175.665
46.20000 177.231
46.21000 180.500
46.22000 183.473
46.23000 179.527
46.24000 174.688
46.25000 170.546
46.26000 170.010
46.27000 169.987
46.28000 169.926
46.29000 169.738
46.30000 169.539
46.31000 169.398
46.32000 171.043
46.33000 172.350
46.34000 173.592
46.35000 174.730
46.36000 175.867
46.37000 175.273
46.38000 172.860
46.39000 170.458
46.40000 173.797
46.41000 180.994
46.42000 187.951
46.43000 187.838
46.44000 184.435
46.45000 180.866
46.46000 175.030
46.47000 168.475
46.48000 162.544
46.49000 161.227
46.50000 160.932
46.51000 161.062
46.52000 163.306
46.53000 165.838
46.54000 167.349
46.55000 165.477
46.56000 163.338
46.57000 161.839
46.58000 164.755
46.59000 167.088
46.60000 170.264
46.61000 174.731
46.62000 179.213
46.63000 178.978
46.64000 173.988
46.65000 169.027
46.66000 166.790
46.67000 166.363
46.68000 165.900
46.69000 164.474
46.70000 162.616
46.71000 161.123
46.72000 164.354
46.73000 169.031
46.74000 173.242
46.75000 170.011
46.76000 165.843
46.77000 162.699
46.78000 164.444
46.79000 166.825
46.80000 168.372
46.81000 167.250
46.82000 165.928
46.83000 165.013
46.84000 174.435
46.85000 181.799
46.86000 187.525
46.87000 190.828
46.88000 194.109
46.89000 193.345
46.90000 188.667
46.91000 184.022
46.92000 178.797
46.93000 173.291
46.94000 168.009
46.95000 168.336
46.96000 171.096
46.97000 173.318
46.98000 168.964
46.99000 162.667
47.00000 157.028
47.01000 158.272
47.02000 160.541
47.03000 162.390
47.04000 162.312
47.05000 161.994
47.06000 161.739
47.07000 161.680
47.08000 161.634
47.09000 161.603
47.10000 167.864
47.11000 172.705
47.12000 173.097
47.13000 167.153
47.14000 161.162
47.15000 158.423
47.16000 158.707
47.17000 158.989
47.18000 158.184
47.19000 156.738
47.20000 155.518
47.21000 159.555
47.22000 165.793
47.23000 171.321
47.24000 168.635
47.25000 163.608
47.26000 159.131
47.27000 162.160
47.28000 166.027
47.29000 168.537
47.30000 165.034
47.31000 160.818
47.32000 158.053
47.33000 159.608
47.34000 161.451
47.35000 162.698
47.36000 159.467
47.37000 156.963
47.38000 157.978
47.39000 163.824
47.40000 169.694
47.41000 169.463
47.42000 163.780
47.43000 158.154
47.44000 155.543
47.45000 154.741
47.46000 154.080
47.47000 156.451
47.48000 160.048
47.49000 163.325
47.50000 163.089
47.51000 161.887
47.52000 160.823
47.53000 156.575
47.54000 152.398
47.55000 149.747
47.56000 153.601
47.57000 158.192
47.58000 161.923
47.59000 163.178
47.60000 164.278
47.61000 165.013
47.62000 159.123
47.63000 154.628
47.64000 152.687
47.65000 154.124
47.66000 155.576
47.67000 155.909
47.68000 155.281
47.69000 154.660
47.70000 153.837
47.71000 152.921
47.72000 152.171
47.73000 154.724
47.74000 158.569
47.75000 162.054
47.76000 161.796
47.77000 160.546
47.78000 159.445
47.79000 159.249
47.80000 159.217
47.81000 158.752
47.82000 156.513
47.83000 154.083
47.84000 152.672
47.85000 154.093
47.86000 155.680
47.87000 156.727
47.88000 159.716
47.89000 161.953
47.90000 163.664
47.91000 164.707
47.92000 165.742
47.93000 164.246
47.94000 160.659
47.95000 157.118
47.96000 157.897
47.97000 160.981
47.98000 163.799
47.99000 161.685
48.00000 157.710
48.01000 154.055
48.02000 153.570
48.03000 153.897
48.04000 154.183
48.05000 151.763
48.06000 149.298
48.07000 148.923
48.08000 156.819
48.09000 165.565
48.10000 170.406
48.11000 164.778
48.12000 158.575
48.13000 154.535
48.14000 163.620
48.15000 170.487
48.16000 170.930
48.17000 163.501
48.18000 156.072
48.19000 154.933
48.20000 158.795
48.21000 162.600
48.22000 164.080
48.23000 164.313
48.24000 164.557
48.25000 165.003
48.26000 165.522
48.27000 165.815
48.28000 163.973
48.29000 161.605
48.30000 159.543
48.31000 162.167
48.32000 165.051
48.33000 167.271
48.34000 166.956
48.35000 166.394
48.36000 166.485
48.37000 168.271
48.38000 170.144
48.39000 171.347
48.40000 167.739
48.41000 165.040
48.42000 161.746
48.43000 157.752
48.44000 153.766
48.45000 152.197
48.46000 152.478
48.47000 152.754
48.48000 153.656
48.49000 154.841
48.50000 156.030
48.51000 157.297
48.52000 158.591
48.53000 159.695
48.54000 159.103
48.55000 158.107
48.56000 157.245
48.57000 154.230
48.58000 151.383
48.59000 148.568
48.60000 145.867
48.61000 143.177
48.62000 142.709
48.63000 147.798
48.64000 153.152
48.65000 156.546
48.66000 157.438
48.67000 158.054
48.68000 159.220
48.69000 161.007
48.70000 162.787
48.71000 162.959
48.72000 161.947
48.73000 160.953
48.74000 160.036
48.75000 159.190
48.76000 158.357
48.77000 157.736
48.78000 157.187
48.79000 156.457
48.80000 154.184
48.81000 151.557
48.82000 149.298
48.83000 153.577
48.84000 158.017
48.85000 161.051
48.86000 159.097
48.87000 156.703
48.88000 154.798
48.89000 154.071
48.90000 153.397
48.91000 152.975
48.92000 155.368
48.93000 157.125
48.94000 158.300
48.95000 158.841
48.96000 159.394
48.97000 161.727
48.98000 165.326
48.99000 168.850
49.00000 164.312
49.01000 156.225
49.02000 148.595
49.03000 147.535
49.04000 148.629
49.05000 150.227
49.06000 155.941
49.07000 162.562
49.08000 168.220
49.09000 164.018
49.10000 159.300
49.11000 154.607
49.12000 150.004
49.13000 145.408
49.14000 143.915
49.15000 149.654
49.16000 155.689
49.17000 159.408
49.18000 157.953
49.19000 156.862
49.20000 157.435
49.21000 159.749
49.22000 162.020
49.23000 159.252
49.24000 153.033
49.25000 146.956
49.26000 147.788
49.27000 151.655
49.28000 155.496
49.29000 158.979
49.30000 162.348
49.31000 164.854
49.32000 160.636
49.33000 154.993
49.34000 150.202
49.35000 150.038
49.36000 150.426
49.37000 150.313
49.38000 148.542
49.39000 146.641
49.40000 144.275
49.41000 140.862
49.42000 137.409
49.43000 135.314
49.44000 144.827
49.45000 151.705
49.46000 155.026
49.47000 154.774
49.48000 154.529
49.49000 155.021
49.50000 155.997
49.51000 156.950
49.52000 154.614
49.53000 150.976
49.54000 147.722
49.55000 149.395
49.56000 152.573
49.57000 155.381
49.58000 155.441
49.59000 154.940
49.60000 154.517
49.61000 153.509
49.62000 152.604
49.63000 152.290
49.64000 153.863
49.65000 155.576
49.66000 156.826
49.67000 157.070
49.68000 157.280
49.69000 157.405
49.70000 157.253
49.71000 157.144
49.72000 156.376
49.73000 154.973
49.74000 153.587
49.75000 153.604
49.76000 154.516
49.77000 155.402
49.78000 155.796
49.79000 155.967
49.80000 155.861
49.81000 152.383
49.82000 147.912
49.83000 144.375
49.84000 147.501
49.85000 151.935
49.86000 155.648
49.87000 156.739
49.88000 157.376
49.89000 156.827
49.90000 152.631
49.91000 148.178
49.92000 146.218
49.93000 149.491
49.94000 152.929
49.95000 154.953
49.96000 151.487
49.97000 149.014
49.98000 150.067
49.99000 154.386
50.00000 158.618
50.01000 156.617
50.02000 150.790
50.03000 145.136
50.04000 149.641
50.05000 157.938
50.06000 165.570
50.07000 165.555
50.08000 163.365
50.09000 161.178
50.10000 159.007
50.11000 156.839
50.12000 155.036
50.13000 157.421
50.14000 159.804
50.15000 161.065
50.16000 158.991
50.17000 156.696
50.18000 156.357
50.19000 159.983
50.20000 163.724
50.21000 165.891
50.22000 172.872
50.23000 177.787
50.24000 181.423
50.25000 183.920
50.26000 186.357
50.27000 185.054
50.28000 181.536
50.29000 178.132
50.30000 179.760
50.31000 183.217
50.32000 186.587
50.33000 189.000
50.34000 191.152
50.35000 192.743
50.36000 190.668
50.37000 187.928
50.38000 185.666
50.39000 192.989
50.40000 199.913
50.41000 205.693
50.42000 208.194
50.43000 210.491
50.44000 213.826
50.45000 219.195
50.46000 224.617
50.47000 227.706
50.48000 226.994
50.49000 226.490
50.50000 228.596
50.51000 232.939
50.52000 237.213
50.53000 237.761
50.54000 236.180
50.55000 234.654
50.56000 235.195
50.57000 236.464
50.58000 237.876
50.59000 240.772
50.60000 244.061
50.61000 246.556
50.62000 244.074
50.63000 240.724
50.64000 237.980
50.65000 233.415
50.66000 229.511
50.67000 225.575
50.68000 221.549
50.69000 217.517
50.70000 217.181
50.71000 223.827
50.72000 230.638
50.73000 234.453
50.74000 221.527
50.75000 212.537
50.76000 207.487
50.77000 205.682
50.78000 203.861
50.79000 201.262
50.80000 198.234
50.81000 195.321
50.82000 194.735
50.83000 195.007
50.84000 195.286
50.85000 195.631
50.86000 195.993
50.87000 196.672
50.88000 199.259
50.89000 202.164
50.90000 204.527
50.91000 196.459
50.92000 189.003
50.93000 182.705
50.94000 179.502
50.95000 176.467
50.96000 174.683
50.97000 175.178
50.98000 175.721
50.99000 176.020
51.00000 173.122
51.01000 171.120
51.02000 169.012
51.03000 166.820
51.04000 164.646
51.05000 163.268
51.06000 162.312
51.07000 161.395
51.08000 158.656
51.09000 155.478
51.10000 152.523
51.11000 151.659
51.12000 151.310
51.13000 151.360
51.14000 153.721
51.15000 156.454
51.16000 158.658
51.17000 160.790
51.18000 162.517
51.19000 162.888
51.20000 159.761
51.21000 156.456
51.22000 153.694
51.23000 151.885
51.24000 150.094
51.25000 149.126
51.26000 154.154
51.27000 157.583
51.28000 156.637
51.29000 152.353
51.30000 148.159
51.31000 147.439
51.32000 148.505
51.33000 149.524
51.34000 149.163
51.35000 148.376
51.36000 147.594
51.37000 146.858
51.38000 146.132
51.39000 145.383
51.40000 144.508
51.41000 143.613
51.42000 142.897
51.43000 147.623
51.44000 151.852
51.45000 152.931
51.46000 146.160
51.47000 139.017
51.48000 136.065
51.49000 140.229
51.50000 144.511
51.51000 146.783
51.52000 149.991
51.53000 152.165
51.54000 152.947
51.55000 152.704
51.56000 152.366
51.57000 148.701
51.58000 143.384
51.59000 138.316
51.60000 141.167
51.61000 146.296
51.62000 150.621
51.63000 148.083
51.64000 143.981
51.65000 141.485
51.66000 147.557
51.67000 154.891
51.68000 160.712
51.69000 154.680
51.70000 148.988
51.71000 144.958
51.72000 144.931
51.73000 145.080
51.74000 146.365
51.75000 149.512
51.76000 152.687
51.77000 154.340
51.78000 150.934
51.79000 148.624
51.80000 145.331
51.81000 141.341
51.82000 137.419
51.83000 135.671
51.84000 134.965
51.85000 134.294
51.86000 137.261
51.87000 141.100
51.88000 144.512
51.89000 144.449
51.90000 143.622
51.91000 143.303
51.92000 145.592
51.93000 148.248
51.94000 150.339
51.95000 145.571
51.96000 141.295
51.97000 138.586
51.98000 139.517
51.99000 140.597
52.00000 141.650
52.01000 142.663
52.02000 143.676
52.03000 144.192
52.04000 143.464
52.05000 142.966
52.06000 141.377
52.07000 139.043
52.08000 136.799
52.09000 137.179
52.10000 138.772
52.11000 140.280
52.12000 142.233
52.13000 144.159
52.14000 145.558
52.15000 142.866
52.16000 139.309
52.17000 136.616
52.18000 138.182
52.19000 140.324
52.20000 141.995
52.21000 141.285
52.22000 140.570
52.23000 140.866
52.24000 143.433
52.25000 146.085
52.26000 145.684
52.27000 140.633
52.28000 135.533
52.29000 132.981
52.30000 133.989
52.31000 134.679
52.32000 137.113
52.33000 140.695
52.34000 144.132
52.35000 143.689
52.36000 141.514
52.37000 139.462
52.38000 138.890
52.39000 138.778
52.40000 138.747
52.41000 139.316
52.42000 140.008
52.43000 139.194
52.44000 131.237
52.45000 122.358
52.46000 115.491
52.47000 121.929
52.48000 127.822
52.49000 132.589
52.50000 134.919
52.51000 137.164
52.52000 138.600
52.53000 138.847
52.54000 139.084
52.55000 138.611
52.56000 137.455
52.57000 136.315
52.58000 136.412
52.59000 137.295
52.60000 138.083
52.61000 136.516
52.62000 133.933
52.63000 131.506
52.64000 136.227
52.65000 142.454
52.66000 147.260
52.67000 141.963
52.68000 134.690
52.69000 129.675
52.70000 134.978
52.71000 141.554
52.72000 146.594
52.73000 137.270
52.74000 129.112
52.75000 126.606
52.76000 135.932
52.77000 145.630
52.78000 148.652
52.79000 142.219
52.80000 135.720
52.81000 133.864
52.82000 136.295
52.83000 138.710
52.84000 140.022
52.85000 140.658
52.86000 141.262
52.87000 141.146
52.88000 140.728
52.89000 140.338
52.90000 142.107
52.91000 144.273
52.92000 146.564
52.93000 149.704
52.94000 153.004
52.95000 154.774
52.96000 149.819
52.97000 144.070
52.98000 139.706
52.99000 142.781
53.00000 145.584
53.01000 145.956
53.02000 141.419
53.03000 136.742
53.04000 137.722
53.05000 146.423
53.06000 155.164
53.07000 155.856
53.08000 149.411
53.09000 143.064
53.10000 142.670
53.11000 145.789
53.12000 148.832
53.13000 150.244
53.14000 151.000
53.15000 151.705
53.16000 148.497
53.17000 144.623
53.18000 141.960
53.19000 147.191
53.20000 153.850
53.21000 159.193
53.22000 158.965
53.23000 158.112
53.24000 157.470
53.25000 150.010
53.26000 143.844
53.27000 140.823
53.28000 143.938
53.29000 147.213
53.30000 149.177
53.31000 149.417
53.32000 149.649
53.33000 147.337
53.34000 142.863
53.35000 138.502
53.36000 140.243
53.37000 145.461
53.38000 150.453
53.39000 150.980
53.40000 149.774
53.41000 148.653
53.42000 150.045
53.43000 151.898
53.44000 153.087
53.45000 150.125
53.46000 146.441
53.47000 144.180
53.48000 147.725
53.49000 151.892
53.50000 154.996
53.51000 152.083
53.52000 149.545
53.53000 147.647
53.54000 146.956
53.55000 146.293
53.56000 145.448
53.57000 144.373
53.58000 143.297
53.59000 143.880
53.60000 145.818
53.61000 147.684
53.62000 146.147
53.63000 142.738
53.64000 139.476
53.65000 138.909
53.66000 139.353
53.67000 139.763
53.68000 138.296
53.69000 136.550
53.70000 135.143
53.71000 135.773
53.72000 136.743
53.73000 137.478
53.74000 137.292
53.75000 137.012
53.76000 136.806
53.77000 136.760
53.78000 136.731
53.79000 135.963
53.80000 133.851
53.81000 131.710
53.82000 133.937
53.83000 141.482
53.84000 149.025
53.85000 149.843
53.86000 145.371
53.87000 140.973
53.88000 139.811
53.89000 140.366
53.90000 140.954
53.91000 142.119
53.92000 143.493
53.93000 144.758
53.94000 144.795
53.95000 144.559
53.96000 143.980
53.97000 141.422
53.98000 138.548
53.99000 135.765
54.00000 133.325
54.01000 130.918
54.02000 129.161
54.03000 133.454
54.04000 136.999
54.05000 139.714
54.06000 140.973
54.07000 142.205
54.08000 142.383
54.09000 141.326
54.10000 140.269
54.11000 137.869
54.12000 134.469
54.13000 131.242
54.14000 134.679
54.15000 141.531
54.16000 147.928
54.17000 146.986
54.18000 143.476
54.19000 140.260
54.20000 138.225
54.21000 136.660
54.22000 135.722
54.23000 138.245
54.24000 141.298
54.25000 142.798
54.26000 138.617
54.27000 133.913
54.28000 130.515
54.29000 133.595
54.30000 136.192
54.31000 138.038
54.32000 138.614
54.33000 139.169
54.34000 137.672
54.35000 133.864
54.36000 130.067
54.37000 129.976
54.38000 132.578
54.39000 135.142
54.40000 136.379
54.41000 136.960
54.42000 137.630
54.43000 139.668
54.44000 142.167
54.45000 144.447
54.46000 147.629
54.47000 150.633
54.48000 152.389
54.49000 147.516
54.50000 141.668
54.51000 137.025
54.52000 136.632
54.53000 136.609
54.54000 136.593
54.55000 130.480
54.56000 125.611
54.57000 123.792
54.58000 126.953
54.59000 130.186
54.60000 132.344
54.61000 133.339
54.62000 134.329
54.63000 133.995
54.64000 132.738
54.65000 131.611
54.66000 134.576
54.67000 139.495
54.68000 144.103
54.69000 144.261
54.70000 142.969
54.71000 141.796
54.72000 137.852
54.73000 133.833
54.74000 130.619
54.75000 131.517
54.76000 132.993
54.77000 135.153
54.78000 139.639
54.79000 144.318
54.80000 147.625
54.81000 140.996
54.82000 135.656
54.83000 134.212
54.84000 138.905
54.85000 143.673
54.86000 148.009
54.87000 151.894
54.88000 155.759
54.89000 152.100
54.90000 143.429
54.91000 135.045
54.92000 134.988
54.93000 138.773
54.94000 142.457
54.95000 144.789
54.96000 146.696
54.97000 148.419
54.98000 147.146
54.99000 145.472
55.00000 143.756
55.01000 141.834
55.02000 139.884
55.03000 138.282
55.04000 137.823
55.05000 137.454
55.06000 137.196
55.07000 144.420
55.08000 150.090
55.09000 151.865
55.10000 147.724
55.11000 143.522
55.12000 144.864
55.13000 151.740
55.14000 158.573
55.15000 163.546
55.16000 167.245
55.17000 170.708
55.18000 167.878
55.19000 162.244
55.20000 157.061
55.21000 157.613
55.22000 159.907
55.23000 161.969
55.24000 160.014
55.25000 157.590
55.26000 156.387
55.27000 160.961
55.28000 166.277
55.29000 171.566
55.30000 176.767
55.31000 181.961
55.32000 185.550
55.33000 187.195
55.34000 188.381
55.35000 191.922
55.36000 198.909
55.37000 205.927
55.38000 209.821
55.39000 210.723
55.40000 211.618
55.41000 214.507
55.42000 218.588
55.43000 222.801
55.44000 230.254
55.45000 239.099
55.46000 248.014
55.47000 257.755
55.48000 267.739
55.49000 276.667
55.50000 289.703
55.51000 301.767
55.52000 311.883
55.53000 313.128
55.54000 313.282
55.55000 316.825
55.56000 330.734
55.57000 345.365
55.58000 355.354
55.59000 371.367
55.60000 383.484
55.61000 397.549
55.62000 414.363
55.63000 431.192
55.64000 436.093
55.65000 430.014
55.66000 423.989
55.67000 435.566
55.68000 457.450
55.69000 479.024
55.70000 493.532
55.71000 505.106
55.72000 516.019
55.73000 519.399
55.74000 520.651
55.75000 521.764
55.76000 529.940
55.77000 538.187
55.78000 546.527
55.79000 555.275
55.80000 564.070
55.81000 571.108
55.82000 572.962
55.83000 574.476
55.84000 575.497
55.85000 577.057
55.86000 578.230
55.87000 575.519
55.88000 567.525
55.89000 559.500
55.90000 550.145
55.91000 539.614
55.92000 529.192
55.93000 529.783
55.94000 536.702
55.95000 542.697
55.96000 529.198
55.97000 507.880
55.98000 487.424
55.99000 476.283
56.00000 467.680
56.01000 460.070
56.02000 461.554
56.03000 464.252
56.04000 461.800
56.05000 437.598
56.06000 410.961
56.07000 389.426
56.08000 382.435
56.09000 376.339
56.10000 372.277
56.11000 359.464
56.12000 349.813
56.13000 339.023
56.14000 326.742
56.15000 314.459
56.16000 304.904
56.17000 297.670
56.18000 290.522
56.19000 279.608
56.20000 266.879
56.21000 254.458
56.22000 248.099
56.23000 244.089
56.24000 239.811
56.25000 232.781
56.26000 225.029
56.27000 218.209
56.28000 209.512
56.29000 201.748
56.30000 195.257
56.31000 193.942
56.32000 193.179
56.33000 192.253
56.34000 190.876
56.35000 189.472
56.36000 188.550
56.37000 184.016
56.38000 180.616
56.39000 176.999
56.40000 173.109
56.41000 169.219
56.42000 165.601
56.43000 162.207
56.44000 158.858
56.45000 156.808
56.46000 155.507
56.47000 154.363
56.48000 156.102
56.49000 158.919
56.50000 161.089
56.51000 156.941
56.52000 151.192
56.53000 146.164
56.54000 142.751
56.55000 140.057
56.56000 138.650
56.57000 142.293
56.58000 146.449
56.59000 148.778
56.60000 146.251
56.61000 143.461
56.62000 141.651
56.63000 138.603
56.64000 136.352
56.65000 136.913
56.66000 140.886
56.67000 144.854
56.68000 145.196
56.69000 142.683
56.70000 140.208
56.71000 135.968
56.72000 130.950
56.73000 126.280
56.74000 127.578
56.75000 131.032
56.76000 134.441
56.77000 137.436
56.78000 140.331
56.79000 142.848
56.80000 137.578
56.81000 132.026
56.82000 128.230
56.83000 131.076
56.84000 134.564
56.85000 136.351
56.86000 133.775
56.87000 130.980
56.88000 129.190
56.89000 130.437
56.90000 131.386
56.91000 130.815
56.92000 128.472
56.93000 126.139
56.94000 126.724
56.95000 129.523
56.96000 132.274
56.97000 133.089
56.98000 132.920
56.99000 132.586
57.00000 129.582
57.01000 125.648
57.02000 122.471
57.03000 125.993
57.04000 131.093
57.05000 135.498
57.06000 132.009
57.07000 128.021
57.08000 124.780
57.09000 124.265
57.10000 123.998
57.11000 124.560
57.12000 127.172
57.13000 129.881
57.14000 131.592
57.15000 122.559
57.16000 115.888
57.17000 114.242
57.18000 118.236
57.19000 122.218
57.20000 123.316
57.21000 122.307
57.22000 121.316
57.23000 121.248
57.24000 121.619
57.25000 122.032
57.26000 123.067
57.27000 124.313
57.28000 125.560
57.29000 126.820
57.30000 128.084
57.31000 129.169
57.32000 129.098
57.33000 128.896
57.34000 127.764
57.35000 123.359
57.36000 118.671
57.37000 116.334
57.38000 119.625
57.39000 123.159
57.40000 125.361
57.41000 116.030
57.42000 109.189
57.43000 109.251
57.44000 116.762
57.45000 124.262
57.46000 129.978
57.47000 134.438
57.48000 138.804
57.49000 135.462
57.50000 128.726
57.51000 122.655
57.52000 126.021
57.53000 132.454
57.54000 137.496
57.55000 131.321
57.56000 122.699
57.57000 115.344
57.58000 117.893
57.59000 121.208
57.60000 124.861
57.61000 129.664
57.62000 134.562
57.63000 136.493
57.64000 131.568
57.65000 126.368
57.66000 123.176
57.67000 126.364
57.68000 128.703
57.69000 128.338
57.70000 125.172
57.71000 122.044
57.72000 123.326
57.73000 127.598
57.74000 131.771
57.75000 128.437
57.76000 121.941
57.77000 115.945
57.78000 116.653
57.79000 119.463
57.80000 121.743
57.81000 119.929
57.82000 117.256
57.83000 114.991
57.84000 119.760
57.85000 124.546
57.86000 128.201
57.87000 128.157
57.88000 127.825
57.89000 128.041
57.90000 129.479
57.91000 130.962
57.92000 131.859
57.93000 129.520
57.94000 127.829
57.95000 128.207
57.96000 130.643
57.97000 133.025
57.98000 130.346
57.99000 124.358
58.00000 118.523
58.01000 116.647
58.02000 116.536
58.03000 116.545
58.04000 118.079
58.05000 120.073
58.06000 121.780
58.07000 121.367
58.08000 120.525
58.09000 119.817
58.10000 121.060
58.11000 122.305
58.12000 123.023
58.13000 122.080
58.14000 121.015
58.15000 120.771
58.16000 122.299
58.17000 123.886
58.18000 124.832
58.19000 121.551
58.20000 119.202
58.21000 118.138
58.22000 118.303
58.23000 118.476
58.24000 119.312
58.25000 120.565
58.26000 121.783
58.27000 123.843
58.28000 126.144
58.29000 128.148
58.30000 126.591
58.31000 123.995
58.32000 121.900
58.33000 123.336
58.34000 125.459
58.35000 127.234
58.36000 125.027
58.37000 122.790
58.38000 121.599
58.39000 123.597
58.40000 125.816
58.41000 126.535
58.42000 124.135
58.43000 121.637
58.44000 120.173
58.45000 120.522
58.46000 120.776
58.47000 121.007
58.48000 121.215
58.49000 121.431
58.50000 122.172
58.51000 123.234
58.52000 124.263
58.53000 122.392
58.54000 119.481
58.55000 116.902
58.56000 118.101
58.57000 120.363
58.58000 122.315
58.59000 122.172
58.60000 121.639
58.61000 121.196
58.62000 120.292
58.63000 119.499
58.64000 118.893
58.65000 118.836
58.66000 118.815
58.67000 117.893
58.68000 115.160
58.69000 112.377
58.70000 110.771
58.71000 119.002
58.72000 124.799
58.73000 123.711
58.74000 116.552
58.75000 109.508
58.76000 109.328
58.77000 113.176
58.78000 116.897
58.79000 118.549
58.80000 119.327
58.81000 119.826
58.82000 117.319
58.83000 113.996
58.84000 111.588
58.85000 115.105
58.86000 119.685
58.87000 123.459
58.88000 124.342
58.89000 124.803
58.90000 124.778
58.91000 123.373
58.92000 121.884
58.93000 120.291
58.94000 118.499
58.95000 116.702
58.96000 115.682
58.97000 119.239
58.98000 121.724
58.99000 121.188
59.00000 118.090
59.01000 115.045
59.02000 114.825
59.03000 116.205
59.04000 117.535
59.05000 115.937
59.06000 113.370
59.07000 111.203
59.08000 113.128
59.09000 116.126
59.10000 118.665
59.11000 118.352
59.12000 117.548
59.13000 116.890
59.14000 113.928
59.15000 111.301
59.16000 109.156
59.17000 108.335
59.18000 107.590
59.19000 108.274
59.20000 111.636
59.21000 115.060
59.22000 116.969
59.23000 121.563
59.24000 124.740
59.25000 124.412
59.26000 121.227
59.27000 118.062
59.28000 115.882
59.29000 114.240
59.30000 112.660
59.31000 112.497
59.32000 112.840
59.33000 113.325
59.34000 115.208
59.35000 117.443
59.36000 119.388
59.37000 119.598
59.38000 119.522
59.39000 119.459
59.40000 120.390
59.41000 121.230
59.42000 120.707
59.43000 116.570
59.44000 112.239
59.45000 110.049
59.46000 111.728
59.47000 113.487
59.48000 114.451
59.49000 121.098
59.50000 125.666
59.51000 126.535
59.52000 124.501
59.53000 122.487
59.54000 121.304
59.55000 120.559
59.56000 119.845
59.57000 121.293
59.58000 123.371
59.59000 125.050
59.60000 123.029
59.61000 120.107
59.62000 117.188
59.63000 114.281
59.64000 111.377
59.65000 109.038
59.66000 110.662
59.67000 112.288
59.68000 113.415
59.69000 113.265
59.70000 113.051
59.71000 113.708
59.72000 115.883
59.73000 118.085
59.74000 119.270
59.75000 118.224
59.76000 117.511
59.77000 117.540
59.78000 118.130
59.79000 118.703
59.80000 118.617
59.81000 118.195
59.82000 117.793
59.83000 114.650
59.84000 110.841
59.85000 107.995
59.86000 113.649
59.87000 121.296
59.88000 127.755
59.89000 127.687
59.90000 126.624
59.91000 125.776
59.92000 123.077
59.93000 120.761
59.94000 118.497
59.95000 116.357
59.96000 114.224
59.97000 113.938
59.98000 116.759
59.99000 119.631
60.00000 121.148
60.01000 111.219
60.02000 104.511
60.03000 104.579
60.04000 109.581
60.05000 114.515
60.06000 117.125
60.07000 118.592
60.08000 119.989
60.09000 117.949
60.10000 114.990
60.11000 112.513
60.12000 114.092
60.13000 116.589
60.14000 118.403
60.15000 116.616
60.16000 114.305
60.17000 112.474
60.18000 114.963
60.19000 117.264
60.20000 118.801
60.21000 118.514
60.22000 118.148
60.23000 117.214
60.24000 115.358
60.25000 113.489
60.26000 112.520
60.27000 116.797
60.28000 119.663
60.29000 119.763
60.30000 117.922
60.31000 116.080
60.32000 114.194
60.33000 112.288
60.34000 110.478
60.35000 110.956
60.36000 112.081
60.37000 113.652
60.38000 118.800
60.39000 124.727
60.40000 129.662
60.41000 129.562
60.42000 128.759
60.43000 128.128
60.44000 127.276
60.45000 126.581
60.46000 125.476
60.47000 123.427
60.48000 121.340
60.49000 119.476
60.50000 117.959
60.51000 116.447
60.52000 115.679
60.53000 113.395
60.54000 111.880
60.55000 112.077
60.56000 113.432
60.57000 114.794
60.58000 116.376
60.59000 118.058
60.60000 119.649
60.61000 115.936
60.62000 110.997
60.63000 106.939
60.64000 109.638
60.65000 113.752
60.66000 117.295
60.67000 118.049
60.68000 118.430
60.69000 118.727
60.70000 117.119
60.71000 115.721
60.72000 115.092
60.73000 116.173
60.74000 117.317
60.75000 119.785
60.76000 124.250
60.77000 128.736
60.78000 128.575
60.79000 123.808
60.80000 119.072
60.81000 117.156
60.82000 117.081
60.83000 117.001
60.84000 116.808
60.85000 116.565
60.86000 116.337
60.87000 117.507
60.88000 118.966
60.89000 120.461
60.90000 122.227
60.91000 124.047
60.92000 125.399
60.93000 124.553
60.94000 123.426
60.95000 122.557
60.96000 122.160
60.97000 121.872
60.98000 120.502
60.99000 116.805
61.00000 113.030
61.01000 111.626
61.02000 113.674
61.03000 115.752
61.04000 116.116
61.05000 114.851
61.06000 113.620
61.07000 115.090
61.08000 118.259
61.09000 121.288
61.10000 120.944
61.11000 119.158
61.12000 117.480
61.13000 119.137
61.14000 121.533
61.15000 123.491
61.16000 122.368
61.17000 120.649
61.18000 118.912
61.19000 117.096
61.20000 115.269
61.21000 113.872
61.22000 115.356
61.23000 116.682
61.24000 118.679
61.25000 122.067
61.26000 125.497
61.27000 126.190
61.28000 123.042
61.29000 119.869
61.30000 118.678
61.31000 119.299
61.32000 119.964
61.33000 123.598
61.34000 129.035
61.35000 134.040
61.36000 129.372
61.37000 120.709
61.38000 112.606
61.39000 114.696
61.40000 119.194
61.41000 123.513
61.42000 126.636
61.43000 129.535
61.44000 131.085
61.45000 126.757
61.46000 121.744
61.47000 117.947
61.48000 125.279
61.49000 131.601
61.50000 138.872
61.51000 148.043
61.52000 157.268
61.53000 169.025
61.54000 184.207
61.55000 199.400
61.56000 218.750
61.57000 241.719
61.58000 264.530
61.59000 278.036
61.60000 286.096
61.61000 294.230
61.62000 303.893
61.63000 314.166
61.64000 323.737
61.65000 328.839
61.66000 332.360
61.67000 335.522
61.68000 336.365
61.69000 336.792
61.70000 336.338
61.71000 332.183
61.72000 327.617
61.73000 324.191
61.74000 314.999
61.75000 307.543
61.76000 299.336
61.77000 289.673
61.78000 279.974
61.79000 266.066
61.80000 246.678
61.81000 227.285
61.82000 207.955
61.83000 188.725
61.84000 169.745
61.85000 163.760
61.86000 165.111
61.87000 166.093
61.88000 159.883
61.89000 150.904
61.90000 142.574
61.91000 141.991
61.92000 143.287
61.93000 143.917
61.94000 140.417
61.95000 136.207
61.96000 132.409
61.97000 130.275
61.98000 128.317
61.99000 126.862
62.00000 127.247
62.01000 127.629
62.02000 128.496
62.03000 130.272
62.04000 132.068
62.05000 132.537
62.06000 131.344
62.07000 130.148
62.08000 128.085
62.09000 125.327
62.10000 122.657
62.11000 124.039
62.12000 127.630
62.13000 131.030
62.14000 130.968
62.15000 129.619
62.16000 128.373
62.17000 128.375
62.18000 128.659
62.19000 129.164
62.20000 130.984
62.21000 133.021
62.22000 134.813
62.23000 135.652
62.24000 136.395
62.25000 136.942
62.26000 128.486
62.27000 121.574
62.28000 118.859
62.29000 123.711
62.30000 128.717
62.31000 129.948
62.32000 126.629
62.33000 123.308
62.34000 124.024
62.35000 127.881
62.36000 131.713
62.37000 134.463
62.38000 136.644
62.39000 138.484
62.40000 134.529
62.41000 128.494
62.42000 122.943
62.43000 126.050
62.44000 130.703
62.45000 134.523
62.46000 133.596
62.47000 131.918
62.48000 130.041
62.49000 127.418
62.50000 124.725
62.51000 122.763
62.52000 125.321
62.53000 127.462
62.54000 128.736
62.55000 128.501
62.56000 128.239
62.57000 129.048
62.58000 131.100
62.59000 133.148
62.60000 132.019
62.61000 128.520
62.62000 125.069
62.63000 123.415
62.64000 122.673
62.65000 121.979
62.66000 122.054
62.67000 122.395
62.68000 122.708
62.69000 126.562
62.70000 130.729
62.71000 134.059
62.72000 132.812
62.73000 130.872
62.74000 129.744
62.75000 131.564
62.76000 133.651
62.77000 135.154
62.78000 139.735
62.79000 143.353
62.80000 142.010
62.81000 132.342
62.82000 122.542
62.83000 118.123
62.84000 119.705
62.85000 121.286
62.86000 126.561
62.87000 134.448
62.88000 142.066
62.89000 140.524
62.90000 134.492
62.91000 128.798
62.92000 128.155
62.93000 129.202
62.94000 130.157
62.95000 133.103
62.96000 136.111
62.97000 138.026
62.98000 134.185
62.99000 129.508
63.00000 125.693
63.01000 124.893
63.02000 124.351
63.03000 123.965
63.04000 129.139
63.05000 133.265
63.06000 135.471
63.07000 134.570
63.08000 133.627
63.09000 134.244
63.10000 136.532
63.11000 138.810
63.12000 137.827
63.13000 134.598
63.14000 131.372
63.15000 128.242
63.16000 125.158
63.17000 122.431
63.18000 124.727
63.19000 128.645
63.20000 132.199
63.21000 133.267
63.22000 133.733
63.23000 133.850
63.24000 132.205
63.25000 130.315
63.26000 129.572
63.27000 132.695
63.28000 136.133
63.29000 138.557
63.30000 136.230
63.31000 134.323
63.32000 135.233
63.33000 140.539
63.34000 145.897
63.35000 144.260
63.36000 135.423
63.37000 126.634
63.38000 129.296
63.39000 139.545
63.40000 149.387
63.41000 147.661
63.42000 140.646
63.43000 134.365
63.44000 137.836
63.45000 144.347
63.46000 150.223
63.47000 144.884
63.48000 138.137
63.49000 133.126
63.50000 136.561
63.51000 141.119
63.52000 143.392
63.53000 138.230
63.54000 132.495
63.55000 128.498
63.56000 129.724
63.57000 130.792
63.58000 131.348
63.59000 131.133
63.60000 130.911
63.61000 130.384
63.62000 129.558
63.63000 128.737
63.64000 130.597
63.65000 134.145
63.66000 137.632
63.67000 139.518
63.68000 140.697
63.69000 141.783
63.70000 141.711
63.71000 141.291
63.72000 140.913
63.73000 137.685
63.74000 134.360
63.75000 132.193
63.76000 135.449
63.77000 139.394
63.78000 142.525
63.79000 143.097
63.80000 143.483
63.81000 143.749
63.82000 148.435
63.83000 152.065
63.84000 151.951
63.85000 146.407
63.86000 140.817
63.87000 139.484
63.88000 142.187
63.89000 144.869
63.90000 144.183
63.91000 141.433
63.92000 138.785
63.93000 138.573
63.94000 139.399
63.95000 140.568
63.96000 145.795
63.97000 152.199
63.98000 157.919
63.99000 150.931
64.00000 142.707
64.01000 136.201
64.02000 137.439
64.03000 139.618
64.04000 141.617
64.05000 143.074
64.06000 144.493
64.07000 145.460
64.08000 149.906
64.09000 153.306
64.10000 153.014
64.11000 147.556
64.12000 142.067
64.13000 142.097
64.14000 147.157
64.15000 152.171
64.16000 155.964
64.17000 158.958
64.18000 161.862
64.19000 162.765
64.20000 162.842
64.21000 162.887
64.22000 162.551
64.23000 162.109
64.24000 161.716
64.25000 160.447
64.26000 159.206
64.27000 157.657
64.28000 154.771
64.29000 151.730
64.30000 149.963
64.31000 151.924
64.32000 154.125
64.33000 155.606
64.34000 156.683
64.35000 157.475
64.36000 158.114
64.37000 158.544
64.38000 158.976
64.39000 161.639
64.40000 166.255
64.41000 170.822
64.42000 170.928
64.43000 168.488
64.44000 166.189
64.45000 166.835
64.46000 168.650
64.47000 170.176
64.48000 168.614
64.49000 166.217
64.50000 164.099
64.51000 168.540
64.52000 173.383
64.53000 175.818
64.54000 168.176
64.55000 159.420
64.56000 154.619
64.57000 160.991
64.58000 168.040
64.59000 172.720
64.60000 172.182
64.61000 171.687
64.62000 171.099
64.63000 170.388
64.64000 169.682
64.65000 171.340
64.66000 174.989
64.67000 178.593
64.68000 178.563
64.69000 176.540
64.70000 174.714
64.71000 176.704
64.72000 180.157
64.73000 183.201
64.74000 182.082
64.75000 179.879
64.76000 177.944
64.77000 182.286
64.78000 186.942
64.79000 190.168
64.80000 187.630
64.81000 184.485
64.82000 183.623
64.83000 188.990
64.84000 194.711
64.85000 198.461
64.86000 193.592
64.87000 189.869
64.88000 189.750
64.89000 194.133
64.90000 198.526
64.91000 202.027
64.92000 204.803
64.93000 207.541
64.94000 210.193
64.95000 212.724
64.96000 215.178
64.97000 216.231
64.98000 216.766
64.99000 217.096
65.00000 215.453
65.01000 213.316
65.02000 211.449
65.03000 222.683
65.04000 234.140
65.05000 243.947
65.06000 247.345
65.07000 250.100
65.08000 251.941
65.09000 251.371
65.10000 250.673
65.11000 250.221
65.12000 245.912
65.13000 242.704
65.14000 243.515
65.15000 249.158
65.16000 254.811
65.17000 260.239
65.18000 265.493
65.19000 270.664
65.20000 279.600
65.21000 290.172
65.22000 300.623
65.23000 309.046
65.24000 316.743
65.25000 323.673
65.26000 323.565
65.27000 321.753
65.28000 320.181
65.29000 320.061
65.30000 320.154
65.31000 321.267
65.32000 326.200
65.33000 331.497
65.34000 336.745
65.35000 341.870
65.36000 346.989
65.37000 350.256
65.38000 365.000
65.39000 375.874
65.40000 381.636
65.41000 381.486
65.42000 381.342
65.43000 383.811
65.44000 388.243
65.45000 392.597
65.46000 396.242
65.47000 399.415
65.48000 402.720
65.49000 408.101
65.50000 414.200
65.51000 420.679
65.52000 430.482
65.53000 441.060
65.54000 450.185
65.55000 445.633
65.56000 440.018
65.57000 439.577
65.58000 457.829
65.59000 477.772
65.60000 495.426
65.61000 507.459
65.62000 519.234
65.63000 526.646
65.64000 568.279
65.65000 598.789
65.66000 646.834
65.67000 714.371
65.68000 782.063
65.69000 872.331
65.70000 978.936
65.71000 1083.461
65.72000 1223.832
65.73000 1375.859
65.74000 1527.569
65.75000 1674.550
65.76000 1819.953
65.77000 1962.412
65.78000 2080.275
65.79000 2192.618
65.80000 2288.923
65.81000 2355.628
65.82000 2408.343
65.83000 2451.743
65.84000 2462.682
65.85000 2470.839
65.86000 2480.005
65.87000 2491.569
65.88000 2503.234
65.89000 2510.473
65.90000 2447.592
65.91000 2401.660
65.92000 2326.819
65.93000 2221.106
65.94000 2115.224
65.95000 1988.771
65.96000 1847.971
65.97000 1710.213
65.98000 1547.134
65.99000 1379.157
66.00000 1213.381
66.01000 1078.422
66.02000 953.389
66.03000 833.282
66.04000 752.457
66.05000 680.122
66.06000 618.515
66.07000 575.535
66.08000 541.570
66.09000 511.100
66.10000 492.378
66.11000 474.610
66.12000 458.944
66.13000 448.095
66.14000 437.435
66.15000 430.916
66.16000 413.635
66.17000 401.179
66.18000 398.819
66.19000 406.812
66.20000 414.801
66.21000 422.156
66.22000 429.085
66.23000 435.850
66.24000 447.101
66.25000 459.820
66.26000 473.360
66.27000 497.757
66.28000 525.529
66.29000 553.245
66.30000 580.543
66.31000 607.753
66.32000 630.774
66.33000 659.743
66.34000 684.648
66.35000 705.428
66.36000 712.826
66.37000 719.198
66.38000 723.717
66.39000 724.139
66.40000 724.413
66.41000 724.578
66.42000 735.456
66.43000 743.272
66.44000 742.714
66.45000 733.913
66.46000 725.075
66.47000 712.951
66.48000 698.697
66.49000 684.814
66.50000 659.941
66.51000 631.619
66.52000 603.463
66.53000 577.370
66.54000 551.897
66.55000 526.601
66.56000 502.591
66.57000 478.839
66.58000 458.881
66.59000 443.965
66.60000 432.071
66.61000 421.265
66.62000 413.871
66.63000 406.723
66.64000 399.660
66.65000 392.778
66.66000 385.901
66.67000 381.821
66.68000 387.101
66.69000 390.889
66.70000 389.246
66.71000 382.470
66.72000 375.795
66.73000 376.887
66.74000 382.834
66.75000 388.611
66.76000 388.824
66.77000 386.778
66.78000 384.696
66.79000 382.187
66.80000 379.554
66.81000 377.201
66.82000 376.810
66.83000 376.797
66.84000 376.786
66.85000 378.031
66.86000 379.190
66.87000 380.354
66.88000 381.531
66.89000 382.709
66.90000 382.669
66.91000 380.116
66.92000 377.487
66.93000 375.952
66.94000 393.226
66.95000 405.457
66.96000 405.828
66.97000 395.427
66.98000 385.240
66.99000 389.229
67.00000 401.766
67.01000 413.913
67.02000 416.188
67.03000 414.505
67.04000 412.722
67.05000 409.814
67.06000 406.594
67.07000 403.746
67.08000 403.394
67.09000 403.504
67.10000 403.596
67.11000 418.669
67.12000 432.543
67.13000 440.557
67.14000 431.475
67.15000 421.295
67.16000 414.115
67.17000 412.906
67.18000 411.862
67.19000 411.262
67.20000 417.030
67.21000 421.089
67.22000 427.607
67.23000 436.269
67.24000 444.754
67.25000 442.974
67.26000 435.223
67.27000 427.732
67.28000 427.235
67.29000 429.380
67.30000 431.622
67.31000 434.887
67.32000 438.427
67.33000 442.292
67.34000 448.246
67.35000 454.570
67.36000 459.771
67.37000 448.310
67.38000 437.383
67.39000 430.342
67.40000 434.250
67.41000 438.816
67.42000 440.440
67.43000 436.404
67.44000 432.228
67.45000 429.869
67.46000 439.212
67.47000 445.729
67.48000 446.266
67.49000 441.783
67.50000 437.489
67.51000 442.834
67.52000 453.590
67.53000 463.955
67.54000 474.065
67.55000 483.475
67.56000 491.351
67.57000 483.751
67.58000 472.133
67.59000 462.425
67.60000 464.455
67.61000 468.489
67.62000 471.781
67.63000 471.643
67.64000 471.235
67.65000 472.077
67.66000 476.318
67.67000 480.751
67.68000 484.146
67.69000 485.614
67.70000 487.040
67.71000 487.832
67.72000 488.833
67.73000 489.526
67.74000 490.414
67.75000 491.458
67.76000 492.562
67.77000 496.357
67.78000 501.609
67.79000 506.656
67.80000 505.891
67.81000 503.163
67.82000 500.333
67.83000 496.532
67.84000 492.487
67.85000 489.832
67.86000 495.368
67.87000 502.245
67.88000 507.815
67.89000 517.831
67.90000 526.349
67.91000 531.138
67.92000 526.133
67.93000 520.613
67.94000 518.462
67.95000 522.347
67.96000 526.352
67.97000 528.537
67.98000 527.034
67.99000 526.015
68.00000 530.034
68.01000 537.971
68.02000 545.786
68.03000 548.597
68.04000 548.793
68.05000 548.980
68.06000 555.239
68.07000 563.099
68.08000 570.179
68.09000 570.127
68.10000 568.356
68.11000 566.974
68.12000 567.801
68.13000 568.976
68.14000 569.920
68.15000 562.016
68.16000 554.930
68.17000 553.364
68.18000 565.796
68.19000 578.915
68.20000 589.820
68.21000 596.897
68.22000 603.907
68.23000 607.662
68.24000 604.402
68.25000 602.171
68.26000 599.729
68.27000 597.129
68.28000 594.820
68.29000 603.197
68.30000 616.970
68.31000 630.121
68.32000 633.390
68.33000 633.263
68.34000 633.892
68.35000 641.115
68.36000 649.869
68.37000 657.628
68.38000 659.976
68.39000 661.508
68.40000 662.730
68.41000 670.153
68.42000 676.592
68.43000 684.198
68.44000 694.662
68.45000 705.256
68.46000 713.949
68.47000 719.470
68.48000 724.943
68.49000 727.820
68.50000 744.024
68.51000 754.996
68.52000 762.718
68.53000 768.097
68.54000 773.846
68.55000 791.986
68.56000 816.167
68.57000 839.180
68.58000 874.245
68.59000 910.411
68.60000 945.822
68.61000 974.943
68.62000 1002.656
68.63000 1035.113
68.64000 1092.368
68.65000 1153.200
68.66000 1201.282
68.67000 1269.279
68.68000 1325.243
68.69000 1379.320
68.70000 1428.934
68.71000 1478.359
68.72000 1528.646
68.73000 1580.320
68.74000 1632.013
68.75000 1658.669
68.76000 1742.061
68.77000 1798.243
68.78000 1854.376
68.79000 1910.477
68.80000 1967.273
68.81000 2045.321
68.82000 2133.372
68.83000 2216.887
68.84000 2348.583
68.85000 2484.273
68.86000 2629.324
68.87000 2848.742
68.88000 3084.182
68.89000 3368.620
68.90000 3899.382
68.91000 4464.162
68.92000 4906.774
68.93000 6652.029
68.94000 8130.925
68.95000 10090.664
68.96000 13148.691
68.97000 16249.623
68.98000 19795.848
68.99000 24033.031
69.00000 28278.145
69.01000 30423.984
69.02000 36337.383
69.03000 40286.066
69.04000 43393.977
69.05000 45938.492
69.06000 48450.152
69.07000 50042.422
69.08000 51216.848
69.09000 52326.836
69.10000 53182.754
69.11000 53896.504
69.12000 54632.980
69.13000 55542.039
69.14000 56486.879
69.15000 57354.953
69.16000 57851.770
69.17000 58299.543
69.18000 58647.406
69.19000 57202.641
69.20000 55944.582
69.21000 54116.570
69.22000 51031.426
69.23000 47901.082
69.24000 44820.000
69.25000 41812.617
69.26000 38805.980
69.27000 36103.449
69.28000 33699.363
69.29000 31304.570
69.30000 29728.344
69.31000 28680.986
69.32000 27650.143
69.33000 27044.432
69.34000 26625.301
69.35000 26230.617
69.36000 25491.205
69.37000 24720.535
69.38000 23849.141
69.39000 22246.172
69.40000 20497.285
69.41000 18685.115
69.42000 16578.418
69.43000 14434.527
69.44000 12783.838
69.45000 10500.183
69.46000 8656.245
69.47000 7009.263
69.48000 5781.776
69.49000 4568.113
69.50000 3624.186
69.51000 3069.267
69.52000 2517.536
69.53000 2127.543
69.54000 1890.005
69.55000 1653.695
69.56000 1509.865
69.57000 1423.660
69.58000 1337.613
69.59000 1255.320
69.60000 1174.620
69.61000 1098.914
69.62000 1056.125
69.63000 1025.794
69.64000 995.377
69.65000 964.354
69.66000 933.214
69.67000 903.777
69.68000 881.962
69.69000 861.068
69.70000 845.126
69.71000 822.765
69.72000 804.804
69.73000 785.553
69.74000 763.652
69.75000 741.671
69.76000 718.968
69.77000 695.263
69.78000 671.560
69.79000 650.653
69.80000 632.294
69.81000 614.207
69.82000 613.873
69.83000 624.211
69.84000 633.665
69.85000 623.660
69.86000 605.692
69.87000 588.902
69.88000 581.565
69.89000 577.294
69.90000 572.210
69.91000 561.705
69.92000 550.199
69.93000 540.293
69.94000 537.285
69.95000 535.072
69.96000 533.399
69.97000 538.518
69.98000 542.872
69.99000 539.713
70.00000 521.636
