20.00000 457.715
20.01000 466.095
20.02000 475.672
20.03000 481.767
20.04000 474.163
20.05000 465.162
20.06000 458.523
20.07000 472.386
20.08000 483.986
20.09000 485.200
20.10000 467.530
20.11000 449.464
20.12000 442.554
20.13000 449.230
20.14000 455.926
20.15000 460.186
20.16000 462.509
20.17000 464.880
20.18000 469.285
20.19000 474.770
20.20000 479.683
20.21000 474.734
20.22000 466.212
20.23000 458.365
20.24000 455.837
20.25000 454.742
20.26000 454.126
20.27000 456.274
20.28000 458.864
20.29000 461.085
20.30000 461.904
20.31000 462.588
20.32000 463.087
20.33000 462.925
20.34000 462.774
20.35000 463.544
20.36000 465.931
20.37000 468.347
20.38000 467.438
20.39000 462.633
20.40000 457.834
20.41000 459.275
20.42000 465.424
20.43000 471.424
20.44000 471.666
20.45000 468.958
20.46000 466.322
20.47000 464.856
20.48000 463.799
20.49000 462.831
20.50000 465.953
20.51000 469.594
20.52000 472.859
20.53000 474.048
20.54000 474.917
20.55000 474.241
20.56000 467.910
20.57000 461.058
20.58000 456.108
20.59000 461.895
20.60000 466.721
20.61000 469.775
20.62000 469.829
20.63000 469.833
20.64000 470.443
20.65000 471.735
20.66000 473.023
20.67000 472.778
20.68000 471.422
20.69000 470.090
20.70000 469.628
20.71000 469.597
20.72000 469.577
20.73000 469.723
20.74000 469.925
20.75000 470.110
20.76000 466.928
20.77000 463.427
20.78000 460.523
20.79000 460.796
20.80000 461.535
20.81000 463.529
20.82000 469.952
20.83000 476.761
20.84000 481.628
20.85000 476.492
20.86000 472.239
20.87000 469.900
20.88000 470.689
20.89000 471.522
20.90000 473.373
20.91000 476.325
20.92000 479.264
20.93000 478.488
20.94000 475.122
20.95000 471.681
20.96000 465.894
20.97000 458.986
20.98000 452.329
20.99000 449.270
21.00000 447.383
21.01000 445.670
21.02000 449.738
21.03000 454.448
21.04000 459.698
21.05000 467.705
21.06000 476.101
21.07000 480.577
21.08000 471.715
21.09000 461.750
21.10000 454.706
21.11000 453.183
21.12000 452.196
21.13000 451.847
21.14000 452.501
21.15000 453.168
21.16000 457.018
21.17000 464.179
21.18000 471.302
21.19000 469.661
21.20000 462.149
21.21000 454.960
21.22000 457.147
21.23000 463.657
21.24000 469.436
21.25000 465.362
21.26000 458.189
21.27000 451.706
21.28000 454.461
21.29000 458.595
21.30000 462.302
21.31000 463.909
21.32000 465.234
21.33000 465.785
21.34000 463.797
21.35000 461.610
21.36000 460.081
21.37000 463.951
21.38000 467.027
21.39000 464.141
21.40000 452.196
21.41000 440.155
21.42000 439.042
21.43000 448.837
21.44000 458.569
21.45000 461.038
21.46000 458.773
21.47000 456.582
21.48000 456.328
21.49000 456.938
21.50000 457.857
21.51000 462.715
21.52000 468.768
21.53000 474.210
21.54000 462.185
21.55000 448.554
21.56000 438.212
21.57000 443.426
21.58000 450.643
21.59000 455.905
21.60000 454.972
21.61000 453.581
21.62000 452.620
21.63000 461.626
21.64000 468.653
21.65000 470.958
21.66000 466.349
21.67000 461.679
21.68000 459.777
21.69000 460.528
21.70000 461.273
21.71000 469.735
21.72000 482.854
21.73000 495.282
21.74000 490.723
21.75000 478.856
21.76000 468.432
21.77000 475.369
21.78000 487.392
21.79000 498.145
21.80000 489.211
21.81000 478.075
21.82000 469.291
21.83000 471.216
21.84000 474.459
21.85000 476.824
21.86000 476.507
21.87000 476.003
21.88000 475.659
21.89000 470.516
21.90000 466.558
21.91000 464.835
21.92000 466.267
21.93000 467.723
21.94000 471.319
21.95000 476.884
21.96000 482.401
21.97000 483.556
21.98000 482.079
21.99000 480.703
22.00000 481.643
22.01000 483.546
22.02000 485.160
22.03000 483.497
22.04000 480.907
22.05000 478.603
22.06000 484.756
22.07000 491.476
22.08000 495.825
22.09000 489.783
22.10000 482.521
22.11000 478.451
22.12000 483.807
22.13000 489.779
22.14000 493.809
22.15000 493.288
22.16000 492.804
22.17000 492.405
22.18000 492.120
22.19000 491.836
22.20000 491.316
22.21000 490.587
22.22000 489.866
22.23000 481.515
22.24000 468.955
22.25000 456.764
22.26000 452.354
22.27000 451.065
22.28000 450.454
22.29000 457.167
22.30000 465.877
22.31000 473.582
22.32000 472.156
22.33000 469.500
22.34000 467.679
22.35000 469.379
22.36000 471.473
22.37000 472.808
22.38000 471.978
22.39000 471.015
22.40000 470.374
22.41000 465.535
22.42000 461.873
22.43000 457.490
22.44000 452.161
22.45000 446.835
22.46000 446.325
22.47000 449.912
22.48000 453.456
22.49000 452.528
22.50000 449.145
22.51000 445.934
22.52000 446.117
22.53000 447.613
22.54000 448.693
22.55000 445.501
22.56000 441.185
22.57000 437.388
22.58000 436.951
22.59000 437.074
22.60000 437.350
22.61000 438.248
22.62000 439.211
22.63000 438.721
22.64000 434.230
22.65000 429.508
22.66000 426.402
22.67000 439.086
22.68000 448.695
22.69000 454.428
22.70000 455.273
22.71000 456.094
22.72000 453.703
22.73000 448.682
22.74000 443.729
22.75000 440.319
22.76000 437.826
22.77000 435.672
22.78000 439.717
22.79000 446.082
22.80000 451.959
22.81000 453.061
22.82000 452.954
22.83000 452.860
22.84000 446.388
22.85000 439.934
22.86000 435.332
22.87000 437.992
22.88000 441.390
22.89000 443.521
22.90000 442.285
22.91000 440.867
22.92000 439.947
22.93000 437.903
22.94000 436.389
22.95000 439.956
22.96000 449.691
22.97000 459.403
22.98000 458.042
22.99000 447.958
23.00000 438.028
23.01000 435.983
23.02000 438.047
23.03000 440.147
23.04000 442.880
23.05000 445.840
23.06000 448.433
23.07000 447.606
23.08000 445.944
23.09000 444.498
23.10000 443.274
23.11000 442.260
23.12000 440.498
23.13000 435.908
23.14000 431.045
23.15000 429.820
23.16000 437.932
23.17000 446.513
23.18000 452.010
23.19000 436.536
23.20000 424.982
23.21000 423.646
23.22000 434.240
23.23000 444.819
23.24000 448.272
23.25000 446.320
23.26000 444.401
23.27000 435.929
23.28000 424.503
23.29000 413.763
23.30000 414.040
23.31000 418.159
23.32000 422.159
23.33000 425.105
23.34000 427.803
23.35000 430.135
23.36000 431.472
23.37000 432.479
23.38000 434.000
23.39000 437.400
23.40000 440.973
23.41000 441.008
23.42000 432.275
23.43000 423.132
23.44000 417.356
23.45000 427.420
23.46000 434.898
23.47000 441.029
23.48000 445.647
23.49000 450.229
23.50000 448.661
23.51000 442.602
23.52000 436.658
23.53000 436.968
23.54000 440.239
23.55000 443.348
23.56000 444.012
23.57000 443.853
23.58000 443.923
23.59000 445.924
23.60000 448.363
23.61000 450.457
23.62000 460.266
23.63000 469.514
23.64000 473.850
23.65000 460.912
23.66000 446.473
23.67000 438.440
23.68000 445.742
23.69000 453.709
23.70000 458.672
23.71000 462.361
23.72000 465.006
23.73000 466.817
23.74000 467.729
23.75000 468.641
23.76000 469.675
23.77000 470.794
23.78000 471.890
23.79000 474.984
23.80000 478.870
23.81000 482.029
23.82000 474.855
23.83000 464.323
23.84000 455.394
23.85000 459.397
23.86000 466.223
23.87000 472.046
23.88000 479.238
23.89000 485.454
23.90000 489.775
23.91000 487.663
23.92000 485.023
23.93000 484.887
23.94000 490.542
23.95000 496.430
23.96000 500.044
23.97000 493.976
23.98000 489.544
23.99000 484.492
24.00000 478.797
24.01000 473.187
24.02000 477.016
24.03000 487.249
24.04000 497.244
24.05000 495.006
24.06000 487.479
24.07000 480.613
24.08000 482.617
24.09000 487.403
24.10000 490.738
24.11000 482.880
24.12000 472.671
24.13000 464.019
24.14000 469.609
24.15000 475.895
24.16000 479.424
24.17000 473.929
24.18000 467.732
24.19000 464.282
24.20000 466.965
24.21000 469.875
24.22000 471.635
24.23000 467.529
24.24000 464.561
24.25000 456.887
24.26000 444.532
24.27000 432.320
24.28000 433.371
24.29000 443.097
24.30000 452.575
24.31000 449.044
24.32000 440.162
24.33000 431.970
24.34000 432.494
24.35000 435.658
24.36000 438.154
24.37000 435.727
24.38000 432.305
24.39000 429.424
24.40000 433.172
24.41000 437.008
24.42000 438.077
24.43000 430.401
24.44000 422.083
24.45000 417.539
24.46000 421.128
24.47000 424.994
24.48000 427.297
24.49000 435.717
24.50000 441.720
24.51000 437.302
24.52000 422.932
24.53000 408.688
24.54000 404.442
24.55000 406.501
24.56000 408.503
24.57000 415.714
24.58000 424.693
24.59000 432.750
24.60000 429.763
24.61000 423.550
24.62000 416.965
24.63000 407.750
24.64000 398.023
24.65000 389.893
24.66000 397.107
24.67000 404.658
24.68000 411.084
24.69000 414.078
24.70000 416.834
24.71000 419.522
24.72000 422.068
24.73000 424.610
24.74000 426.100
24.75000 423.944
24.76000 422.408
24.77000 422.393
24.78000 423.774
24.79000 425.066
24.80000 420.253
24.81000 411.725
24.82000 403.456
24.83000 404.947
24.84000 410.190
24.85000 414.759
24.86000 411.679
24.87000 406.444
24.88000 402.635
24.89000 408.473
24.90000 416.112
24.91000 422.453
24.92000 423.458
24.93000 423.774
24.94000 421.001
24.95000 409.135
24.96000 396.677
24.97000 385.874
24.98000 378.397
24.99000 371.014
25.00000 366.755
25.01000 381.069
25.02000 391.163
25.03000 398.079
25.04000 402.191
25.05000 406.258
25.06000 407.588
25.07000 407.312
25.08000 407.046
25.09000 406.312
25.10000 405.442
25.11000 404.695
25.12000 405.265
25.13000 406.192
25.14000 406.404
25.15000 401.982
25.16000 396.729
25.17000 392.400
25.18000 404.602
25.19000 416.159
25.20000 421.219
25.21000 407.811
25.22000 393.273
25.23000 385.659
25.24000 391.480
25.25000 397.643
25.26000 401.140
25.27000 389.384
25.28000 381.163
25.29000 378.209
25.30000 379.724
25.31000 381.340
25.32000 388.310
25.33000 398.312
25.34000 407.958
25.35000 410.109
25.36000 409.410
25.37000 408.145
25.38000 401.085
25.39000 392.507
25.40000 385.364
25.41000 387.129
25.42000 390.430
25.43000 393.129
25.44000 396.768
25.45000 399.830
25.46000 401.998
25.47000 401.711
25.48000 401.284
25.49000 398.273
25.50000 390.423
25.51000 382.461
25.52000 378.021
25.53000 399.410
25.54000 414.234
25.55000 415.108
25.56000 404.599
25.57000 394.199
25.58000 388.833
25.59000 386.220
25.60000 383.708
25.61000 387.299
25.62000 392.798
25.63000 397.621
25.64000 395.857
25.65000 392.431
25.66000 390.512
25.67000 397.581
25.68000 406.136
25.69000 413.080
25.70000 402.904
25.71000 393.197
25.72000 387.984
25.73000 394.681
25.74000 402.017
25.75000 403.818
25.76000 395.612
25.77000 387.201
25.78000 382.591
25.79000 380.689
25.80000 379.385
25.81000 377.840
25.82000 376.107
25.83000 374.465
25.84000 376.627
25.85000 380.796
25.86000 384.792
25.87000 388.434
25.88000 391.714
25.89000 394.686
25.90000 394.798
25.91000 394.214
25.92000 394.835
25.93000 402.352
25.94000 410.965
25.95000 417.899
25.96000 408.690
25.97000 399.957
25.98000 394.501
25.99000 397.428
26.00000 400.774
26.01000 400.469
26.02000 393.797
26.03000 387.009
26.04000 383.356
26.05000 377.694
26.06000 373.847
26.07000 375.314
26.08000 380.797
26.09000 386.233
26.10000 389.864
26.11000 392.577
26.12000 395.169
26.13000 390.380
26.14000 383.539
26.15000 377.712
26.16000 380.842
26.17000 386.072
26.18000 390.737
26.19000 392.297
26.20000 393.385
26.21000 394.254
26.22000 396.388
26.23000 398.205
26.24000 398.738
26.25000 396.101
26.26000 393.316
26.27000 389.920
26.28000 385.494
26.29000 381.052
26.30000 378.706
26.31000 387.463
26.32000 393.373
26.33000 392.062
26.34000 385.491
26.35000 379.091
26.36000 378.545
26.37000 380.878
26.38000 383.100
26.39000 379.965
26.40000 375.395
26.41000 371.461
26.42000 372.879
26.43000 375.506
26.44000 378.326
26.45000 382.163
26.46000 386.148
26.47000 389.304
26.48000 388.569
26.49000 387.707
26.50000 386.720
26.51000 385.433
26.52000 384.133
26.53000 380.547
26.54000 373.248
26.55000 365.897
26.56000 362.088
26.57000 371.206
26.58000 377.343
26.59000 381.139
26.60000 383.292
26.61000 385.414
26.62000 386.566
26.63000 387.259
26.64000 387.916
26.65000 391.327
26.66000 395.299
26.67000 398.472
26.68000 395.222
26.69000 390.575
26.70000 386.757
26.71000 387.147
26.72000 388.125
26.73000 388.893
26.74000 383.437
26.75000 378.663
26.76000 377.784
26.77000 385.882
26.78000 394.337
26.79000 397.477
26.80000 392.295
26.81000 387.012
26.82000 384.328
26.83000 383.757
26.84000 383.386
26.85000 384.342
26.86000 386.195
26.87000 387.883
26.88000 384.836
26.89000 379.617
26.90000 374.679
26.91000 376.171
26.92000 379.391
26.93000 382.407
26.94000 383.856
26.95000 384.976
26.96000 386.444
26.97000 389.606
26.98000 392.994
26.99000 395.633
27.00000 395.712
27.01000 395.618
27.02000 393.080
27.03000 385.105
27.04000 376.930
27.05000 373.297
27.06000 376.525
27.07000 379.822
27.08000 379.362
27.09000 375.177
27.10000 370.987
27.11000 366.260
27.12000 361.184
27.13000 356.499
27.14000 362.080
27.15000 372.207
27.16000 381.753
27.17000 376.060
27.18000 366.637
27.19000 358.412
27.20000 358.989
27.21000 361.340
27.22000 362.573
27.23000 358.557
27.24000 353.870
27.25000 350.253
27.26000 356.995
27.27000 362.940
27.28000 367.790
27.29000 370.288
27.30000 372.706
27.31000 374.652
27.32000 375.908
27.33000 377.159
27.34000 377.417
27.35000 376.730
27.36000 376.000
27.37000 371.871
27.38000 365.603
27.39000 359.659
27.40000 361.542
27.41000 366.774
27.42000 371.687
27.43000 369.113
27.44000 364.778
27.45000 361.190
27.46000 362.855
27.47000 365.538
27.48000 367.933
27.49000 369.022
27.50000 369.952
27.51000 370.663
27.52000 370.027
27.53000 369.452
27.54000 369.847
27.55000 372.257
27.56000 374.728
27.57000 375.230
27.58000 372.969
27.59000 370.690
27.60000 371.915
27.61000 376.340
27.62000 380.686
27.63000 379.647
27.64000 375.342
27.65000 371.243
27.66000 371.752
27.67000 374.163
27.68000 376.419
27.69000 375.288
27.70000 373.396
27.71000 371.682
27.72000 371.168
27.73000 370.878
27.74000 369.857
27.75000 365.657
27.76000 361.085
27.77000 357.622
27.78000 365.321
27.79000 371.933
27.80000 375.958
27.81000 374.801
27.82000 373.498
27.83000 372.333
27.84000 371.354
27.85000 370.377
27.86000 371.759
27.87000 375.211
27.88000 378.591
27.89000 377.707
27.90000 374.328
27.91000 371.163
27.92000 372.466
27.93000 375.550
27.94000 378.424
27.95000 375.632
27.96000 371.719
27.97000 368.647
27.98000 371.012
27.99000 374.349
28.00000 375.719
28.01000 368.831
28.02000 361.027
28.03000 355.170
28.04000 368.040
28.05000 378.985
28.06000 384.065
28.07000 377.798
28.08000 371.244
28.09000 367.606
28.10000 367.764
28.11000 367.938
28.12000 362.950
28.13000 353.622
28.14000 344.614
28.15000 352.279
28.16000 369.360
28.17000 385.844
28.18000 390.722
28.19000 391.131
28.20000 391.510
28.21000 378.668
28.22000 363.987
28.23000 352.256
28.24000 358.782
28.25000 368.445
28.26000 375.935
28.27000 374.632
28.28000 372.399
28.29000 370.740
28.30000 362.464
28.31000 355.735
28.32000 352.184
28.33000 354.567
28.34000 357.084
28.35000 357.722
28.36000 356.004
28.37000 354.281
28.38000 356.347
28.39000 361.474
28.40000 366.556
28.41000 369.581
28.42000 371.486
28.43000 373.246
28.44000 372.405
28.45000 370.597
28.46000 368.926
28.47000 371.933
28.48000 375.688
28.49000 377.608
28.50000 368.636
28.51000 357.867
28.52000 349.420
28.53000 350.025
28.54000 351.541
28.55000 352.656
28.56000 351.408
28.57000 350.346
28.58000 353.601
28.59000 364.637
28.60000 375.832
28.61000 378.788
28.62000 371.807
28.63000 364.819
28.64000 364.434
28.65000 369.193
28.66000 374.020
28.67000 381.688
28.68000 390.849
28.69000 399.192
28.70000 393.649
28.71000 383.120
28.72000 373.436
28.73000 367.801
28.74000 363.644
28.75000 360.553
28.76000 363.542
28.77000 367.492
28.78000 370.367
28.79000 369.199
28.80000 367.644
28.81000 366.512
28.82000 368.555
28.83000 370.249
28.84000 370.760
28.85000 369.212
28.86000 367.627
28.87000 365.904
28.88000 364.021
28.89000 362.143
28.90000 365.141
28.91000 371.769
28.92000 378.263
28.93000 379.747
28.94000 378.686
28.95000 377.343
28.96000 371.521
28.97000 364.145
28.98000 357.392
28.99000 357.857
29.00000 359.772
29.01000 361.726
29.02000 363.889
29.03000 366.085
29.04000 367.532
29.05000 366.268
29.06000 364.758
29.07000 363.669
29.08000 360.131
29.09000 357.333
29.10000 355.466
29.11000 355.158
29.12000 354.875
29.13000 359.099
29.14000 368.352
29.15000 377.575
29.16000 382.033
29.17000 383.022
29.18000 383.890
29.19000 380.605
29.20000 375.284
29.21000 369.995
29.22000 365.180
29.23000 360.524
29.24000 356.281
29.25000 353.604
29.26000 351.544
29.27000 350.312
29.28000 353.438
29.29000 357.197
29.30000 359.124
29.31000 354.650
29.32000 349.624
29.33000 346.042
29.34000 358.062
29.35000 367.735
29.36000 369.206
29.37000 357.402
29.38000 345.414
29.39000 342.687
29.40000 349.884
29.41000 357.051
29.42000 359.479
29.43000 358.600
29.44000 357.906
29.45000 362.953
29.46000 370.719
29.47000 377.949
29.48000 377.633
29.49000 374.878
29.50000 372.380
29.51000 368.190
29.52000 364.168
29.53000 361.010
29.54000 362.219
29.55000 364.036
29.56000 365.831
29.57000 367.554
29.58000 369.272
29.59000 370.482
29.60000 369.284
29.61000 368.302
29.62000 364.005
29.63000 354.529
29.64000 344.993
29.65000 346.766
29.66000 360.180
29.67000 373.521
29.68000 377.517
29.69000 375.243
29.70000 373.006
29.71000 371.861
29.72000 371.214
29.73000 370.429
29.74000 367.799
29.75000 364.594
29.76000 361.702
29.77000 365.023
29.78000 369.079
29.79000 371.675
29.80000 367.161
29.81000 361.700
29.82000 358.986
29.83000 365.211
29.84000 372.126
29.85000 376.946
29.86000 377.923
29.87000 378.555
29.88000 380.490
29.89000 384.390
29.90000 388.309
29.91000 386.018
29.92000 377.591
29.93000 369.220
29.94000 366.562
29.95000 367.602
29.96000 368.725
29.97000 371.988
29.98000 376.197
29.99000 379.750
30.00000 375.069
30.01000 367.910
30.02000 361.483
30.03000 362.353
30.04000 364.397
30.05000 366.455
30.06000 368.583
30.07000 370.719
30.08000 371.977
30.09000 370.476
30.10000 368.773
30.11000 367.600
30.12000 365.241
30.13000 363.440
30.14000 363.326
30.15000 365.659
30.16000 368.013
30.17000 368.828
30.18000 368.184
30.19000 367.545
30.20000 371.318
30.21000 377.742
30.22000 383.855
30.23000 382.434
30.24000 377.800
30.25000 373.797
30.26000 377.265
30.27000 382.903
30.28000 387.938
30.29000 389.017
30.30000 389.292
30.31000 387.434
30.32000 375.954
30.33000 363.304
30.34000 354.372
30.35000 356.712
30.36000 359.826
30.37000 361.945
30.38000 359.744
30.39000 358.000
30.40000 358.150
30.41000 360.947
30.42000 363.758
30.43000 361.085
30.44000 353.413
30.45000 345.811
30.46000 344.347
30.47000 346.550
30.48000 348.788
30.49000 351.834
30.50000 355.211
30.51000 357.977
30.52000 353.857
30.53000 347.809
30.54000 342.436
30.55000 354.733
30.56000 368.240
30.57000 378.571
30.58000 375.106
30.59000 370.041
30.60000 367.872
30.61000 374.181
30.62000 381.036
30.63000 385.647
30.64000 382.348
30.65000 379.734
30.66000 375.333
30.67000 368.524
30.68000 361.712
30.69000 363.398
30.70000 372.530
30.71000 381.564
30.72000 385.018
30.73000 385.211
30.74000 385.559
30.75000 389.120
30.76000 393.960
30.77000 398.179
30.78000 395.788
30.79000 391.611
30.80000 387.921
30.81000 385.385
30.82000 383.372
30.83000 382.126
30.84000 384.091
30.85000 386.411
30.86000 388.363
30.87000 389.276
30.88000 390.126
30.89000 390.691
30.90000 392.800
30.91000 394.387
30.92000 399.600
30.93000 409.518
30.94000 419.454
30.95000 428.571
30.96000 436.997
30.97000 445.320
30.98000 440.616
30.99000 428.880
31.00000 418.012
31.01000 423.885
31.02000 436.186
31.03000 448.604
31.04000 462.209
31.05000 476.123
31.06000 488.345
31.07000 495.028
31.08000 499.957
31.09000 504.538
31.10000 507.718
31.11000 510.750
31.12000 517.116
31.13000 532.576
31.14000 548.552
31.15000 559.027
31.16000 582.759
31.17000 600.430
31.18000 617.591
31.19000 634.115
31.20000 650.638
31.21000 667.851
31.22000 685.624
31.23000 703.150
31.24000 721.658
31.25000 740.163
31.26000 758.474
31.27000 773.283
31.28000 786.794
31.29000 800.531
31.30000 816.449
31.31000 832.916
31.32000 847.296
31.33000 868.912
31.34000 888.430
31.35000 902.499
31.36000 895.388
31.37000 886.154
31.38000 880.964
31.39000 886.426
31.40000 892.452
31.41000 896.352
31.42000 886.385
31.43000 878.891
31.44000 871.240
31.45000 863.400
31.46000 855.548
31.47000 844.221
31.48000 830.185
31.49000 816.368
31.50000 796.721
31.51000 774.723
31.52000 752.932
31.53000 734.657
31.54000 717.640
31.55000 699.898
31.56000 675.494
31.57000 649.477
31.58000 626.894
31.59000 616.879
31.60000 610.035
31.61000 602.070
31.62000 589.907
31.63000 577.345
31.64000 565.694
31.65000 556.365
31.66000 547.151
31.67000 541.269
31.68000 524.755
31.69000 512.603
31.70000 499.400
31.71000 484.982
31.72000 470.589
31.73000 461.520
31.74000 456.451
31.75000 451.471
31.76000 444.934
31.77000 437.857
31.78000 431.055
31.79000 428.603
31.80000 427.656
31.81000 426.392
31.82000 422.360
31.83000 417.683
31.84000 413.648
31.85000 400.478
31.86000 388.134
31.87000 379.915
31.88000 386.598
31.89000 394.630
31.90000 398.464
31.91000 391.986
31.92000 385.034
31.93000 380.657
31.94000 377.439
31.95000 375.124
31.96000 374.708
31.97000 376.404
31.98000 378.106
31.99000 380.546
32.00000 383.519
32.01000 386.434
32.02000 380.760
32.03000 371.254
32.04000 362.344
32.05000 362.313
32.06000 365.245
32.07000 367.642
32.08000 365.566
32.09000 362.485
32.10000 359.844
32.11000 361.591
32.12000 363.603
32.13000 364.143
32.14000 359.548
32.15000 354.514
32.16000 352.561
32.17000 357.923
32.18000 363.595
32.19000 367.116
32.20000 367.782
32.21000 368.233
32.22000 362.755
32.23000 350.945
32.24000 339.203
32.25000 336.277
32.26000 339.502
32.27000 342.657
32.28000 346.625
32.29000 350.802
32.30000 354.615
32.31000 353.335
32.32000 350.413
32.33000 347.857
32.34000 348.207
32.35000 349.186
32.36000 350.019
32.37000 346.371
32.38000 342.781
32.39000 339.208
32.40000 335.692
32.41000 332.181
32.42000 330.191
32.43000 331.686
32.44000 333.318
32.45000 334.316
32.46000 329.911
32.47000 326.715
32.48000 325.929
32.49000 327.615
32.50000 329.255
32.51000 325.919
32.52000 319.237
32.53000 312.713
32.54000 309.353
32.55000 307.518
32.56000 305.688
32.57000 303.933
32.58000 302.201
32.59000 301.667
32.60000 310.272
32.61000 320.777
32.62000 329.665
32.63000 327.332
32.64000 324.134
32.65000 321.050
32.66000 318.339
32.67000 315.656
32.68000 313.509
32.69000 312.549
32.70000 311.632
32.71000 311.079
32.72000 313.778
32.73000 315.721
32.74000 314.491
32.75000 310.135
32.76000 305.903
32.77000 312.626
32.78000 326.451
32.79000 339.915
32.80000 346.356
32.81000 349.548
32.82000 353.564
32.83000 367.859
32.84000 385.238
32.85000 403.509
32.86000 428.275
32.87000 454.342
32.88000 476.247
32.89000 483.495
32.90000 487.987
32.91000 493.914
32.92000 504.336
32.93000 515.084
32.94000 527.622
32.95000 543.986
32.96000 560.476
32.97000 570.260
32.98000 561.438
32.99000 555.088
33.00000 547.457
33.01000 538.616
33.02000 529.837
33.03000 525.766
33.04000 524.637
33.05000 523.541
33.06000 503.266
33.07000 476.260
33.08000 450.055
33.09000 433.315
33.10000 419.314
33.11000 404.686
33.12000 385.676
33.13000 365.823
33.14000 349.257
33.15000 347.217
33.16000 346.985
33.17000 343.576
33.18000 330.566
33.19000 316.901
33.20000 306.356
33.21000 302.246
33.22000 298.332
33.23000 296.046
33.24000 296.277
33.25000 296.451
33.26000 295.669
33.27000 294.019
33.28000 292.433
33.29000 295.086
33.30000 300.295
33.31000 305.344
33.32000 304.966
33.33000 302.499
33.34000 300.454
33.35000 303.132
33.36000 307.129
33.37000 310.373
33.38000 308.587
33.39000 305.870
33.40000 303.619
33.41000 296.333
33.42000 289.837
33.43000 286.294
33.44000 291.370
33.45000 296.998
33.46000 298.534
33.47000 291.916
33.48000 285.074
33.49000 281.143
33.50000 292.096
33.51000 299.804
33.52000 302.024
33.53000 299.451
33.54000 296.900
33.55000 295.559
33.56000 294.923
33.57000 294.307
33.58000 292.892
33.59000 291.259
33.60000 289.422
33.61000 285.435
33.62000 280.868
33.63000 277.477
33.64000 281.620
33.65000 287.102
33.66000 291.610
33.67000 292.257
33.68000 292.440
33.69000 293.863
33.70000 298.785
33.71000 303.917
33.72000 307.896
33.73000 309.656
33.74000 311.361
33.75000 312.324
33.76000 300.735
33.77000 292.652
33.78000 289.205
33.79000 289.651
33.80000 290.130
33.81000 292.290
33.82000 295.393
33.83000 298.384
33.84000 297.408
33.85000 295.064
33.86000 292.243
33.87000 284.607
33.88000 275.722
33.89000 268.758
33.90000 273.605
33.91000 280.469
33.92000 286.071
33.93000 294.103
33.94000 300.883
33.95000 304.285
33.96000 298.496
33.97000 292.189
33.98000 289.293
33.99000 292.732
34.00000 296.311
34.01000 298.299
34.02000 294.849
34.03000 292.466
34.04000 294.530
34.05000 300.187
34.06000 305.721
34.07000 305.649
34.08000 302.540
34.09000 299.553
34.10000 297.286
34.11000 295.413
34.12000 294.212
34.13000 299.466
34.14000 306.335
34.15000 312.123
34.16000 311.532
34.17000 309.896
34.18000 308.571
34.19000 312.472
34.20000 316.073
34.21000 317.849
34.22000 314.831
34.23000 311.560
34.24000 309.235
34.25000 308.602
34.26000 308.003
34.27000 307.676
34.28000 307.765
34.29000 307.828
34.30000 308.379
34.31000 309.309
34.32000 310.137
34.33000 306.808
34.34000 301.304
34.35000 296.031
34.36000 303.507
34.37000 314.725
34.38000 324.930
34.39000 325.873
34.40000 324.582
34.41000 322.391
34.42000 315.101
34.43000 307.010
34.44000 300.509
34.45000 298.478
34.46000 297.175
34.47000 296.147
34.48000 295.816
34.49000 295.520
34.50000 298.502
34.51000 307.153
34.52000 315.905
34.53000 320.593
34.54000 316.581
34.55000 313.833
34.56000 310.500
34.57000 306.730
34.58000 302.965
34.59000 299.390
34.60000 295.911
34.61000 292.589
34.62000 293.668
34.63000 296.081
34.64000 297.442
34.65000 289.641
34.66000 279.711
34.67000 272.229
34.68000 278.069
34.69000 285.915
34.70000 292.169
34.71000 284.866
34.72000 277.989
34.73000 274.087
34.74000 277.474
34.75000 281.193
34.76000 282.975
34.77000 281.525
34.78000 280.026
34.79000 279.238
34.80000 286.268
34.81000 290.971
34.82000 285.386
34.83000 272.375
34.84000 259.794
34.85000 261.596
34.86000 270.410
34.87000 278.799
34.88000 278.360
34.89000 275.234
34.90000 272.598
34.91000 274.028
34.92000 276.369
34.93000 278.706
34.94000 281.029
34.95000 283.349
34.96000 285.182
34.97000 287.195
34.98000 288.824
34.99000 287.586
35.00000 279.565
35.01000 271.257
35.02000 265.741
35.03000 264.715
35.04000 263.750
35.05000 263.252
35.06000 266.627
35.07000 268.895
35.08000 270.371
35.09000 271.296
35.10000 272.235
35.11000 273.612
35.12000 275.194
35.13000 276.695
35.14000 274.089
35.15000 270.469
35.16000 266.975
35.17000 264.484
35.18000 262.208
35.19000 259.686
35.20000 255.930
35.21000 252.004
35.22000 248.927
35.23000 259.653
35.24000 269.116
35.25000 274.312
35.26000 269.759
35.27000 264.826
35.28000 261.675
35.29000 261.290
35.30000 260.937
35.31000 260.758
35.32000 267.711
35.33000 272.308
35.34000 271.092
35.35000 265.982
35.36000 261.081
35.37000 262.058
35.38000 265.705
35.39000 269.152
35.40000 264.910
35.41000 258.825
35.42000 253.532
35.43000 254.256
35.44000 256.227
35.45000 258.977
35.46000 265.500
35.47000 272.521
35.48000 277.976
35.49000 274.134
35.50000 270.512
35.51000 267.513
35.52000 265.885
35.53000 264.306
35.54000 262.046
35.55000 258.767
35.56000 255.478
35.57000 253.554
35.58000 252.969
35.59000 252.431
35.60000 255.951
35.61000 262.094
35.62000 267.984
35.63000 267.345
35.64000 263.840
35.65000 260.540
35.66000 262.827
35.67000 266.448
35.68000 269.452
35.69000 267.974
35.70000 265.602
35.71000 263.161
35.72000 260.397
35.73000 257.592
35.74000 255.433
35.75000 247.735
35.76000 241.325
35.77000 241.014
35.78000 253.697
35.79000 266.808
35.80000 269.068
35.81000 255.678
35.82000 242.164
35.83000 239.923
35.84000 248.303
35.85000 256.641
35.86000 261.784
35.87000 264.936
35.88000 267.784
35.89000 263.384
35.90000 255.913
35.91000 248.904
35.92000 248.261
35.93000 249.348
35.94000 250.686
35.95000 253.762
35.96000 257.172
35.97000 259.415
35.98000 256.431
35.99000 252.816
36.00000 250.058
36.01000 252.850
36.02000 255.346
36.03000 256.936
36.04000 256.663
36.05000 256.334
36.06000 255.909
36.07000 255.352
36.08000 254.794
36.09000 256.750
36.10000 260.979
36.11000 265.096
36.12000 261.937
36.13000 254.406
36.14000 247.223
36.15000 247.722
36.16000 251.367
36.17000 254.772
36.18000 253.038
36.19000 250.166
36.20000 248.090
36.21000 251.318
36.22000 255.523
36.23000 259.282
36.24000 261.108
36.25000 262.713
36.26000 263.925
36.27000 254.751
36.28000 247.038
36.29000 242.740
36.30000 245.225
36.31000 247.895
36.32000 251.212
36.33000 255.397
36.34000 259.583
36.35000 260.879
36.36000 259.661
36.37000 258.463
36.38000 258.433
36.39000 259.081
36.40000 259.622
36.41000 257.994
36.42000 255.507
36.43000 253.193
36.44000 248.849
36.45000 244.430
36.46000 241.661
36.47000 249.416
36.48000 259.037
36.49000 266.502
36.50000 265.002
36.51000 262.519
36.52000 260.660
36.53000 255.321
36.54000 250.993
36.55000 250.250
36.56000 256.383
36.57000 262.686
36.58000 263.260
36.59000 256.449
36.60000 249.615
36.61000 248.798
36.62000 253.004
36.63000 257.146
36.64000 258.008
36.65000 257.034
36.66000 256.141
36.67000 256.793
36.68000 258.035
36.69000 259.185
36.70000 256.644
36.71000 253.497
36.72000 251.573
36.73000 257.135
36.74000 263.971
36.75000 269.801
36.76000 271.603
36.77000 272.985
36.78000 274.008
36.79000 268.510
36.80000 263.956
36.81000 261.620
36.82000 263.389
36.83000 265.249
36.84000 265.168
36.85000 262.678
36.86000 260.185
36.87000 260.276
36.88000 262.442
36.89000 264.552
36.90000 264.194
36.91000 262.502
36.92000 260.846
36.93000 259.835
36.94000 259.063
36.95000 258.350
36.96000 259.173
36.97000 260.255
36.98000 259.810
36.99000 250.397
37.00000 239.520
37.01000 232.689
37.02000 241.486
37.03000 251.837
37.04000 259.433
37.05000 263.224
37.06000 266.000
37.07000 265.282
37.08000 258.324
37.09000 251.243
37.10000 247.732
37.11000 248.487
37.12000 249.249
37.13000 248.089
37.14000 245.454
37.15000 242.944
37.16000 245.452
37.17000 250.578
37.18000 255.602
37.19000 258.932
37.20000 261.660
37.21000 264.166
37.22000 260.092
37.23000 255.045
37.24000 250.600
37.25000 249.554
37.26000 249.040
37.27000 248.550
37.28000 248.149
37.29000 247.756
37.30000 247.470
37.31000 245.852
37.32000 244.558
37.33000 243.125
37.34000 241.453
37.35000 239.777
37.36000 238.454
37.37000 237.538
37.38000 236.624
37.39000 241.291
37.40000 250.061
37.41000 258.647
37.42000 260.507
37.43000 258.982
37.44000 257.503
37.45000 256.744
37.46000 256.232
37.47000 255.764
37.48000 255.159
37.49000 254.594
37.50000 253.846
37.51000 252.107
37.52000 250.220
37.53000 248.551
37.54000 247.663
37.55000 246.847
37.56000 246.260
37.57000 243.516
37.58000 241.342
37.59000 240.253
37.60000 240.968
37.61000 241.711
37.62000 243.033
37.63000 244.997
37.64000 246.953
37.65000 243.464
37.66000 236.127
37.67000 229.115
37.68000 232.942
37.69000 242.036
37.70000 250.735
37.71000 253.611
37.72000 254.556
37.73000 255.416
37.74000 252.944
37.75000 250.098
37.76000 247.531
37.77000 246.412
37.78000 245.502
37.79000 244.152
37.80000 241.281
37.81000 238.280
37.82000 236.147
37.83000 238.596
37.84000 240.608
37.85000 243.714
37.86000 248.575
37.87000 253.460
37.88000 254.090
37.89000 250.205
37.90000 246.337
37.91000 246.468
37.92000 249.339
37.93000 252.076
37.94000 250.758
37.95000 247.537
37.96000 244.411
37.97000 242.609
37.98000 241.230
37.99000 239.981
38.00000 241.935
38.01000 244.263
38.02000 246.334
38.03000 247.111
38.04000 247.711
38.05000 247.797
38.06000 246.162
38.07000 244.389
38.08000 243.143
38.09000 250.050
38.10000 255.522
38.11000 257.644
38.12000 254.583
38.13000 251.464
38.14000 251.995
38.15000 256.246
38.16000 260.473
38.17000 259.882
38.18000 256.123
38.19000 252.481
38.20000 252.090
38.21000 253.173
38.22000 254.519
38.23000 259.322
38.24000 265.194
38.25000 270.486
38.26000 268.095
38.27000 264.603
38.28000 261.459
38.29000 259.993
38.30000 258.747
38.31000 259.190
38.32000 265.080
38.33000 271.384
38.34000 275.764
38.35000 275.967
38.36000 276.007
38.37000 278.152
38.38000 283.438
38.39000 288.753
38.40000 294.961
38.41000 302.043
38.42000 309.075
38.43000 316.244
38.44000 323.386
38.45000 330.214
38.46000 329.006
38.47000 324.281
38.48000 320.368
38.49000 326.511
38.50000 335.652
38.51000 343.848
38.52000 357.169
38.53000 369.698
38.54000 383.276
38.55000 401.719
38.56000 420.773
38.57000 436.437
38.58000 441.547
38.59000 445.899
38.60000 448.888
38.61000 457.169
38.62000 463.509
38.63000 468.995
38.64000 473.256
38.65000 477.506
38.66000 481.030
38.67000 483.872
38.68000 486.690
38.69000 491.975
38.70000 498.668
38.71000 505.211
38.72000 508.183
38.73000 509.645
38.74000 510.029
38.75000 497.781
38.76000 481.897
38.77000 467.730
38.78000 457.343
38.79000 448.934
38.80000 442.523
38.81000 445.037
38.82000 448.624
38.83000 447.510
38.84000 432.268
38.85000 416.073
38.86000 405.081
38.87000 393.282
38.88000 384.462
38.89000 374.440
38.90000 362.754
38.91000 351.058
38.92000 341.008
38.93000 332.441
38.94000 323.957
38.95000 317.446
38.96000 312.229
38.97000 306.979
38.98000 301.022
38.99000 294.777
39.00000 288.799
39.01000 285.793
39.02000 283.610
39.03000 281.674
39.04000 277.030
39.05000 272.575
39.06000 269.359
39.07000 271.471
39.08000 274.193
39.09000 273.609
39.10000 263.433
39.11000 252.647
39.12000 245.417
39.13000 251.430
39.14000 256.158
39.15000 257.573
39.16000 254.566
39.17000 251.537
39.18000 249.765
39.19000 249.082
39.20000 248.407
39.21000 249.248
39.22000 250.926
39.23000 252.588
39.24000 253.920
39.25000 255.123
39.26000 255.915
39.27000 252.377
39.28000 247.679
39.29000 243.535
39.30000 240.273
39.31000 237.594
39.32000 235.256
39.33000 234.329
39.34000 233.558
39.35000 232.921
39.36000 232.663
39.37000 232.428
39.38000 232.272
39.39000 236.012
39.40000 238.843
39.41000 240.502
39.42000 240.654
39.43000 240.804
39.44000 242.350
39.45000 245.062
39.46000 247.740
39.47000 247.331
39.48000 245.255
39.49000 243.254
39.50000 242.674
39.51000 242.636
39.52000 242.651
39.53000 243.195
39.54000 243.877
39.55000 244.474
39.56000 243.477
39.57000 242.389
39.58000 241.364
39.59000 240.591
39.60000 239.844
39.61000 238.205
39.62000 234.152
39.63000 229.964
39.64000 227.228
39.65000 229.638
39.66000 231.490
39.67000 231.703
39.68000 229.886
39.69000 228.068
39.70000 227.792
39.71000 228.755
39.72000 229.704
39.73000 232.135
39.74000 235.270
39.75000 238.031
39.76000 234.153
39.77000 227.835
39.78000 222.014
39.79000 220.928
39.80000 221.019
39.81000 221.099
39.82000 222.402
39.83000 223.687
39.84000 225.564
39.85000 229.720
39.86000 234.102
39.87000 236.648
39.88000 234.400
39.89000 231.903
39.90000 230.292
39.91000 235.876
39.92000 240.058
39.93000 240.647
39.94000 236.958
39.95000 233.257
39.96000 228.680
39.97000 223.424
39.98000 218.254
39.99000 220.129
40.00000 225.492
40.01000 230.609
40.02000 231.640
40.03000 231.222
40.04000 230.488
40.05000 226.882
40.06000 222.588
40.07000 218.867
40.08000 216.954
40.09000 215.566
40.10000 214.789
40.11000 216.280
40.12000 217.985
40.13000 218.448
40.14000 215.780
40.15000 212.961
40.16000 211.167
40.17000 218.307
40.18000 223.606
40.19000 227.571
40.20000 230.008
40.21000 232.420
40.22000 230.182
40.23000 224.484
40.24000 218.888
40.25000 217.368
40.26000 217.877
40.27000 218.515
40.28000 221.182
40.29000 224.544
40.30000 227.353
40.31000 225.388
40.32000 222.321
40.33000 219.678
40.34000 216.054
40.35000 212.859
40.36000 211.092
40.37000 214.444
40.38000 218.251
40.39000 220.275
40.40000 217.952
40.41000 215.433
40.42000 213.853
40.43000 207.437
40.44000 202.748
40.45000 203.213
40.46000 209.352
40.47000 215.490
40.48000 220.939
40.49000 225.895
40.50000 230.752
40.51000 229.701
40.52000 225.935
40.53000 222.373
40.54000 221.791
40.55000 222.196
40.56000 222.827
40.57000 225.327
40.58000 228.243
40.59000 230.738
40.60000 227.001
40.61000 223.095
40.62000 219.377
40.63000 216.308
40.64000 213.293
40.65000 211.548
40.66000 212.786
40.67000 214.150
40.68000 214.993
40.69000 216.794
40.70000 218.097
40.71000 215.968
40.72000 210.211
40.73000 204.492
40.74000 203.575
40.75000 205.975
40.76000 208.322
40.77000 208.828
40.78000 208.486
40.79000 207.986
40.80000 205.299
40.81000 201.912
40.82000 199.252
40.83000 202.315
40.84000 206.604
40.85000 210.250
40.86000 204.515
40.87000 198.618
40.88000 195.540
40.89000 201.855
40.90000 208.922
40.91000 215.188
40.92000 219.634
40.93000 224.010
40.94000 226.676
40.95000 220.805
40.96000 216.542
40.97000 214.007
40.98000 213.228
40.99000 212.448
41.00000 211.641
41.01000 210.817
41.02000 210.012
41.03000 212.020
41.04000 215.153
41.05000 217.898
41.06000 215.575
41.07000 211.691
41.08000 208.041
41.09000 206.165
41.10000 204.653
41.11000 203.376
41.12000 204.857
41.13000 206.397
41.14000 208.323
41.15000 211.491
41.16000 214.752
41.17000 215.242
41.18000 209.654
41.19000 203.850
41.20000 200.367
41.21000 202.554
41.22000 204.147
41.23000 206.519
41.24000 209.653
41.25000 212.755
41.26000 213.151
41.27000 211.810
41.28000 210.505
41.29000 209.772
41.30000 209.312
41.31000 208.954
41.32000 209.865
41.33000 211.153
41.34000 211.884
41.35000 208.601
41.36000 204.523
41.37000 201.101
41.38000 204.130
41.39000 207.323
41.40000 209.104
41.41000 206.501
41.42000 203.585
41.43000 202.401
41.44000 204.886
41.45000 207.491
41.46000 209.029
41.47000 202.998
41.48000 198.696
41.49000 197.978
41.50000 200.613
41.51000 203.237
41.52000 204.942
41.53000 206.080
41.54000 207.183
41.55000 206.793
41.56000 205.824
41.57000 205.059
41.58000 206.669
41.59000 208.960
41.60000 210.567
41.61000 207.463
41.62000 203.460
41.63000 200.126
41.64000 196.683
41.65000 193.820
41.66000 192.820
41.67000 197.399
41.68000 202.353
41.69000 206.350
41.70000 208.390
41.71000 210.371
41.72000 211.523
41.73000 208.893
41.74000 207.028
41.75000 203.509
41.76000 198.500
41.77000 193.610
41.78000 196.255
41.79000 203.403
41.80000 210.324
41.81000 209.857
41.82000 206.571
41.83000 203.360
41.84000 200.972
41.85000 198.811
41.86000 197.409
41.87000 201.018
41.88000 205.546
41.89000 209.290
41.90000 208.910
41.91000 208.208
41.92000 208.392
41.93000 211.140
41.94000 214.050
41.95000 214.910
41.96000 211.721
41.97000 208.424
41.98000 206.538
41.99000 204.835
42.00000 203.649
42.01000 204.148
42.02000 206.103
42.03000 208.091
42.04000 211.962
42.05000 216.919
42.06000 221.705
42.07000 218.349
42.08000 212.171
42.09000 206.541
42.10000 206.658
42.11000 208.310
42.12000 209.809
42.13000 210.337
42.14000 210.694
42.15000 210.988
42.16000 211.020
42.17000 211.023
42.18000 211.774
42.19000 214.615
42.20000 217.579
42.21000 219.882
42.22000 220.924
42.23000 221.936
42.24000 222.505
42.25000 219.906
42.26000 218.096
42.27000 217.341
42.28000 217.464
42.29000 217.596
42.30000 218.190
42.31000 219.043
42.32000 219.864
42.33000 216.878
42.34000 212.718
42.35000 208.829
42.36000 207.644
42.37000 207.155
42.38000 206.933
42.39000 208.332
42.40000 210.005
42.41000 211.368
42.42000 212.957
42.43000 214.275
42.44000 214.466
42.45000 211.618
42.46000 208.603
42.47000 207.181
42.48000 208.693
42.49000 210.268
42.50000 211.139
42.51000 211.908
42.52000 212.433
42.53000 211.451
42.54000 209.264
42.55000 207.024
42.56000 202.501
42.57000 196.751
42.58000 191.230
42.59000 198.543
42.60000 209.783
42.61000 219.687
42.62000 216.915
42.63000 210.999
42.64000 205.371
42.65000 201.425
42.66000 197.752
42.67000 194.783
42.68000 193.017
42.69000 191.677
42.70000 192.781
42.71000 200.249
42.72000 208.047
42.73000 211.273
42.74000 206.379
42.75000 201.329
42.76000 198.586
42.77000 198.621
42.78000 198.659
42.79000 201.254
42.80000 205.820
42.81000 210.340
42.82000 213.074
42.83000 214.881
42.84000 216.611
42.85000 205.220
42.86000 190.278
42.87000 176.977
42.88000 178.507
42.89000 183.581
42.90000 188.644
42.91000 193.641
42.92000 198.628
42.93000 202.627
42.94000 203.624
42.95000 204.204
42.96000 202.946
42.97000 197.065
42.98000 190.960
42.99000 188.329
43.00000 191.648
43.01000 195.070
43.02000 196.894
43.03000 202.928
43.04000 207.025
43.05000 207.908
43.06000 206.406
43.07000 204.882
43.08000 202.550
43.09000 199.814
43.10000 197.204
43.11000 196.103
43.12000 195.559
43.13000 195.211
43.14000 196.543
43.15000 198.263
43.16000 199.757
43.17000 200.035
43.18000 200.132
43.19000 200.210
43.20000 190.024
43.21000 181.081
43.22000 175.934
43.23000 180.007
43.24000 184.492
43.25000 186.637
43.26000 184.913
43.27000 183.130
43.28000 182.198
43.29000 184.839
43.30000 186.636
43.31000 189.707
43.32000 193.688
43.33000 197.585
43.34000 198.750
43.35000 198.595
43.36000 198.448
43.37000 201.006
43.38000 204.198
43.39000 206.633
43.40000 202.847
43.41000 197.682
43.42000 194.596
43.43000 202.277
43.44000 211.495
43.45000 218.765
43.46000 204.791
43.47000 192.149
43.48000 183.917
43.49000 186.030
43.50000 188.573
43.51000 189.514
43.52000 187.903
43.53000 186.258
43.54000 185.414
43.55000 188.577
43.56000 190.693
43.57000 191.463
43.58000 191.306
43.59000 191.126
43.60000 190.275
43.61000 189.110
43.62000 188.006
43.63000 192.241
43.64000 197.708
43.65000 202.552
43.66000 202.507
43.67000 201.419
43.68000 199.735
43.69000 195.081
43.70000 190.021
43.71000 186.064
43.72000 191.364
43.73000 196.184
43.74000 200.033
43.75000 201.679
43.76000 203.242
43.77000 204.336
43.78000 204.709
43.79000 205.074
43.80000 205.258
43.81000 197.862
43.82000 192.953
43.83000 191.129
43.84000 191.355
43.85000 191.570
43.86000 191.474
43.87000 191.238
43.88000 191.016
43.89000 189.678
43.90000 188.136
43.91000 187.201
43.92000 190.825
43.93000 195.387
43.94000 198.918
43.95000 197.514
43.96000 195.465
43.97000 193.877
43.98000 192.833
43.99000 192.037
44.00000 191.274
44.01000 190.584
44.02000 189.897
44.03000 189.846
44.04000 190.738
44.05000 191.639
44.06000 189.797
44.07000 185.292
44.08000 180.830
44.09000 180.048
44.10000 181.624
44.11000 183.115
44.12000 182.479
44.13000 180.917
44.14000 179.448
44.15000 182.409
44.16000 186.316
44.17000 190.149
44.18000 193.456
44.19000 196.660
44.20000 198.507
44.21000 194.103
44.22000 188.919
44.23000 184.936
44.24000 189.708
44.25000 193.972
44.26000 197.643
44.27000 200.060
44.28000 202.437
44.29000 202.066
44.30000 197.768
44.31000 193.441
44.32000 192.555
44.33000 194.876
44.34000 197.184
44.35000 198.485
44.36000 199.163
44.37000 199.835
44.38000 200.339
44.39000 200.773
44.40000 201.180
44.41000 197.157
44.42000 192.343
44.43000 187.839
44.44000 185.470
44.45000 183.506
44.46000 182.478
44.47000 185.604
44.48000 189.225
44.49000 191.982
44.50000 198.904
44.51000 204.570
44.52000 207.302
44.53000 204.052
44.54000 200.627
44.55000 200.189
44.56000 203.865
44.57000 207.565
44.58000 208.972
44.59000 208.323
44.60000 207.648
44.61000 205.235
44.62000 201.787
44.63000 198.525
44.64000 199.284
44.65000 201.675
44.66000 203.908
44.67000 206.377
44.68000 208.676
44.69000 210.244
44.70000 206.998
44.71000 202.874
44.72000 199.981
44.73000 202.349
44.74000 205.316
44.75000 207.553
44.76000 210.798
44.77000 213.388
44.78000 214.180
44.79000 211.431
44.80000 208.588
44.81000 207.419
44.82000 208.470
44.83000 209.532
44.84000 210.341
44.85000 210.931
44.86000 211.506
44.87000 211.231
44.88000 210.467
44.89000 209.877
44.90000 212.785
44.91000 217.062
44.92000 221.039
44.93000 222.359
44.94000 222.912
44.95000 223.216
44.96000 221.942
44.97000 220.392
44.98000 218.011
44.99000 212.213
45.00000 206.045
45.01000 201.438
45.02000 210.971
45.03000 219.050
45.04000 224.036
45.05000 223.147
45.06000 222.117
45.07000 221.362
45.08000 220.960
45.09000 220.559
45.10000 219.708
45.11000 218.488
45.12000 217.305
45.13000 217.906
45.14000 219.496
45.15000 220.739
45.16000 215.473
45.17000 207.745
45.18000 200.590
45.19000 202.849
45.20000 207.051
45.21000 210.476
45.22000 209.196
45.23000 207.123
45.24000 206.036
45.25000 208.864
45.26000 212.097
45.27000 214.486
45.28000 204.943
45.29000 197.030
45.30000 193.208
45.31000 196.888
45.32000 200.729
45.33000 200.639
45.34000 195.716
45.35000 190.789
45.36000 192.953
45.37000 200.738
45.38000 208.326
45.39000 207.243
45.40000 201.518
45.41000 196.154
45.42000 197.132
45.43000 200.426
45.44000 203.463
45.45000 203.458
45.46000 202.780
45.47000 202.325
45.48000 203.171
45.49000 204.228
45.50000 203.807
45.51000 197.733
45.52000 191.105
45.53000 186.253
45.54000 183.391
45.55000 181.262
45.56000 179.990
45.57000 180.238
45.58000 180.515
45.59000 182.666
45.60000 187.033
45.61000 191.394
45.62000 191.523
45.63000 188.420
45.64000 185.423
45.65000 186.580
45.66000 189.884
45.67000 192.855
45.68000 190.347
45.69000 185.906
45.70000 181.831
45.71000 177.373
45.72000 173.316
45.73000 170.754
45.74000 176.539
45.75000 183.618
45.76000 189.998
45.77000 193.801
45.78000 197.362
45.79000 199.942
45.80000 194.666
45.81000 190.324
45.82000 186.680
45.83000 184.227
45.84000 181.795
45.85000 179.228
45.86000 176.509
45.87000 173.797
45.88000 173.186
45.89000 174.122
45.90000 175.001
45.91000 173.868
45.92000 171.732
45.93000 169.716
45.94000 169.559
45.95000 170.035
45.96000 170.470
45.97000 173.128
45.98000 175.940
45.99000 178.038
46.00000 176.302
46.01000 173.997
46.02000 172.582
46.03000 174.332
46.04000 176.362
46.05000 177.816
46.06000 170.948
46.07000 165.417
46.08000 164.086
46.09000 169.680
46.10000 175.375
46.11000 177.996
46.12000 177.255
46.13000 176.515
46.14000 174.534
46.15000 171.696
46.16000 168.852
46.17000 165.819
46.18000 162.695
46.19000 160.062
46.20000 164.560
46.21000 171.402
46.22000 177.623
46.23000 181.107
46.24000 183.654
46.25000 185.581
46.26000 184.308
46.27000 182.581
46.28000 180.642
46.29000 177.976
46.30000 175.250
46.31000 173.318
46.32000 181.178
46.33000 187.462
46.34000 188.963
46.35000 182.863
46.36000 176.665
46.37000 174.733
46.38000 177.282
46.39000 179.819
46.40000 180.052
46.41000 178.717
46.42000 177.484
46.43000 179.255
46.44000 182.425
46.45000 185.263
46.46000 183.571
46.47000 180.442
46.48000 177.611
46.49000 176.451
46.50000 175.742
46.51000 175.262
46.52000 175.921
46.53000 176.735
46.54000 176.028
46.55000 170.283
46.56000 164.138
46.57000 159.832
46.58000 162.881
46.59000 165.400
46.60000 167.178
46.61000 167.819
46.62000 168.448
46.63000 168.149
46.64000 166.914
46.65000 165.686
46.66000 167.087
46.67000 170.185
46.68000 173.218
46.69000 174.521
46.70000 175.046
46.71000 175.623
46.72000 176.879
46.73000 178.344
46.74000 179.662
46.75000 178.820
46.76000 177.695
46.77000 176.707
46.78000 176.374
46.79000 176.126
46.80000 176.484
46.81000 178.779
46.82000 181.220
46.83000 182.911
46.84000 178.578
46.85000 175.158
46.86000 172.075
46.87000 169.491
46.88000 166.911
46.89000 169.199
46.90000 176.200
46.91000 183.149
46.92000 180.589
46.93000 172.098
46.94000 163.916
46.95000 163.462
46.96000 166.361
46.97000 169.245
46.98000 171.949
46.99000 174.599
47.00000 176.972
47.01000 168.833
47.02000 159.922
47.03000 153.630
47.04000 159.371
47.05000 166.610
47.06000 171.324
47.07000 168.249
47.08000 164.624
47.09000 162.141
47.10000 169.804
47.11000 175.786
47.12000 177.217
47.13000 172.166
47.14000 167.067
47.15000 164.322
47.16000 163.766
47.17000 163.215
47.18000 164.587
47.19000 167.095
47.20000 169.505
47.21000 169.650
47.22000 168.845
47.23000 167.842
47.24000 164.554
47.25000 160.615
47.26000 157.106
47.27000 156.605
47.28000 156.664
47.29000 157.093
47.30000 159.158
47.31000 161.416
47.32000 162.260
47.33000 158.892
47.34000 155.243
47.35000 152.774
47.36000 156.706
47.37000 159.774
47.38000 162.091
47.39000 163.377
47.40000 164.656
47.41000 164.830
47.42000 164.017
47.43000 163.212
47.44000 163.408
47.45000 164.182
47.46000 164.932
47.47000 165.166
47.48000 165.190
47.49000 165.121
47.50000 164.020
47.51000 162.636
47.52000 161.409
47.53000 161.243
47.54000 161.267
47.55000 161.106
47.56000 160.160
47.57000 159.126
47.58000 157.759
47.59000 155.433
47.60000 153.047
47.61000 151.453
47.62000 148.045
47.63000 145.484
47.64000 143.798
47.65000 143.268
47.66000 142.750
47.67000 145.911
47.68000 152.235
47.69000 158.486
47.70000 159.616
47.71000 157.854
47.72000 156.236
47.73000 157.514
47.74000 159.924
47.75000 162.211
47.76000 163.231
47.77000 163.916
47.78000 164.519
47.79000 163.306
47.80000 161.988
47.81000 161.244
47.82000 162.857
47.83000 164.724
47.84000 165.651
47.85000 163.970
47.86000 162.135
47.87000 160.925
47.88000 156.549
47.89000 153.268
47.90000 152.237
47.91000 154.072
47.92000 155.916
47.93000 156.725
47.94000 156.681
47.95000 156.637
47.96000 157.093
47.97000 157.807
47.98000 158.696
47.99000 162.849
48.00000 168.234
48.01000 173.100
48.02000 172.832
48.03000 171.251
48.04000 169.867
48.05000 169.488
48.06000 169.307
48.07000 168.329
48.08000 164.192
48.09000 159.731
48.10000 156.366
48.11000 155.941
48.12000 155.677
48.13000 155.505
48.14000 155.127
48.15000 154.846
48.16000 154.688
48.17000 154.681
48.18000 154.681
48.19000 156.777
48.20000 160.541
48.21000 164.249
48.22000 164.285
48.23000 162.417
48.24000 160.547
48.25000 158.626
48.26000 156.688
48.27000 155.169
48.28000 157.613
48.29000 161.032
48.30000 164.010
48.31000 163.959
48.32000 163.500
48.33000 162.027
48.34000 156.687
48.35000 150.970
48.36000 148.003
48.37000 152.160
48.38000 156.680
48.39000 159.586
48.40000 158.317
48.41000 157.333
48.42000 158.026
48.43000 160.697
48.44000 163.365
48.45000 164.896
48.46000 165.557
48.47000 166.206
48.48000 161.360
48.49000 153.931
48.50000 147.064
48.51000 149.374
48.52000 154.911
48.53000 159.884
48.54000 159.795
48.55000 158.504
48.56000 157.388
48.57000 155.781
48.58000 154.351
48.59000 152.983
48.60000 151.843
48.61000 150.725
48.62000 150.613
48.63000 153.018
48.64000 155.543
48.65000 157.143
48.66000 157.837
48.67000 158.329
48.68000 157.094
48.69000 153.902
48.70000 150.729
48.71000 151.264
48.72000 154.534
48.73000 157.744
48.74000 158.185
48.75000 157.281
48.76000 156.394
48.77000 155.744
48.78000 155.175
48.79000 154.488
48.80000 152.787
48.81000 150.855
48.82000 149.193
48.83000 149.616
48.84000 150.236
48.85000 151.053
48.86000 152.569
48.87000 154.145
48.88000 154.827
48.89000 153.349
48.90000 151.774
48.91000 150.790
48.92000 151.404
48.93000 151.863
48.94000 151.883
48.95000 151.424
48.96000 150.973
48.97000 151.646
48.98000 153.117
48.99000 154.558
49.00000 157.471
49.01000 160.950
49.02000 164.180
49.03000 163.817
49.04000 162.276
49.05000 160.560
49.06000 157.415
49.07000 153.955
49.08000 150.999
49.09000 153.785
49.10000 156.817
49.11000 158.546
49.12000 155.813
49.13000 152.707
49.14000 151.148
49.15000 153.193
49.16000 155.386
49.17000 156.737
49.18000 156.859
49.19000 156.936
49.20000 156.907
49.21000 156.767
49.22000 156.609
49.23000 154.406
49.24000 150.801
49.25000 147.279
49.26000 149.884
49.27000 155.104
49.28000 159.931
49.29000 159.422
49.30000 157.223
49.31000 155.576
49.32000 158.229
49.33000 161.795
49.34000 164.821
49.35000 159.911
49.36000 154.889
49.37000 151.046
49.38000 151.099
49.39000 151.459
49.40000 152.227
49.41000 153.913
49.42000 155.633
49.43000 156.678
49.44000 157.472
49.45000 158.036
49.46000 155.740
49.47000 150.569
49.48000 145.420
49.49000 142.359
49.50000 140.676
49.51000 139.036
49.52000 144.050
49.53000 151.684
49.54000 158.657
49.55000 157.136
49.56000 153.023
49.57000 149.303
49.58000 148.525
49.59000 148.346
49.60000 148.196
49.61000 145.041
49.62000 142.080
49.63000 141.078
49.64000 146.319
49.65000 152.025
49.66000 153.702
49.67000 146.619
49.68000 139.233
49.69000 134.817
49.70000 147.380
49.71000 156.401
49.72000 157.373
49.73000 150.578
49.74000 143.879
49.75000 144.994
49.76000 151.083
49.77000 157.007
49.78000 156.052
49.79000 152.312
49.80000 148.853
49.81000 148.800
49.82000 149.750
49.83000 150.895
49.84000 153.424
49.85000 156.224
49.86000 158.569
49.87000 159.407
49.88000 159.947
49.89000 158.934
49.90000 153.138
49.91000 147.006
49.92000 143.519
49.93000 145.584
49.94000 147.826
49.95000 149.145
49.96000 153.048
49.97000 155.814
49.98000 156.243
49.99000 154.507
50.00000 152.765
50.01000 150.634
50.02000 148.263
50.03000 145.963
50.04000 148.424
50.05000 152.642
50.06000 156.583
50.07000 157.331
50.08000 157.171
50.09000 157.558
50.10000 161.682
50.11000 166.512
50.12000 170.527
50.13000 164.628
50.14000 158.775
50.15000 154.088
50.16000 152.863
50.17000 151.867
50.18000 150.814
50.19000 149.643
50.20000 148.470
50.21000 147.790
50.22000 156.570
50.23000 162.763
50.24000 163.492
50.25000 159.356
50.26000 155.222
50.27000 151.214
50.28000 147.282
50.29000 143.476
50.30000 145.091
50.31000 148.684
50.32000 152.072
50.33000 153.237
50.34000 153.793
50.35000 154.444
50.36000 155.728
50.37000 157.126
50.38000 158.280
50.39000 158.957
50.40000 159.470
50.41000 159.490
50.42000 158.097
50.43000 156.615
50.44000 157.723
50.45000 163.897
50.46000 170.205
50.47000 173.798
50.48000 167.513
50.49000 163.102
50.50000 160.386
50.51000 159.120
50.52000 157.907
50.53000 159.506
50.54000 162.712
50.55000 165.806
50.56000 166.440
50.57000 166.135
50.58000 165.764
50.59000 164.706
50.60000 163.466
50.61000 162.343
50.62000 161.952
50.63000 161.688
50.64000 161.472
50.65000 160.440
50.66000 159.521
50.67000 160.182
50.68000 165.215
50.69000 170.503
50.70000 173.710
50.71000 172.986
50.72000 172.169
50.73000 171.711
50.74000 172.348
50.75000 172.781
50.76000 168.411
50.77000 160.085
50.78000 151.992
50.79000 155.175
50.80000 164.576
50.81000 173.623
50.82000 172.938
50.83000 168.861
50.84000 164.859
50.85000 161.596
50.86000 158.520
50.87000 155.575
50.88000 153.419
50.89000 151.394
50.90000 149.747
50.91000 149.043
50.92000 148.547
50.93000 148.978
50.94000 151.887
50.95000 154.930
50.96000 156.583
50.97000 155.701
50.98000 154.766
50.99000 154.251
51.00000 151.779
51.01000 150.077
51.02000 149.416
51.03000 149.581
51.04000 149.752
51.05000 150.186
51.06000 150.759
51.07000 151.310
51.08000 150.683
51.09000 149.698
51.10000 148.883
51.11000 149.669
51.12000 150.847
51.13000 151.006
51.14000 145.275
51.15000 138.598
51.16000 133.213
51.17000 138.723
51.18000 144.062
51.19000 146.948
51.20000 143.508
51.21000 139.745
51.22000 137.713
51.23000 138.728
51.24000 139.801
51.25000 140.380
51.26000 143.462
51.27000 145.571
51.28000 147.183
51.29000 148.415
51.30000 149.617
51.31000 149.643
51.32000 149.064
51.33000 148.511
51.34000 149.687
51.35000 151.346
51.36000 152.731
51.37000 151.671
51.38000 150.033
51.39000 148.396
51.40000 146.760
51.41000 145.126
51.42000 143.817
51.43000 142.364
51.44000 141.178
51.45000 141.080
51.46000 143.696
51.47000 146.441
51.48000 149.109
51.49000 151.647
51.50000 154.182
51.51000 155.528
51.52000 152.149
51.53000 149.847
51.54000 147.565
51.55000 145.297
51.56000 143.087
51.57000 142.942
51.58000 143.822
51.59000 144.661
51.60000 144.564
51.61000 144.180
51.62000 143.844
51.63000 143.919
51.64000 144.087
51.65000 144.409
51.66000 145.546
51.67000 146.804
51.68000 147.803
51.69000 149.634
51.70000 151.167
51.71000 151.368
51.72000 148.362
51.73000 145.215
51.74000 142.072
51.75000 138.937
51.76000 135.802
51.77000 134.169
51.78000 140.557
51.79000 144.847
51.80000 145.052
51.81000 142.364
51.82000 139.687
51.83000 137.329
51.84000 135.126
51.85000 133.032
51.86000 138.691
51.87000 146.260
51.88000 152.865
51.89000 151.624
51.90000 148.661
51.91000 146.047
51.92000 145.227
51.93000 144.660
51.94000 144.214
51.95000 140.495
51.96000 137.298
51.97000 136.280
51.98000 140.330
51.99000 144.585
52.00000 147.228
52.01000 147.322
52.02000 147.384
52.03000 147.415
52.04000 146.970
52.05000 146.670
52.06000 146.292
52.07000 145.862
52.08000 145.426
52.09000 144.830
52.10000 144.160
52.11000 143.526
52.12000 142.849
52.13000 142.214
52.14000 141.650
52.15000 141.643
52.16000 141.753
52.17000 141.874
52.18000 142.045
52.19000 142.223
52.20000 142.361
52.21000 136.752
52.22000 131.919
52.23000 128.946
52.24000 130.149
52.25000 131.508
52.26000 132.933
52.27000 134.458
52.28000 135.984
52.29000 136.748
52.30000 140.923
52.31000 143.684
52.32000 144.221
52.33000 143.296
52.34000 142.313
52.35000 139.813
52.36000 136.636
52.37000 133.637
52.38000 132.151
52.39000 131.209
52.40000 130.573
52.41000 132.199
52.42000 134.285
52.43000 136.043
52.44000 136.246
52.45000 136.247
52.46000 136.248
52.47000 140.662
52.48000 144.424
52.49000 146.609
52.50000 145.372
52.51000 144.018
52.52000 141.695
52.53000 137.950
52.54000 134.191
52.55000 133.387
52.56000 135.423
52.57000 137.398
52.58000 134.447
52.59000 128.370
52.60000 122.714
52.61000 127.480
52.62000 136.741
52.63000 145.446
52.64000 146.415
52.65000 145.226
52.66000 144.208
52.67000 144.401
52.68000 144.831
52.69000 144.802
52.70000 142.672
52.71000 140.282
52.72000 138.451
52.73000 139.094
52.74000 139.739
52.75000 139.846
52.76000 138.825
52.77000 137.770
52.78000 137.355
52.79000 137.849
52.80000 138.349
52.81000 139.270
52.82000 140.578
52.83000 141.878
52.84000 142.580
52.85000 142.917
52.86000 143.150
52.87000 141.015
52.88000 137.893
52.89000 134.971
52.90000 136.404
52.91000 138.830
52.92000 140.885
52.93000 140.420
52.94000 139.482
52.95000 139.564
52.96000 144.137
52.97000 149.240
52.98000 153.115
52.99000 144.403
53.00000 136.905
53.01000 132.370
53.02000 133.826
53.03000 135.454
53.04000 135.982
53.05000 135.008
53.06000 134.026
53.07000 133.917
53.08000 134.581
53.09000 135.281
53.10000 138.174
53.11000 142.361
53.12000 146.333
53.13000 145.701
53.14000 143.218
53.15000 140.902
53.16000 140.540
53.17000 140.697
53.18000 141.044
53.19000 142.638
53.20000 144.457
53.21000 145.581
53.22000 143.762
53.23000 141.613
53.24000 139.996
53.25000 143.829
53.26000 147.091
53.27000 148.419
53.28000 145.974
53.29000 143.432
53.30000 142.266
53.31000 142.909
53.32000 143.560
53.33000 143.439
53.34000 142.662
53.35000 141.883
53.36000 140.988
53.37000 140.026
53.38000 139.148
53.39000 139.902
53.40000 141.292
53.41000 142.582
53.42000 147.508
53.43000 152.815
53.44000 156.585
53.45000 150.753
53.46000 143.255
53.47000 137.553
53.48000 139.187
53.49000 141.606
53.50000 143.408
53.51000 141.293
53.52000 139.471
53.53000 140.145
53.54000 145.520
53.55000 151.006
53.56000 151.514
53.57000 145.725
53.58000 139.922
53.59000 137.509
53.60000 137.877
53.61000 138.256
53.62000 139.152
53.63000 140.333
53.64000 141.472
53.65000 141.831
53.66000 141.899
53.67000 141.961
53.68000 146.852
53.69000 152.345
53.70000 156.452
53.71000 152.232
53.72000 146.625
53.73000 141.521
53.74000 138.394
53.75000 135.469
53.76000 133.312
53.77000 139.158
53.78000 144.024
53.79000 146.162
53.80000 143.342
53.81000 140.418
53.82000 137.980
53.83000 136.132
53.84000 134.288
53.85000 134.154
53.86000 135.366
53.87000 136.514
53.88000 134.962
53.89000 131.977
53.90000 129.188
53.91000 129.778
53.92000 131.591
53.93000 133.261
53.94000 128.197
53.95000 122.191
53.96000 117.583
53.97000 121.023
53.98000 125.749
53.99000 130.490
54.00000 135.285
54.01000 140.086
54.02000 143.590
54.03000 140.586
54.04000 138.015
54.05000 135.599
54.06000 133.452
54.07000 131.309
54.08000 130.268
54.09000 130.516
54.10000 130.765
54.11000 130.428
54.12000 129.650
54.13000 128.981
54.14000 132.537
54.15000 138.257
54.16000 143.612
54.17000 143.068
54.18000 140.461
54.19000 138.072
54.20000 137.061
54.21000 136.449
54.22000 135.687
54.23000 134.093
54.24000 132.372
54.25000 132.184
54.26000 137.601
54.27000 143.535
54.28000 147.821
54.29000 144.161
54.30000 141.066
54.31000 137.799
54.32000 134.238
54.33000 130.673
54.34000 129.764
54.35000 131.848
54.36000 133.927
54.37000 133.166
54.38000 130.346
54.39000 127.694
54.40000 130.872
54.41000 136.933
54.42000 142.491
54.43000 140.411
54.44000 135.752
54.45000 131.501
54.46000 131.923
54.47000 133.239
54.48000 134.265
54.49000 133.744
54.50000 132.996
54.51000 133.157
54.52000 136.525
54.53000 140.173
54.54000 142.780
54.55000 140.411
54.56000 138.437
54.57000 137.164
54.58000 137.035
54.59000 136.922
54.60000 136.281
54.61000 135.068
54.62000 133.861
54.63000 133.170
54.64000 132.847
54.65000 132.591
54.66000 134.439
54.67000 137.292
54.68000 139.845
54.69000 138.122
54.70000 135.006
54.71000 132.176
54.72000 134.646
54.73000 137.852
54.74000 140.036
54.75000 136.996
54.76000 133.222
54.77000 129.689
54.78000 126.973
54.79000 124.324
54.80000 122.452
54.81000 126.122
54.82000 129.079
54.83000 132.007
54.84000 134.889
54.85000 137.771
54.86000 138.549
54.87000 137.140
54.88000 135.738
54.89000 136.640
54.90000 139.079
54.91000 141.425
54.92000 141.068
54.93000 139.465
54.94000 138.355
54.95000 143.899
54.96000 151.535
54.97000 158.435
54.98000 153.747
54.99000 147.478
55.00000 142.057
55.01000 140.805
55.02000 140.114
55.03000 140.122
55.04000 142.424
55.05000 144.906
55.06000 146.640
55.07000 144.715
55.08000 143.157
55.09000 142.169
55.10000 142.047
55.11000 141.933
55.12000 141.214
55.13000 139.892
55.14000 138.579
55.15000 137.530
55.16000 136.667
55.17000 135.835
55.18000 135.836
55.19000 136.209
55.20000 136.761
55.21000 139.589
55.22000 143.109
55.23000 146.273
55.24000 147.105
55.25000 147.420
55.26000 147.629
55.27000 147.339
55.28000 146.985
55.29000 146.920
55.30000 147.773
55.31000 148.694
55.32000 149.330
55.33000 147.952
55.34000 146.865
55.35000 146.184
55.36000 146.100
55.37000 146.021
55.38000 147.575
55.39000 150.692
55.40000 153.786
55.41000 157.169
55.42000 160.675
55.43000 164.077
55.44000 164.923
55.45000 164.671
55.46000 164.350
55.47000 163.212
55.48000 161.835
55.49000 160.603
55.50000 164.279
55.51000 168.319
55.52000 171.330
55.53000 169.655
55.54000 167.404
55.55000 167.200
55.56000 173.256
55.57000 179.748
55.58000 184.180
55.59000 180.720
55.60000 177.947
55.61000 176.667
55.62000 177.493
55.63000 178.335
55.64000 180.256
55.65000 183.169
55.66000 186.057
55.67000 185.899
55.68000 183.921
55.69000 182.245
55.70000 187.450
55.71000 195.512
55.72000 203.442
55.73000 209.868
55.74000 215.869
55.75000 221.207
55.76000 221.823
55.77000 221.589
55.78000 220.952
55.79000 218.546
55.80000 215.933
55.81000 215.225
55.82000 220.144
55.83000 225.431
55.84000 228.997
55.85000 227.365
55.86000 226.040
55.87000 224.953
55.88000 224.190
55.89000 223.431
55.90000 224.421
55.91000 226.957
55.92000 229.468
55.93000 232.545
55.94000 235.881
55.95000 238.974
55.96000 236.927
55.97000 232.819
55.98000 229.209
55.99000 230.984
56.00000 234.226
56.01000 237.095
56.02000 237.566
56.03000 237.600
56.04000 235.663
56.05000 225.398
56.06000 214.202
56.07000 206.790
56.08000 210.167
56.09000 214.209
56.10000 216.901
56.11000 209.050
56.12000 203.039
56.13000 200.758
56.14000 203.363
56.15000 205.983
56.16000 203.916
56.17000 197.863
56.18000 191.881
56.19000 187.787
56.20000 184.840
56.21000 181.986
56.22000 180.985
56.23000 180.702
56.24000 180.790
56.25000 184.700
56.26000 189.614
56.27000 193.936
56.28000 189.493
56.29000 184.365
56.30000 179.529
56.31000 175.884
56.32000 172.365
56.33000 168.538
56.34000 163.862
56.35000 159.137
56.36000 156.029
56.37000 162.345
56.38000 167.156
56.39000 168.382
56.40000 165.089
56.41000 161.783
56.42000 159.861
56.43000 159.071
56.44000 158.292
56.45000 156.410
56.46000 153.991
56.47000 151.765
56.48000 153.075
56.49000 155.706
56.50000 157.752
56.51000 154.093
56.52000 148.987
56.53000 144.522
56.54000 142.822
56.55000 141.758
56.56000 140.789
56.57000 140.189
56.58000 139.626
56.59000 138.845
56.60000 137.480
56.61000 136.084
56.62000 135.178
56.63000 137.620
56.64000 139.459
56.65000 140.340
56.66000 140.057
56.67000 139.759
56.68000 135.686
56.69000 128.639
56.70000 121.700
56.71000 119.363
56.72000 119.458
56.73000 119.551
56.74000 119.617
56.75000 119.674
56.76000 120.081
56.77000 123.751
56.78000 128.218
56.79000 132.102
56.80000 132.346
56.81000 132.060
56.82000 131.763
56.83000 131.421
56.84000 131.076
56.85000 130.173
56.86000 127.842
56.87000 125.439
56.88000 123.900
56.89000 124.303
56.90000 124.623
56.91000 125.459
56.92000 126.898
56.93000 128.344
56.94000 131.075
56.95000 134.781
56.96000 138.423
56.97000 135.291
56.98000 128.917
56.99000 122.771
57.00000 120.286
57.01000 119.077
57.02000 118.094
57.03000 119.110
57.04000 120.597
57.05000 121.882
57.06000 122.882
57.07000 123.695
57.08000 124.899
57.09000 127.529
57.10000 130.289
57.11000 131.409
57.12000 128.467
57.13000 125.335
57.14000 123.356
57.15000 124.127
57.16000 124.717
57.17000 126.340
57.18000 129.123
57.19000 131.882
57.20000 130.575
57.21000 126.299
57.22000 122.103
57.23000 123.604
57.24000 127.757
57.25000 131.364
57.26000 126.715
57.27000 119.287
57.28000 112.853
57.29000 114.818
57.30000 118.687
57.31000 122.009
57.32000 123.628
57.33000 124.786
57.34000 124.672
57.35000 120.084
57.36000 115.107
57.37000 112.824
57.38000 116.989
57.39000 121.434
57.40000 124.203
57.41000 126.082
57.42000 127.428
57.43000 128.705
57.44000 129.910
57.45000 131.098
57.46000 129.970
57.47000 127.212
57.48000 124.512
57.49000 122.939
57.50000 121.944
57.51000 121.106
57.52000 122.517
57.53000 124.658
57.54000 126.642
57.55000 127.365
57.56000 127.811
57.57000 128.192
57.58000 125.272
57.59000 122.424
57.60000 120.051
57.61000 119.290
57.62000 118.662
57.63000 118.542
57.64000 119.598
57.65000 120.701
57.66000 121.378
57.67000 119.238
57.68000 117.679
57.69000 119.520
57.70000 124.883
57.71000 130.214
57.72000 131.951
57.73000 131.250
57.74000 130.566
57.75000 128.218
57.76000 125.237
57.77000 122.232
57.78000 118.896
57.79000 115.457
57.80000 112.619
57.81000 114.422
57.82000 117.199
57.83000 119.552
57.84000 117.004
57.85000 114.319
57.86000 112.728
57.87000 114.721
57.88000 116.993
57.89000 119.939
57.90000 124.389
57.91000 128.895
57.92000 131.620
57.93000 130.833
57.94000 130.246
57.95000 128.627
57.96000 125.980
57.97000 123.358
57.98000 123.041
57.99000 124.230
58.00000 125.389
58.01000 125.474
58.02000 125.102
58.03000 124.774
58.04000 125.011
58.05000 125.420
58.06000 125.452
58.07000 122.715
58.08000 119.419
58.09000 116.644
58.10000 117.363
58.11000 118.337
58.12000 119.864
58.13000 123.138
58.14000 126.541
58.15000 127.287
58.16000 122.308
58.17000 117.135
58.18000 114.053
58.19000 119.693
58.20000 123.741
58.21000 125.653
58.22000 125.524
58.23000 125.371
58.24000 123.225
58.25000 119.824
58.26000 116.518
58.27000 120.621
58.28000 127.543
58.29000 133.827
58.30000 132.461
58.31000 128.862
58.32000 125.580
58.33000 124.538
58.34000 123.931
58.35000 123.424
58.36000 122.158
58.37000 121.029
58.38000 119.851
58.39000 118.519
58.40000 117.176
58.41000 116.549
58.42000 117.409
58.43000 118.316
58.44000 118.847
58.45000 117.540
58.46000 116.610
58.47000 117.102
58.48000 118.899
58.49000 120.709
58.50000 123.472
58.51000 126.815
58.52000 130.056
58.53000 126.579
58.54000 120.649
58.55000 115.168
58.56000 114.776
58.57000 115.819
58.58000 117.090
58.59000 119.902
58.60000 123.001
58.61000 125.573
58.62000 126.478
58.63000 127.065
58.64000 127.165
58.65000 125.833
58.66000 124.406
58.67000 124.041
58.68000 125.807
58.69000 127.633
58.70000 128.686
58.71000 128.908
58.72000 129.058
58.73000 127.518
58.74000 124.487
58.75000 121.451
58.76000 118.078
58.77000 114.509
58.78000 111.057
58.79000 112.805
58.80000 116.418
58.81000 119.834
58.82000 121.124
58.83000 121.835
58.84000 122.176
58.85000 120.110
58.86000 117.613
58.87000 115.556
58.88000 117.084
58.89000 118.670
58.90000 119.944
58.91000 120.329
58.92000 120.660
58.93000 120.194
58.94000 118.184
58.95000 116.135
58.96000 114.972
58.97000 115.798
58.98000 116.375
58.99000 115.077
59.00000 112.188
59.01000 109.343
59.02000 108.864
59.03000 109.725
59.04000 110.555
59.05000 112.292
59.06000 114.255
59.07000 116.323
59.08000 119.464
59.09000 122.888
59.10000 125.127
59.11000 120.015
59.12000 113.637
59.13000 108.421
59.14000 109.184
59.15000 110.329
59.16000 111.793
59.17000 114.133
59.18000 116.522
59.19000 118.333
59.20000 119.060
59.21000 119.762
59.22000 120.154
59.23000 117.427
59.24000 115.539
59.25000 115.714
59.26000 117.573
59.27000 119.426
59.28000 121.055
59.29000 122.560
59.30000 124.008
59.31000 122.195
59.32000 119.357
59.33000 116.577
59.34000 114.361
59.35000 112.287
59.36000 110.828
59.37000 113.027
59.38000 115.831
59.39000 118.106
59.40000 120.581
59.41000 122.615
59.42000 122.705
59.43000 117.645
59.44000 112.309
59.45000 108.981
59.46000 109.281
59.47000 109.655
59.48000 109.860
59.49000 117.335
59.50000 122.474
59.51000 123.985
59.52000 122.648
59.53000 121.335
59.54000 121.050
59.55000 121.308
59.56000 121.556
59.57000 120.289
59.58000 118.598
59.59000 116.987
59.60000 116.129
59.61000 115.454
59.62000 115.069
59.63000 116.342
59.64000 117.878
59.65000 119.115
59.66000 119.912
59.67000 120.524
59.68000 120.378
59.69000 118.292
59.70000 116.110
59.71000 114.542
59.72000 114.046
59.73000 113.570
59.74000 113.313
59.75000 113.557
59.76000 113.732
59.77000 115.476
59.78000 118.406
59.79000 121.205
59.80000 119.065
59.81000 114.409
59.82000 109.960
59.83000 112.715
59.84000 117.608
59.85000 121.724
59.86000 118.998
59.87000 114.667
59.88000 111.656
59.89000 115.894
59.90000 121.235
59.91000 125.501
59.92000 122.074
59.93000 118.740
59.94000 117.273
59.95000 120.424
59.96000 123.789
59.97000 124.715
59.98000 121.535
59.99000 118.290
60.00000 116.576
60.01000 114.652
60.02000 113.359
60.03000 114.315
60.04000 116.909
60.05000 119.482
60.06000 121.348
60.07000 122.866
60.08000 124.311
60.09000 123.747
60.10000 122.599
60.11000 121.924
60.12000 125.223
60.13000 129.420
60.14000 131.531
60.15000 122.621
60.16000 112.104
60.17000 103.774
60.18000 106.787
60.19000 109.998
60.20000 113.263
60.21000 116.654
60.22000 120.051
60.23000 121.384
60.24000 119.368
60.25000 117.305
60.26000 116.236
60.27000 114.103
60.28000 112.683
60.29000 113.764
60.30000 116.600
60.31000 119.313
60.32000 118.175
60.33000 115.210
60.34000 112.395
60.35000 110.047
60.36000 108.019
60.37000 106.622
60.38000 110.290
60.39000 115.059
60.40000 118.827
60.41000 117.509
60.42000 115.481
60.43000 113.888
60.44000 115.540
60.45000 117.075
60.46000 118.450
60.47000 119.460
60.48000 120.454
60.49000 121.264
60.50000 121.783
60.51000 122.299
60.52000 122.562
60.53000 115.402
60.54000 110.644
60.55000 110.312
60.56000 112.973
60.57000 115.629
60.58000 118.131
60.59000 120.563
60.60000 122.864
60.61000 123.509
60.62000 123.626
60.63000 123.429
60.64000 120.823
60.65000 117.712
60.66000 115.062
60.67000 114.663
60.68000 114.565
60.69000 114.489
60.70000 118.854
60.71000 122.605
60.72000 125.000
60.73000 124.379
60.74000 123.647
60.75000 120.529
60.76000 113.807
60.77000 107.048
60.78000 107.263
60.79000 114.391
60.80000 121.440
60.81000 121.187
60.82000 116.173
60.83000 111.386
60.84000 112.571
60.85000 116.401
60.86000 120.012
60.87000 118.342
60.88000 115.354
60.89000 113.242
60.90000 117.559
60.91000 123.172
60.92000 126.914
60.93000 121.867
60.94000 115.697
60.95000 110.936
60.96000 114.622
60.97000 118.033
60.98000 120.312
60.99000 120.158
61.00000 119.921
61.01000 122.277
61.02000 128.405
61.03000 134.565
61.04000 133.509
61.05000 125.586
61.06000 117.730
61.07000 115.105
61.08000 115.769
61.09000 116.495
61.10000 118.704
61.11000 121.547
61.12000 124.216
61.13000 123.899
61.14000 122.817
61.15000 121.678
61.16000 120.141
61.17000 118.526
61.18000 117.373
61.19000 118.302
61.20000 119.486
61.21000 120.391
61.22000 120.879
61.23000 121.241
61.24000 121.443
61.25000 121.313
61.26000 121.173
61.27000 120.299
61.28000 118.396
61.29000 116.485
61.30000 118.390
61.31000 123.779
61.32000 129.016
61.33000 124.030
61.34000 112.843
61.35000 102.337
61.36000 107.111
61.37000 118.194
61.38000 128.560
61.39000 127.380
61.40000 123.363
61.41000 120.238
61.42000 123.124
61.43000 127.128
61.44000 130.155
61.45000 128.920
61.46000 127.189
61.47000 125.878
61.48000 130.569
61.49000 134.558
61.50000 138.482
61.51000 142.277
61.52000 146.068
61.53000 154.954
61.54000 170.725
61.55000 186.525
61.56000 197.032
61.57000 202.879
61.58000 208.847
61.59000 221.984
61.60000 239.317
61.61000 256.148
61.62000 262.520
61.63000 264.721
61.64000 266.772
61.65000 274.098
61.66000 282.018
61.67000 289.605
61.68000 295.050
61.69000 300.112
61.70000 304.060
61.71000 303.333
61.72000 302.087
61.73000 301.153
61.74000 302.069
61.75000 302.873
61.76000 298.182
61.77000 282.864
61.78000 267.277
61.79000 252.122
61.80000 237.528
61.81000 222.951
61.82000 208.724
61.83000 194.829
61.84000 180.980
61.85000 169.586
61.86000 159.577
61.87000 149.689
61.88000 142.158
61.89000 135.535
61.90000 129.390
61.91000 129.044
61.92000 130.096
61.93000 131.416
61.94000 134.387
61.95000 137.642
61.96000 139.708
61.97000 136.964
61.98000 133.711
61.99000 131.293
62.00000 134.473
62.01000 137.193
62.02000 138.109
62.03000 135.656
62.04000 133.127
62.05000 130.545
62.06000 127.899
62.07000 125.255
62.08000 124.890
62.09000 126.371
62.10000 127.843
62.11000 128.854
62.12000 129.613
62.13000 130.497
62.14000 133.631
62.15000 137.600
62.16000 141.267
62.17000 141.404
62.18000 140.729
62.19000 140.061
62.20000 139.438
62.21000 138.823
62.22000 137.872
62.23000 135.617
62.24000 133.230
62.25000 131.475
62.26000 132.316
62.27000 133.075
62.28000 132.919
62.29000 131.115
62.30000 129.278
62.31000 128.566
62.32000 129.212
62.33000 129.860
62.34000 128.343
62.35000 125.150
62.36000 122.102
62.37000 125.061
62.38000 131.182
62.39000 136.994
62.40000 137.569
62.41000 136.265
62.42000 135.065
62.43000 131.406
62.44000 127.603
62.45000 124.335
62.46000 124.113
62.47000 124.372
62.48000 124.591
62.49000 124.652
62.50000 124.699
62.51000 124.732
62.52000 126.848
62.53000 128.556
62.54000 128.583
62.55000 125.685
62.56000 122.735
62.57000 122.995
62.58000 126.978
62.59000 130.955
62.60000 134.294
62.61000 137.132
62.62000 139.852
62.63000 138.126
62.64000 134.141
62.65000 130.295
62.66000 128.655
62.67000 127.780
62.68000 126.978
62.69000 130.228
62.70000 133.963
62.71000 136.780
62.72000 134.571
62.73000 131.600
62.74000 128.674
62.75000 125.912
62.76000 123.164
62.77000 121.185
62.78000 126.187
62.79000 130.266
62.80000 133.509
62.81000 135.351
62.82000 137.171
62.83000 136.283
62.84000 132.377
62.85000 128.483
62.86000 129.452
62.87000 133.911
62.88000 138.233
62.89000 137.867
62.90000 135.203
62.91000 132.527
62.92000 129.668
62.93000 126.748
62.94000 124.086
62.95000 125.554
62.96000 127.677
62.97000 129.456
62.98000 129.418
62.99000 129.115
63.00000 129.205
63.01000 130.668
63.02000 132.249
63.03000 133.375
63.04000 131.352
63.05000 129.707
63.06000 127.709
63.07000 125.139
63.08000 122.562
63.09000 123.112
63.10000 127.015
63.11000 130.900
63.12000 132.750
63.13000 133.172
63.14000 133.577
63.15000 133.489
63.16000 133.167
63.17000 132.728
63.18000 130.650
63.19000 128.041
63.20000 125.675
63.21000 132.920
63.22000 141.149
63.23000 146.875
63.24000 139.931
63.25000 131.225
63.26000 124.685
63.27000 125.452
63.28000 126.816
63.29000 127.777
63.30000 134.293
63.31000 139.402
63.32000 142.098
63.33000 141.029
63.34000 139.915
63.35000 139.421
63.36000 139.565
63.37000 139.708
63.38000 139.209
63.39000 138.289
63.40000 137.468
63.41000 139.451
63.42000 142.717
63.43000 145.881
63.44000 147.702
63.45000 149.104
63.46000 150.370
63.47000 146.547
63.48000 142.256
63.49000 138.242
63.50000 135.580
63.51000 133.098
63.52000 131.818
63.53000 134.453
63.54000 137.389
63.55000 139.436
63.56000 142.880
63.57000 145.517
63.58000 145.832
63.59000 142.651
63.60000 139.435
63.61000 139.461
63.62000 142.690
63.63000 145.898
63.64000 144.221
63.65000 139.441
63.66000 134.844
63.67000 135.023
63.68000 137.309
63.69000 139.526
63.70000 140.857
63.71000 141.922
63.72000 142.878
63.73000 140.456
63.74000 137.744
63.75000 136.251
63.76000 140.467
63.77000 145.411
63.78000 147.855
63.79000 142.453
63.80000 136.479
63.81000 132.364
63.82000 134.689
63.83000 136.596
63.84000 137.708
63.85000 137.665
63.86000 137.613
63.87000 138.296
63.88000 139.677
63.89000 141.046
63.90000 142.986
63.91000 145.243
63.92000 147.408
63.93000 147.332
63.94000 146.302
63.95000 145.391
63.96000 145.898
63.97000 146.817
63.98000 147.638
63.99000 147.066
64.00000 146.333
64.01000 146.018
64.02000 147.590
64.03000 149.392
64.04000 151.362
64.05000 153.845
64.06000 156.362
64.07000 158.076
64.08000 158.894
64.09000 159.485
64.10000 157.452
64.11000 151.748
64.12000 146.022
64.13000 144.087
64.14000 145.607
64.15000 147.113
64.16000 146.428
64.17000 144.459
64.18000 142.525
64.19000 141.357
64.20000 140.506
64.21000 139.925
64.22000 142.391
64.23000 145.709
64.24000 148.657
64.25000 147.071
64.26000 144.966
64.27000 143.953
64.28000 147.685
64.29000 151.967
64.30000 155.936
64.31000 158.990
64.32000 161.985
64.33000 163.999
64.34000 164.915
64.35000 165.573
64.36000 164.816
64.37000 162.155
64.38000 159.485
64.39000 157.840
64.40000 157.095
64.41000 156.357
64.42000 158.699
64.43000 162.745
64.44000 166.611
64.45000 166.752
64.46000 165.413
64.47000 164.127
64.48000 163.419
64.49000 162.866
64.50000 162.378
64.51000 166.466
64.52000 170.700
64.53000 173.928
64.54000 172.947
64.55000 171.500
64.56000 170.982
64.57000 173.088
64.58000 175.352
64.59000 176.856
64.60000 173.946
64.61000 171.714
64.62000 171.685
64.63000 174.517
64.64000 177.352
64.65000 176.114
64.66000 171.445
64.67000 166.832
64.68000 167.957
64.69000 172.202
64.70000 176.311
64.71000 177.802
64.72000 178.287
64.73000 178.751
64.74000 178.994
64.75000 179.181
64.76000 179.344
64.77000 176.020
64.78000 172.650
64.79000 170.765
64.80000 174.874
64.81000 179.614
64.82000 183.680
64.83000 185.906
64.84000 188.029
64.85000 189.421
64.86000 180.889
64.87000 174.451
64.88000 174.373
64.89000 182.238
64.90000 190.106
64.91000 190.011
64.92000 183.462
64.93000 177.005
64.94000 177.687
64.95000 182.121
64.96000 186.577
64.97000 191.451
64.98000 196.480
64.99000 201.064
65.00000 201.361
65.01000 200.581
65.02000 199.900
65.03000 197.708
65.04000 195.620
65.05000 194.201
65.06000 195.380
65.07000 196.820
65.08000 199.443
65.09000 205.185
65.10000 211.093
65.11000 214.915
65.12000 209.523
65.13000 205.443
65.14000 203.170
65.15000 203.067
65.16000 202.978
65.17000 205.318
65.18000 209.553
65.19000 213.721
65.20000 214.476
65.21000 213.472
65.22000 212.500
65.23000 212.059
65.24000 211.810
65.25000 211.854
65.26000 214.602
65.27000 218.004
65.28000 220.957
65.29000 223.876
65.30000 226.358
65.31000 228.188
65.32000 227.574
65.33000 226.726
65.34000 228.155
65.35000 235.371
65.36000 242.874
65.37000 247.663
65.38000 246.357
65.39000 245.329
65.40000 245.115
65.41000 245.842
65.42000 246.580
65.43000 249.173
65.44000 253.160
65.45000 257.076
65.46000 263.873
65.47000 271.847
65.48000 279.508
65.49000 282.213
65.50000 283.205
65.51000 283.972
65.52000 282.765
65.53000 281.098
65.54000 279.660
65.55000 288.505
65.56000 297.327
65.57000 305.940
65.58000 313.795
65.59000 321.581
65.60000 333.873
65.61000 357.232
65.62000 381.100
65.63000 396.125
65.64000 414.238
65.65000 427.378
65.66000 455.030
65.67000 498.812
65.68000 542.750
65.69000 609.594
65.70000 693.016
65.71000 774.810
65.72000 884.193
65.73000 1002.496
65.74000 1120.460
65.75000 1233.390
65.76000 1344.641
65.77000 1456.673
65.78000 1575.227
65.79000 1695.244
65.80000 1798.128
65.81000 1863.709
65.82000 1914.533
65.83000 1961.527
65.84000 1995.174
65.85000 2027.676
65.86000 2053.452
65.87000 2063.270
65.88000 2072.409
65.89000 2078.081
65.90000 2037.065
65.91000 2007.096
65.92000 1963.866
65.93000 1906.475
65.94000 1848.892
65.95000 1767.184
65.96000 1668.654
65.97000 1572.252
65.98000 1422.537
65.99000 1254.705
66.00000 1089.473
66.01000 960.661
66.02000 843.579
66.03000 732.716
66.04000 671.449
66.05000 620.902
66.06000 577.850
66.07000 539.494
66.08000 507.794
66.09000 477.564
66.10000 452.281
66.11000 427.399
66.12000 407.195
66.13000 397.709
66.14000 388.644
66.15000 383.100
66.16000 379.825
66.17000 377.501
66.18000 376.690
66.19000 377.432
66.20000 378.218
66.21000 383.629
66.22000 392.151
66.23000 400.470
66.24000 408.271
66.25000 415.507
66.26000 423.577
66.27000 442.661
66.28000 465.169
66.29000 488.064
66.30000 513.900
66.31000 540.347
66.32000 562.723
66.33000 579.518
66.34000 592.955
66.35000 604.922
66.36000 612.122
66.37000 618.956
66.38000 626.150
66.39000 634.142
66.40000 642.163
66.41000 646.995
66.42000 639.570
66.43000 634.202
66.44000 633.186
66.45000 636.456
66.46000 639.631
66.47000 634.275
66.48000 623.390
66.49000 612.789
66.50000 601.474
66.51000 590.388
66.52000 578.056
66.53000 550.157
66.54000 517.589
66.55000 486.021
66.56000 461.746
66.57000 438.930
66.58000 419.759
66.59000 407.418
66.60000 397.857
66.61000 388.605
66.62000 380.318
66.63000 372.101
66.64000 366.041
66.65000 364.589
66.66000 363.290
66.67000 362.519
66.68000 362.705
66.69000 362.842
66.70000 362.651
66.71000 362.149
66.72000 361.671
66.73000 362.943
66.74000 365.310
66.75000 367.610
66.76000 368.455
66.77000 368.670
66.78000 369.402
66.79000 376.235
66.80000 384.835
66.81000 392.235
66.82000 391.262
66.83000 388.679
66.84000 386.523
66.85000 383.024
66.86000 379.988
66.87000 377.754
66.88000 377.948
66.89000 378.308
66.90000 377.435
66.91000 374.018
66.92000 370.524
66.93000 368.484
66.94000 379.249
66.95000 386.878
66.96000 387.828
66.97000 382.712
66.98000 377.661
66.99000 376.954
67.00000 378.865
67.01000 380.718
67.02000 385.680
67.03000 391.585
67.04000 397.490
67.05000 403.382
67.06000 409.272
67.07000 413.204
67.08000 404.051
67.09000 392.477
67.10000 382.889
67.11000 395.760
67.12000 408.529
67.13000 415.745
67.14000 406.759
67.15000 396.733
67.16000 391.647
67.17000 396.396
67.18000 401.417
67.19000 404.301
67.20000 400.373
67.21000 397.604
67.22000 398.050
67.23000 401.301
67.24000 404.565
67.25000 408.574
67.26000 413.016
67.27000 417.308
67.28000 413.000
67.29000 405.721
67.30000 399.442
67.31000 403.792
67.32000 411.003
67.33000 416.519
67.34000 411.166
67.35000 403.883
67.36000 397.893
67.37000 412.308
67.38000 426.002
67.39000 435.882
67.40000 435.016
67.41000 433.503
67.42000 431.922
67.43000 430.210
67.44000 428.495
67.45000 427.526
67.46000 436.110
67.47000 442.091
67.48000 441.201
67.49000 434.540
67.50000 428.055
67.51000 430.529
67.52000 438.031
67.53000 445.260
67.54000 444.424
67.55000 440.738
67.56000 436.889
67.57000 431.400
67.58000 425.484
67.59000 421.458
67.60000 429.035
67.61000 438.593
67.62000 446.394
67.63000 448.903
67.64000 450.502
67.65000 450.690
67.66000 447.042
67.67000 443.177
67.68000 442.578
67.69000 448.042
67.70000 453.641
67.71000 456.750
67.72000 467.983
67.73000 475.749
67.74000 478.956
67.75000 478.482
67.76000 478.033
67.77000 478.772
67.78000 480.154
67.79000 481.481
67.80000 481.176
67.81000 480.325
67.82000 480.168
67.83000 486.679
67.84000 494.857
67.85000 502.238
67.86000 504.913
67.87000 506.817
67.88000 508.360
67.89000 501.232
67.90000 494.723
67.91000 491.558
67.92000 497.173
67.93000 503.252
67.94000 507.908
67.95000 510.016
67.96000 512.074
67.97000 513.197
67.98000 507.300
67.99000 503.285
68.00000 510.764
68.01000 527.181
68.02000 543.233
68.03000 544.375
68.04000 537.720
68.05000 531.345
68.06000 537.853
68.07000 548.212
68.08000 556.790
68.09000 549.074
68.10000 537.428
68.11000 528.409
68.12000 534.257
68.13000 542.441
68.14000 549.017
68.15000 562.463
68.16000 573.889
68.17000 580.221
68.18000 573.631
68.19000 566.406
68.20000 559.976
68.21000 554.918
68.22000 549.885
68.23000 547.188
68.24000 550.900
68.25000 553.505
68.26000 569.190
68.27000 594.672
68.28000 619.409
68.29000 616.709
68.30000 600.158
68.31000 584.354
68.32000 592.733
68.33000 608.261
68.34000 622.857
68.35000 629.325
68.36000 633.906
68.37000 639.018
68.38000 647.025
68.39000 655.468
68.40000 662.197
68.41000 653.484
68.42000 645.333
68.43000 643.094
68.44000 655.331
68.45000 668.230
68.46000 681.158
68.47000 694.135
68.48000 707.114
68.49000 713.937
68.50000 714.766
68.51000 715.401
68.52000 727.704
68.53000 748.424
68.54000 768.848
68.55000 779.364
68.56000 785.051
68.57000 790.462
68.58000 803.759
68.59000 818.495
68.60000 835.320
68.61000 869.533
68.62000 907.636
68.63000 945.773
68.64000 984.083
68.65000 1022.419
68.66000 1052.719
68.67000 1107.058
68.68000 1152.339
68.69000 1197.219
68.70000 1241.152
68.71000 1285.046
68.72000 1326.447
68.73000 1363.839
68.74000 1401.177
68.75000 1420.431
68.76000 1501.222
68.77000 1555.588
68.78000 1601.725
68.79000 1642.142
68.80000 1682.686
68.81000 1727.090
68.82000 1773.310
68.83000 1817.149
68.84000 1896.935
68.85000 1981.142
68.86000 2066.876
68.87000 2164.753
68.88000 2265.246
68.89000 2401.710
68.90000 2719.011
68.91000 3061.286
68.92000 3329.524
68.93000 4348.669
68.94000 5211.642
68.95000 6473.722
68.96000 8647.395
68.97000 10856.679
68.98000 13594.532
68.99000 17152.564
69.00000 20720.014
69.01000 22523.303
69.02000 27826.336
69.03000 31368.357
69.04000 34251.313
69.05000 36692.633
69.06000 39106.871
69.07000 40763.293
69.08000 42075.309
69.09000 43315.336
69.10000 44019.086
69.11000 44512.762
69.12000 45036.820
69.13000 45791.570
69.14000 46594.145
69.15000 47371.426
69.16000 48026.383
69.17000 48665.176
69.18000 49161.441
69.19000 48738.887
69.20000 48346.984
69.21000 47385.676
69.22000 45168.445
69.23000 42906.063
69.24000 40258.629
69.25000 37035.105
69.26000 33806.039
69.27000 31194.236
69.28000 29188.115
69.29000 27188.148
69.30000 25730.533
69.31000 24623.324
69.32000 23536.277
69.33000 22968.242
69.34000 22627.992
69.35000 22307.588
69.36000 21909.961
69.37000 21525.113
69.38000 21062.898
69.39000 20038.744
69.40000 18902.506
69.41000 17645.578
69.42000 15826.929
69.43000 13937.349
69.44000 12482.465
69.45000 10217.721
69.46000 8378.664
69.47000 6757.304
69.48000 5599.615
69.49000 4457.206
69.50000 3544.566
69.51000 2963.299
69.52000 2384.760
69.53000 1995.624
69.54000 1785.000
69.55000 1575.444
69.56000 1446.389
69.57000 1367.494
69.58000 1289.299
69.59000 1227.753
69.60000 1173.263
69.61000 1122.146
69.62000 1074.036
69.63000 1030.996
69.64000 988.146
69.65000 946.627
69.66000 905.363
69.67000 867.700
69.68000 846.173
69.69000 826.592
69.70000 811.654
69.71000 775.360
69.72000 745.623
69.73000 721.616
69.74000 709.392
69.75000 697.523
69.76000 684.796
69.77000 670.876
69.78000 656.953
69.79000 645.775
69.80000 637.090
69.81000 628.395
69.82000 619.049
69.83000 609.311
69.84000 599.481
69.85000 587.623
69.86000 574.935
69.87000 563.078
69.88000 561.284
69.89000 562.198
69.90000 561.954
69.91000 554.003
69.92000 544.631
69.93000 535.413
69.94000 526.862
69.95000 518.388
69.96000 511.983
69.97000 513.304
69.98000 514.726
69.99000 514.984
70.00000 512.930
