20.00000 465.135
20.01000 465.837
20.02000 466.640
20.03000 467.522
20.04000 468.711
20.05000 469.931
20.06000 470.831
20.07000 458.669
20.08000 448.699
20.09000 447.329
20.10000 461.597
20.11000 476.192
20.12000 478.481
20.13000 465.782
20.14000 453.072
20.15000 449.586
20.16000 453.371
20.17000 457.113
20.18000 458.980
20.19000 459.851
20.20000 461.274
20.21000 472.200
20.22000 486.568
20.23000 499.798
20.24000 489.945
20.25000 476.075
20.26000 464.810
20.27000 468.551
20.28000 474.692
20.29000 478.326
20.30000 472.452
20.31000 465.657
20.32000 460.696
20.33000 463.402
20.34000 465.787
20.35000 464.621
20.36000 457.222
20.37000 449.708
20.38000 452.155
20.39000 466.271
20.40000 480.370
20.41000 483.198
20.42000 477.488
20.43000 471.905
20.44000 471.253
20.45000 473.127
20.46000 474.829
20.47000 473.756
20.48000 471.712
20.49000 469.839
20.50000 465.252
20.51000 460.596
20.52000 456.833
20.53000 458.013
20.54000 459.951
20.55000 462.987
20.56000 470.038
20.57000 477.460
20.58000 482.821
20.59000 476.807
20.60000 471.783
20.61000 467.533
20.62000 464.594
20.63000 461.676
20.64000 461.424
20.65000 464.176
20.66000 466.921
20.67000 469.175
20.68000 471.054
20.69000 472.741
20.70000 467.739
20.71000 459.427
20.72000 451.571
20.73000 450.656
20.74000 452.084
20.75000 453.387
20.76000 457.515
20.77000 461.747
20.78000 465.084
20.79000 463.668
20.80000 461.553
20.81000 459.222
20.82000 456.130
20.83000 452.972
20.84000 450.715
20.85000 454.165
20.86000 456.989
20.87000 461.082
20.88000 467.248
20.89000 473.444
20.90000 473.100
20.91000 465.676
20.92000 458.280
20.93000 454.081
20.94000 452.160
20.95000 450.268
20.96000 449.312
20.97000 448.802
20.98000 448.541
20.99000 451.829
21.00000 456.274
21.01000 460.310
21.02000 472.117
21.03000 484.047
21.04000 493.371
21.05000 489.372
21.06000 483.498
21.07000 476.779
21.08000 467.185
21.09000 457.354
21.10000 450.404
21.11000 449.515
21.12000 449.026
21.13000 447.563
21.14000 444.566
21.15000 441.551
21.16000 445.259
21.17000 455.960
21.18000 466.605
21.19000 471.669
21.20000 472.920
21.21000 473.929
21.22000 467.926
21.23000 458.690
21.24000 449.712
21.25000 444.219
21.26000 439.822
21.27000 435.850
21.28000 446.843
21.29000 459.284
21.30000 468.958
21.31000 465.025
21.32000 459.261
21.33000 455.000
21.34000 455.677
21.35000 456.741
21.36000 457.484
21.37000 456.472
21.38000 455.659
21.39000 457.564
21.40000 463.602
21.41000 469.683
21.42000 470.593
21.43000 466.340
21.44000 462.114
21.45000 460.063
21.46000 459.447
21.47000 458.793
21.48000 457.080
21.49000 454.896
21.50000 452.784
21.51000 451.584
21.52000 450.662
21.53000 449.833
21.54000 459.554
21.55000 469.941
21.56000 476.985
21.57000 468.219
21.58000 457.417
21.59000 449.136
21.60000 448.844
21.61000 449.142
21.62000 449.348
21.63000 463.240
21.64000 474.035
21.65000 477.022
21.66000 468.570
21.67000 460.019
21.68000 457.106
21.69000 459.597
21.70000 462.069
21.71000 467.208
21.72000 473.918
21.73000 480.213
21.74000 476.285
21.75000 467.959
21.76000 460.984
21.77000 470.275
21.78000 484.330
21.79000 496.900
21.80000 492.363
21.81000 485.497
21.82000 481.077
21.83000 487.792
21.84000 495.876
21.85000 503.916
21.86000 511.820
21.87000 519.715
21.88000 525.105
21.89000 514.980
21.90000 507.044
21.91000 507.898
21.92000 521.161
21.93000 534.509
21.94000 539.678
21.95000 537.318
21.96000 534.978
21.97000 538.184
21.98000 544.647
21.99000 550.948
22.00000 553.590
22.01000 554.711
22.02000 555.175
22.03000 548.144
22.04000 538.994
22.05000 530.855
22.06000 540.923
22.07000 552.626
22.08000 561.038
22.09000 555.017
22.10000 547.302
22.11000 542.059
22.12000 544.114
22.13000 546.647
22.14000 548.355
22.15000 550.395
22.16000 551.919
22.17000 551.102
22.18000 547.101
22.19000 543.085
22.20000 542.620
22.21000 545.297
22.22000 547.947
22.23000 544.953
22.24000 538.775
22.25000 532.498
22.26000 524.158
22.27000 514.989
22.28000 506.414
22.29000 504.253
22.30000 503.841
22.31000 503.477
22.32000 499.594
22.33000 495.690
22.34000 491.538
22.35000 486.343
22.36000 481.031
22.37000 476.926
22.38000 476.262
22.39000 475.809
22.40000 475.507
22.41000 474.490
22.42000 473.723
22.43000 469.063
22.44000 459.304
22.45000 449.532
22.46000 445.715
22.47000 446.964
22.48000 448.198
22.49000 446.080
22.50000 442.157
22.51000 438.434
22.52000 438.649
22.53000 440.390
22.54000 441.904
22.55000 441.086
22.56000 439.656
22.57000 438.397
22.58000 439.320
22.59000 440.438
22.60000 441.087
22.61000 439.826
22.62000 438.362
22.63000 436.917
22.64000 435.525
22.65000 434.136
22.66000 433.222
22.67000 431.099
22.68000 429.515
22.69000 433.122
22.70000 443.276
22.71000 453.426
22.72000 453.381
22.73000 444.991
22.74000 436.714
22.75000 433.985
22.76000 434.290
22.77000 434.576
22.78000 434.528
22.79000 434.353
22.80000 433.678
22.81000 428.109
22.82000 421.301
22.83000 415.346
22.84000 425.763
22.85000 437.020
22.86000 443.207
22.87000 429.513
22.88000 413.800
22.89000 403.857
22.90000 409.249
22.91000 415.469
22.92000 419.506
22.93000 431.848
22.94000 441.013
22.95000 441.391
22.96000 431.101
22.97000 420.827
22.98000 421.996
22.99000 432.180
23.00000 442.209
23.01000 438.164
23.02000 427.018
23.03000 416.392
23.04000 414.670
23.05000 416.164
23.06000 417.276
23.07000 414.845
23.08000 411.548
23.09000 408.681
23.10000 419.034
23.11000 429.661
23.12000 437.102
23.13000 432.493
23.14000 426.720
23.15000 426.888
23.16000 442.304
23.17000 458.487
23.18000 468.853
23.19000 456.125
23.20000 446.544
23.21000 436.172
23.22000 424.879
23.23000 413.639
23.24000 414.317
23.25000 424.036
23.26000 433.588
23.27000 433.267
23.28000 428.080
23.29000 423.536
23.30000 429.351
23.31000 438.777
23.32000 446.948
23.33000 443.985
23.34000 438.403
23.35000 433.579
23.36000 422.697
23.37000 412.669
23.38000 404.960
23.39000 405.706
23.40000 407.227
23.41000 408.662
23.42000 409.883
23.43000 411.095
23.44000 411.860
23.45000 410.892
23.46000 410.171
23.47000 412.076
23.48000 416.930
23.49000 421.797
23.50000 428.500
23.51000 436.544
23.52000 444.436
23.53000 444.433
23.54000 440.677
23.55000 437.061
23.56000 435.563
23.57000 434.778
23.58000 432.976
23.59000 422.572
23.60000 410.218
23.61000 399.611
23.62000 411.156
23.63000 423.660
23.64000 432.869
23.65000 430.493
23.66000 427.109
23.67000 425.980
23.68000 430.250
23.69000 434.753
23.70000 437.558
23.71000 446.443
23.72000 452.907
23.73000 454.468
23.74000 450.738
23.75000 447.033
23.76000 446.946
23.77000 449.405
23.78000 451.812
23.79000 452.478
23.80000 452.320
23.81000 452.324
23.82000 454.641
23.83000 457.710
23.84000 460.838
23.85000 464.448
23.86000 468.162
23.87000 471.332
23.88000 467.150
23.89000 462.763
23.90000 458.088
23.91000 452.433
23.92000 446.698
23.93000 445.850
23.94000 456.298
23.95000 467.199
23.96000 473.891
23.97000 470.244
23.98000 467.541
23.99000 465.108
24.00000 462.954
24.01000 460.785
24.02000 456.926
24.03000 451.920
24.04000 447.031
24.05000 447.902
24.06000 451.272
24.07000 454.926
24.08000 462.397
24.09000 471.065
24.10000 477.616
24.11000 467.842
24.12000 454.639
24.13000 443.450
24.14000 442.751
24.15000 443.344
24.16000 443.810
24.17000 443.858
24.18000 443.875
24.19000 443.655
24.20000 442.909
24.21000 442.143
24.22000 441.680
24.23000 443.623
24.24000 445.026
24.25000 447.152
24.26000 450.000
24.27000 452.724
24.28000 444.033
24.29000 427.875
24.30000 412.128
24.31000 414.269
24.32000 423.890
24.33000 432.386
24.34000 426.627
24.35000 416.553
24.36000 408.215
24.37000 412.679
24.38000 419.731
24.39000 425.666
24.40000 417.837
24.41000 409.833
24.42000 404.574
24.43000 407.987
24.44000 412.038
24.45000 416.068
24.46000 420.056
24.47000 424.041
24.48000 426.415
24.49000 427.937
24.50000 429.009
24.51000 424.732
24.52000 415.343
24.53000 406.051
24.54000 404.381
24.55000 407.518
24.56000 410.567
24.57000 404.217
24.58000 394.347
24.59000 385.332
24.60000 386.558
24.61000 390.777
24.62000 395.718
24.63000 405.766
24.64000 416.805
24.65000 426.034
24.66000 414.610
24.67000 403.024
24.68000 396.579
24.69000 405.817
24.70000 416.140
24.71000 419.033
24.72000 406.458
24.73000 393.402
24.74000 385.748
24.75000 395.346
24.76000 402.192
24.77000 407.052
24.78000 410.089
24.79000 413.038
24.80000 409.986
24.81000 403.283
24.82000 396.784
24.83000 400.497
24.84000 408.022
24.85000 414.356
24.86000 407.162
24.87000 396.156
24.88000 385.923
24.89000 380.914
24.90000 376.881
24.91000 373.534
24.92000 383.581
24.93000 393.181
24.94000 400.063
24.95000 398.944
24.96000 397.303
24.97000 397.319
24.98000 400.661
24.99000 404.098
25.00000 406.081
25.01000 402.488
25.02000 399.949
25.03000 396.085
25.04000 391.053
25.05000 386.055
25.06000 383.143
25.07000 381.455
25.08000 379.823
25.09000 379.965
25.10000 380.770
25.11000 381.948
25.12000 387.149
25.13000 393.443
25.14000 399.232
25.15000 401.752
25.16000 403.685
25.17000 405.278
25.18000 406.445
25.19000 407.365
25.20000 408.332
25.21000 409.429
25.22000 410.535
25.23000 408.625
25.24000 400.867
25.25000 392.960
25.26000 388.474
25.27000 386.352
25.28000 384.889
25.29000 388.147
25.30000 395.406
25.31000 402.603
25.32000 406.452
25.33000 408.405
25.34000 410.288
25.35000 405.636
25.36000 398.884
25.37000 392.653
25.38000 391.734
25.39000 392.207
25.40000 393.329
25.41000 398.483
25.42000 404.331
25.43000 409.114
25.44000 397.743
25.45000 387.025
25.46000 383.028
25.47000 397.479
25.48000 412.988
25.49000 420.237
25.50000 412.016
25.51000 403.440
25.52000 398.657
25.53000 391.950
25.54000 387.310
25.55000 384.864
25.56000 384.207
25.57000 383.756
25.58000 392.891
25.59000 407.268
25.60000 421.092
25.61000 415.179
25.62000 402.739
25.63000 391.793
25.64000 395.380
25.65000 402.638
25.66000 408.451
25.67000 405.647
25.68000 401.418
25.69000 397.985
25.70000 397.456
25.71000 397.263
25.72000 394.950
25.73000 387.018
25.74000 378.785
25.75000 374.226
25.76000 376.306
25.77000 378.522
25.78000 379.737
25.79000 377.464
25.80000 375.915
25.81000 380.241
25.82000 389.178
25.83000 397.826
25.84000 394.289
25.85000 384.322
25.86000 374.768
25.87000 379.752
25.88000 389.293
25.89000 397.772
25.90000 396.418
25.91000 392.671
25.92000 389.469
25.93000 389.386
25.94000 389.799
25.95000 390.132
25.96000 385.922
25.97000 382.152
25.98000 379.091
25.99000 377.845
26.00000 376.689
26.01000 376.341
26.02000 377.402
26.03000 378.488
26.04000 379.073
26.05000 379.728
26.06000 380.189
26.07000 383.356
26.08000 388.569
26.09000 393.583
26.10000 391.106
26.11000 384.812
26.12000 378.797
26.13000 378.400
26.14000 379.847
26.15000 380.758
26.16000 376.933
26.17000 371.997
26.18000 368.362
26.19000 371.875
26.20000 376.477
26.21000 380.152
26.22000 383.438
26.23000 386.064
26.24000 386.839
26.25000 383.041
26.26000 379.031
26.27000 377.127
26.28000 378.767
26.29000 380.464
26.30000 381.361
26.31000 386.627
26.32000 390.169
26.33000 387.641
26.34000 380.692
26.35000 374.078
26.36000 378.942
26.37000 389.452
26.38000 399.463
26.39000 390.509
26.40000 376.314
26.41000 364.050
26.42000 368.039
26.43000 375.699
26.44000 382.097
26.45000 381.824
26.46000 380.579
26.47000 379.592
26.48000 376.456
26.49000 373.785
26.50000 372.234
26.51000 373.353
26.52000 374.588
26.53000 374.349
26.54000 371.718
26.55000 369.054
26.56000 367.673
26.57000 367.439
26.58000 367.287
26.59000 367.826
26.60000 368.850
26.61000 369.793
26.62000 368.213
26.63000 365.435
26.64000 362.798
26.65000 368.300
26.66000 375.812
26.67000 382.382
26.68000 381.387
26.69000 378.746
26.70000 377.123
26.71000 380.671
26.72000 384.941
26.73000 388.295
26.74000 381.018
26.75000 374.499
26.76000 369.379
26.77000 367.483
26.78000 365.716
26.79000 366.545
26.80000 371.440
26.81000 376.384
26.82000 378.896
26.83000 375.912
26.84000 373.914
26.85000 372.075
26.86000 370.343
26.87000 368.789
26.88000 372.290
26.89000 378.110
26.90000 383.615
26.91000 385.510
26.92000 386.213
26.93000 385.614
26.94000 375.003
26.95000 362.296
26.96000 351.515
26.97000 350.136
26.98000 350.014
26.99000 349.919
27.00000 362.790
27.01000 373.841
27.02000 380.148
27.03000 375.899
27.04000 371.262
27.05000 367.889
27.06000 366.425
27.07000 364.980
27.08000 364.190
27.09000 364.048
27.10000 363.904
27.11000 363.474
27.12000 362.858
27.13000 362.227
27.14000 361.190
27.15000 359.974
27.16000 358.827
27.17000 363.508
27.18000 369.405
27.19000 374.579
27.20000 374.436
27.21000 373.223
27.22000 371.978
27.23000 370.585
27.24000 369.172
27.25000 368.082
27.26000 366.387
27.27000 365.009
27.28000 364.241
27.29000 364.787
27.30000 365.378
27.31000 367.818
27.32000 372.953
27.33000 378.110
27.34000 376.494
27.35000 368.433
27.36000 360.463
27.37000 359.618
27.38000 363.255
27.39000 366.715
27.40000 365.894
27.41000 363.244
27.42000 360.754
27.43000 364.016
27.44000 368.518
27.45000 372.429
27.46000 372.179
27.47000 371.124
27.48000 369.871
27.49000 367.721
27.50000 365.462
27.51000 363.734
27.52000 371.687
27.53000 378.487
27.54000 382.370
27.55000 380.202
27.56000 377.848
27.57000 378.505
27.58000 383.389
27.59000 388.301
27.60000 385.746
27.61000 376.370
27.62000 367.049
27.63000 361.393
27.64000 357.962
27.65000 354.778
27.66000 357.148
27.67000 361.811
27.68000 366.173
27.69000 366.034
27.70000 364.759
27.71000 363.674
27.72000 363.870
27.73000 364.305
27.74000 363.899
27.75000 359.830
27.76000 355.335
27.77000 351.930
27.78000 360.200
27.79000 367.286
27.80000 369.173
27.81000 360.641
27.82000 351.818
27.83000 346.770
27.84000 346.825
27.85000 346.909
27.86000 348.116
27.87000 350.307
27.88000 352.530
27.89000 356.637
27.90000 361.847
27.91000 366.803
27.92000 366.462
27.93000 364.010
27.94000 361.725
27.95000 366.008
27.96000 371.492
27.97000 375.732
27.98000 371.939
27.99000 366.709
28.00000 361.920
28.01000 358.983
28.02000 356.251
28.03000 354.200
28.04000 354.446
28.05000 354.747
28.06000 356.073
28.07000 359.383
28.08000 362.744
28.09000 364.926
28.10000 365.575
28.11000 366.218
28.12000 363.196
28.13000 357.092
28.14000 351.078
28.15000 349.733
28.16000 351.026
28.17000 352.273
28.18000 352.614
28.19000 352.605
28.20000 352.598
28.21000 358.365
28.22000 364.921
28.23000 370.221
28.24000 367.755
28.25000 363.955
28.26000 361.537
28.27000 364.713
28.28000 368.480
28.29000 371.279
28.30000 375.080
28.31000 378.079
28.32000 378.239
28.33000 373.097
28.34000 367.836
28.35000 366.343
28.36000 369.575
28.37000 372.817
28.38000 374.305
28.39000 374.367
28.40000 374.316
28.41000 369.034
28.42000 360.902
28.43000 353.406
28.44000 357.441
28.45000 365.764
28.46000 373.454
28.47000 376.493
28.48000 378.169
28.49000 379.091
28.50000 375.537
28.51000 371.244
28.52000 365.922
28.53000 356.587
28.54000 346.847
28.55000 339.682
28.56000 344.790
28.57000 349.247
28.58000 352.439
28.59000 353.348
28.60000 354.211
28.61000 354.402
28.62000 353.781
28.63000 353.161
28.64000 352.621
28.65000 352.146
28.66000 351.629
28.67000 349.328
28.68000 346.087
28.69000 343.313
28.70000 348.463
28.71000 356.458
28.72000 363.811
28.73000 353.411
28.74000 340.269
28.75000 329.582
28.76000 332.891
28.77000 338.414
28.78000 343.781
28.79000 348.560
28.80000 353.282
28.81000 356.721
28.82000 354.575
28.83000 352.710
28.84000 349.785
28.85000 345.016
28.86000 340.214
28.87000 341.118
28.88000 348.642
28.89000 356.155
28.90000 358.810
28.91000 357.811
28.92000 356.695
28.93000 351.210
28.94000 343.505
28.95000 336.860
28.96000 347.083
28.97000 363.154
28.98000 377.869
28.99000 374.615
29.00000 367.981
29.01000 361.719
29.02000 357.493
29.03000 353.576
29.04000 351.918
29.05000 358.447
29.06000 365.719
29.07000 370.959
29.08000 360.836
29.09000 352.538
29.10000 345.253
29.11000 339.669
29.12000 334.112
29.13000 331.135
29.14000 331.037
29.15000 330.942
29.16000 333.053
29.17000 336.734
29.18000 340.435
29.19000 344.808
29.20000 349.511
29.21000 353.805
29.22000 351.982
29.23000 348.111
29.24000 344.584
29.25000 347.187
29.26000 350.716
29.27000 353.737
29.28000 354.084
29.29000 354.042
29.30000 355.682
29.31000 363.203
29.32000 371.230
29.33000 376.952
29.34000 368.948
29.35000 362.398
29.36000 358.917
29.37000 360.405
29.38000 361.962
29.39000 360.165
29.40000 354.773
29.41000 349.404
29.42000 352.182
29.43000 360.569
29.44000 368.551
29.45000 363.938
29.46000 353.362
29.47000 343.488
29.48000 343.497
29.49000 346.698
29.50000 349.601
29.51000 349.906
29.52000 349.678
29.53000 349.662
29.54000 350.718
29.55000 351.922
29.56000 352.908
29.57000 353.160
29.58000 353.351
29.59000 353.485
29.60000 351.145
29.61000 349.296
29.62000 348.449
29.63000 349.169
29.64000 349.907
29.65000 350.470
29.66000 350.853
29.67000 351.234
29.68000 353.074
29.69000 355.861
29.70000 358.712
29.71000 363.367
29.72000 368.846
29.73000 373.757
29.74000 371.130
29.75000 366.152
29.76000 361.660
29.77000 360.777
29.78000 360.663
29.79000 360.434
29.80000 359.650
29.81000 358.790
29.82000 358.774
29.83000 361.500
29.84000 364.437
29.85000 366.485
29.86000 373.796
29.87000 379.458
29.88000 383.205
29.89000 384.071
29.90000 384.909
29.91000 387.279
29.92000 391.163
29.93000 395.022
29.94000 392.593
29.95000 386.175
29.96000 380.088
29.97000 382.675
29.98000 389.090
29.99000 394.762
30.00000 391.099
30.01000 384.628
30.02000 378.818
30.03000 380.584
30.04000 383.459
30.05000 385.994
30.06000 386.934
30.07000 387.671
30.08000 388.899
30.09000 391.670
30.10000 394.553
30.11000 396.540
30.12000 391.065
30.13000 386.767
30.14000 386.408
30.15000 391.766
30.16000 397.170
30.17000 397.305
30.18000 392.439
30.19000 387.612
30.20000 380.804
30.21000 372.894
30.22000 365.301
30.23000 365.331
30.24000 368.611
30.25000 371.576
30.26000 370.808
30.27000 368.956
30.28000 367.302
30.29000 364.989
30.30000 362.863
30.31000 361.029
30.32000 360.511
30.33000 360.153
30.34000 358.541
30.35000 353.127
30.36000 347.452
30.37000 343.590
30.38000 346.939
30.39000 349.606
30.40000 352.686
30.41000 356.344
30.42000 360.005
30.43000 363.816
30.44000 367.763
30.45000 371.673
30.46000 371.810
30.47000 369.708
30.48000 367.486
30.49000 362.584
30.50000 356.578
30.51000 351.129
30.52000 351.952
30.53000 354.531
30.54000 356.822
30.55000 353.700
30.56000 350.122
30.57000 347.294
30.58000 347.727
30.59000 348.538
30.60000 348.223
30.61000 344.611
30.62000 340.787
30.63000 338.215
30.64000 352.812
30.65000 364.014
30.66000 368.167
30.67000 362.820
30.68000 357.429
30.69000 358.224
30.70000 364.437
30.71000 370.584
30.72000 371.098
30.73000 368.387
30.74000 365.950
30.75000 369.178
30.76000 374.659
30.77000 379.443
30.78000 376.794
30.79000 372.136
30.80000 368.022
30.81000 372.015
30.82000 376.710
30.83000 381.685
30.84000 387.825
30.85000 394.094
30.86000 398.445
30.87000 397.376
30.88000 395.979
30.89000 395.051
30.90000 422.856
30.91000 443.944
30.92000 455.577
30.93000 454.938
30.94000 454.248
30.95000 453.424
30.96000 452.487
30.97000 451.560
30.98000 453.896
30.99000 457.964
31.00000 463.261
31.01000 492.293
31.02000 530.438
31.03000 566.042
31.04000 575.866
31.05000 578.975
31.06000 581.707
31.07000 605.745
31.08000 629.546
31.09000 654.809
31.10000 685.969
31.11000 717.751
31.12000 754.215
31.13000 803.458
31.14000 853.425
31.15000 886.184
31.16000 947.483
31.17000 993.031
31.18000 1038.139
31.19000 1082.697
31.20000 1127.264
31.21000 1176.128
31.22000 1228.476
31.23000 1280.096
31.24000 1318.989
31.25000 1350.064
31.26000 1381.698
31.27000 1423.392
31.28000 1468.815
31.29000 1513.440
31.30000 1550.361
31.31000 1585.347
31.32000 1615.900
31.33000 1621.567
31.34000 1622.917
31.35000 1623.008
31.36000 1618.206
31.37000 1612.914
31.38000 1607.647
31.39000 1602.447
31.40000 1597.251
31.41000 1593.888
31.42000 1542.137
31.43000 1503.571
31.44000 1456.366
31.45000 1398.773
31.46000 1341.190
31.47000 1291.818
31.48000 1248.854
31.49000 1206.563
31.50000 1163.764
31.51000 1122.037
31.52000 1079.271
31.53000 1018.976
31.54000 952.406
31.55000 888.121
31.56000 844.824
31.57000 806.605
31.58000 773.429
31.59000 732.606
31.60000 696.794
31.61000 661.854
31.62000 630.185
31.63000 598.828
31.64000 572.304
31.65000 558.072
31.66000 544.448
31.67000 535.752
31.68000 516.322
31.69000 502.048
31.70000 489.911
31.71000 480.246
31.72000 470.579
31.73000 459.763
31.74000 448.083
31.75000 436.608
31.76000 421.422
31.77000 404.940
31.78000 389.239
31.79000 385.917
31.80000 386.872
31.81000 387.730
31.82000 387.731
31.83000 387.532
31.84000 387.361
31.85000 382.961
31.86000 378.687
31.87000 374.717
31.88000 371.849
31.89000 369.081
31.90000 367.098
31.91000 367.045
31.92000 367.081
31.93000 367.103
31.94000 360.569
31.95000 355.767
31.96000 354.346
31.97000 356.684
31.98000 359.014
31.99000 359.770
32.00000 359.386
32.01000 359.010
32.02000 354.236
32.03000 347.568
32.04000 341.127
32.05000 338.054
32.06000 336.104
32.07000 334.540
32.08000 336.209
32.09000 338.604
32.10000 340.656
32.11000 341.274
32.12000 341.621
32.13000 342.428
32.14000 344.844
32.15000 347.397
32.16000 347.239
32.17000 340.648
32.18000 333.783
32.19000 329.523
32.20000 331.629
32.21000 333.207
32.22000 327.459
32.23000 313.884
32.24000 300.411
32.25000 300.129
32.26000 309.048
32.27000 317.774
32.28000 322.098
32.29000 324.253
32.30000 326.184
32.31000 324.982
32.32000 322.772
32.33000 321.450
32.34000 327.214
32.35000 334.511
32.36000 340.725
32.37000 336.800
32.38000 332.318
32.39000 328.019
32.40000 324.336
32.41000 320.704
32.42000 318.739
32.43000 320.596
32.44000 322.603
32.45000 323.831
32.46000 321.187
32.47000 319.263
32.48000 316.806
32.49000 313.802
32.50000 310.849
32.51000 313.249
32.52000 319.248
32.53000 325.105
32.54000 322.036
32.55000 315.208
32.56000 308.975
32.57000 310.590
32.58000 314.646
32.59000 318.673
32.60000 322.472
32.61000 326.225
32.62000 329.400
32.63000 325.161
32.64000 320.790
32.65000 316.642
32.66000 313.216
32.67000 309.847
32.68000 307.874
32.69000 308.994
32.70000 310.226
32.71000 310.968
32.72000 307.609
32.73000 305.190
32.74000 304.762
32.75000 306.294
32.76000 307.892
32.77000 315.337
32.78000 326.573
32.79000 337.516
32.80000 344.387
32.81000 349.227
32.82000 354.969
32.83000 371.979
32.84000 392.370
32.85000 412.194
32.86000 427.884
32.87000 442.746
32.88000 455.236
32.89000 468.159
32.90000 478.972
32.91000 489.650
32.92000 499.903
32.93000 510.125
32.94000 517.522
32.95000 518.884
32.96000 520.044
32.97000 520.733
32.98000 519.098
32.99000 517.928
33.00000 519.286
33.01000 523.033
33.02000 526.633
33.03000 518.960
33.04000 504.241
33.05000 489.942
33.06000 468.289
33.07000 444.749
33.08000 421.681
33.09000 404.178
33.10000 388.286
33.11000 373.541
33.12000 366.804
33.13000 361.608
33.14000 357.272
33.15000 337.404
33.16000 319.364
33.17000 306.205
33.18000 307.796
33.19000 310.393
33.20000 310.751
33.21000 306.490
33.22000 302.088
33.23000 299.518
33.24000 292.417
33.25000 287.404
33.26000 288.460
33.27000 295.029
33.28000 301.482
33.29000 300.266
33.30000 294.426
33.31000 288.767
33.32000 288.113
33.33000 289.437
33.34000 290.853
33.35000 293.286
33.36000 296.004
33.37000 298.629
33.38000 300.639
33.39000 302.536
33.40000 304.107
33.41000 301.626
33.42000 299.191
33.43000 295.824
33.44000 289.736
33.45000 283.474
33.46000 281.831
33.47000 289.392
33.48000 297.205
33.49000 301.695
33.50000 296.533
33.51000 292.888
33.52000 289.261
33.53000 285.649
33.54000 282.118
33.55000 283.301
33.56000 287.225
33.57000 291.017
33.58000 294.724
33.59000 298.189
33.60000 301.222
33.61000 299.670
33.62000 296.883
33.63000 294.125
33.64000 291.560
33.65000 289.028
33.66000 286.946
33.67000 281.717
33.68000 277.134
33.69000 275.104
33.70000 280.264
33.71000 285.857
33.72000 288.027
33.73000 283.613
33.74000 279.035
33.75000 276.449
33.76000 288.552
33.77000 296.993
33.78000 298.040
33.79000 292.879
33.80000 287.799
33.81000 286.949
33.82000 288.472
33.83000 289.941
33.84000 290.911
33.85000 291.643
33.86000 292.856
33.87000 298.915
33.88000 306.233
33.89000 312.621
33.90000 313.292
33.91000 312.987
33.92000 312.738
33.93000 305.347
33.94000 298.687
33.95000 296.447
33.96000 306.227
33.97000 316.686
33.98000 319.942
33.99000 309.831
34.00000 299.420
34.01000 293.639
34.02000 300.377
34.03000 305.053
34.04000 307.549
34.05000 308.284
34.06000 308.966
34.07000 307.253
34.08000 304.241
34.09000 301.347
34.10000 305.489
34.11000 311.802
34.12000 317.196
34.13000 313.758
34.14000 308.109
34.15000 302.873
34.16000 300.075
34.17000 297.676
34.18000 295.733
34.19000 307.060
34.20000 317.362
34.21000 324.127
34.22000 321.600
34.23000 318.583
34.24000 315.782
34.25000 313.369
34.26000 310.964
34.27000 309.652
34.28000 310.688
34.29000 311.408
34.30000 313.278
34.31000 316.044
34.32000 318.775
34.33000 320.090
34.34000 320.664
34.35000 321.214
34.36000 319.829
34.37000 317.892
34.38000 316.304
34.39000 317.903
34.40000 320.270
34.41000 320.754
34.42000 310.570
34.43000 298.710
34.44000 289.180
34.45000 305.515
34.46000 320.745
34.47000 328.630
34.48000 317.887
34.49000 306.228
34.50000 299.490
34.51000 301.259
34.52000 303.179
34.53000 304.207
34.54000 302.553
34.55000 301.425
34.56000 300.758
34.57000 300.437
34.58000 300.180
34.59000 302.272
34.60000 305.550
34.61000 308.681
34.62000 310.297
34.63000 311.314
34.64000 311.587
34.65000 305.371
34.66000 297.646
34.67000 291.623
34.68000 294.854
34.69000 299.480
34.70000 303.166
34.71000 301.319
34.72000 299.427
34.73000 299.052
34.74000 302.392
34.75000 305.901
34.76000 306.092
34.77000 300.749
34.78000 295.321
34.79000 292.466
34.80000 284.603
34.81000 279.290
34.82000 277.258
34.83000 277.595
34.84000 277.952
34.85000 278.974
34.86000 280.320
34.87000 281.602
34.88000 277.712
34.89000 272.520
34.90000 267.777
34.91000 266.779
34.92000 266.618
34.93000 267.310
34.94000 272.460
34.95000 278.254
34.96000 282.833
34.97000 277.617
34.98000 272.756
34.99000 269.892
35.00000 271.750
35.01000 273.808
35.02000 274.513
35.03000 273.042
35.04000 271.541
35.05000 270.767
35.06000 271.668
35.07000 272.260
35.08000 270.975
35.09000 268.385
35.10000 265.918
35.11000 267.193
35.12000 270.228
35.13000 273.107
35.14000 269.733
35.15000 264.770
35.16000 260.575
35.17000 262.489
35.18000 265.718
35.19000 267.715
35.20000 263.516
35.21000 258.462
35.22000 254.501
35.23000 256.887
35.24000 259.203
35.25000 260.726
35.26000 260.435
35.27000 260.074
35.28000 258.708
35.29000 255.782
35.30000 252.838
35.31000 251.350
35.32000 258.849
35.33000 263.832
35.34000 265.221
35.35000 264.201
35.36000 263.177
35.37000 262.016
35.38000 260.794
35.39000 259.639
35.40000 259.580
35.41000 259.837
35.42000 260.495
35.43000 264.195
35.44000 268.527
35.45000 271.474
35.46000 267.727
35.47000 263.095
35.48000 259.497
35.49000 257.190
35.50000 255.433
35.51000 255.459
35.52000 259.419
35.53000 263.519
35.54000 265.397
35.55000 263.947
35.56000 262.464
35.57000 263.206
35.58000 266.130
35.59000 268.999
35.60000 267.099
35.61000 262.116
35.62000 257.474
35.63000 261.628
35.64000 269.643
35.65000 277.190
35.66000 271.586
35.67000 262.862
35.68000 255.401
35.69000 257.122
35.70000 260.675
35.71000 263.137
35.72000 260.522
35.73000 257.267
35.74000 254.760
35.75000 262.690
35.76000 269.564
35.77000 272.260
35.78000 266.058
35.79000 259.562
35.80000 254.696
35.81000 252.183
35.82000 249.688
35.83000 250.341
35.84000 253.958
35.85000 257.521
35.86000 256.979
35.87000 253.878
35.88000 251.114
35.89000 256.343
35.90000 264.961
35.91000 273.046
35.92000 264.503
35.93000 252.349
35.94000 241.726
35.95000 241.762
35.96000 243.843
35.97000 246.455
35.98000 251.444
35.99000 256.720
36.00000 260.745
36.01000 259.357
36.02000 257.974
36.03000 257.240
36.04000 257.842
36.05000 258.485
36.06000 259.595
36.07000 261.354
36.08000 263.117
36.09000 261.281
36.10000 256.191
36.11000 251.136
36.12000 248.337
36.13000 246.894
36.14000 245.773
36.15000 251.745
36.16000 260.620
36.17000 268.914
36.18000 262.655
36.19000 253.300
36.20000 244.887
36.21000 242.748
36.22000 241.765
36.23000 241.675
36.24000 245.436
36.25000 249.640
36.26000 252.817
36.27000 255.015
36.28000 256.689
36.29000 255.110
36.30000 247.072
36.31000 238.857
36.32000 238.816
36.33000 249.720
36.34000 260.673
36.35000 264.702
36.36000 262.708
36.37000 260.738
36.38000 260.091
36.39000 260.211
36.40000 260.265
36.41000 258.951
36.42000 257.096
36.43000 255.370
36.44000 255.519
36.45000 256.109
36.46000 256.134
36.47000 252.553
36.48000 248.332
36.49000 246.155
36.50000 252.473
36.51000 259.724
36.52000 265.151
36.53000 263.951
36.54000 262.705
36.55000 261.806
36.56000 261.570
36.57000 261.352
36.58000 260.497
36.59000 258.822
36.60000 257.146
36.61000 256.927
36.62000 257.924
36.63000 258.913
36.64000 259.439
36.65000 259.708
36.66000 259.739
36.67000 255.265
36.68000 249.069
36.69000 243.328
36.70000 244.512
36.71000 247.191
36.72000 250.475
36.73000 257.466
36.74000 265.087
36.75000 270.910
36.76000 269.527
36.77000 267.391
36.78000 265.808
36.79000 271.975
36.80000 277.102
36.81000 279.360
36.82000 276.308
36.83000 273.138
36.84000 272.545
36.85000 275.149
36.86000 277.758
36.87000 280.828
36.88000 284.256
36.89000 287.569
36.90000 285.720
36.91000 281.084
36.92000 276.886
36.93000 280.513
36.94000 287.025
36.95000 293.034
36.96000 289.619
36.97000 284.450
36.98000 280.907
36.99000 286.919
37.00000 294.492
37.01000 299.222
37.02000 292.970
37.03000 285.627
37.04000 280.239
37.05000 283.648
37.06000 286.639
37.07000 287.545
37.08000 284.728
37.09000 281.837
37.10000 278.752
37.11000 275.435
37.12000 272.126
37.13000 269.580
37.14000 267.638
37.15000 265.745
37.16000 265.819
37.17000 266.919
37.18000 267.903
37.19000 266.937
37.20000 265.278
37.21000 263.754
37.22000 263.925
37.23000 264.442
37.24000 263.970
37.25000 257.913
37.26000 250.981
37.27000 246.665
37.28000 252.088
37.29000 258.432
37.30000 263.039
37.31000 259.481
37.32000 256.439
37.33000 254.696
37.34000 255.193
37.35000 255.729
37.36000 255.219
37.37000 253.508
37.38000 251.801
37.39000 252.183
37.40000 254.110
37.41000 255.931
37.42000 253.873
37.43000 249.861
37.44000 246.229
37.45000 248.536
37.46000 252.883
37.47000 256.859
37.48000 256.955
37.49000 256.241
37.50000 255.193
37.51000 252.327
37.52000 249.189
37.53000 246.633
37.54000 246.169
37.55000 245.892
37.56000 245.693
37.57000 251.052
37.58000 255.344
37.59000 254.830
37.60000 246.321
37.61000 237.690
37.62000 236.550
37.63000 243.680
37.64000 250.789
37.65000 250.053
37.66000 243.732
37.67000 237.623
37.68000 238.537
37.69000 242.865
37.70000 246.975
37.71000 247.886
37.72000 247.735
37.73000 247.597
37.74000 246.520
37.75000 245.380
37.76000 244.741
37.77000 246.712
37.78000 249.058
37.79000 250.051
37.80000 246.361
37.81000 242.272
37.82000 239.366
37.83000 247.160
37.84000 253.437
37.85000 256.236
37.86000 253.456
37.87000 250.603
37.88000 247.639
37.89000 244.558
37.90000 241.492
37.91000 243.717
37.92000 249.543
37.93000 255.164
37.94000 254.555
37.95000 251.023
37.96000 247.532
37.97000 244.618
37.98000 241.890
37.99000 239.418
38.00000 245.656
38.01000 252.802
38.02000 258.034
38.03000 253.674
38.04000 247.994
38.05000 245.797
38.06000 255.245
38.07000 265.629
38.08000 272.929
38.09000 262.557
38.10000 254.182
38.11000 251.389
38.12000 257.233
38.13000 263.175
38.14000 268.877
38.15000 274.332
38.16000 279.756
38.17000 278.812
38.18000 273.683
38.19000 268.639
38.20000 265.979
38.21000 264.399
38.22000 263.146
38.23000 266.167
38.24000 270.510
38.25000 274.424
38.26000 280.210
38.27000 285.628
38.28000 291.714
38.29000 301.017
38.30000 310.744
38.31000 319.398
38.32000 324.593
38.33000 329.524
38.34000 332.951
38.35000 338.206
38.36000 342.216
38.37000 354.213
38.38000 378.124
38.39000 402.149
38.40000 414.638
38.41000 415.846
38.42000 417.046
38.43000 434.348
38.44000 461.591
38.45000 488.777
38.46000 514.515
38.47000 539.620
38.48000 564.873
38.49000 591.958
38.50000 619.591
38.51000 644.368
38.52000 667.790
38.53000 688.021
38.54000 709.813
38.55000 738.851
38.56000 768.801
38.57000 800.337
38.58000 836.814
38.59000 873.644
38.60000 898.942
38.61000 920.305
38.62000 936.227
38.63000 955.494
38.64000 979.570
38.65000 1003.682
38.66000 1021.637
38.67000 1033.809
38.68000 1045.881
38.69000 1056.029
38.70000 1064.820
38.71000 1073.329
38.72000 1075.191
38.73000 1074.243
38.74000 1072.149
38.75000 1056.630
38.76000 1037.250
38.77000 1019.964
38.78000 1001.433
38.79000 985.104
38.80000 966.207
38.81000 935.839
38.82000 904.094
38.83000 872.737
38.84000 842.549
38.85000 812.439
38.86000 792.004
38.87000 763.729
38.88000 742.461
38.89000 714.278
38.90000 676.513
38.91000 638.689
38.92000 603.528
38.93000 570.771
38.94000 538.327
38.95000 504.598
38.96000 470.810
38.97000 437.627
38.98000 417.707
38.99000 403.201
39.00000 389.056
39.01000 378.915
39.02000 369.886
39.03000 361.877
39.04000 339.491
39.05000 317.810
39.06000 299.122
39.07000 293.305
39.08000 288.964
39.09000 284.935
39.10000 281.811
39.11000 278.744
39.12000 276.689
39.13000 267.633
39.14000 260.772
39.15000 254.471
39.16000 248.918
39.17000 243.369
39.18000 238.426
39.19000 234.009
39.20000 229.642
39.21000 232.862
39.22000 240.294
39.23000 247.387
39.24000 247.592
39.25000 245.083
39.26000 242.635
39.27000 240.828
39.28000 239.193
39.29000 237.751
39.30000 236.925
39.31000 236.308
39.32000 237.210
39.33000 244.416
39.34000 252.310
39.35000 254.704
39.36000 241.693
39.37000 227.763
39.38000 218.542
39.39000 225.037
39.40000 230.115
39.41000 233.570
39.42000 234.937
39.43000 236.288
39.44000 233.383
39.45000 226.926
39.46000 220.552
39.47000 224.454
39.48000 233.840
39.49000 242.738
39.50000 242.378
39.51000 238.494
39.52000 234.977
39.53000 235.125
39.54000 236.218
39.55000 237.178
39.56000 235.133
39.57000 232.940
39.58000 230.160
39.59000 225.040
39.60000 219.677
39.61000 216.495
39.62000 219.214
39.63000 222.262
39.64000 224.254
39.65000 226.003
39.66000 227.283
39.67000 227.480
39.68000 226.339
39.69000 225.200
39.70000 225.913
39.71000 228.114
39.72000 230.282
39.73000 226.875
39.74000 220.649
39.75000 214.955
39.76000 218.672
39.77000 225.848
39.78000 232.224
39.79000 230.969
39.80000 227.818
39.81000 225.069
39.82000 225.791
39.83000 226.891
39.84000 227.988
39.85000 229.076
39.86000 230.163
39.87000 231.263
39.88000 232.396
39.89000 233.531
39.90000 234.262
39.91000 228.855
39.92000 224.817
39.93000 225.887
39.94000 233.037
39.95000 240.150
39.96000 235.061
39.97000 220.542
39.98000 206.257
39.99000 205.868
40.00000 212.486
40.01000 219.041
40.02000 224.567
40.03000 229.728
40.04000 234.400
40.05000 234.635
40.06000 233.807
40.07000 233.090
40.08000 225.722
40.09000 218.568
40.10000 214.299
40.11000 220.748
40.12000 228.204
40.13000 232.600
40.14000 229.281
40.15000 225.588
40.16000 223.239
40.17000 221.968
40.18000 221.058
40.19000 221.542
40.20000 223.621
40.21000 225.678
40.22000 223.048
40.23000 216.930
40.24000 210.923
40.25000 212.421
40.26000 217.504
40.27000 222.035
40.28000 217.979
40.29000 210.980
40.30000 204.867
40.31000 206.406
40.32000 209.713
40.33000 212.561
40.34000 214.744
40.35000 216.509
40.36000 217.670
40.37000 216.666
40.38000 215.469
40.39000 213.563
40.40000 209.926
40.41000 206.212
40.42000 203.882
40.43000 209.368
40.44000 213.417
40.45000 214.812
40.46000 213.284
40.47000 211.766
40.48000 211.973
40.49000 213.418
40.50000 214.833
40.51000 213.879
40.52000 211.857
40.53000 210.061
40.54000 211.575
40.55000 214.184
40.56000 216.067
40.57000 211.946
40.58000 206.490
40.59000 201.820
40.60000 204.578
40.61000 207.801
40.62000 210.661
40.63000 212.263
40.64000 213.758
40.65000 216.437
40.66000 221.902
40.67000 227.483
40.68000 230.935
40.69000 230.641
40.70000 230.394
40.71000 229.113
40.72000 226.735
40.73000 224.348
40.74000 220.771
40.75000 216.371
40.76000 212.068
40.77000 210.947
40.78000 211.300
40.79000 211.689
40.80000 212.590
40.81000 213.654
40.82000 214.322
40.83000 211.864
40.84000 208.737
40.85000 206.079
40.86000 211.753
40.87000 217.478
40.88000 220.764
40.89000 215.923
40.90000 210.431
40.91000 206.618
40.92000 206.617
40.93000 206.763
40.94000 206.852
40.95000 204.257
40.96000 202.381
40.97000 204.765
40.98000 211.474
40.99000 218.135
41.00000 219.835
41.01000 218.231
41.02000 216.667
41.03000 212.374
41.04000 207.093
41.05000 202.205
41.06000 202.434
41.07000 204.240
41.08000 206.251
41.09000 209.805
41.10000 213.676
41.11000 216.946
41.12000 208.321
41.13000 199.807
41.14000 194.121
41.15000 197.531
41.16000 201.629
41.17000 205.264
41.18000 207.884
41.19000 210.469
41.20000 212.020
41.21000 208.117
41.22000 205.307
41.23000 206.107
41.24000 210.426
41.25000 214.694
41.26000 214.565
41.27000 211.613
41.28000 208.739
41.29000 208.789
41.30000 210.053
41.31000 211.197
41.32000 210.879
41.33000 210.125
41.34000 209.634
41.35000 211.029
41.36000 212.799
41.37000 214.283
41.38000 216.579
41.39000 218.573
41.40000 218.786
41.41000 213.467
41.42000 207.753
41.43000 203.899
41.44000 203.984
41.45000 204.197
41.46000 204.323
41.47000 202.071
41.48000 200.467
41.49000 199.509
41.50000 199.155
41.51000 198.825
41.52000 200.256
41.53000 202.777
41.54000 205.226
41.55000 207.613
41.56000 209.854
41.57000 211.949
41.58000 212.352
41.59000 212.269
41.60000 212.611
41.61000 215.889
41.62000 219.726
41.63000 222.923
41.64000 210.773
41.65000 199.186
41.66000 192.092
41.67000 198.460
41.68000 205.732
41.69000 210.911
41.70000 211.808
41.71000 212.578
41.72000 213.025
41.73000 213.014
41.74000 213.002
41.75000 211.647
41.76000 209.082
41.77000 206.530
41.78000 204.743
41.79000 203.414
41.80000 202.127
41.81000 201.431
41.82000 201.001
41.83000 200.688
41.84000 201.674
41.85000 203.020
41.86000 203.982
41.87000 202.409
41.88000 200.371
41.89000 198.686
41.90000 200.061
41.91000 201.483
41.92000 203.306
41.93000 206.289
41.94000 209.345
41.95000 211.442
41.96000 211.644
41.97000 211.796
41.98000 211.883
41.99000 211.178
42.00000 210.679
42.01000 207.260
42.02000 201.314
42.03000 195.465
42.04000 195.030
42.05000 197.715
42.06000 200.309
42.07000 201.679
42.08000 202.517
42.09000 203.661
42.10000 208.021
42.11000 213.240
42.12000 216.990
42.13000 211.433
42.14000 204.239
42.15000 198.333
42.16000 201.565
42.17000 205.034
42.18000 208.922
42.19000 213.982
42.20000 219.112
42.21000 221.707
42.22000 219.471
42.23000 217.119
42.24000 215.795
42.25000 202.690
42.26000 193.580
42.27000 192.754
42.28000 198.820
42.29000 204.834
42.30000 208.305
42.31000 210.361
42.32000 212.342
42.33000 210.086
42.34000 206.459
42.35000 203.518
42.36000 207.418
42.37000 213.077
42.38000 216.983
42.39000 210.230
42.40000 201.676
42.41000 194.708
42.42000 196.439
42.43000 198.591
42.44000 199.943
42.45000 199.140
42.46000 198.217
42.47000 198.207
42.48000 199.876
42.49000 201.582
42.50000 202.525
42.51000 205.079
42.52000 206.847
42.53000 209.514
42.54000 212.900
42.55000 216.212
42.56000 216.238
42.57000 214.499
42.58000 212.829
42.59000 207.919
42.60000 202.215
42.61000 196.958
42.62000 195.948
42.63000 195.991
42.64000 196.346
42.65000 198.525
42.66000 201.000
42.67000 203.001
42.68000 200.121
42.69000 197.388
42.70000 197.348
42.71000 204.321
42.72000 211.658
42.73000 214.137
42.74000 207.992
42.75000 201.680
42.76000 198.251
42.77000 196.116
42.78000 194.666
42.79000 196.055
42.80000 199.633
42.81000 203.131
42.82000 203.480
42.83000 202.197
42.84000 200.969
42.85000 198.522
42.86000 195.838
42.87000 193.606
42.88000 195.452
42.89000 198.272
42.90000 200.294
42.91000 197.842
42.92000 194.695
42.93000 192.171
42.94000 193.984
42.95000 195.780
42.96000 198.303
42.97000 202.651
42.98000 207.087
42.99000 209.724
43.00000 209.279
43.01000 208.780
43.02000 208.515
43.03000 197.537
43.04000 190.097
43.05000 191.500
43.06000 199.463
43.07000 207.244
43.08000 208.452
43.09000 206.372
43.10000 204.387
43.11000 198.445
43.12000 191.676
43.13000 186.095
43.14000 190.759
43.15000 197.781
43.16000 203.302
43.17000 200.729
43.18000 196.950
43.19000 193.945
43.20000 192.914
43.21000 192.225
43.22000 193.548
43.23000 199.758
43.24000 206.187
43.25000 207.049
43.26000 198.709
43.27000 190.232
43.28000 185.796
43.29000 193.177
43.30000 198.166
43.31000 201.495
43.32000 203.637
43.33000 205.480
43.34000 197.529
43.35000 184.845
43.36000 172.784
43.37000 175.560
43.38000 182.653
43.39000 188.795
43.40000 187.127
43.41000 183.728
43.42000 180.790
43.43000 180.238
43.44000 180.028
43.45000 179.862
43.46000 184.948
43.47000 189.381
43.48000 192.702
43.49000 193.417
43.50000 194.023
43.51000 192.972
43.52000 189.277
43.53000 185.549
43.54000 183.635
43.55000 186.362
43.56000 188.179
43.57000 187.864
43.58000 186.081
43.59000 184.393
43.60000 185.557
43.61000 188.052
43.62000 190.416
43.63000 188.484
43.64000 185.445
43.65000 183.060
43.66000 185.806
43.67000 189.647
43.68000 193.224
43.69000 195.486
43.70000 197.569
43.71000 199.197
43.72000 201.184
43.73000 202.792
43.74000 202.308
43.75000 197.084
43.76000 191.678
43.77000 188.860
43.78000 190.022
43.79000 191.228
43.80000 191.834
43.81000 191.790
43.82000 191.762
43.83000 191.937
43.84000 192.246
43.85000 192.593
43.86000 193.983
43.87000 195.842
43.88000 197.597
43.89000 195.621
43.90000 192.755
43.91000 190.060
43.92000 188.641
43.93000 187.484
43.94000 186.570
43.95000 186.821
43.96000 187.223
43.97000 187.536
43.98000 190.055
43.99000 192.188
44.00000 194.619
44.01000 197.699
44.02000 200.802
44.03000 199.944
44.04000 193.212
44.05000 186.426
44.06000 181.165
44.07000 177.388
44.08000 173.681
44.09000 176.010
44.10000 182.203
44.11000 188.179
44.12000 188.683
44.13000 186.805
44.14000 185.039
44.15000 188.074
44.16000 192.147
44.17000 195.679
44.18000 195.324
44.19000 194.202
44.20000 193.313
44.21000 193.501
44.22000 193.824
44.23000 194.071
44.24000 194.015
44.25000 193.954
44.26000 193.187
44.27000 190.932
44.28000 188.628
44.29000 188.700
44.30000 192.168
44.31000 195.662
44.32000 195.437
44.33000 191.745
44.34000 188.083
44.35000 186.611
44.36000 186.490
44.37000 186.637
44.38000 193.049
44.39000 202.092
44.40000 210.567
44.41000 210.332
44.42000 207.850
44.43000 205.787
44.44000 206.602
44.45000 207.963
44.46000 209.101
44.47000 209.245
44.48000 209.270
44.49000 209.289
44.50000 208.148
44.51000 207.189
44.52000 206.822
44.53000 207.664
44.54000 208.541
44.55000 209.753
44.56000 211.424
44.57000 213.097
44.58000 214.470
44.59000 215.573
44.60000 216.675
44.61000 217.661
44.62000 218.579
44.63000 219.454
44.64000 219.411
44.65000 218.994
44.66000 218.606
44.67000 217.730
44.68000 216.815
44.69000 216.141
44.70000 217.061
44.71000 218.272
44.72000 219.694
44.73000 222.019
44.74000 224.447
44.75000 226.277
44.76000 227.119
44.77000 227.729
44.78000 228.197
44.79000 228.384
44.80000 228.564
44.81000 230.866
44.82000 235.982
44.83000 241.108
44.84000 245.485
44.85000 249.208
44.86000 252.886
44.87000 254.038
44.88000 253.738
44.89000 253.637
44.90000 257.536
44.91000 263.003
44.92000 268.085
44.93000 268.511
44.94000 267.777
44.95000 267.181
44.96000 267.456
44.97000 267.883
44.98000 269.286
44.99000 274.709
45.00000 280.566
45.01000 284.941
45.02000 287.381
45.03000 289.193
45.04000 289.090
45.05000 285.344
45.06000 281.510
45.07000 278.290
45.08000 275.853
45.09000 273.422
45.10000 270.947
45.11000 268.444
45.12000 265.897
45.13000 261.163
45.14000 255.215
45.15000 249.658
45.16000 251.414
45.17000 255.938
45.18000 260.126
45.19000 257.536
45.20000 253.645
45.21000 250.436
45.22000 251.357
45.23000 252.973
45.24000 253.907
45.25000 252.132
45.26000 250.078
45.27000 248.560
45.28000 247.072
45.29000 245.919
45.30000 245.640
45.31000 246.960
45.32000 248.315
45.33000 245.758
45.34000 238.389
45.35000 231.021
45.36000 227.889
45.37000 228.134
45.38000 228.348
45.39000 227.145
45.40000 225.184
45.41000 223.228
45.42000 221.372
45.43000 219.553
45.44000 217.877
45.45000 215.515
45.46000 213.249
45.47000 211.833
45.48000 215.364
45.49000 219.694
45.50000 223.293
45.51000 224.094
45.52000 224.621
45.53000 225.006
45.54000 219.663
45.55000 215.311
45.56000 211.199
45.57000 207.512
45.58000 203.833
45.59000 206.705
45.60000 217.324
45.61000 227.931
45.62000 228.376
45.63000 221.060
45.64000 213.787
45.65000 208.229
45.66000 203.557
45.67000 199.193
45.68000 199.882
45.69000 202.353
45.70000 204.621
45.71000 202.214
45.72000 199.075
45.73000 196.352
45.74000 195.950
45.75000 195.909
45.76000 195.765
45.77000 195.243
45.78000 194.687
45.79000 194.284
45.80000 198.943
45.81000 202.707
45.82000 203.317
45.83000 198.537
45.84000 193.667
45.85000 190.722
45.86000 189.967
45.87000 189.217
45.88000 187.117
45.89000 184.043
45.90000 181.048
45.91000 180.891
45.92000 182.149
45.93000 183.430
45.94000 185.051
45.95000 186.789
45.96000 188.376
45.97000 189.778
45.98000 190.986
45.99000 191.571
46.00000 188.813
46.01000 185.558
46.02000 181.567
46.03000 174.956
46.04000 168.112
46.05000 163.208
46.06000 174.364
46.07000 183.435
46.08000 187.374
46.09000 182.855
46.10000 178.211
46.11000 174.301
46.12000 171.193
46.13000 168.097
46.14000 167.983
46.15000 169.974
46.16000 171.965
46.17000 173.980
46.18000 176.006
46.19000 177.741
46.20000 175.262
46.21000 171.396
46.22000 167.882
46.23000 169.483
46.24000 171.897
46.25000 173.741
46.26000 172.633
46.27000 171.106
46.28000 170.506
46.29000 173.087
46.30000 175.935
46.31000 177.953
46.32000 174.596
46.33000 171.875
46.34000 170.369
46.35000 170.795
46.36000 171.246
46.37000 174.367
46.38000 180.292
46.39000 186.189
46.40000 183.499
46.41000 175.013
46.42000 166.841
46.43000 167.964
46.44000 173.413
46.45000 178.556
46.46000 179.532
46.47000 179.184
46.48000 178.870
46.49000 179.208
46.50000 179.628
46.51000 179.729
46.52000 178.245
46.53000 176.544
46.54000 175.093
46.55000 174.467
46.56000 173.906
46.57000 173.513
46.58000 175.029
46.59000 176.230
46.60000 176.299
46.61000 174.631
46.62000 172.944
46.63000 171.567
46.64000 170.501
46.65000 169.442
46.66000 167.585
46.67000 165.232
46.68000 163.102
46.69000 167.063
46.70000 173.760
46.71000 179.703
46.72000 175.913
46.73000 169.143
46.74000 163.049
46.75000 166.255
46.76000 170.735
46.77000 174.426
46.78000 174.348
46.79000 173.779
46.80000 173.179
46.81000 172.482
46.82000 171.777
46.83000 171.288
46.84000 172.457
46.85000 173.380
46.86000 173.442
46.87000 172.231
46.88000 171.008
46.89000 171.598
46.90000 173.944
46.91000 176.273
46.92000 175.398
46.93000 172.525
46.94000 169.662
46.95000 167.060
46.96000 164.569
46.97000 162.329
46.98000 163.129
46.99000 164.828
47.00000 166.349
47.01000 169.639
47.02000 172.814
47.03000 173.799
47.04000 164.711
47.05000 154.371
47.06000 148.712
47.07000 157.498
47.08000 167.304
47.09000 174.020
47.10000 167.242
47.11000 161.842
47.12000 158.303
47.13000 157.412
47.14000 156.542
47.15000 156.923
47.16000 158.465
47.17000 159.994
47.18000 163.209
47.19000 167.383
47.20000 171.456
47.21000 173.194
47.22000 173.954
47.23000 174.333
47.24000 170.314
47.25000 165.041
47.26000 160.344
47.27000 160.030
47.28000 160.478
47.29000 161.271
47.30000 163.590
47.31000 166.089
47.32000 167.437
47.33000 165.353
47.34000 163.041
47.35000 161.477
47.36000 158.702
47.37000 156.609
47.38000 155.987
47.39000 157.386
47.40000 158.800
47.41000 162.320
47.42000 167.723
47.43000 173.072
47.44000 174.240
47.45000 172.953
47.46000 171.736
47.47000 172.056
47.48000 172.997
47.49000 173.657
47.50000 171.233
47.51000 167.960
47.52000 165.062
47.53000 162.038
47.54000 159.403
47.55000 157.874
47.56000 161.064
47.57000 164.788
47.58000 168.116
47.59000 170.303
47.60000 172.420
47.61000 173.834
47.62000 165.884
47.63000 159.808
47.64000 155.833
47.65000 154.635
47.66000 153.453
47.67000 154.578
47.68000 157.683
47.69000 160.752
47.70000 162.079
47.71000 162.400
47.72000 162.747
47.73000 163.618
47.74000 164.694
47.75000 165.592
47.76000 164.630
47.77000 163.175
47.78000 161.893
47.79000 161.953
47.80000 162.207
47.81000 162.229
47.82000 161.298
47.83000 160.266
47.84000 161.527
47.85000 169.160
47.86000 177.166
47.87000 182.449
47.88000 171.367
47.89000 162.910
47.90000 157.724
47.91000 156.704
47.92000 155.702
47.93000 156.378
47.94000 158.440
47.95000 160.475
47.96000 157.356
47.97000 151.547
47.98000 146.138
47.99000 148.200
48.00000 153.081
48.01000 157.460
48.02000 156.887
48.03000 155.047
48.04000 153.435
48.05000 158.917
48.06000 164.640
48.07000 167.585
48.08000 159.534
48.09000 150.353
48.10000 144.918
48.11000 149.524
48.12000 154.680
48.13000 158.039
48.14000 158.307
48.15000 158.454
48.16000 160.756
48.17000 165.697
48.18000 170.627
48.19000 170.050
48.20000 165.093
48.21000 160.209
48.22000 156.054
48.23000 152.398
48.24000 148.947
48.25000 149.067
48.26000 150.489
48.27000 152.244
48.28000 157.141
48.29000 162.814
48.30000 167.753
48.31000 162.653
48.32000 156.918
48.33000 152.765
48.34000 154.649
48.35000 157.123
48.36000 158.558
48.37000 157.302
48.38000 155.909
48.39000 155.014
48.40000 154.124
48.41000 153.475
48.42000 155.115
48.43000 159.453
48.44000 163.787
48.45000 166.076
48.46000 166.800
48.47000 167.512
48.48000 169.857
48.49000 172.941
48.50000 175.529
48.51000 170.042
48.52000 161.713
48.53000 154.187
48.54000 153.853
48.55000 155.228
48.56000 156.417
48.57000 156.171
48.58000 155.774
48.59000 155.103
48.60000 153.424
48.61000 151.651
48.62000 151.463
48.63000 155.235
48.64000 159.197
48.65000 161.708
48.66000 156.655
48.67000 152.897
48.68000 152.132
48.69000 154.760
48.70000 157.381
48.71000 158.064
48.72000 157.321
48.73000 156.591
48.74000 157.820
48.75000 159.946
48.76000 161.748
48.77000 158.566
48.78000 153.693
48.79000 149.282
48.80000 148.828
48.81000 149.279
48.82000 149.666
48.83000 155.290
48.84000 160.706
48.85000 164.739
48.86000 163.868
48.87000 162.565
48.88000 160.716
48.89000 157.548
48.90000 154.321
48.91000 152.304
48.92000 154.116
48.93000 155.463
48.94000 154.801
48.95000 151.951
48.96000 149.123
48.97000 149.762
48.98000 152.863
48.99000 155.899
49.00000 156.578
49.01000 156.141
49.02000 155.752
49.03000 156.057
49.04000 156.590
49.05000 157.337
49.06000 159.833
49.07000 162.715
49.08000 165.177
49.09000 160.325
49.10000 155.362
49.11000 152.387
49.12000 156.217
49.13000 160.614
49.14000 162.111
49.15000 156.845
49.16000 151.303
49.17000 147.888
49.18000 147.441
49.19000 147.148
49.20000 147.794
49.21000 149.422
49.22000 151.039
49.23000 151.311
49.24000 150.663
49.25000 150.030
49.26000 148.455
49.27000 146.527
49.28000 144.731
49.29000 144.719
49.30000 145.272
49.31000 145.782
49.32000 145.965
49.33000 146.077
49.34000 146.173
49.35000 153.019
49.36000 159.530
49.37000 163.228
49.38000 157.634
49.39000 151.308
49.40000 145.516
49.41000 140.930
49.42000 136.389
49.43000 133.633
49.44000 145.937
49.45000 154.832
49.46000 157.986
49.47000 155.371
49.48000 152.796
49.49000 154.154
49.50000 158.109
49.51000 161.964
49.52000 159.800
49.53000 155.159
49.54000 150.741
49.55000 149.191
49.56000 148.517
49.57000 148.154
49.58000 150.104
49.59000 152.527
49.60000 154.570
49.61000 151.632
49.62000 148.640
49.63000 145.272
49.64000 140.704
49.65000 136.048
49.66000 134.365
49.67000 139.146
49.68000 144.152
49.69000 147.145
49.70000 153.222
49.71000 157.553
49.72000 158.361
49.73000 155.769
49.74000 153.158
49.75000 148.904
49.76000 143.604
49.77000 138.448
49.78000 142.321
49.79000 149.722
49.80000 156.583
49.81000 156.888
49.82000 155.261
49.83000 153.325
49.84000 149.188
49.85000 144.617
49.86000 140.791
49.87000 145.835
49.88000 150.941
49.89000 155.360
49.90000 157.661
49.91000 159.814
49.92000 159.969
49.93000 155.932
49.94000 151.761
49.95000 149.306
49.96000 148.752
49.97000 148.372
49.98000 149.577
49.99000 152.252
50.00000 154.880
50.01000 154.157
50.02000 151.376
50.03000 148.679
50.04000 151.874
50.05000 157.239
50.06000 161.919
50.07000 158.724
50.08000 153.292
50.09000 148.334
50.10000 146.613
50.11000 145.504
50.12000 144.581
50.13000 152.051
50.14000 159.053
50.15000 163.471
50.16000 160.211
50.17000 156.443
50.18000 153.862
50.19000 153.687
50.20000 153.582
50.21000 153.521
50.22000 155.065
50.23000 156.153
50.24000 155.394
50.25000 152.992
50.26000 150.638
50.27000 151.362
50.28000 153.908
50.29000 156.372
50.30000 158.992
50.31000 161.526
50.32000 163.752
50.33000 162.605
50.34000 160.533
50.35000 159.023
50.36000 161.191
50.37000 164.025
50.38000 166.364
50.39000 169.070
50.40000 171.332
50.41000 173.218
50.42000 174.022
50.43000 174.760
50.44000 176.007
50.45000 178.251
50.46000 180.521
50.47000 181.815
50.48000 177.806
50.49000 174.995
50.50000 173.725
50.51000 173.774
50.52000 173.851
50.53000 175.474
50.54000 177.980
50.55000 180.399
50.56000 179.705
50.57000 177.910
50.58000 176.633
50.59000 180.729
50.60000 186.246
50.61000 190.930
50.62000 190.388
50.63000 188.936
50.64000 187.746
50.65000 190.563
50.66000 193.227
50.67000 193.268
50.68000 186.049
50.69000 178.408
50.70000 175.163
50.71000 180.226
50.72000 185.484
50.73000 188.430
50.74000 186.182
50.75000 184.606
50.76000 180.859
50.77000 175.322
50.78000 169.876
50.79000 168.772
50.80000 170.063
50.81000 171.305
50.82000 172.308
50.83000 173.165
50.84000 173.848
50.85000 172.821
50.86000 171.358
50.87000 169.748
50.88000 167.257
50.89000 164.619
50.90000 162.475
50.91000 163.225
50.92000 164.079
50.93000 163.689
50.94000 159.975
50.95000 156.079
50.96000 154.999
50.97000 159.053
50.98000 163.216
50.99000 165.507
51.00000 157.405
51.01000 151.820
51.02000 150.325
51.03000 152.074
51.04000 153.813
51.05000 155.206
51.06000 156.413
51.07000 157.572
51.08000 153.603
51.09000 148.153
51.10000 143.571
51.11000 147.126
51.12000 152.679
51.13000 157.292
51.14000 156.467
51.15000 154.771
51.16000 153.402
51.17000 155.463
51.18000 157.409
51.19000 158.187
51.20000 155.950
51.21000 153.559
51.22000 151.042
51.23000 148.302
51.24000 145.557
51.25000 144.074
51.26000 140.612
51.27000 138.249
51.28000 137.592
51.29000 138.238
51.30000 138.915
51.31000 140.786
51.32000 143.269
51.33000 145.645
51.34000 148.244
51.35000 150.738
51.36000 152.363
51.37000 146.233
51.38000 138.267
51.39000 132.171
51.40000 136.455
51.41000 142.335
51.42000 147.041
51.43000 145.932
51.44000 144.601
51.45000 143.596
51.46000 143.403
51.47000 143.249
51.48000 142.173
51.49000 139.531
51.50000 136.863
51.51000 135.447
51.52000 133.964
51.53000 132.981
51.54000 136.285
51.55000 142.742
51.56000 149.093
51.57000 151.717
51.58000 152.492
51.59000 153.231
51.60000 151.485
51.61000 149.086
51.62000 146.810
51.63000 145.586
51.64000 144.600
51.65000 143.006
51.66000 138.161
51.67000 132.836
51.68000 128.610
51.69000 130.879
51.70000 133.164
51.71000 134.616
51.72000 134.064
51.73000 133.424
51.74000 134.249
51.75000 137.475
51.76000 140.736
51.77000 142.434
51.78000 141.570
51.79000 140.984
51.80000 140.306
51.81000 139.562
51.82000 138.792
51.83000 137.182
51.84000 135.169
51.85000 133.258
51.86000 136.666
51.87000 141.421
51.88000 146.056
51.89000 149.716
51.90000 153.162
51.91000 154.959
51.92000 148.302
51.93000 140.452
51.94000 134.274
51.95000 135.719
51.96000 137.384
51.97000 138.591
51.98000 138.735
51.99000 138.837
52.00000 136.673
52.01000 130.930
52.02000 125.143
52.03000 122.188
52.04000 131.763
52.05000 138.153
52.06000 140.143
52.07000 139.127
52.08000 138.066
52.09000 135.638
52.10000 132.579
52.11000 129.683
52.12000 130.593
52.13000 132.535
52.14000 134.525
52.15000 136.889
52.16000 139.332
52.17000 141.049
52.18000 139.187
52.19000 136.841
52.20000 135.011
52.21000 137.666
52.22000 140.064
52.23000 141.641
52.24000 141.373
52.25000 141.037
52.26000 138.568
52.27000 132.849
52.28000 127.095
52.29000 124.216
52.30000 131.908
52.31000 137.008
52.32000 139.349
52.33000 139.875
52.34000 140.338
52.35000 139.111
52.36000 137.129
52.37000 135.259
52.38000 136.956
52.39000 139.507
52.40000 141.534
52.41000 139.669
52.42000 137.013
52.43000 134.934
52.44000 135.591
52.45000 136.601
52.46000 137.383
52.47000 134.359
52.48000 131.735
52.49000 129.938
52.50000 129.932
52.51000 129.989
52.52000 131.309
52.53000 134.486
52.54000 137.680
52.55000 137.120
52.56000 132.952
52.57000 128.801
52.58000 126.088
52.59000 124.286
52.60000 122.841
52.61000 130.222
52.62000 141.410
52.63000 151.925
52.64000 149.528
52.65000 143.876
52.66000 138.936
52.67000 139.058
52.68000 140.171
52.69000 140.954
52.70000 140.235
52.71000 139.331
52.72000 138.638
52.73000 133.688
52.74000 129.544
52.75000 126.938
52.76000 127.553
52.77000 128.270
52.78000 129.925
52.79000 132.906
52.80000 135.897
52.81000 137.006
52.82000 136.376
52.83000 135.749
52.84000 135.308
52.85000 134.980
52.86000 134.645
52.87000 134.145
52.88000 133.577
52.89000 133.044
52.90000 134.145
52.91000 135.567
52.92000 136.688
52.93000 135.767
52.94000 134.462
52.95000 133.584
52.96000 134.586
52.97000 135.809
52.98000 136.738
52.99000 136.820
53.00000 136.841
53.01000 137.831
53.02000 140.779
53.03000 143.783
53.04000 145.593
53.05000 145.773
53.06000 145.943
53.07000 143.224
53.08000 137.947
53.09000 132.827
53.10000 137.293
53.11000 147.420
53.12000 156.982
53.13000 154.575
53.14000 147.355
53.15000 140.621
53.16000 141.490
53.17000 144.159
53.18000 146.541
53.19000 147.047
53.20000 147.213
53.21000 147.542
53.22000 148.562
53.23000 149.660
53.24000 150.485
53.25000 151.986
53.26000 153.192
53.27000 153.108
53.28000 150.506
53.29000 147.838
53.30000 147.155
53.31000 149.083
53.32000 151.020
53.33000 153.382
53.34000 156.099
53.35000 158.761
53.36000 158.478
53.37000 156.515
53.38000 154.768
53.39000 157.277
53.40000 161.438
53.41000 165.303
53.42000 158.150
53.43000 149.081
53.44000 141.305
53.45000 141.623
53.46000 143.345
53.47000 145.168
53.48000 147.399
53.49000 149.675
53.50000 151.370
53.51000 153.094
53.52000 154.438
53.53000 154.532
53.54000 152.275
53.55000 149.962
53.56000 147.990
53.57000 146.450
53.58000 144.914
53.59000 144.006
53.60000 143.614
53.61000 143.229
53.62000 143.128
53.63000 143.183
53.64000 143.178
53.65000 142.070
53.66000 140.548
53.67000 139.140
53.68000 138.251
53.69000 137.570
53.70000 136.977
53.71000 136.911
53.72000 136.933
53.73000 137.948
53.74000 142.869
53.75000 148.188
53.76000 152.111
53.77000 146.580
53.78000 141.899
53.79000 137.980
53.80000 135.447
53.81000 132.942
53.82000 130.015
53.83000 126.572
53.84000 123.135
53.85000 123.502
53.86000 126.860
53.87000 130.164
53.88000 131.202
53.89000 131.036
53.90000 131.038
53.91000 133.941
53.92000 137.895
53.93000 141.536
53.94000 141.426
53.95000 140.505
53.96000 139.816
53.97000 140.464
53.98000 141.324
53.99000 141.999
54.00000 141.972
54.01000 141.876
54.02000 141.806
54.03000 140.223
54.04000 138.943
54.05000 137.434
54.06000 135.524
54.07000 133.606
54.08000 133.150
54.09000 134.409
54.10000 135.666
54.11000 134.810
54.12000 132.361
54.13000 129.985
54.14000 130.398
54.15000 132.242
54.16000 134.060
54.17000 135.479
54.18000 136.758
54.19000 137.931
54.20000 136.933
54.21000 135.588
54.22000 134.844
54.23000 137.421
54.24000 140.506
54.25000 142.402
54.26000 139.947
54.27000 137.090
54.28000 135.027
54.29000 135.689
54.30000 136.294
54.31000 137.362
54.32000 139.210
54.33000 141.071
54.34000 142.425
54.35000 143.207
54.36000 143.987
54.37000 142.408
54.38000 139.129
54.39000 135.951
54.40000 136.309
54.41000 138.417
54.42000 140.344
54.43000 139.527
54.44000 137.784
54.45000 136.193
54.46000 134.845
54.47000 133.698
54.48000 132.649
54.49000 132.112
54.50000 131.651
54.51000 132.122
54.52000 135.878
54.53000 139.920
54.54000 142.809
54.55000 140.494
54.56000 138.554
54.57000 138.712
54.58000 142.296
54.59000 145.928
54.60000 147.862
54.61000 147.957
54.62000 148.050
54.63000 146.718
54.64000 144.404
54.65000 142.122
54.66000 140.911
54.67000 140.209
54.68000 139.554
54.69000 139.554
54.70000 139.767
54.71000 139.961
54.72000 138.210
54.73000 136.288
54.74000 135.048
54.75000 137.294
54.76000 140.030
54.77000 141.913
54.78000 140.893
54.79000 139.632
54.80000 138.741
54.81000 141.626
54.82000 143.933
54.83000 144.739
54.84000 143.181
54.85000 141.593
54.86000 142.062
54.87000 144.668
54.88000 147.261
54.89000 147.866
54.90000 147.127
54.91000 146.358
54.92000 144.692
54.93000 142.612
54.94000 140.751
54.95000 141.829
54.96000 143.832
54.97000 145.642
54.98000 144.055
54.99000 142.031
55.00000 140.720
55.01000 142.915
55.02000 145.583
55.03000 148.185
55.04000 150.572
55.05000 152.942
55.06000 154.598
55.07000 144.701
55.08000 136.897
55.09000 135.343
55.10000 143.282
55.11000 151.320
55.12000 154.940
55.13000 154.150
55.14000 153.366
55.15000 155.358
55.16000 159.117
55.17000 162.700
55.18000 161.588
55.19000 158.385
55.20000 155.175
55.21000 151.871
55.22000 148.539
55.23000 145.544
55.24000 152.343
55.25000 160.035
55.26000 166.400
55.27000 166.490
55.28000 165.773
55.29000 165.003
55.30000 164.071
55.31000 163.126
55.32000 162.474
55.33000 167.949
55.34000 172.223
55.35000 176.024
55.36000 179.133
55.37000 182.235
55.38000 183.020
55.39000 181.586
55.40000 180.162
55.41000 181.601
55.42000 184.796
55.43000 188.075
55.44000 193.436
55.45000 199.692
55.46000 205.878
55.47000 211.225
55.48000 216.326
55.49000 220.888
55.50000 221.965
55.51000 222.312
55.52000 224.640
55.53000 235.988
55.54000 248.445
55.55000 260.729
55.56000 272.484
55.57000 284.202
55.58000 292.202
55.59000 304.244
55.60000 313.345
55.61000 322.510
55.62000 331.767
55.63000 341.027
55.64000 355.098
55.65000 373.598
55.66000 391.933
55.67000 403.531
55.68000 410.873
55.69000 418.188
55.70000 424.883
55.71000 431.321
55.72000 439.093
55.73000 462.081
55.74000 489.367
55.75000 513.640
55.76000 522.001
55.77000 526.671
55.78000 533.168
55.79000 547.677
55.80000 563.126
55.81000 578.586
55.82000 594.079
55.83000 609.573
55.84000 620.024
55.85000 611.256
55.86000 604.325
55.87000 604.643
55.88000 614.817
55.89000 625.043
55.90000 630.276
55.91000 631.092
55.92000 631.899
55.93000 635.928
55.94000 641.723
55.95000 646.974
55.96000 640.742
55.97000 629.906
55.98000 618.305
55.99000 598.432
56.00000 576.304
56.01000 556.728
56.02000 544.268
56.03000 534.606
56.04000 525.335
56.05000 517.714
56.06000 510.277
56.07000 501.381
56.08000 488.323
56.09000 475.009
56.10000 466.140
56.11000 445.403
56.12000 429.828
56.13000 414.498
56.14000 399.488
56.15000 384.484
56.16000 371.964
56.17000 361.559
56.18000 351.277
56.19000 339.063
56.20000 326.080
56.21000 313.093
56.22000 300.021
56.23000 286.918
56.24000 273.957
56.25000 262.462
56.26000 251.352
56.27000 241.580
56.28000 233.302
56.29000 226.402
56.30000 220.647
56.31000 219.552
56.32000 218.955
56.33000 217.383
56.34000 213.133
56.35000 208.727
56.36000 205.830
56.37000 193.624
56.38000 184.478
56.39000 180.146
56.40000 181.886
56.41000 183.630
56.42000 179.127
56.43000 169.511
56.44000 160.024
56.45000 154.907
56.46000 152.259
56.47000 149.833
56.48000 151.461
56.49000 154.605
56.50000 157.279
56.51000 155.372
56.52000 152.304
56.53000 149.620
56.54000 146.115
56.55000 142.995
56.56000 141.911
56.57000 148.809
56.58000 156.518
56.59000 160.569
56.60000 154.899
56.61000 148.705
56.62000 144.684
56.63000 140.979
56.64000 138.270
56.65000 137.779
56.66000 139.979
56.67000 142.182
56.68000 143.274
56.69000 143.490
56.70000 143.704
56.71000 141.394
56.72000 137.860
56.73000 134.456
56.74000 133.272
56.75000 132.889
56.76000 132.584
56.77000 132.999
56.78000 133.590
56.79000 134.104
56.80000 131.181
56.81000 128.222
56.82000 126.796
56.83000 131.168
56.84000 136.100
56.85000 139.197
56.86000 137.586
56.87000 135.738
56.88000 134.554
56.89000 128.679
56.90000 124.336
56.91000 123.455
56.92000 126.613
56.93000 129.763
56.94000 129.621
56.95000 126.983
56.96000 124.391
56.97000 124.980
56.98000 127.122
56.99000 129.147
57.00000 129.301
57.01000 128.802
57.02000 128.327
57.03000 128.055
57.04000 127.830
57.05000 127.635
57.06000 129.479
57.07000 131.309
57.08000 132.993
57.09000 134.144
57.10000 135.245
57.11000 135.163
57.12000 132.147
57.13000 128.993
57.14000 127.000
57.15000 125.704
57.16000 124.772
57.17000 123.392
57.18000 121.508
57.19000 119.644
57.20000 121.322
57.21000 125.587
57.22000 129.771
57.23000 131.862
57.24000 132.882
57.25000 133.714
57.26000 131.705
57.27000 128.739
57.28000 125.978
57.29000 124.947
57.30000 124.308
57.31000 123.759
57.32000 125.956
57.33000 128.153
57.34000 130.551
57.35000 133.658
57.36000 136.827
57.37000 137.632
57.38000 132.779
57.39000 127.680
57.40000 124.505
57.41000 126.768
57.42000 128.454
57.43000 128.382
57.44000 126.414
57.45000 124.448
57.46000 122.785
57.47000 121.335
57.48000 119.916
57.49000 120.941
57.50000 123.042
57.51000 125.005
57.52000 124.995
57.53000 124.345
57.54000 123.904
57.55000 125.161
57.56000 126.787
57.57000 128.175
57.58000 122.865
57.59000 117.606
57.60000 113.983
57.61000 115.912
57.62000 118.299
57.63000 121.888
57.64000 128.257
57.65000 134.737
57.66000 138.715
57.67000 131.002
57.68000 125.373
57.69000 125.368
57.70000 131.190
57.71000 136.964
57.72000 137.289
57.73000 133.919
57.74000 130.627
57.75000 127.720
57.76000 125.107
57.77000 122.645
57.78000 122.202
57.79000 122.393
57.80000 122.549
57.81000 122.438
57.82000 122.270
57.83000 122.128
57.84000 125.816
57.85000 129.336
57.86000 131.727
57.87000 130.420
57.88000 128.825
57.89000 126.583
57.90000 122.898
57.91000 119.160
57.92000 116.899
57.93000 115.430
57.94000 114.388
57.95000 112.926
57.96000 111.045
57.97000 109.208
57.98000 111.566
57.99000 116.666
58.00000 121.636
58.01000 121.950
58.02000 120.277
58.03000 118.834
58.04000 120.304
58.05000 122.655
58.06000 124.626
58.07000 123.796
58.08000 122.398
58.09000 121.223
58.10000 119.484
58.11000 117.974
58.12000 117.664
58.13000 121.146
58.14000 124.908
58.15000 127.017
58.16000 125.569
58.17000 123.999
58.18000 123.065
58.19000 124.718
58.20000 125.905
58.21000 125.660
58.22000 124.049
58.23000 122.462
58.24000 122.745
58.25000 124.208
58.26000 125.630
58.27000 125.763
58.28000 125.363
58.29000 124.720
58.30000 121.155
58.31000 116.737
58.32000 113.305
58.33000 116.826
58.34000 121.700
58.35000 125.773
58.36000 122.632
58.37000 119.290
58.38000 116.438
58.39000 115.078
58.40000 113.822
58.41000 113.897
58.42000 116.742
58.43000 119.673
58.44000 121.392
58.45000 117.943
58.46000 115.487
58.47000 113.276
58.48000 111.287
58.49000 109.366
58.50000 112.026
58.51000 117.473
58.52000 122.754
58.53000 121.103
58.54000 116.819
58.55000 112.829
58.56000 112.174
58.57000 112.459
58.58000 112.748
58.59000 113.069
58.60000 113.395
58.61000 113.666
58.62000 117.088
58.63000 120.221
58.64000 121.306
58.65000 116.364
58.66000 111.028
58.67000 108.804
58.68000 112.829
58.69000 117.030
58.70000 119.453
58.71000 118.481
58.72000 117.785
58.73000 115.457
58.74000 111.689
58.75000 107.975
58.76000 107.506
58.77000 108.940
58.78000 110.327
58.79000 111.873
58.80000 113.393
58.81000 115.010
58.82000 117.677
58.83000 120.630
58.84000 123.287
58.85000 124.030
58.86000 124.430
58.87000 124.759
58.88000 123.550
58.89000 122.414
58.90000 120.637
58.91000 117.039
58.92000 113.328
58.93000 111.604
58.94000 113.733
58.95000 115.960
58.96000 117.224
58.97000 112.821
58.98000 109.744
58.99000 110.322
59.00000 113.997
59.01000 117.593
59.02000 116.976
59.03000 113.973
59.04000 111.076
59.05000 115.263
59.06000 121.774
59.07000 127.535
59.08000 125.624
59.09000 121.704
59.10000 118.275
59.11000 117.897
59.12000 118.046
59.13000 118.168
59.14000 114.944
59.15000 112.013
59.16000 111.156
59.17000 115.988
59.18000 121.146
59.19000 124.171
59.20000 123.199
59.21000 122.136
59.22000 121.543
59.23000 119.294
59.24000 117.739
59.25000 118.209
59.26000 120.329
59.27000 122.352
59.28000 119.828
59.29000 114.817
59.30000 109.998
59.31000 111.048
59.32000 114.082
59.33000 116.963
59.34000 118.351
59.35000 119.362
59.36000 120.022
59.37000 118.589
59.38000 116.810
59.39000 115.366
59.40000 118.930
59.41000 122.248
59.42000 124.655
59.43000 124.649
59.44000 124.513
59.45000 122.766
59.46000 118.106
59.47000 113.387
59.48000 110.801
59.49000 113.609
59.50000 115.544
59.51000 116.128
59.52000 115.650
59.53000 115.192
59.54000 115.535
59.55000 116.299
59.56000 117.032
59.57000 119.575
59.58000 122.557
59.59000 125.050
59.60000 123.014
59.61000 119.875
59.62000 117.039
59.63000 115.941
59.64000 115.118
59.65000 114.455
59.66000 114.506
59.67000 114.603
59.68000 115.761
59.69000 119.634
59.70000 123.643
59.71000 125.052
59.72000 121.927
59.73000 118.720
59.74000 116.993
59.75000 116.376
59.76000 115.960
59.77000 116.563
59.78000 117.935
59.79000 119.288
59.80000 119.892
59.81000 120.113
59.82000 120.325
59.83000 122.108
59.84000 124.274
59.85000 125.874
59.86000 122.488
59.87000 117.931
59.88000 114.231
59.89000 115.233
59.90000 116.952
59.91000 118.324
59.92000 120.146
59.93000 121.650
59.94000 121.586
59.95000 117.644
59.96000 113.523
59.97000 111.160
59.98000 111.756
59.99000 112.400
60.00000 112.740
60.01000 111.737
60.02000 111.071
60.03000 113.037
60.04000 116.918
60.05000 120.646
60.06000 119.133
60.07000 115.041
60.08000 111.144
60.09000 112.623
60.10000 115.665
60.11000 118.349
60.12000 118.021
60.13000 117.013
60.14000 116.676
60.15000 119.879
60.16000 123.598
60.17000 126.545
60.18000 124.458
60.19000 122.431
60.20000 120.976
60.21000 120.889
60.22000 120.860
60.23000 120.525
60.24000 119.692
60.25000 118.853
60.26000 118.418
60.27000 115.954
60.28000 114.299
60.29000 113.700
60.30000 113.843
60.31000 114.044
60.32000 116.058
60.33000 118.934
60.34000 121.665
60.35000 120.072
60.36000 117.310
60.37000 114.971
60.38000 116.028
60.39000 117.824
60.40000 118.653
60.41000 114.575
60.42000 109.811
60.43000 106.069
60.44000 107.194
60.45000 108.413
60.46000 110.216
60.47000 113.367
60.48000 116.572
60.49000 119.193
60.50000 120.902
60.51000 122.599
60.52000 123.461
60.53000 120.479
60.54000 118.479
60.55000 116.370
60.56000 114.186
60.57000 112.056
60.58000 111.489
60.59000 111.638
60.60000 111.779
60.61000 112.501
60.62000 113.331
60.63000 114.409
60.64000 117.385
60.65000 120.758
60.66000 123.511
60.67000 123.238
60.68000 122.560
60.69000 122.033
60.70000 120.143
60.71000 118.553
60.72000 116.857
60.73000 114.922
60.74000 112.978
60.75000 113.328
60.76000 117.141
60.77000 120.990
60.78000 121.851
60.79000 119.753
60.80000 117.650
60.81000 115.228
60.82000 112.597
60.83000 110.045
60.84000 109.571
60.85000 110.017
60.86000 110.438
60.87000 112.705
60.88000 115.291
60.89000 117.492
60.90000 116.869
60.91000 115.676
60.92000 116.086
60.93000 124.025
60.94000 132.926
60.95000 139.794
60.96000 131.634
60.97000 124.295
60.98000 118.437
60.99000 115.760
61.00000 113.190
61.01000 112.156
61.02000 113.358
61.03000 114.578
61.04000 117.202
61.05000 121.160
61.06000 125.064
61.07000 124.694
61.08000 121.637
61.09000 118.734
61.10000 119.571
61.11000 122.007
61.12000 124.295
61.13000 123.864
61.14000 122.750
61.15000 121.437
61.16000 118.733
61.17000 115.759
61.18000 113.812
61.19000 116.509
61.20000 119.773
61.21000 122.269
61.22000 122.563
61.23000 122.675
61.24000 123.411
61.25000 125.440
61.26000 127.510
61.27000 127.767
61.28000 125.483
61.29000 123.181
61.30000 120.764
61.31000 118.242
61.32000 115.778
61.33000 117.259
61.34000 121.132
61.35000 124.869
61.36000 125.539
61.37000 124.943
61.38000 124.386
61.39000 124.725
61.40000 125.262
61.41000 125.762
61.42000 126.007
61.43000 126.205
61.44000 126.763
61.45000 128.895
61.46000 131.211
61.47000 132.964
61.48000 139.878
61.49000 145.568
61.50000 151.081
61.51000 156.237
61.52000 161.383
61.53000 169.564
61.54000 181.847
61.55000 194.146
61.56000 204.795
61.57000 213.982
61.58000 223.184
61.59000 233.316
61.60000 243.992
61.61000 254.548
61.62000 262.590
61.63000 269.631
61.64000 276.189
61.65000 283.999
61.66000 291.371
61.67000 298.816
61.68000 306.738
61.69000 314.745
61.70000 320.284
61.71000 315.461
61.72000 309.488
61.73000 305.006
61.74000 301.449
61.75000 298.713
61.76000 288.478
61.77000 263.737
61.78000 238.630
61.79000 219.964
61.80000 209.684
61.81000 199.449
61.82000 187.017
61.83000 172.764
61.84000 158.692
61.85000 154.049
61.86000 154.729
61.87000 155.115
61.88000 149.768
61.89000 142.215
61.90000 135.207
61.91000 132.645
61.92000 131.381
61.93000 130.584
61.94000 132.672
61.95000 135.255
61.96000 136.385
61.97000 131.638
61.98000 126.270
61.99000 122.281
62.00000 123.898
62.01000 125.404
62.02000 126.197
62.03000 125.662
62.04000 125.096
62.05000 125.487
62.06000 127.075
62.07000 128.665
62.08000 128.585
62.09000 127.150
62.10000 125.773
62.11000 127.046
62.12000 129.764
62.13000 132.187
62.14000 129.279
62.15000 124.389
62.16000 119.872
62.17000 121.992
62.18000 125.394
62.19000 127.970
62.20000 125.647
62.21000 122.516
62.22000 120.498
62.23000 122.823
62.24000 125.584
62.25000 127.616
62.26000 126.644
62.27000 125.769
62.28000 124.795
62.29000 123.643
62.30000 122.488
62.31000 123.544
62.32000 127.268
62.33000 130.989
62.34000 130.638
62.35000 127.117
62.36000 123.628
62.37000 121.419
62.38000 119.884
62.39000 118.554
62.40000 120.719
62.41000 124.138
62.42000 127.283
62.43000 131.838
62.44000 136.213
62.45000 139.443
62.46000 136.149
62.47000 131.822
62.48000 128.110
62.49000 126.707
62.50000 125.525
62.51000 124.665
62.52000 125.145
62.53000 125.565
62.54000 124.817
62.55000 122.038
62.56000 119.222
62.57000 119.027
62.58000 121.872
62.59000 124.714
62.60000 125.775
62.61000 125.497
62.62000 125.286
62.63000 127.632
62.64000 131.276
62.65000 134.465
62.66000 130.421
62.67000 123.870
62.68000 117.873
62.69000 120.019
62.70000 123.623
62.71000 126.223
62.72000 123.329
62.73000 119.602
62.74000 117.507
62.75000 121.331
62.76000 125.693
62.77000 128.835
62.78000 127.906
62.79000 127.049
62.80000 127.169
62.81000 128.928
62.82000 130.713
62.83000 131.705
62.84000 131.814
62.85000 131.921
62.86000 134.141
62.87000 137.863
62.88000 141.385
62.89000 138.121
62.90000 131.530
62.91000 125.345
62.92000 125.227
62.93000 127.141
62.94000 128.884
62.95000 125.405
62.96000 121.281
62.97000 118.129
62.98000 120.094
62.99000 122.803
63.00000 125.257
63.01000 126.820
63.02000 128.306
63.03000 129.365
63.04000 131.240
63.05000 132.696
63.06000 134.189
63.07000 135.741
63.08000 137.294
63.09000 136.346
63.10000 132.717
63.11000 129.105
63.12000 129.679
63.13000 133.145
63.14000 136.476
63.15000 135.606
63.16000 132.747
63.17000 130.014
63.18000 129.046
63.19000 128.649
63.20000 128.289
63.21000 127.894
63.22000 127.539
63.23000 127.489
63.24000 128.985
63.25000 130.696
63.26000 131.864
63.27000 131.202
63.28000 130.390
63.29000 129.818
63.30000 125.653
63.31000 122.387
63.32000 121.411
63.33000 124.013
63.34000 126.656
63.35000 128.956
63.36000 130.902
63.37000 132.837
63.38000 131.095
63.39000 126.928
63.40000 122.907
63.41000 123.019
63.42000 125.021
63.43000 126.977
63.44000 128.332
63.45000 129.500
63.46000 130.554
63.47000 135.673
63.48000 140.914
63.49000 145.701
63.50000 148.273
63.51000 150.550
63.52000 151.140
63.53000 146.238
63.54000 140.912
63.55000 137.201
63.56000 133.259
63.57000 130.279
63.58000 128.572
63.59000 128.782
63.60000 129.012
63.61000 130.587
63.62000 133.493
63.63000 136.379
63.64000 137.082
63.65000 136.377
63.66000 135.793
63.67000 138.341
63.68000 142.273
63.69000 145.651
63.70000 142.088
63.71000 136.437
63.72000 131.364
63.73000 130.798
63.74000 131.094
63.75000 132.160
63.76000 136.830
63.77000 141.958
63.78000 144.520
63.79000 139.018
63.80000 132.930
63.81000 128.736
63.82000 137.619
63.83000 144.616
63.84000 147.005
63.85000 142.709
63.86000 138.357
63.87000 136.316
63.88000 136.469
63.89000 136.620
63.90000 136.307
63.91000 135.713
63.92000 135.151
63.93000 135.341
63.94000 135.852
63.95000 136.567
63.96000 139.701
63.97000 143.538
63.98000 146.965
63.99000 147.251
64.00000 146.972
64.01000 146.563
64.02000 145.570
64.03000 144.507
64.04000 143.717
64.05000 143.759
64.06000 143.858
64.07000 143.925
64.08000 136.434
64.09000 130.665
64.10000 128.616
64.11000 131.768
64.12000 134.956
64.13000 139.590
64.14000 145.542
64.15000 151.439
64.16000 151.963
64.17000 149.292
64.18000 146.743
64.19000 146.914
64.20000 148.205
64.21000 149.339
64.22000 148.717
64.23000 147.603
64.24000 146.614
64.25000 145.781
64.26000 145.084
64.27000 144.471
64.28000 144.223
64.29000 144.019
64.30000 143.968
64.31000 144.367
64.32000 144.795
64.33000 145.082
64.34000 149.306
64.35000 152.526
64.36000 154.253
64.37000 153.972
64.38000 153.676
64.39000 150.443
64.40000 144.638
64.41000 138.895
64.42000 141.134
64.43000 147.875
64.44000 154.393
64.45000 156.317
64.46000 156.415
64.47000 156.545
64.48000 157.029
64.49000 157.607
64.50000 158.118
64.51000 158.694
64.52000 159.202
64.53000 159.375
64.54000 158.149
64.55000 156.767
64.56000 154.942
64.57000 151.865
64.58000 148.711
64.59000 146.617
64.60000 151.333
64.61000 154.946
64.62000 156.704
64.63000 156.056
64.64000 155.398
64.65000 154.698
64.66000 153.962
64.67000 153.234
64.68000 154.785
64.69000 157.546
64.70000 160.335
64.71000 163.671
64.72000 167.217
64.73000 170.377
64.74000 169.631
64.75000 167.867
64.76000 166.317
64.77000 172.053
64.78000 178.056
64.79000 182.240
64.80000 179.095
64.81000 175.178
64.82000 173.015
64.83000 175.637
64.84000 178.530
64.85000 180.427
64.86000 179.625
64.87000 178.991
64.88000 179.266
64.89000 180.679
64.90000 182.096
64.91000 183.880
64.92000 185.962
64.93000 188.015
64.94000 188.709
64.95000 188.667
64.96000 188.931
64.97000 194.708
64.98000 202.530
64.99000 209.392
65.00000 207.001
65.01000 202.287
65.02000 198.171
65.03000 198.653
65.04000 199.713
65.05000 201.284
65.06000 204.845
65.07000 208.605
65.08000 212.345
65.09000 216.031
65.10000 219.715
65.11000 222.098
65.12000 215.585
65.13000 210.690
65.14000 209.145
65.15000 211.625
65.16000 214.114
65.17000 216.644
65.18000 219.204
65.19000 221.725
65.20000 228.021
65.21000 236.040
65.22000 243.736
65.23000 245.975
65.24000 246.262
65.25000 246.476
65.26000 246.023
65.27000 245.408
65.28000 244.875
65.29000 254.814
65.30000 264.689
65.31000 271.678
65.32000 267.850
65.33000 262.992
65.34000 260.489
65.35000 263.977
65.36000 267.760
65.37000 270.176
65.38000 272.557
65.39000 274.288
65.40000 276.852
65.41000 280.377
65.42000 283.919
65.43000 290.608
65.44000 299.663
65.45000 308.559
65.46000 315.620
65.47000 321.543
65.48000 327.097
65.49000 326.813
65.50000 324.511
65.51000 322.734
65.52000 325.556
65.53000 329.449
65.54000 332.808
65.55000 348.466
65.56000 363.325
65.57000 374.731
65.58000 373.661
65.59000 371.464
65.60000 375.386
65.61000 394.342
65.62000 413.989
65.63000 426.356
65.64000 460.727
65.65000 485.844
65.66000 519.035
65.67000 561.199
65.68000 603.533
65.69000 671.804
65.70000 758.845
65.71000 844.187
65.72000 963.849
65.73000 1095.218
65.74000 1226.395
65.75000 1354.711
65.76000 1482.073
65.77000 1607.050
65.78000 1712.104
65.79000 1812.685
65.80000 1898.908
65.81000 1953.969
65.82000 1996.658
65.83000 2032.880
65.84000 2046.560
65.85000 2058.309
65.86000 2065.804
65.87000 2063.211
65.88000 2060.188
65.89000 2058.312
65.90000 2013.214
65.91000 1980.342
65.92000 1932.291
65.93000 1868.030
65.94000 1803.454
65.95000 1699.144
65.96000 1567.125
65.97000 1437.959
65.98000 1312.228
65.99000 1193.120
66.00000 1074.310
66.01000 959.654
66.02000 846.337
66.03000 738.208
66.04000 671.455
66.05000 613.644
66.06000 564.406
66.07000 516.819
66.08000 477.002
66.09000 442.749
66.10000 427.204
66.11000 413.177
66.12000 400.968
66.13000 392.925
66.14000 385.046
66.15000 380.228
66.16000 380.649
66.17000 380.995
66.18000 382.367
66.19000 384.794
66.20000 387.206
66.21000 388.031
66.22000 387.790
66.23000 387.556
66.24000 397.747
66.25000 412.042
66.26000 426.808
66.27000 447.811
66.28000 470.753
66.29000 493.479
66.30000 514.555
66.31000 535.289
66.32000 552.830
66.33000 577.605
66.34000 599.144
66.35000 617.599
66.36000 626.051
66.37000 633.736
66.38000 642.081
66.39000 651.890
66.40000 661.751
66.41000 667.692
66.42000 645.791
66.43000 630.013
66.44000 628.007
66.45000 639.561
66.46000 650.911
66.47000 644.165
66.48000 625.690
66.49000 607.697
66.50000 581.476
66.51000 553.030
66.52000 525.330
66.53000 506.935
66.54000 491.332
66.55000 475.146
66.56000 454.709
66.57000 433.421
66.58000 415.533
66.59000 410.111
66.60000 406.910
66.61000 403.103
66.62000 397.399
66.63000 391.558
66.64000 385.872
66.65000 380.519
66.66000 375.176
66.67000 372.007
66.68000 368.090
66.69000 365.314
66.70000 358.789
66.71000 348.721
66.72000 338.729
66.73000 334.559
66.74000 334.029
66.75000 333.514
66.76000 341.464
66.77000 352.433
66.78000 362.718
66.79000 364.913
66.80000 364.767
66.81000 363.957
66.82000 358.520
66.83000 352.193
66.84000 346.913
66.85000 348.928
66.86000 351.332
66.87000 354.176
66.88000 358.351
66.89000 362.617
66.90000 365.175
66.91000 364.209
66.92000 363.136
66.93000 362.509
66.94000 362.023
66.95000 361.683
66.96000 364.075
66.97000 368.946
66.98000 373.755
66.99000 374.414
67.00000 372.572
67.01000 370.788
67.02000 374.008
67.03000 379.001
67.04000 383.042
67.05000 376.413
67.06000 366.806
67.07000 358.311
67.08000 357.250
67.09000 357.565
67.10000 357.825
67.11000 365.924
67.12000 373.359
67.13000 379.671
67.14000 382.706
67.15000 385.531
67.16000 387.483
67.17000 387.699
67.18000 387.867
67.19000 387.963
67.20000 387.715
67.21000 387.538
67.22000 386.356
67.23000 384.296
67.24000 382.244
67.25000 380.615
67.26000 379.232
67.27000 377.895
67.28000 386.244
67.29000 397.740
67.30000 408.890
67.31000 416.372
67.32000 422.866
67.33000 426.964
67.34000 415.709
67.35000 401.725
67.36000 390.226
67.37000 398.024
67.38000 406.180
67.39000 410.914
67.40000 406.007
67.41000 400.519
67.42000 398.380
67.43000 402.678
67.44000 407.136
67.45000 409.655
67.46000 414.944
67.47000 418.626
67.48000 420.844
67.49000 421.833
67.50000 422.784
67.51000 421.792
67.52000 419.708
67.53000 417.699
67.54000 424.811
67.55000 434.774
67.56000 443.647
67.57000 441.507
67.58000 436.507
67.59000 431.957
67.60000 430.169
67.61000 428.852
67.62000 427.777
67.63000 431.030
67.64000 434.062
67.65000 438.499
67.66000 446.755
67.67000 455.227
67.68000 458.552
67.69000 452.326
67.70000 445.887
67.71000 442.312
67.72000 452.880
67.73000 460.204
67.74000 464.861
67.75000 467.364
67.76000 469.691
67.77000 463.989
67.78000 453.938
67.79000 444.281
67.80000 447.179
67.81000 454.239
67.82000 461.124
67.83000 466.334
67.84000 471.126
67.85000 474.466
67.86000 469.250
67.87000 462.633
67.88000 457.273
67.89000 466.224
67.90000 474.676
67.91000 481.407
67.92000 483.616
67.93000 485.588
67.94000 487.947
67.95000 491.002
67.96000 494.070
67.97000 495.744
67.98000 498.813
67.99000 500.926
68.00000 504.047
68.01000 507.954
68.02000 511.828
68.03000 514.404
68.04000 516.302
68.05000 518.119
68.06000 518.102
68.07000 517.476
68.08000 517.536
68.09000 523.872
68.10000 531.721
68.11000 538.265
68.12000 537.416
68.13000 535.406
68.14000 533.791
68.15000 545.657
68.16000 556.312
68.17000 562.476
68.18000 557.254
68.19000 551.473
68.20000 546.089
68.21000 541.390
68.22000 536.704
68.23000 534.193
68.24000 554.373
68.25000 568.145
68.26000 578.370
68.27000 585.938
68.28000 593.263
68.29000 591.618
68.30000 585.446
68.31000 579.551
68.32000 592.346
68.33000 610.219
68.34000 626.422
68.35000 628.064
68.36000 626.324
68.37000 625.775
68.38000 631.707
68.39000 638.616
68.40000 644.122
68.41000 640.067
68.42000 636.101
68.43000 634.967
68.44000 640.773
68.45000 646.895
68.46000 657.018
68.47000 673.813
68.48000 690.711
68.49000 699.595
68.50000 714.397
68.51000 724.386
68.52000 726.500
68.53000 722.933
68.54000 719.733
68.55000 728.818
68.56000 743.893
68.57000 758.240
68.58000 796.838
68.59000 840.031
68.60000 879.855
68.61000 891.649
68.62000 897.171
68.63000 910.427
68.64000 964.115
68.65000 1023.635
68.66000 1070.681
68.67000 1102.114
68.68000 1126.284
68.69000 1159.304
68.70000 1213.259
68.71000 1268.099
68.72000 1320.258
68.73000 1368.103
68.74000 1415.890
68.75000 1440.532
68.76000 1496.009
68.77000 1533.389
68.78000 1571.550
68.79000 1610.254
68.80000 1649.781
68.81000 1714.474
68.82000 1791.010
68.83000 1863.604
68.84000 1940.643
68.85000 2012.989
68.86000 2093.780
68.87000 2241.655
68.88000 2403.981
68.89000 2602.883
68.90000 2985.652
68.91000 3393.814
68.92000 3713.686
68.93000 5130.826
68.94000 6334.234
68.95000 7942.010
68.96000 10473.395
68.97000 13040.861
68.98000 16037.982
68.99000 19701.799
69.00000 23373.270
69.01000 25229.141
69.02000 30288.703
69.03000 33667.559
69.04000 36360.852
69.05000 38594.754
69.06000 40799.113
69.07000 42176.820
69.08000 43178.836
69.09000 44125.871
69.10000 44841.453
69.11000 45432.754
69.12000 46040.176
69.13000 46770.035
69.14000 47525.277
69.15000 48254.563
69.16000 48858.328
69.17000 49445.508
69.18000 49901.672
69.19000 48924.211
69.20000 48059.660
69.21000 46574.262
69.22000 43719.477
69.23000 40815.461
69.24000 38030.047
69.25000 35422.078
69.26000 32815.855
69.27000 30490.223
69.28000 28439.951
69.29000 26398.100
69.30000 25097.918
69.31000 24276.920
69.32000 23469.311
69.33000 23006.305
69.34000 22694.537
69.35000 22400.953
69.36000 21813.900
69.37000 21196.621
69.38000 20495.887
69.39000 19188.992
69.40000 17761.193
69.41000 16250.817
69.42000 14356.105
69.43000 12412.861
69.44000 10916.659
69.45000 8944.692
69.46000 7356.466
69.47000 5949.781
69.48000 4929.759
69.49000 3922.479
69.50000 3127.270
69.51000 2637.906
69.52000 2151.055
69.53000 1821.950
69.54000 1641.523
69.55000 1461.855
69.56000 1339.464
69.57000 1252.761
69.58000 1167.237
69.59000 1109.730
69.60000 1064.097
69.61000 1021.289
69.62000 972.497
69.63000 926.472
69.64000 883.663
69.65000 863.215
69.66000 847.056
69.67000 829.456
69.68000 805.398
69.69000 780.562
69.70000 761.614
69.71000 740.987
69.72000 724.646
69.73000 708.534
69.74000 692.891
69.75000 677.263
69.76000 663.711
69.77000 653.046
69.78000 642.403
69.79000 629.044
69.80000 613.241
69.81000 597.637
69.82000 594.988
69.83000 600.127
69.84000 604.829
69.85000 599.910
69.86000 591.055
69.87000 582.779
69.88000 572.564
69.89000 562.805
69.90000 554.052
69.91000 552.005
69.92000 551.195
69.93000 548.409
69.94000 537.102
69.95000 524.814
69.96000 515.527
69.97000 516.147
69.98000 517.130
69.99000 514.558
70.00000 504.928
