20.00000 468.170
20.01000 467.516
20.02000 466.768
20.03000 467.314
20.04000 472.953
20.05000 479.111
20.06000 483.653
20.07000 482.256
20.08000 480.924
20.09000 479.129
20.10000 476.491
20.11000 473.835
20.12000 472.961
20.13000 474.254
20.14000 475.551
20.15000 476.353
20.16000 476.762
20.17000 477.096
20.18000 474.231
20.19000 469.668
20.20000 465.252
20.21000 463.372
20.22000 462.410
20.23000 461.525
20.24000 458.451
20.25000 455.222
20.26000 452.753
20.27000 454.664
20.28000 457.276
20.29000 458.996
20.30000 457.337
20.31000 455.350
20.32000 453.899
20.33000 455.467
20.34000 456.793
20.35000 459.034
20.36000 462.880
20.37000 466.757
20.38000 466.325
20.39000 460.848
20.40000 455.377
20.41000 455.914
20.42000 460.990
20.43000 465.965
20.44000 467.042
20.45000 466.123
20.46000 464.856
20.47000 457.975
20.48000 449.131
20.49000 441.025
20.50000 437.872
20.51000 436.105
20.52000 436.030
20.53000 445.321
20.54000 456.047
20.55000 464.844
20.56000 466.581
20.57000 467.669
20.58000 468.455
20.59000 467.454
20.60000 466.621
20.61000 465.949
20.62000 465.547
20.63000 465.149
20.64000 463.046
20.65000 459.023
20.66000 455.011
20.67000 452.752
20.68000 451.786
20.69000 450.845
20.70000 450.773
20.71000 451.130
20.72000 451.416
20.73000 450.603
20.74000 449.420
20.75000 448.340
20.76000 454.733
20.77000 461.911
20.78000 467.164
20.79000 462.187
20.80000 455.707
20.81000 451.929
20.82000 457.682
20.83000 464.268
20.84000 468.975
20.85000 468.577
20.86000 468.103
20.87000 468.149
20.88000 469.046
20.89000 469.954
20.90000 472.201
20.91000 475.897
20.92000 479.579
20.93000 477.594
20.94000 471.670
20.95000 465.824
20.96000 462.460
20.97000 460.282
20.98000 458.607
20.99000 464.128
21.00000 471.994
21.01000 479.137
21.02000 472.042
21.03000 463.023
21.04000 456.324
21.05000 461.484
21.06000 468.312
21.07000 472.183
21.08000 465.991
21.09000 458.966
21.10000 454.001
21.11000 462.096
21.12000 468.645
21.13000 473.196
21.14000 474.601
21.15000 475.967
21.16000 473.934
21.17000 468.366
21.18000 462.827
21.19000 461.222
21.20000 462.281
21.21000 463.217
21.22000 460.591
21.23000 456.324
21.24000 452.379
21.25000 452.786
21.26000 454.562
21.27000 456.167
21.28000 464.509
21.29000 473.095
21.30000 478.534
21.31000 468.507
21.32000 456.398
21.33000 447.398
21.34000 448.607
21.35000 450.615
21.36000 452.018
21.37000 451.023
21.38000 450.204
21.39000 447.703
21.40000 442.648
21.41000 437.566
21.42000 439.365
21.43000 448.033
21.44000 456.646
21.45000 458.506
21.46000 455.973
21.47000 453.454
21.48000 451.306
21.49000 449.324
21.50000 447.999
21.51000 455.038
21.52000 464.616
21.53000 473.226
21.54000 468.115
21.55000 461.203
21.56000 454.049
21.57000 445.754
21.58000 437.313
21.59000 432.237
21.60000 437.831
21.61000 444.212
21.62000 448.621
21.63000 449.599
21.64000 450.246
21.65000 451.848
21.66000 454.850
21.67000 457.864
21.68000 460.212
21.69000 461.920
21.70000 463.616
21.71000 467.228
21.72000 471.971
21.73000 476.435
21.74000 474.041
21.75000 468.697
21.76000 463.938
21.77000 466.214
21.78000 470.551
21.79000 474.429
21.80000 480.259
21.81000 485.674
21.82000 489.390
21.83000 485.371
21.84000 480.400
21.85000 476.295
21.86000 474.840
21.87000 473.569
21.88000 472.701
21.89000 488.325
21.90000 500.397
21.91000 500.404
21.92000 483.375
21.93000 466.233
21.94000 466.896
21.95000 483.952
21.96000 500.856
21.97000 508.057
21.98000 509.311
21.99000 510.448
22.00000 508.921
22.01000 506.287
22.02000 503.477
22.03000 498.657
22.04000 493.268
22.05000 488.474
22.06000 497.574
22.07000 507.735
22.08000 515.400
22.09000 512.125
22.10000 507.566
22.11000 504.005
22.12000 503.393
22.13000 502.975
22.14000 502.692
22.15000 512.640
22.16000 520.258
22.17000 518.943
22.18000 505.476
22.19000 491.944
22.20000 483.555
22.21000 479.717
22.22000 475.918
22.23000 475.401
22.24000 476.786
22.25000 478.179
22.26000 479.764
22.27000 481.426
22.28000 483.203
22.29000 486.233
22.30000 489.604
22.31000 492.587
22.32000 482.409
22.33000 471.563
22.34000 463.545
22.35000 467.469
22.36000 472.731
22.37000 476.282
22.38000 474.957
22.39000 473.332
22.40000 472.249
22.41000 461.167
22.42000 452.773
22.43000 450.923
22.44000 457.646
22.45000 464.392
22.46000 462.250
22.47000 452.547
22.48000 442.959
22.49000 439.350
22.50000 439.143
22.51000 439.168
22.52000 443.740
22.53000 450.074
22.54000 455.595
22.55000 452.773
22.56000 447.757
22.57000 443.345
22.58000 442.841
22.59000 442.989
22.60000 442.646
22.61000 440.303
22.62000 437.747
22.63000 435.319
22.64000 433.242
22.65000 431.186
22.66000 429.834
22.67000 439.578
22.68000 446.943
22.69000 449.776
22.70000 446.895
22.71000 443.997
22.72000 441.586
22.73000 439.575
22.74000 437.591
22.75000 438.983
22.76000 442.136
22.77000 444.951
22.78000 441.551
22.79000 435.825
22.80000 430.804
22.81000 432.657
22.82000 436.252
22.83000 439.397
22.84000 441.994
22.85000 444.141
22.86000 445.669
22.87000 444.768
22.88000 443.620
22.89000 442.817
22.90000 442.930
22.91000 443.092
22.92000 443.197
22.93000 443.504
22.94000 443.732
22.95000 445.328
22.96000 448.586
22.97000 451.827
22.98000 449.270
22.99000 442.144
23.00000 435.127
23.01000 437.006
23.02000 443.392
23.03000 449.023
23.04000 441.680
23.05000 429.653
23.06000 419.112
23.07000 422.400
23.08000 429.066
23.09000 434.860
23.10000 437.351
23.11000 439.026
23.12000 439.645
23.13000 436.267
23.14000 432.503
23.15000 429.643
23.16000 429.104
23.17000 428.683
23.18000 428.413
23.19000 425.994
23.20000 424.204
23.21000 425.585
23.22000 430.670
23.23000 435.751
23.24000 438.668
23.25000 439.942
23.26000 441.196
23.27000 434.387
23.28000 423.823
23.29000 413.861
23.30000 413.573
23.31000 416.659
23.32000 419.541
23.33000 420.618
23.34000 421.271
23.35000 421.835
23.36000 432.041
23.37000 441.960
23.38000 446.978
23.39000 434.121
23.40000 419.626
23.41000 412.735
23.42000 424.688
23.43000 437.523
23.44000 445.632
23.45000 447.355
23.46000 448.529
23.47000 447.866
23.48000 445.142
23.49000 442.395
23.50000 435.936
23.51000 426.766
23.52000 417.770
23.53000 420.331
23.54000 428.291
23.55000 435.941
23.56000 438.904
23.57000 440.289
23.58000 441.181
23.59000 437.911
23.60000 433.696
23.61000 430.078
23.62000 435.147
23.63000 440.509
23.64000 445.578
23.65000 449.617
23.66000 453.567
23.67000 456.349
23.68000 456.335
23.69000 456.199
23.70000 456.115
23.71000 456.728
23.72000 457.177
23.73000 459.124
23.74000 462.688
23.75000 466.246
23.76000 469.047
23.77000 471.314
23.78000 473.534
23.79000 472.587
23.80000 470.229
23.81000 468.485
23.82000 475.467
23.83000 485.284
23.84000 494.377
23.85000 497.621
23.86000 499.589
23.87000 501.268
23.88000 498.888
23.89000 496.406
23.90000 495.150
23.91000 498.053
23.92000 501.298
23.93000 501.305
23.94000 493.827
23.95000 486.048
23.96000 481.273
23.97000 489.789
23.98000 496.007
23.99000 498.952
24.00000 498.505
24.01000 498.053
24.02000 497.051
24.03000 495.676
24.04000 494.333
24.05000 493.228
24.06000 492.276
24.07000 490.916
24.08000 484.096
24.09000 475.564
24.10000 469.039
24.11000 478.000
24.12000 490.214
24.13000 500.566
24.14000 492.079
24.15000 482.851
24.16000 476.010
24.17000 476.987
24.18000 478.573
24.19000 475.666
24.20000 462.734
24.21000 449.431
24.22000 441.385
24.23000 440.587
24.24000 440.071
24.25000 443.692
24.26000 451.427
24.27000 459.082
24.28000 459.230
24.29000 454.467
24.30000 449.825
24.31000 444.703
24.32000 439.613
24.33000 434.502
24.34000 429.122
24.35000 423.661
24.36000 419.458
24.37000 424.524
24.38000 431.464
24.39000 437.306
24.40000 436.556
24.41000 435.225
24.42000 432.860
24.43000 427.230
24.44000 421.360
24.45000 418.008
24.46000 420.082
24.47000 422.341
24.48000 423.686
24.49000 424.296
24.50000 424.723
24.51000 419.512
24.52000 408.915
24.53000 398.397
24.54000 394.135
24.55000 393.820
24.56000 393.514
24.57000 401.962
24.58000 413.563
24.59000 424.223
24.60000 423.611
24.61000 419.707
24.62000 415.215
24.63000 406.573
24.64000 397.123
24.65000 389.224
24.66000 397.729
24.67000 406.460
24.68000 412.166
24.69000 408.647
24.70000 404.488
24.71000 404.597
24.72000 413.584
24.73000 422.848
24.74000 428.279
24.75000 411.377
24.76000 399.365
24.77000 397.969
24.78000 406.314
24.79000 414.530
24.80000 413.919
24.81000 407.937
24.82000 402.137
24.83000 408.591
24.84000 419.514
24.85000 429.182
24.86000 424.602
24.87000 416.008
24.88000 408.267
24.89000 406.290
24.90000 405.390
24.91000 404.642
24.92000 401.749
24.93000 399.150
24.94000 398.707
24.95000 404.612
24.96000 410.931
24.97000 413.775
24.98000 409.639
24.99000 405.306
25.00000 402.806
25.01000 405.692
25.02000 407.733
25.03000 408.735
25.04000 408.823
25.05000 408.836
25.06000 404.377
25.07000 397.294
25.08000 390.444
25.09000 392.287
25.10000 397.308
25.11000 401.753
25.12000 399.981
25.13000 396.521
25.14000 394.109
25.15000 398.487
25.16000 404.083
25.17000 408.694
25.18000 406.554
25.19000 404.173
25.20000 401.543
25.21000 398.204
25.22000 394.823
25.23000 391.110
25.24000 386.757
25.25000 382.388
25.26000 379.908
25.27000 384.142
25.28000 387.106
25.29000 387.863
25.30000 386.748
25.31000 385.748
25.32000 390.792
25.33000 399.259
25.34000 407.426
25.35000 406.903
25.36000 403.256
25.37000 400.321
25.38000 404.681
25.39000 410.952
25.40000 415.605
25.41000 410.204
25.42000 403.070
25.43000 397.236
25.44000 408.139
25.45000 418.526
25.46000 423.783
25.47000 414.964
25.48000 405.337
25.49000 395.946
25.50000 386.996
25.51000 378.055
25.52000 373.069
25.53000 376.361
25.54000 378.669
25.55000 385.152
25.56000 395.043
25.57000 404.850
25.58000 410.712
25.59000 414.417
25.60000 417.980
25.61000 413.615
25.62000 406.755
25.63000 399.936
25.64000 393.525
25.65000 387.217
25.66000 382.440
25.67000 386.783
25.68000 392.635
25.69000 397.384
25.70000 398.883
25.71000 399.837
25.72000 399.195
25.73000 394.322
25.74000 389.222
25.75000 384.392
25.76000 380.050
25.77000 375.718
25.78000 373.344
25.79000 379.544
25.80000 383.820
25.81000 387.749
25.82000 391.406
25.83000 395.067
25.84000 398.939
25.85000 402.921
25.86000 406.739
25.87000 402.021
25.88000 394.747
25.89000 388.636
25.90000 393.294
25.91000 400.573
25.92000 406.331
25.93000 403.390
25.94000 399.068
25.95000 395.588
25.96000 389.557
25.97000 384.464
25.98000 382.377
25.99000 387.981
26.00000 393.971
26.01000 397.602
26.02000 397.120
26.03000 396.563
26.04000 396.263
26.05000 391.974
26.06000 389.047
26.07000 387.646
26.08000 387.399
26.09000 387.133
26.10000 386.087
26.11000 384.645
26.12000 383.266
26.13000 391.378
26.14000 401.991
26.15000 411.044
26.16000 406.335
26.17000 398.397
26.18000 391.661
26.19000 391.528
26.20000 392.400
26.21000 393.097
26.22000 390.242
26.23000 387.674
26.24000 386.927
26.25000 390.677
26.26000 394.636
26.27000 396.546
26.28000 395.007
26.29000 393.412
26.30000 392.569
26.31000 382.423
26.32000 375.536
26.33000 370.078
26.34000 365.661
26.35000 361.539
26.36000 367.514
26.37000 378.454
26.38000 388.875
26.39000 388.233
26.40000 384.198
26.41000 380.845
26.42000 383.230
26.43000 386.911
26.44000 390.070
26.45000 390.467
26.46000 390.461
26.47000 390.457
26.48000 389.023
26.49000 387.771
26.50000 386.483
26.51000 385.110
26.52000 383.734
26.53000 381.266
26.54000 377.026
26.55000 372.761
26.56000 370.551
26.57000 373.339
26.58000 375.199
26.59000 374.241
26.60000 371.305
26.61000 368.445
26.62000 367.992
26.63000 368.680
26.64000 369.334
26.65000 368.244
26.66000 366.717
26.67000 365.802
26.68000 369.801
26.69000 374.869
26.70000 378.817
26.71000 377.075
26.72000 374.539
26.73000 372.547
26.74000 378.761
26.75000 384.272
26.76000 384.925
26.77000 374.385
26.78000 363.398
26.79000 359.725
26.80000 367.507
26.81000 375.426
26.82000 379.450
26.83000 375.520
26.84000 372.916
26.85000 373.518
26.86000 376.289
26.87000 378.996
26.88000 379.861
26.89000 379.882
26.90000 379.901
26.91000 379.160
26.92000 378.259
26.93000 377.389
26.94000 376.756
26.95000 376.172
26.96000 375.790
26.97000 376.394
26.98000 377.130
26.99000 377.703
27.00000 370.973
27.01000 365.163
27.02000 361.554
27.03000 362.845
27.04000 364.316
27.05000 363.954
27.06000 360.824
27.07000 357.665
27.08000 360.139
27.09000 368.197
27.10000 376.192
27.11000 378.457
27.12000 376.985
27.13000 375.578
27.14000 375.873
27.15000 376.922
27.16000 377.910
27.17000 372.166
27.18000 365.045
27.19000 359.194
27.20000 362.662
27.21000 368.007
27.22000 372.776
27.23000 374.830
27.24000 376.538
27.25000 377.856
27.26000 379.408
27.27000 380.652
27.28000 379.447
27.29000 372.981
27.30000 366.338
27.31000 366.193
27.32000 375.509
27.33000 384.904
27.34000 393.452
27.35000 401.193
27.36000 408.714
27.37000 399.004
27.38000 378.458
27.39000 358.590
27.40000 355.145
27.41000 358.723
27.42000 362.083
27.43000 360.020
27.44000 356.699
27.45000 353.401
27.46000 350.269
27.47000 347.169
27.48000 345.873
27.49000 352.738
27.50000 360.599
27.51000 366.611
27.52000 358.211
27.53000 350.801
27.54000 349.756
27.55000 361.917
27.56000 374.484
27.57000 380.191
27.58000 376.271
27.59000 372.286
27.60000 370.855
27.61000 371.758
27.62000 372.628
27.63000 371.256
27.64000 368.525
27.65000 365.796
27.66000 363.114
27.67000 360.453
27.68000 357.963
27.69000 355.779
27.70000 353.874
27.71000 352.176
27.72000 351.875
27.73000 351.834
27.74000 353.268
27.75000 361.130
27.76000 369.740
27.77000 376.263
27.78000 367.023
27.79000 358.967
27.80000 354.802
27.81000 358.435
27.82000 362.286
27.83000 363.127
27.84000 359.899
27.85000 356.651
27.86000 362.215
27.87000 375.505
27.88000 388.546
27.89000 386.825
27.90000 376.465
27.91000 366.807
27.92000 371.766
27.93000 382.555
27.94000 392.605
27.95000 387.087
27.96000 378.278
27.97000 369.974
27.98000 364.920
27.99000 360.449
28.00000 356.801
28.01000 356.612
28.02000 356.807
28.03000 356.953
28.04000 363.615
28.05000 369.130
28.06000 370.963
28.07000 365.676
28.08000 360.210
28.09000 354.838
28.10000 349.592
28.11000 344.351
28.12000 348.634
28.13000 360.934
28.14000 372.953
28.15000 370.255
28.16000 359.246
28.17000 348.877
28.18000 350.941
28.19000 357.792
28.20000 364.149
28.21000 366.352
28.22000 367.359
28.23000 367.269
28.24000 360.389
28.25000 352.342
28.26000 346.634
28.27000 350.391
28.28000 355.148
28.29000 358.684
28.30000 357.478
28.31000 356.331
28.32000 355.363
28.33000 354.729
28.34000 354.103
28.35000 357.039
28.36000 364.438
28.37000 371.841
28.38000 370.618
28.39000 362.412
28.40000 354.387
28.41000 354.787
28.42000 359.778
28.43000 364.595
28.44000 366.264
28.45000 366.763
28.46000 367.223
28.47000 361.863
28.48000 355.739
28.49000 350.042
28.50000 346.881
28.51000 344.139
28.52000 342.665
28.53000 346.141
28.54000 350.115
28.55000 353.038
28.56000 350.909
28.57000 349.054
28.58000 348.931
28.59000 351.929
28.60000 354.991
28.61000 353.273
28.62000 345.791
28.63000 338.311
28.64000 341.065
28.65000 351.775
28.66000 362.227
28.67000 361.984
28.68000 356.115
28.69000 350.626
28.70000 351.612
28.71000 354.921
28.72000 357.965
28.73000 352.965
28.74000 346.752
28.75000 341.478
28.76000 341.554
28.77000 342.477
28.78000 344.035
28.79000 347.983
28.80000 352.160
28.81000 355.201
28.82000 359.480
28.83000 362.823
28.84000 366.776
28.85000 371.792
28.86000 376.827
28.87000 375.594
28.88000 367.091
28.89000 358.601
28.90000 354.792
28.91000 354.514
28.92000 354.248
28.93000 354.435
28.94000 354.853
28.95000 355.401
28.96000 358.018
28.97000 361.352
28.98000 364.404
28.99000 358.610
29.00000 351.614
29.01000 346.374
29.02000 350.749
29.03000 356.582
29.04000 360.449
29.05000 357.187
29.06000 353.279
29.07000 350.463
29.08000 353.854
29.09000 356.672
29.10000 357.492
29.11000 354.958
29.12000 352.372
29.13000 351.009
29.14000 351.011
29.15000 351.014
29.16000 346.204
29.17000 337.972
29.18000 329.945
29.19000 328.907
29.20000 331.296
29.21000 334.000
29.22000 341.413
29.23000 350.403
29.24000 358.595
29.25000 358.522
29.26000 356.809
29.27000 354.307
29.28000 347.655
29.29000 340.401
29.30000 336.305
29.31000 343.253
29.32000 351.153
29.33000 356.783
29.34000 361.837
29.35000 365.671
29.36000 364.576
29.37000 355.504
29.38000 346.322
29.39000 344.436
29.40000 350.371
29.41000 356.281
29.42000 355.239
29.43000 349.396
29.44000 343.776
29.45000 345.044
29.46000 349.574
29.47000 353.321
29.48000 346.044
29.49000 335.205
29.50000 325.375
29.51000 325.371
29.52000 327.248
29.53000 329.219
29.54000 331.668
29.55000 334.184
29.56000 337.162
29.57000 341.696
29.58000 346.358
29.59000 349.644
29.60000 349.866
29.61000 349.943
29.62000 351.783
29.63000 356.376
29.64000 361.001
29.65000 361.896
29.66000 358.951
29.67000 356.022
29.68000 349.768
29.69000 341.380
29.70000 333.388
29.71000 336.617
29.72000 344.977
29.73000 353.107
29.74000 358.189
29.75000 362.320
29.76000 366.048
29.77000 361.942
29.78000 356.898
29.79000 353.643
29.80000 359.096
29.81000 365.708
29.82000 370.636
29.83000 370.081
29.84000 369.104
29.85000 368.423
29.86000 367.303
29.87000 366.445
29.88000 368.645
29.89000 375.446
29.90000 382.294
29.91000 384.458
29.92000 381.995
29.93000 379.548
29.94000 378.414
29.95000 378.137
29.96000 377.996
29.97000 381.380
29.98000 386.322
29.99000 390.294
30.00000 382.102
30.01000 370.248
30.02000 359.606
30.03000 367.873
30.04000 378.426
30.05000 386.836
30.06000 385.204
30.07000 382.295
30.08000 380.011
30.09000 379.694
30.10000 379.519
30.11000 379.399
30.12000 369.273
30.13000 361.418
30.14000 358.925
30.15000 364.212
30.16000 369.564
30.17000 374.778
30.18000 379.859
30.19000 384.901
30.20000 382.251
30.21000 374.909
30.22000 367.737
30.23000 364.650
30.24000 363.305
30.25000 362.532
30.26000 368.550
30.27000 376.539
30.28000 383.674
30.29000 375.657
30.30000 366.126
30.31000 358.286
30.32000 358.071
30.33000 358.784
30.34000 359.807
30.35000 361.774
30.36000 363.806
30.37000 365.188
30.38000 368.709
30.39000 371.388
30.40000 373.038
30.41000 373.249
30.42000 373.449
30.43000 370.795
30.44000 365.541
30.45000 360.336
30.46000 367.415
30.47000 381.635
30.48000 394.811
30.49000 384.704
30.50000 365.010
30.51000 347.064
30.52000 348.792
30.53000 356.030
30.54000 362.459
30.55000 364.888
30.56000 366.349
30.57000 367.056
30.58000 364.483
30.59000 361.529
30.60000 359.144
30.61000 358.422
30.62000 357.808
30.63000 357.395
30.64000 370.592
30.65000 380.679
30.66000 385.577
30.67000 383.481
30.68000 381.349
30.69000 381.343
30.70000 383.199
30.71000 385.036
30.72000 380.306
30.73000 371.938
30.74000 363.876
30.75000 362.128
30.76000 362.891
30.77000 364.066
30.78000 369.642
30.79000 376.407
30.80000 382.383
30.81000 384.078
30.82000 384.882
30.83000 387.006
30.84000 394.653
30.85000 402.911
30.86000 407.757
30.87000 402.959
30.88000 397.576
30.89000 394.002
30.90000 407.349
30.91000 417.530
30.92000 424.686
30.93000 427.917
30.94000 431.129
30.95000 432.516
30.96000 432.364
30.97000 432.214
30.98000 438.888
30.99000 449.136
31.00000 459.280
31.01000 467.418
31.02000 474.784
31.03000 482.035
31.04000 488.110
31.05000 493.880
31.06000 498.948
31.07000 512.551
31.08000 525.503
31.09000 538.750
31.10000 553.194
31.11000 567.763
31.12000 585.247
31.13000 610.685
31.14000 636.574
31.15000 653.547
31.16000 682.148
31.17000 703.373
31.18000 723.274
31.19000 741.519
31.20000 759.789
31.21000 788.804
31.22000 826.530
31.23000 863.731
31.24000 910.183
31.25000 960.212
31.26000 1008.623
31.27000 1027.882
31.28000 1036.332
31.29000 1046.799
31.30000 1076.731
31.31000 1111.549
31.32000 1141.955
31.33000 1166.883
31.34000 1187.448
31.35000 1207.596
31.36000 1226.128
31.37000 1244.498
31.38000 1257.460
31.39000 1256.172
31.40000 1254.129
31.41000 1252.807
31.42000 1212.714
31.43000 1182.818
31.44000 1163.052
31.45000 1155.462
31.46000 1147.867
31.47000 1132.343
31.48000 1110.630
31.49000 1089.257
31.50000 1062.462
31.51000 1033.744
31.52000 1004.863
31.53000 973.231
31.54000 940.614
31.55000 908.011
31.56000 875.535
31.57000 843.089
31.58000 814.925
31.59000 774.310
31.60000 738.029
31.61000 703.880
31.62000 677.719
31.63000 652.320
31.64000 628.089
31.65000 606.830
31.66000 585.719
31.67000 572.243
31.68000 551.720
31.69000 536.698
31.70000 521.918
31.71000 507.418
31.72000 492.925
31.73000 479.707
31.74000 467.448
31.75000 455.404
31.76000 444.607
31.77000 434.788
31.78000 425.379
31.79000 422.467
31.80000 421.801
31.81000 420.450
31.82000 413.099
31.83000 404.350
31.84000 396.802
31.85000 392.520
31.86000 389.306
31.87000 386.428
31.88000 384.765
31.89000 383.212
31.90000 381.397
31.91000 378.940
31.92000 376.454
31.93000 374.889
31.94000 365.184
31.95000 358.070
31.96000 357.041
31.97000 362.777
31.98000 368.488
31.99000 369.457
32.00000 366.994
32.01000 364.579
32.02000 363.642
32.03000 363.435
32.04000 362.925
32.05000 357.910
32.06000 351.391
32.07000 345.705
32.08000 346.983
32.09000 349.824
32.10000 352.260
32.11000 343.141
32.12000 334.027
32.13000 328.426
32.14000 335.071
32.15000 342.766
32.16000 345.763
32.17000 337.613
32.18000 328.988
32.19000 323.635
32.20000 323.879
32.21000 324.108
32.22000 323.348
32.23000 321.529
32.24000 319.739
32.25000 321.784
32.26000 326.503
32.27000 331.119
32.28000 334.281
32.29000 336.655
32.30000 338.848
32.31000 338.489
32.32000 337.308
32.33000 336.357
32.34000 337.238
32.35000 338.515
32.36000 339.602
32.37000 333.982
32.38000 328.475
32.39000 324.687
32.40000 326.678
32.41000 329.138
32.42000 330.747
32.43000 330.403
32.44000 329.983
32.45000 329.726
32.46000 327.202
32.47000 325.378
32.48000 324.090
32.49000 323.353
32.50000 322.611
32.51000 321.376
32.52000 319.809
32.53000 318.280
32.54000 317.091
32.55000 316.101
32.56000 315.418
32.57000 318.788
32.58000 323.418
32.59000 327.073
32.60000 323.299
32.61000 317.979
32.62000 313.478
32.63000 312.608
32.64000 312.283
32.65000 313.273
32.66000 318.529
32.67000 324.112
32.68000 327.966
32.69000 327.994
32.70000 327.884
32.71000 327.817
32.72000 316.757
32.73000 308.809
32.74000 307.519
32.75000 312.784
32.76000 318.020
32.77000 320.632
32.78000 321.543
32.79000 322.431
32.80000 333.609
32.81000 348.582
32.82000 363.717
32.83000 380.865
32.84000 398.618
32.85000 415.820
32.86000 429.001
32.87000 441.379
32.88000 451.779
32.89000 474.885
32.90000 495.478
32.91000 514.238
32.92000 527.255
32.93000 539.856
32.94000 546.421
32.95000 540.089
32.96000 533.329
32.97000 529.318
32.98000 514.698
32.99000 504.294
33.00000 503.554
33.01000 511.951
33.02000 520.187
33.03000 516.068
33.04000 504.225
33.05000 492.719
33.06000 475.310
33.07000 456.388
33.08000 437.163
33.09000 414.356
33.10000 390.512
33.11000 368.485
33.12000 359.143
33.13000 352.241
33.14000 346.483
33.15000 336.840
33.16000 328.451
33.17000 320.313
33.18000 312.933
33.19000 305.604
33.20000 300.737
33.21000 300.949
33.22000 301.315
33.23000 301.528
33.24000 308.901
33.25000 314.116
33.26000 309.472
33.27000 295.873
33.28000 282.533
33.29000 286.275
33.30000 300.317
33.31000 313.924
33.32000 309.822
33.33000 299.058
33.34000 289.122
33.35000 288.463
33.36000 290.393
33.37000 292.131
33.38000 292.579
33.39000 292.789
33.40000 292.962
33.41000 294.525
33.42000 295.949
33.43000 296.785
33.44000 295.910
33.45000 294.925
33.46000 294.029
33.47000 293.312
33.48000 292.599
33.49000 292.190
33.50000 286.918
33.51000 283.219
33.52000 284.642
33.53000 290.536
33.54000 296.390
33.55000 299.913
33.56000 302.080
33.57000 304.174
33.58000 303.058
33.59000 300.805
33.60000 299.167
33.61000 304.069
33.62000 310.732
33.63000 315.781
33.64000 310.494
33.65000 303.370
33.66000 297.511
33.67000 286.917
33.68000 277.780
33.69000 274.301
33.70000 286.759
33.71000 300.178
33.72000 306.509
33.73000 299.209
33.74000 291.571
33.75000 287.255
33.76000 289.320
33.77000 290.773
33.78000 291.960
33.79000 292.924
33.80000 293.892
33.81000 295.109
33.82000 296.465
33.83000 297.771
33.84000 301.469
33.85000 305.803
33.86000 309.548
33.87000 307.340
33.88000 303.585
33.89000 300.272
33.90000 299.678
33.91000 299.548
33.92000 299.442
33.93000 300.771
33.94000 301.981
33.95000 303.694
33.96000 306.777
33.97000 309.937
33.98000 309.018
33.99000 300.528
34.00000 291.869
34.01000 287.061
34.02000 294.399
34.03000 299.484
34.04000 301.001
34.05000 299.634
34.06000 298.315
34.07000 299.210
34.08000 301.303
34.09000 303.315
34.10000 304.048
34.11000 304.291
34.12000 305.108
34.13000 311.443
34.14000 319.159
34.15000 325.165
34.16000 321.079
34.17000 315.341
34.18000 310.693
34.19000 310.219
34.20000 310.172
34.21000 312.362
34.22000 320.427
34.23000 328.801
34.24000 332.628
34.25000 328.309
34.26000 323.827
34.27000 321.382
34.28000 328.533
34.29000 333.436
34.30000 333.210
34.31000 328.993
34.32000 324.895
34.33000 325.694
34.34000 329.052
34.35000 332.270
34.36000 330.621
34.37000 327.462
34.38000 323.746
34.39000 314.930
34.40000 304.884
34.41000 297.694
34.42000 306.678
34.43000 318.204
34.44000 327.465
34.45000 315.770
34.46000 304.679
34.47000 302.063
34.48000 320.946
34.49000 340.885
34.50000 349.715
34.51000 339.336
34.52000 328.618
34.53000 322.876
34.54000 319.609
34.55000 317.382
34.56000 315.142
34.57000 312.892
34.58000 310.633
34.59000 308.027
34.60000 305.247
34.61000 302.591
34.62000 303.770
34.63000 306.093
34.64000 307.670
34.65000 302.743
34.66000 296.305
34.67000 290.574
34.68000 288.694
34.69000 287.394
34.70000 286.357
34.71000 290.517
34.72000 294.251
34.73000 296.270
34.74000 294.090
34.75000 291.718
34.76000 289.611
34.77000 287.946
34.78000 286.288
34.79000 285.416
34.80000 293.254
34.81000 298.556
34.82000 301.221
34.83000 301.984
34.84000 302.634
34.85000 299.509
34.86000 294.543
34.87000 289.816
34.88000 284.677
34.89000 279.794
34.90000 275.371
34.91000 274.785
34.92000 275.058
34.93000 275.055
34.94000 273.608
34.95000 271.953
34.96000 270.644
34.97000 272.589
34.98000 274.373
34.99000 275.741
35.00000 276.124
35.01000 276.465
35.02000 276.451
35.03000 275.866
35.04000 275.273
35.05000 274.968
35.06000 273.813
35.07000 273.021
35.08000 270.349
35.09000 266.371
35.10000 262.461
35.11000 260.650
35.12000 259.826
35.13000 259.044
35.14000 258.246
35.15000 257.505
35.16000 257.090
35.17000 259.262
35.18000 261.991
35.19000 264.121
35.20000 263.235
35.21000 261.933
35.22000 260.912
35.23000 263.725
35.24000 266.220
35.25000 267.049
35.26000 264.073
35.27000 260.948
35.28000 260.398
35.29000 263.845
35.30000 267.338
35.31000 269.104
35.32000 258.004
35.33000 250.683
35.34000 254.530
35.35000 265.864
35.36000 276.810
35.37000 276.925
35.38000 272.116
35.39000 267.572
35.40000 264.979
35.41000 263.154
35.42000 261.628
35.43000 262.376
35.44000 263.595
35.45000 264.339
35.46000 262.780
35.47000 260.918
35.48000 259.471
35.49000 263.812
35.50000 267.617
35.51000 268.386
35.52000 262.455
35.53000 256.283
35.54000 252.725
35.55000 253.079
35.56000 253.471
35.57000 255.664
35.58000 259.623
35.59000 263.559
35.60000 265.389
35.61000 265.858
35.62000 266.193
35.63000 263.074
35.64000 258.439
35.65000 254.074
35.66000 255.787
35.67000 259.017
35.68000 261.695
35.69000 260.364
35.70000 258.234
35.71000 256.530
35.72000 256.810
35.73000 257.341
35.74000 257.750
35.75000 258.483
35.76000 259.081
35.77000 259.133
35.78000 258.020
35.79000 256.869
35.80000 257.844
35.81000 261.886
35.82000 265.953
35.83000 267.420
35.84000 266.439
35.85000 265.466
35.86000 265.164
35.87000 265.279
35.88000 265.152
35.89000 259.249
35.90000 250.897
35.91000 243.062
35.92000 239.278
35.93000 236.896
35.94000 236.072
35.95000 246.085
35.96000 258.178
35.97000 267.161
35.98000 262.214
35.99000 255.587
36.00000 250.531
36.01000 251.663
36.02000 252.886
36.03000 255.269
36.04000 260.035
36.05000 264.874
36.06000 267.050
36.07000 265.524
36.08000 263.975
36.09000 260.617
36.10000 255.628
36.11000 250.717
36.12000 250.976
36.13000 254.343
36.14000 257.583
36.15000 258.037
36.16000 257.351
36.17000 256.709
36.18000 254.593
36.19000 252.301
36.20000 250.619
36.21000 253.007
36.22000 256.146
36.23000 258.447
36.24000 257.134
36.25000 255.405
36.26000 254.099
36.27000 251.732
36.28000 249.823
36.29000 247.922
36.30000 246.037
36.31000 244.153
36.32000 244.491
36.33000 247.805
36.34000 251.132
36.35000 249.087
36.36000 242.377
36.37000 235.829
36.38000 238.576
36.39000 246.713
36.40000 254.515
36.41000 255.451
36.42000 253.672
36.43000 252.017
36.44000 251.173
36.45000 250.608
36.46000 250.339
36.47000 251.964
36.48000 253.924
36.49000 254.581
36.50000 249.820
36.51000 244.464
36.52000 240.455
36.53000 249.839
36.54000 257.787
36.55000 264.353
36.56000 268.269
36.57000 272.119
36.58000 270.342
36.59000 261.310
36.60000 252.258
36.61000 247.253
36.62000 245.639
36.63000 244.086
36.64000 245.647
36.65000 248.951
36.66000 252.123
36.67000 252.777
36.68000 252.469
36.69000 252.183
36.70000 254.385
36.71000 256.945
36.72000 258.618
36.73000 254.855
36.74000 250.168
36.75000 246.766
36.76000 248.514
36.77000 250.800
36.78000 252.494
36.79000 252.697
36.80000 252.790
36.81000 253.959
36.82000 257.121
36.83000 260.326
36.84000 262.302
36.85000 262.752
36.86000 263.197
36.87000 260.450
36.88000 255.154
36.89000 250.036
36.90000 252.946
36.91000 260.194
36.92000 267.018
36.93000 266.298
36.94000 262.797
36.95000 259.566
36.96000 259.798
36.97000 260.779
36.98000 261.537
36.99000 260.976
37.00000 260.201
37.01000 260.135
37.02000 262.812
37.03000 265.761
37.04000 267.925
37.05000 274.262
37.06000 279.327
37.07000 280.173
37.08000 273.481
37.09000 266.639
37.10000 265.925
37.11000 272.528
37.12000 279.131
37.13000 278.861
37.14000 273.294
37.15000 267.756
37.16000 263.369
37.17000 259.583
37.18000 256.023
37.19000 256.255
37.20000 257.835
37.21000 259.287
37.22000 259.332
37.23000 259.069
37.24000 259.141
37.25000 261.100
37.26000 263.355
37.27000 263.815
37.28000 257.591
37.29000 250.736
37.30000 245.757
37.31000 245.552
37.32000 245.573
37.33000 247.334
37.34000 252.093
37.35000 256.904
37.36000 259.326
37.37000 259.006
37.38000 258.683
37.39000 254.999
37.40000 248.852
37.41000 242.844
37.42000 241.949
37.43000 243.628
37.44000 245.029
37.45000 242.079
37.46000 237.635
37.47000 233.570
37.48000 244.182
37.49000 256.638
37.50000 266.282
37.51000 260.690
37.52000 252.810
37.53000 246.034
37.54000 243.219
37.55000 240.758
37.56000 238.990
37.57000 247.099
37.58000 253.646
37.59000 256.651
37.60000 253.766
37.61000 250.790
37.62000 247.653
37.63000 244.337
37.64000 241.034
37.65000 238.647
37.66000 236.935
37.67000 235.368
37.68000 238.598
37.69000 244.161
37.70000 249.179
37.71000 246.178
37.72000 240.516
37.73000 235.363
37.74000 239.728
37.75000 245.470
37.76000 250.399
37.77000 251.094
37.78000 251.181
37.79000 249.951
37.80000 244.160
37.81000 237.983
37.82000 233.591
37.83000 240.704
37.84000 246.487
37.85000 250.762
37.86000 252.617
37.87000 254.440
37.88000 255.212
37.89000 254.867
37.90000 254.525
37.91000 250.951
37.92000 245.202
37.93000 239.728
37.94000 242.576
37.95000 249.330
37.96000 255.622
37.97000 255.501
37.98000 253.327
37.99000 251.358
38.00000 248.330
38.01000 245.461
38.02000 243.241
38.03000 244.266
38.04000 245.737
38.05000 247.323
38.06000 249.291
38.07000 251.290
38.08000 252.695
38.09000 251.901
38.10000 251.234
38.11000 250.862
38.12000 250.946
38.13000 251.034
38.14000 253.815
38.15000 259.338
38.16000 264.830
38.17000 264.494
38.18000 260.321
38.19000 256.228
38.20000 254.373
38.21000 253.531
38.22000 252.877
38.23000 254.665
38.24000 257.207
38.25000 259.499
38.26000 257.241
38.27000 254.435
38.28000 252.768
38.29000 256.595
38.30000 261.145
38.31000 264.448
38.32000 263.726
38.33000 262.698
38.34000 261.984
38.35000 267.933
38.36000 272.597
38.37000 277.538
38.38000 282.894
38.39000 288.255
38.40000 297.020
38.41000 309.115
38.42000 321.126
38.43000 330.775
38.44000 338.775
38.45000 346.832
38.46000 356.342
38.47000 366.487
38.48000 376.753
38.49000 388.508
38.50000 400.708
38.51000 411.647
38.52000 438.021
38.53000 463.748
38.54000 486.509
38.55000 495.505
38.56000 502.770
38.57000 516.986
38.58000 552.847
38.59000 590.259
38.60000 615.957
38.61000 633.353
38.62000 646.194
38.63000 662.220
38.64000 682.826
38.65000 703.467
38.66000 718.570
38.67000 728.471
38.68000 738.290
38.69000 747.171
38.70000 755.318
38.71000 763.453
38.72000 771.275
38.73000 778.965
38.74000 786.321
38.75000 789.768
38.76000 792.090
38.77000 794.162
38.78000 769.359
38.79000 743.310
38.80000 718.357
38.81000 698.305
38.82000 678.841
38.83000 660.502
38.84000 645.542
38.85000 630.810
38.86000 620.812
38.87000 586.747
38.88000 560.799
38.89000 538.866
38.90000 522.496
38.91000 506.159
38.92000 486.684
38.93000 464.379
38.94000 442.287
38.95000 421.028
38.96000 400.697
38.97000 380.422
38.98000 361.365
38.99000 342.805
39.00000 325.031
39.01000 315.987
39.02000 309.366
39.03000 303.492
39.04000 296.143
39.05000 289.543
39.06000 283.621
39.07000 280.620
39.08000 277.954
39.09000 273.300
39.10000 262.881
39.11000 252.095
39.12000 244.864
39.13000 245.170
39.14000 245.548
39.15000 244.869
39.16000 242.776
39.17000 240.680
39.18000 241.837
39.19000 245.814
39.20000 249.747
39.21000 248.013
39.22000 243.117
39.23000 238.277
39.24000 234.550
39.25000 231.262
39.26000 228.432
39.27000 230.425
39.28000 233.709
39.29000 236.606
39.30000 240.340
39.31000 243.688
39.32000 246.099
39.33000 244.626
39.34000 242.728
39.35000 241.534
39.36000 242.311
39.37000 243.204
39.38000 243.796
39.39000 240.059
39.40000 237.223
39.41000 236.875
39.42000 239.725
39.43000 242.586
39.44000 244.213
39.45000 244.812
39.46000 245.403
39.47000 243.151
39.48000 239.414
39.49000 235.757
39.50000 233.620
39.51000 232.063
39.52000 231.181
39.53000 237.063
39.54000 244.690
39.55000 251.380
39.56000 242.910
39.57000 233.430
39.58000 226.463
39.59000 229.533
39.60000 233.648
39.61000 236.266
39.62000 234.838
39.63000 233.185
39.64000 232.104
39.65000 230.018
39.66000 228.470
39.67000 228.752
39.68000 231.298
39.69000 233.854
39.70000 237.368
39.71000 241.651
39.72000 245.873
39.73000 240.446
39.74000 230.127
39.75000 220.337
39.76000 219.914
39.77000 222.933
39.78000 225.715
39.79000 226.239
39.80000 226.201
39.81000 226.168
39.82000 226.057
39.83000 225.951
39.84000 226.533
39.85000 229.762
39.86000 233.253
39.87000 236.098
39.88000 237.257
39.89000 238.327
39.90000 239.018
39.91000 233.017
39.92000 228.538
39.93000 228.310
39.94000 233.144
39.95000 237.966
39.96000 237.558
39.97000 233.108
39.98000 228.730
39.99000 224.714
40.00000 221.009
40.01000 217.675
40.02000 220.513
40.03000 225.540
40.04000 229.720
40.05000 226.213
40.06000 220.863
40.07000 216.226
40.08000 216.323
40.09000 217.035
40.10000 217.990
40.11000 219.854
40.12000 221.802
40.13000 223.919
40.14000 226.460
40.15000 229.021
40.16000 230.650
40.17000 227.263
40.18000 224.740
40.19000 224.810
40.20000 227.848
40.21000 230.862
40.22000 228.711
40.23000 222.715
40.24000 216.828
40.25000 217.945
40.26000 222.417
40.27000 226.492
40.28000 224.375
40.29000 220.137
40.30000 216.369
40.31000 216.668
40.32000 217.907
40.33000 218.973
40.34000 215.760
40.35000 212.496
40.36000 210.366
40.37000 212.302
40.38000 214.600
40.39000 216.458
40.40000 217.241
40.41000 217.976
40.42000 218.437
40.43000 217.281
40.44000 216.427
40.45000 217.963
40.46000 222.129
40.47000 226.263
40.48000 225.405
40.49000 220.967
40.50000 216.617
40.51000 211.725
40.52000 206.764
40.53000 202.398
40.54000 206.746
40.55000 213.976
40.56000 220.373
40.57000 219.893
40.58000 217.884
40.59000 216.164
40.60000 213.054
40.61000 210.264
40.62000 209.235
40.63000 214.292
40.64000 219.864
40.65000 222.725
40.66000 219.209
40.67000 215.428
40.68000 213.089
40.69000 210.086
40.70000 207.923
40.71000 208.052
40.72000 210.607
40.73000 213.150
40.74000 214.117
40.75000 213.994
40.76000 213.874
40.77000 214.364
40.78000 215.106
40.79000 215.578
40.80000 212.319
40.81000 207.870
40.82000 204.044
40.83000 205.140
40.84000 207.289
40.85000 209.117
40.86000 206.551
40.87000 203.890
40.88000 200.736
40.89000 195.941
40.90000 191.015
40.91000 189.875
40.92000 197.336
40.93000 205.129
40.94000 209.878
40.95000 211.635
40.96000 212.866
40.97000 211.615
40.98000 207.842
40.99000 204.107
41.00000 204.253
41.01000 206.984
41.02000 209.648
41.03000 210.150
41.04000 209.695
41.05000 209.402
41.06000 211.214
41.07000 213.674
41.08000 215.353
41.09000 211.150
41.10000 205.734
41.11000 201.159
41.12000 202.836
41.13000 204.923
41.14000 206.376
41.15000 205.792
41.16000 205.053
41.17000 204.659
41.18000 205.017
41.19000 205.402
41.20000 205.633
41.21000 199.445
41.22000 195.005
41.23000 195.556
41.24000 200.972
41.25000 206.351
41.26000 208.561
41.27000 208.736
41.28000 208.906
41.29000 206.616
41.30000 203.411
41.31000 200.289
41.32000 198.180
41.33000 196.371
41.34000 194.789
41.35000 194.838
41.36000 195.211
41.37000 195.523
41.38000 200.386
41.39000 204.907
41.40000 207.086
41.41000 201.992
41.42000 196.379
41.43000 195.029
41.44000 202.707
41.45000 210.678
41.46000 215.388
41.47000 211.083
41.48000 207.993
41.49000 205.896
41.50000 204.730
41.51000 203.589
41.52000 204.286
41.53000 206.121
41.54000 207.902
41.55000 206.296
41.56000 203.417
41.57000 200.804
41.58000 201.302
41.59000 202.692
41.60000 203.766
41.61000 202.657
41.62000 201.132
41.63000 199.862
41.64000 204.158
41.65000 208.268
41.66000 211.500
41.67000 212.098
41.68000 212.519
41.69000 213.059
41.70000 213.842
41.71000 214.633
41.72000 215.092
41.73000 213.306
41.74000 212.042
41.75000 212.279
41.76000 213.866
41.77000 215.376
41.78000 211.945
41.79000 205.562
41.80000 199.382
41.81000 200.846
41.82000 205.174
41.83000 209.231
41.84000 210.301
41.85000 210.546
41.86000 210.919
41.87000 212.149
41.88000 213.536
41.89000 214.682
41.90000 211.395
41.91000 208.266
41.92000 205.837
41.93000 205.431
41.94000 205.154
41.95000 204.708
41.96000 203.929
41.97000 203.141
41.98000 202.690
41.99000 202.920
42.00000 203.089
42.01000 207.925
42.02000 216.796
42.03000 225.549
42.04000 227.643
42.05000 225.897
42.06000 224.211
42.07000 221.540
42.08000 218.658
42.09000 215.599
42.10000 210.682
42.11000 205.269
42.12000 200.630
42.13000 200.892
42.14000 202.016
42.15000 202.939
42.16000 207.639
42.17000 211.835
42.18000 215.953
42.19000 219.857
42.20000 223.747
42.21000 224.056
42.22000 217.538
42.23000 210.855
42.24000 207.095
42.25000 206.091
42.26000 205.403
42.27000 205.964
42.28000 207.562
42.29000 209.174
42.30000 211.461
42.31000 214.124
42.32000 216.689
42.33000 209.939
42.34000 200.282
42.35000 192.041
42.36000 197.922
42.37000 207.436
42.38000 215.762
42.39000 216.861
42.40000 216.740
42.41000 216.641
42.42000 218.396
42.43000 219.987
42.44000 220.290
42.45000 217.119
42.46000 213.755
42.47000 210.280
42.48000 206.599
42.49000 202.913
42.50000 200.875
42.51000 210.892
42.52000 217.805
42.53000 218.235
42.54000 213.477
42.55000 208.753
42.56000 205.531
42.57000 203.116
42.58000 200.796
42.59000 201.902
42.60000 204.109
42.61000 206.267
42.62000 207.951
42.63000 209.518
42.64000 210.372
42.65000 207.064
42.66000 203.081
42.67000 199.862
42.68000 200.755
42.69000 201.811
42.70000 201.525
42.71000 197.744
42.72000 193.782
42.73000 192.999
42.74000 197.862
42.75000 202.834
42.76000 205.534
42.77000 206.590
42.78000 207.317
42.79000 209.146
42.80000 211.825
42.81000 214.395
42.82000 212.661
42.83000 208.696
42.84000 204.900
42.85000 200.426
42.86000 196.033
42.87000 191.933
42.88000 190.473
42.89000 189.644
42.90000 188.936
42.91000 188.903
42.92000 188.974
42.93000 189.032
42.94000 189.761
42.95000 190.402
42.96000 190.439
42.97000 188.960
42.98000 187.407
42.99000 188.856
43.00000 195.449
43.01000 202.130
43.02000 205.692
43.03000 202.319
43.04000 200.029
43.05000 200.321
43.06000 202.530
43.07000 204.567
43.08000 200.450
43.09000 193.254
43.10000 186.388
43.11000 188.174
43.12000 192.576
43.13000 196.300
43.14000 194.196
43.15000 190.749
43.16000 187.688
43.17000 186.706
43.18000 186.033
43.19000 185.498
43.20000 179.007
43.21000 173.350
43.22000 172.388
43.23000 182.829
43.24000 193.781
43.25000 199.626
43.26000 197.028
43.27000 194.304
43.28000 192.879
43.29000 201.251
43.30000 206.871
43.31000 205.034
43.32000 197.865
43.33000 190.915
43.34000 191.149
43.35000 194.855
43.36000 198.380
43.37000 198.498
43.38000 197.569
43.39000 196.247
43.40000 191.696
43.41000 186.429
43.42000 182.490
43.43000 185.423
43.44000 189.336
43.45000 192.423
43.46000 192.754
43.47000 192.834
43.48000 193.648
43.49000 196.181
43.50000 198.785
43.51000 198.019
43.52000 191.880
43.53000 185.670
43.54000 182.484
43.55000 181.665
43.56000 181.136
43.57000 183.139
43.58000 186.887
43.59000 190.391
43.60000 186.614
43.61000 179.440
43.62000 172.641
43.63000 175.477
43.64000 180.914
43.65000 185.820
43.66000 186.554
43.67000 186.398
43.68000 186.827
43.69000 190.167
43.70000 193.906
43.71000 196.830
43.72000 196.029
43.73000 195.153
43.74000 194.401
43.75000 193.930
43.76000 193.469
43.77000 192.167
43.78000 189.571
43.79000 186.960
43.80000 185.648
43.81000 194.022
43.82000 199.562
43.83000 199.678
43.84000 196.192
43.85000 192.782
43.86000 191.439
43.87000 191.028
43.88000 190.639
43.89000 190.759
43.90000 191.012
43.91000 191.521
43.92000 193.955
43.93000 196.785
43.94000 198.286
43.95000 193.425
43.96000 187.733
43.97000 183.320
43.98000 182.793
43.99000 182.607
44.00000 183.100
44.01000 185.079
44.02000 187.111
44.03000 187.730
44.04000 186.253
44.05000 184.757
44.06000 188.576
44.07000 197.555
44.08000 206.440
44.09000 207.275
44.10000 202.954
44.11000 198.706
44.12000 196.281
44.13000 194.649
44.14000 193.114
44.15000 192.962
44.16000 193.197
44.17000 193.570
44.18000 194.931
44.19000 196.488
44.20000 197.694
44.21000 197.279
44.22000 196.663
44.23000 196.189
44.24000 189.005
44.25000 182.947
44.26000 180.362
44.27000 185.109
44.28000 190.092
44.29000 192.209
44.30000 190.229
44.31000 188.218
44.32000 189.097
44.33000 192.671
44.34000 196.199
44.35000 196.324
44.36000 194.348
44.37000 192.354
44.38000 189.955
44.39000 187.386
44.40000 184.978
44.41000 187.256
44.42000 190.550
44.43000 194.001
44.44000 198.532
44.45000 203.267
44.46000 206.443
44.47000 202.697
44.48000 198.126
44.49000 194.647
44.50000 194.972
44.51000 195.429
44.52000 194.293
44.53000 189.910
44.54000 185.432
44.55000 186.182
44.56000 194.131
44.57000 202.121
44.58000 206.043
44.59000 206.320
44.60000 206.629
44.61000 209.004
44.62000 212.611
44.63000 215.950
44.64000 213.531
44.65000 208.774
44.66000 204.334
44.67000 202.488
44.68000 201.463
44.69000 201.250
44.70000 206.391
44.71000 212.509
44.72000 217.478
44.73000 217.535
44.74000 217.034
44.75000 216.655
44.76000 208.009
44.77000 200.831
44.78000 198.282
44.79000 204.843
44.80000 211.647
44.81000 217.932
44.82000 223.528
44.83000 229.117
44.84000 227.299
44.85000 219.113
44.86000 211.113
44.87000 213.419
44.88000 221.649
44.89000 229.488
44.90000 229.476
44.91000 226.387
44.92000 223.516
44.93000 219.720
44.94000 216.071
44.95000 213.203
44.96000 215.273
44.97000 218.209
44.98000 221.294
44.99000 224.993
45.00000 228.758
45.01000 231.569
45.02000 232.843
45.03000 233.765
45.04000 233.744
45.05000 231.932
45.06000 230.076
45.07000 227.356
45.08000 223.531
45.09000 219.706
45.10000 220.313
45.11000 224.579
45.12000 228.744
45.13000 227.882
45.14000 224.232
45.15000 220.634
45.16000 218.017
45.17000 215.772
45.18000 213.694
45.19000 211.790
45.20000 210.118
45.21000 209.513
45.22000 215.371
45.23000 222.317
45.24000 227.144
45.25000 223.558
45.26000 219.103
45.27000 215.809
45.28000 223.270
45.29000 229.517
45.30000 230.762
45.31000 222.834
45.32000 214.708
45.33000 209.432
45.34000 207.660
45.35000 205.899
45.36000 205.223
45.37000 205.409
45.38000 205.690
45.39000 210.072
45.40000 216.650
45.41000 222.833
45.42000 222.097
45.43000 218.833
45.44000 215.824
45.45000 212.725
45.46000 209.931
45.47000 207.771
45.48000 209.310
45.49000 211.446
45.50000 212.510
45.51000 209.472
45.52000 206.031
45.53000 203.513
45.54000 197.321
45.55000 192.396
45.56000 189.137
45.57000 188.830
45.58000 188.579
45.59000 190.497
45.60000 194.979
45.61000 199.455
45.62000 201.833
45.63000 202.596
45.64000 203.240
45.65000 199.236
45.66000 192.829
45.67000 186.703
45.68000 185.190
45.69000 185.306
45.70000 185.412
45.71000 183.678
45.72000 181.740
45.73000 179.893
45.74000 178.545
45.75000 177.274
45.76000 177.612
45.77000 183.882
45.78000 190.706
45.79000 195.649
45.80000 194.807
45.81000 193.948
45.82000 191.525
45.83000 186.430
45.84000 181.289
45.85000 179.191
45.86000 180.554
45.87000 181.915
45.88000 183.927
45.89000 186.401
45.90000 188.825
45.91000 189.457
45.92000 189.196
45.93000 188.944
45.94000 188.845
45.95000 188.797
45.96000 188.753
45.97000 188.797
45.98000 188.853
45.99000 187.781
46.00000 180.650
46.01000 172.620
46.02000 166.234
46.03000 165.698
46.04000 165.679
46.05000 165.665
46.06000 162.587
46.07000 160.131
46.08000 161.577
46.09000 169.454
46.10000 177.427
46.11000 181.013
46.12000 179.804
46.13000 178.597
46.14000 177.834
46.15000 177.392
46.16000 176.977
46.17000 177.470
46.18000 178.400
46.19000 179.134
46.20000 177.018
46.21000 173.965
46.22000 171.189
46.23000 172.746
46.24000 174.968
46.25000 176.246
46.26000 172.646
46.27000 168.352
46.28000 166.528
46.29000 173.188
46.30000 180.558
46.31000 185.782
46.32000 183.221
46.33000 181.030
46.34000 178.057
46.35000 173.839
46.36000 169.606
46.37000 167.668
46.38000 168.142
46.39000 168.613
46.40000 169.037
46.41000 169.425
46.42000 169.919
46.43000 173.584
46.44000 178.725
46.45000 183.240
46.46000 179.209
46.47000 172.465
46.48000 166.365
46.49000 166.749
46.50000 168.302
46.51000 169.389
46.52000 168.168
46.53000 166.631
46.54000 166.335
46.55000 170.145
46.56000 174.280
46.57000 177.179
46.58000 178.574
46.59000 179.585
46.60000 177.360
46.61000 170.172
46.62000 162.931
46.63000 162.130
46.64000 167.823
46.65000 173.483
46.66000 177.844
46.67000 181.297
46.68000 184.550
46.69000 182.363
46.70000 177.732
46.71000 173.482
46.72000 174.147
46.73000 176.317
46.74000 178.270
46.75000 176.525
46.76000 174.332
46.77000 171.964
46.78000 168.760
46.79000 165.446
46.80000 163.550
46.81000 166.184
46.82000 169.157
46.83000 171.218
46.84000 172.244
46.85000 172.990
46.86000 172.768
46.87000 171.116
46.88000 169.452
46.89000 169.283
46.90000 170.562
46.91000 171.832
46.92000 172.193
46.93000 171.976
46.94000 171.745
46.95000 171.164
46.96000 170.432
46.97000 169.403
46.98000 164.748
46.99000 159.021
47.00000 153.893
47.01000 159.112
47.02000 165.446
47.03000 170.201
47.04000 167.702
47.05000 164.301
47.06000 162.739
47.07000 166.850
47.08000 171.362
47.09000 174.452
47.10000 167.156
47.11000 161.443
47.12000 160.613
47.13000 166.742
47.14000 172.920
47.15000 172.868
47.16000 167.024
47.17000 161.231
47.18000 162.143
47.19000 167.089
47.20000 171.761
47.21000 170.048
47.22000 165.662
47.23000 161.618
47.24000 161.545
47.25000 162.604
47.26000 163.547
47.27000 162.386
47.28000 161.031
47.29000 160.182
47.30000 161.575
47.31000 163.234
47.32000 164.858
47.33000 166.377
47.34000 167.890
47.35000 168.913
47.36000 165.852
47.37000 163.482
47.38000 160.769
47.39000 157.586
47.40000 154.402
47.41000 154.526
47.42000 157.604
47.43000 160.651
47.44000 161.232
47.45000 160.368
47.46000 159.501
47.47000 158.585
47.48000 157.648
47.49000 156.725
47.50000 155.946
47.51000 155.207
47.52000 154.552
47.53000 161.786
47.54000 169.289
47.55000 175.942
47.56000 178.978
47.57000 181.604
47.58000 182.471
47.59000 178.280
47.60000 173.773
47.61000 170.761
47.62000 166.193
47.63000 162.777
47.64000 159.926
47.65000 157.823
47.66000 155.725
47.67000 155.564
47.68000 157.065
47.69000 158.550
47.70000 157.498
47.71000 155.051
47.72000 152.935
47.73000 157.433
47.74000 164.515
47.75000 170.688
47.76000 167.393
47.77000 161.588
47.78000 156.475
47.79000 155.855
47.80000 155.997
47.81000 156.505
47.82000 158.517
47.83000 160.692
47.84000 160.998
47.85000 156.117
47.86000 150.931
47.87000 147.510
47.88000 151.838
47.89000 155.166
47.90000 157.365
47.91000 158.128
47.92000 158.885
47.93000 159.075
47.94000 158.798
47.95000 158.524
47.96000 157.220
47.97000 155.398
47.98000 153.866
47.99000 157.756
48.00000 163.692
48.01000 168.570
48.02000 162.980
48.03000 154.715
48.04000 147.475
48.05000 149.612
48.06000 152.793
48.07000 155.997
48.08000 159.289
48.09000 162.590
48.10000 164.003
48.11000 160.357
48.12000 156.433
48.13000 153.878
48.14000 158.851
48.15000 162.616
48.16000 162.777
48.17000 158.523
48.18000 154.270
48.19000 154.041
48.20000 157.013
48.21000 159.940
48.22000 154.398
48.23000 144.633
48.24000 135.604
48.25000 139.400
48.26000 147.867
48.27000 156.045
48.28000 161.499
48.29000 166.282
48.30000 170.446
48.31000 164.086
48.32000 157.208
48.33000 152.331
48.34000 155.092
48.35000 158.600
48.36000 163.290
48.37000 171.038
48.38000 178.943
48.39000 184.024
48.40000 171.798
48.41000 162.640
48.42000 158.977
48.43000 161.795
48.44000 164.619
48.45000 166.584
48.46000 167.892
48.47000 169.179
48.48000 168.321
48.49000 166.422
48.50000 164.434
48.51000 160.988
48.52000 157.029
48.53000 153.308
48.54000 151.716
48.55000 150.629
48.56000 149.689
48.57000 157.134
48.58000 164.565
48.59000 168.534
48.60000 159.766
48.61000 149.815
48.62000 145.053
48.63000 153.264
48.64000 162.093
48.65000 167.689
48.66000 162.247
48.67000 158.165
48.68000 155.700
48.69000 155.067
48.70000 154.433
48.71000 153.052
48.72000 151.119
48.73000 149.223
48.74000 149.209
48.75000 150.099
48.76000 151.036
48.77000 152.696
48.78000 154.601
48.79000 156.232
48.80000 155.518
48.81000 154.267
48.82000 153.192
48.83000 153.715
48.84000 154.357
48.85000 155.001
48.86000 155.651
48.87000 156.301
48.88000 156.737
48.89000 156.657
48.90000 156.554
48.91000 156.489
48.92000 156.754
48.93000 156.948
48.94000 159.673
48.95000 165.154
48.96000 170.581
48.97000 168.152
48.98000 160.140
48.99000 152.294
49.00000 153.325
49.01000 158.416
49.02000 163.022
49.03000 160.629
49.04000 155.942
49.05000 151.795
49.06000 152.061
49.07000 153.298
49.08000 154.356
49.09000 155.255
49.10000 155.993
49.11000 155.877
49.12000 152.833
49.13000 149.545
49.14000 147.635
49.15000 148.938
49.16000 150.371
49.17000 151.255
49.18000 146.897
49.19000 143.722
49.20000 143.529
49.21000 146.457
49.22000 149.376
49.23000 151.297
49.24000 152.532
49.25000 153.740
49.26000 157.635
49.27000 162.562
49.28000 166.663
49.29000 159.525
49.30000 148.831
49.31000 139.574
49.32000 141.514
49.33000 145.828
49.34000 149.490
49.35000 151.512
49.36000 153.022
49.37000 153.329
49.38000 149.662
49.39000 145.682
49.40000 143.701
49.41000 146.222
49.42000 148.912
49.43000 150.545
49.44000 156.833
49.45000 161.355
49.46000 163.710
49.47000 163.887
49.48000 164.072
49.49000 165.015
49.50000 166.459
49.51000 167.867
49.52000 163.661
49.53000 157.244
49.54000 151.111
49.55000 148.617
49.56000 147.235
49.57000 146.364
49.58000 149.308
49.59000 153.031
49.60000 156.169
49.61000 159.168
49.62000 161.658
49.63000 161.331
49.64000 152.028
49.65000 142.055
49.66000 136.971
49.67000 142.513
49.68000 148.424
49.69000 151.959
49.70000 152.008
49.71000 152.022
49.72000 153.549
49.73000 156.536
49.74000 159.489
49.75000 159.577
49.76000 157.841
49.77000 156.152
49.78000 153.919
49.79000 151.571
49.80000 149.125
49.81000 145.496
49.82000 141.519
49.83000 138.016
49.84000 137.887
49.85000 138.421
49.86000 138.868
49.87000 146.192
49.88000 152.989
49.89000 156.652
49.90000 150.673
49.91000 144.017
49.92000 140.960
49.93000 145.461
49.94000 150.202
49.95000 152.992
49.96000 148.281
49.97000 144.919
49.98000 144.399
49.99000 146.511
50.00000 148.623
50.01000 150.749
50.02000 152.883
50.03000 154.954
50.04000 153.124
50.05000 149.843
50.06000 146.732
50.07000 145.576
50.08000 144.976
50.09000 144.878
50.10000 148.204
50.11000 152.177
50.12000 155.480
50.13000 155.467
50.14000 155.132
50.15000 154.133
50.16000 151.161
50.17000 148.059
50.18000 147.376
50.19000 151.596
50.20000 155.958
50.21000 158.484
50.22000 157.351
50.23000 156.541
50.24000 155.466
50.25000 154.156
50.26000 152.845
50.27000 151.519
50.28000 150.184
50.29000 148.893
50.30000 148.827
50.31000 149.232
50.32000 149.498
50.33000 148.239
50.34000 146.562
50.35000 145.386
50.36000 147.491
50.37000 150.191
50.38000 152.419
50.39000 154.985
50.40000 157.131
50.41000 158.941
50.42000 159.789
50.43000 160.578
50.44000 160.064
50.45000 156.999
50.46000 153.868
50.47000 152.084
50.48000 160.249
50.49000 165.962
50.50000 164.246
50.51000 156.168
50.52000 148.204
50.53000 146.416
50.54000 148.158
50.55000 149.838
50.56000 153.354
50.57000 157.338
50.58000 161.110
50.59000 162.701
50.60000 163.715
50.61000 164.232
50.62000 161.634
50.63000 158.493
50.64000 155.920
50.65000 154.243
50.66000 152.947
50.67000 152.867
50.68000 156.152
50.69000 159.633
50.70000 161.602
50.71000 160.714
50.72000 159.759
50.73000 159.224
50.74000 156.525
50.75000 154.654
50.76000 154.586
50.77000 156.004
50.78000 157.387
50.79000 157.074
50.80000 155.825
50.81000 154.624
50.82000 155.751
50.83000 157.629
50.84000 159.596
50.85000 162.431
50.86000 165.488
50.87000 167.812
50.88000 165.727
50.89000 162.906
50.90000 160.612
50.91000 159.955
50.92000 159.555
50.93000 158.819
50.94000 157.183
50.95000 155.498
50.96000 153.744
50.97000 151.864
50.98000 149.981
50.99000 148.944
51.00000 155.487
51.01000 159.989
51.02000 158.903
51.03000 153.390
51.04000 148.000
51.05000 147.981
51.06000 150.820
51.07000 153.543
51.08000 154.080
51.09000 153.839
51.10000 153.713
51.11000 154.673
51.12000 155.899
51.13000 156.433
51.14000 152.962
51.15000 148.849
51.16000 145.531
51.17000 145.421
51.18000 145.586
51.19000 146.677
51.20000 150.157
51.21000 153.759
51.22000 154.347
51.23000 149.629
51.24000 144.812
51.25000 142.208
51.26000 139.051
51.27000 136.908
51.28000 139.123
51.29000 144.662
51.30000 150.050
51.31000 149.566
51.32000 146.065
51.33000 142.716
51.34000 143.150
51.35000 144.788
51.36000 146.313
51.37000 146.829
51.38000 147.105
51.39000 147.258
51.40000 146.723
51.41000 146.082
51.42000 145.569
51.43000 148.329
51.44000 150.805
51.45000 151.800
51.46000 149.102
51.47000 146.229
51.48000 145.513
51.49000 148.461
51.50000 151.470
51.51000 153.066
51.52000 144.332
51.53000 138.408
51.54000 136.600
51.55000 137.816
51.56000 138.968
51.57000 137.851
51.58000 135.609
51.59000 133.472
51.60000 136.517
51.61000 140.967
51.62000 144.743
51.63000 142.782
51.64000 139.513
51.65000 136.890
51.66000 137.718
51.67000 139.055
51.68000 140.116
51.69000 144.358
51.70000 147.998
51.71000 150.429
51.72000 149.952
51.73000 149.347
51.74000 147.412
51.75000 143.299
51.76000 139.155
51.77000 136.997
51.78000 140.024
51.79000 142.060
51.80000 142.498
51.81000 141.805
51.82000 141.096
51.83000 139.858
51.84000 138.367
51.85000 136.950
51.86000 139.424
51.87000 142.885
51.88000 146.164
51.89000 147.962
51.90000 149.436
51.91000 149.911
51.92000 145.263
51.93000 139.892
51.94000 135.665
51.95000 134.870
51.96000 134.462
51.97000 135.115
51.98000 138.235
51.99000 141.456
52.00000 142.923
52.01000 141.619
52.02000 140.280
52.03000 139.597
52.04000 143.540
52.05000 146.172
52.06000 147.142
52.07000 146.975
52.08000 146.797
52.09000 146.280
52.10000 145.605
52.11000 144.966
52.12000 143.375
52.13000 141.634
52.14000 140.218
52.15000 141.328
52.16000 142.972
52.17000 144.330
52.18000 144.278
52.19000 144.036
52.20000 143.847
52.21000 138.618
52.22000 134.134
52.23000 131.867
52.24000 134.579
52.25000 137.478
52.26000 139.250
52.27000 139.307
52.28000 139.345
52.29000 139.365
52.30000 135.073
52.31000 132.264
52.32000 134.461
52.33000 139.952
52.34000 145.199
52.35000 143.919
52.36000 139.723
52.37000 135.764
52.38000 137.098
52.39000 139.798
52.40000 142.006
52.41000 140.553
52.42000 138.355
52.43000 136.554
52.44000 136.636
52.45000 136.961
52.46000 137.212
52.47000 133.455
52.48000 130.237
52.49000 129.063
52.50000 132.319
52.51000 135.728
52.52000 138.606
52.53000 140.704
52.54000 142.794
52.55000 142.050
52.56000 138.580
52.57000 135.137
52.58000 133.842
52.59000 133.910
52.60000 133.979
52.61000 134.101
52.62000 134.245
52.63000 134.380
52.64000 134.443
52.65000 134.481
52.66000 135.013
52.67000 139.058
52.68000 143.790
52.69000 146.813
52.70000 142.031
52.71000 136.285
52.72000 131.881
52.73000 132.615
52.74000 133.479
52.75000 134.977
52.76000 137.803
52.77000 140.670
52.78000 142.223
52.79000 141.916
52.80000 141.596
52.81000 140.811
52.82000 139.597
52.83000 138.399
52.84000 138.285
52.85000 138.835
52.86000 139.294
52.87000 137.657
52.88000 135.148
52.89000 132.799
52.90000 130.715
52.91000 128.890
52.92000 127.955
52.93000 133.087
52.94000 139.359
52.95000 144.361
52.96000 143.777
52.97000 142.534
52.98000 141.590
52.99000 136.935
53.00000 133.083
53.01000 130.459
53.02000 130.315
53.03000 130.243
53.04000 133.088
53.05000 139.913
53.06000 146.759
53.07000 148.140
53.08000 144.676
53.09000 141.305
53.10000 143.637
53.11000 149.336
53.12000 154.740
53.13000 153.867
53.14000 150.469
53.15000 147.301
53.16000 145.021
53.17000 143.176
53.18000 141.428
53.19000 140.311
53.20000 139.307
53.21000 139.159
53.22000 142.639
53.23000 146.527
53.24000 149.452
53.25000 146.500
53.26000 143.907
53.27000 142.677
53.28000 144.104
53.29000 145.600
53.30000 146.165
53.31000 145.507
53.32000 144.843
53.33000 145.889
53.34000 148.388
53.35000 150.831
53.36000 150.273
53.37000 148.006
53.38000 145.719
53.39000 143.058
53.40000 140.251
53.41000 137.643
53.42000 141.991
53.43000 147.566
53.44000 151.978
53.45000 149.122
53.46000 145.005
53.47000 141.612
53.48000 141.170
53.49000 141.046
53.50000 140.952
53.51000 146.875
53.52000 151.756
53.53000 153.844
53.54000 150.672
53.55000 147.376
53.56000 145.457
53.57000 145.280
53.58000 145.108
53.59000 144.156
53.60000 142.570
53.61000 141.042
53.62000 142.326
53.63000 145.157
53.64000 147.692
53.65000 144.776
53.66000 139.816
53.67000 135.229
53.68000 134.509
53.69000 134.746
53.70000 135.647
53.71000 140.538
53.72000 146.093
53.73000 150.317
53.74000 149.311
53.75000 147.771
53.76000 146.635
53.77000 146.079
53.78000 145.672
53.79000 145.791
53.80000 146.863
53.81000 147.956
53.82000 147.488
53.83000 145.119
53.84000 142.749
53.85000 139.409
53.86000 135.322
53.87000 131.356
53.88000 132.587
53.89000 136.576
53.90000 140.314
53.91000 139.720
53.92000 137.558
53.93000 135.568
53.94000 140.302
53.95000 146.010
53.96000 150.563
53.97000 148.468
53.98000 145.310
53.99000 142.915
54.00000 143.413
54.01000 144.191
54.02000 144.760
54.03000 142.287
54.04000 140.262
54.05000 138.509
54.06000 137.233
54.07000 135.966
54.08000 134.436
54.09000 132.597
54.10000 130.762
54.11000 130.017
54.12000 130.101
54.13000 130.263
54.14000 133.441
54.15000 138.162
54.16000 142.581
54.17000 142.089
54.18000 139.880
54.19000 137.856
54.20000 137.836
54.21000 138.239
54.22000 138.493
54.23000 137.921
54.24000 137.223
54.25000 136.960
54.26000 138.291
54.27000 139.768
54.28000 140.835
54.29000 134.401
54.30000 129.195
54.31000 127.826
54.32000 132.951
54.33000 138.182
54.34000 141.702
54.35000 143.294
54.36000 144.879
54.37000 146.094
54.38000 147.029
54.39000 147.848
54.40000 144.651
54.41000 139.466
54.42000 134.596
54.43000 134.502
54.44000 136.021
54.45000 137.407
54.46000 136.117
54.47000 134.434
54.48000 133.514
54.49000 136.659
54.50000 140.400
54.51000 142.695
54.52000 139.891
54.53000 136.642
54.54000 134.320
54.55000 136.801
54.56000 138.855
54.57000 141.300
54.58000 144.384
54.59000 147.478
54.60000 147.385
54.61000 143.843
54.62000 140.315
54.63000 140.173
54.64000 142.399
54.65000 144.484
54.66000 142.119
54.67000 137.628
54.68000 133.468
54.69000 134.048
54.70000 136.171
54.71000 138.099
54.72000 138.048
54.73000 137.621
54.74000 137.241
54.75000 137.101
54.76000 136.994
54.77000 136.675
54.78000 135.636
54.79000 134.538
54.80000 133.761
54.81000 135.288
54.82000 136.517
54.83000 137.753
54.84000 138.999
54.85000 140.245
54.86000 140.022
54.87000 138.274
54.88000 136.534
54.89000 137.213
54.90000 139.509
54.91000 141.747
54.92000 142.344
54.93000 142.184
54.94000 142.122
54.95000 143.383
54.96000 145.062
54.97000 146.578
54.98000 147.074
54.99000 147.321
55.00000 147.137
55.01000 144.827
55.02000 142.232
55.03000 140.658
55.04000 142.435
55.05000 144.474
55.06000 145.899
55.07000 145.690
55.08000 145.487
55.09000 144.718
55.10000 143.091
55.11000 141.455
55.12000 140.314
55.13000 139.668
55.14000 139.025
55.15000 139.939
55.16000 141.847
55.17000 143.744
55.18000 145.350
55.19000 146.827
55.20000 148.301
55.21000 149.738
55.22000 151.163
55.23000 152.445
55.24000 147.061
55.25000 141.164
55.26000 136.957
55.27000 140.746
55.28000 145.565
55.29000 149.499
55.30000 150.629
55.31000 151.552
55.32000 152.190
55.33000 153.625
55.34000 154.723
55.35000 157.430
55.36000 162.492
55.37000 167.573
55.38000 166.301
55.39000 158.941
55.40000 151.636
55.41000 155.012
55.42000 164.974
55.43000 174.732
55.44000 179.484
55.45000 182.082
55.46000 184.209
55.47000 180.655
55.48000 175.437
55.49000 170.770
55.50000 171.387
55.51000 172.822
55.52000 175.333
55.53000 182.740
55.54000 190.748
55.55000 197.668
55.56000 201.256
55.57000 204.612
55.58000 206.903
55.59000 206.882
55.60000 206.812
55.61000 209.262
55.62000 215.270
55.63000 221.303
55.64000 226.956
55.65000 232.258
55.66000 237.514
55.67000 238.979
55.68000 238.147
55.69000 237.602
55.70000 243.599
55.71000 252.311
55.72000 261.627
55.73000 277.823
55.74000 295.961
55.75000 312.096
55.76000 319.429
55.77000 324.362
55.78000 330.280
55.79000 340.519
55.80000 351.265
55.81000 360.158
55.82000 363.580
55.83000 366.644
55.84000 368.711
55.85000 374.398
55.86000 378.707
55.87000 386.666
55.88000 399.591
55.89000 412.538
55.90000 417.624
55.91000 415.757
55.92000 413.909
55.93000 416.335
55.94000 421.168
55.95000 425.783
55.96000 425.773
55.97000 423.909
55.98000 422.297
55.99000 423.408
56.00000 425.261
56.01000 426.900
56.02000 424.486
56.03000 421.769
56.04000 418.165
56.05000 410.819
56.06000 403.053
56.07000 395.991
56.08000 390.936
56.09000 386.005
56.10000 382.719
56.11000 376.294
56.12000 371.478
56.13000 361.696
56.14000 345.409
56.15000 329.104
56.16000 319.710
56.17000 316.194
56.18000 312.720
56.19000 303.173
56.20000 290.495
56.21000 277.965
56.22000 268.307
56.23000 259.764
56.24000 251.551
56.25000 246.744
56.26000 242.831
56.27000 239.390
56.28000 235.301
56.29000 231.685
56.30000 226.822
56.31000 216.879
56.32000 206.395
56.33000 197.773
56.34000 194.276
56.35000 191.075
56.36000 188.970
56.37000 192.698
56.38000 195.543
56.39000 195.093
56.40000 190.489
56.41000 185.870
56.42000 181.138
56.43000 176.313
56.44000 171.552
56.45000 169.540
56.46000 169.048
56.47000 168.406
56.48000 165.001
56.49000 160.564
56.50000 156.080
56.51000 151.142
56.52000 146.089
56.53000 141.670
56.54000 146.231
56.55000 151.417
56.56000 155.265
56.57000 153.868
56.58000 151.938
56.59000 149.883
56.60000 147.495
56.61000 145.088
56.62000 143.526
56.63000 138.624
56.64000 134.983
56.65000 135.646
56.66000 141.533
56.67000 147.415
56.68000 148.503
56.69000 145.815
56.70000 143.168
56.71000 142.832
56.72000 143.692
56.73000 144.303
56.74000 140.639
56.75000 135.432
56.76000 130.750
56.77000 130.949
56.78000 132.340
56.79000 133.549
56.80000 133.040
56.81000 132.371
56.82000 131.621
56.83000 130.561
56.84000 129.470
56.85000 128.798
56.86000 129.198
56.87000 129.652
56.88000 129.942
56.89000 138.114
56.90000 144.173
56.91000 144.727
56.92000 138.857
56.93000 132.993
56.94000 130.669
56.95000 131.029
56.96000 131.384
56.97000 134.296
56.98000 138.375
56.99000 141.999
57.00000 138.307
57.01000 132.065
57.02000 126.709
57.03000 129.204
57.04000 133.547
57.05000 137.299
57.06000 139.557
57.07000 141.282
57.08000 142.652
57.09000 142.732
57.10000 142.694
57.11000 141.426
57.12000 137.111
57.13000 132.653
57.14000 129.837
57.15000 129.832
57.16000 129.861
57.17000 127.728
57.18000 123.168
57.19000 118.638
57.20000 119.380
57.21000 123.975
57.22000 128.482
57.23000 131.144
57.24000 132.832
57.25000 134.372
57.26000 133.674
57.27000 132.223
57.28000 130.756
57.29000 129.158
57.30000 127.530
57.31000 126.133
57.32000 125.705
57.33000 125.464
57.34000 124.581
57.35000 121.440
57.36000 118.103
57.37000 117.225
57.38000 122.231
57.39000 127.492
57.40000 130.769
57.41000 126.047
57.42000 122.563
57.43000 122.074
57.44000 124.816
57.45000 127.530
57.46000 126.411
57.47000 122.594
57.48000 118.858
57.49000 120.259
57.50000 123.955
57.51000 127.554
57.52000 129.760
57.53000 131.514
57.54000 132.720
57.55000 129.511
57.56000 125.338
57.57000 121.778
57.58000 120.249
57.59000 119.201
57.60000 119.868
57.61000 126.353
57.62000 133.318
57.63000 136.406
57.64000 130.537
57.65000 124.308
57.66000 120.485
57.67000 117.770
57.68000 115.835
57.69000 115.699
57.70000 117.429
57.71000 119.147
57.72000 119.599
57.73000 119.193
57.74000 118.797
57.75000 117.675
57.76000 116.283
57.77000 115.216
57.78000 118.511
57.79000 123.173
57.80000 127.332
57.81000 127.614
57.82000 127.082
57.83000 126.631
57.84000 129.442
57.85000 132.165
57.86000 132.951
57.87000 127.396
57.88000 121.349
57.89000 118.443
57.90000 122.547
57.91000 126.910
57.92000 129.549
57.93000 132.396
57.94000 134.426
57.95000 132.928
57.96000 127.922
57.97000 122.982
57.98000 124.239
57.99000 129.548
58.00000 134.722
58.01000 132.405
58.02000 127.021
58.03000 122.017
58.04000 121.831
58.05000 123.104
58.06000 124.046
58.07000 122.556
58.08000 120.573
58.09000 118.904
58.10000 124.089
58.11000 129.147
58.12000 131.689
58.13000 126.287
58.14000 120.302
58.15000 116.143
58.16000 115.920
58.17000 115.832
58.18000 115.779
58.19000 120.235
58.20000 123.420
58.21000 123.243
58.22000 119.857
58.23000 116.521
58.24000 117.150
58.25000 120.281
58.26000 123.323
58.27000 123.636
58.28000 122.820
58.29000 122.069
58.30000 122.097
58.31000 122.352
58.32000 122.557
58.33000 122.407
58.34000 122.189
58.35000 122.006
58.36000 121.421
58.37000 120.895
58.38000 120.180
58.39000 118.893
58.40000 117.566
58.41000 116.438
58.42000 115.724
58.43000 115.024
58.44000 114.613
58.45000 116.495
58.46000 117.833
58.47000 119.353
58.48000 121.042
58.49000 122.689
58.50000 121.517
58.51000 118.630
58.52000 115.830
58.53000 117.665
58.54000 121.222
58.55000 124.500
58.56000 124.609
58.57000 123.826
58.58000 123.175
58.59000 123.424
58.60000 123.841
58.61000 124.186
58.62000 122.048
58.63000 120.040
58.64000 118.762
58.65000 119.635
58.66000 120.649
58.67000 121.372
58.68000 121.514
58.69000 121.639
58.70000 121.711
58.71000 120.845
58.72000 120.234
58.73000 119.610
58.74000 118.973
58.75000 118.372
58.76000 119.956
58.77000 122.823
58.78000 125.595
58.79000 122.004
58.80000 116.213
58.81000 111.127
58.82000 113.640
58.83000 118.217
58.84000 122.116
58.85000 121.620
58.86000 120.334
58.87000 119.276
58.88000 120.453
58.89000 121.627
58.90000 121.014
58.91000 115.324
58.92000 109.323
58.93000 105.696
58.94000 106.676
58.95000 107.773
58.96000 108.396
58.97000 112.654
58.98000 115.626
58.99000 116.614
59.00000 115.920
59.01000 115.247
59.02000 115.683
59.03000 116.749
59.04000 117.776
59.05000 119.236
59.06000 120.766
59.07000 122.203
59.08000 122.686
59.09000 122.919
59.10000 122.780
59.11000 120.334
59.12000 117.491
59.13000 115.166
59.14000 117.267
59.15000 119.372
59.16000 121.185
59.17000 122.197
59.18000 123.163
59.19000 123.138
59.20000 121.254
59.21000 119.328
59.22000 118.254
59.23000 115.576
59.24000 113.722
59.25000 112.967
59.26000 113.108
59.27000 113.223
59.28000 112.105
59.29000 110.313
59.30000 108.590
59.31000 109.428
59.32000 111.108
59.33000 112.856
59.34000 115.253
59.35000 117.815
59.36000 120.090
59.37000 120.654
59.38000 120.935
59.39000 121.163
59.40000 119.805
59.41000 118.566
59.42000 117.180
59.43000 115.402
59.44000 113.604
59.45000 112.212
59.46000 111.558
59.47000 110.919
59.48000 110.569
59.49000 114.765
59.50000 117.647
59.51000 117.560
59.52000 115.142
59.53000 112.748
59.54000 111.357
59.55000 110.494
59.56000 109.668
59.57000 109.830
59.58000 110.314
59.59000 110.974
59.60000 113.267
59.61000 115.956
59.62000 118.292
59.63000 118.603
59.64000 118.594
59.65000 118.586
59.66000 124.396
59.67000 129.564
59.68000 131.954
59.69000 127.239
59.70000 122.168
59.71000 118.234
59.72000 116.283
59.73000 114.369
59.74000 113.338
59.75000 114.992
59.76000 116.121
59.77000 116.367
59.78000 115.944
59.79000 115.555
59.80000 116.421
59.81000 117.926
59.82000 119.365
59.83000 119.070
59.84000 118.236
59.85000 116.943
59.86000 111.608
59.87000 105.325
59.88000 100.688
59.89000 105.090
59.90000 110.867
59.91000 115.482
59.92000 116.424
59.93000 116.914
59.94000 117.752
59.95000 119.450
59.96000 121.187
59.97000 122.019
59.98000 121.325
59.99000 120.608
60.00000 120.229
60.01000 114.413
60.02000 110.484
60.03000 110.524
60.04000 113.454
60.05000 116.302
60.06000 116.361
60.07000 115.048
60.08000 113.797
60.09000 114.093
60.10000 114.848
60.11000 115.503
60.12000 115.311
60.13000 114.927
60.14000 114.749
60.15000 115.657
60.16000 116.724
60.17000 117.569
60.18000 114.259
60.19000 111.310
60.20000 110.382
60.21000 114.274
60.22000 118.375
60.23000 121.566
60.24000 123.281
60.25000 124.975
60.26000 125.853
60.27000 124.464
60.28000 123.518
60.29000 121.452
60.30000 118.600
60.31000 115.841
60.32000 115.981
60.33000 117.497
60.34000 118.936
60.35000 116.178
60.36000 112.377
60.37000 109.576
60.38000 114.816
60.39000 121.804
60.40000 126.733
60.41000 121.206
60.42000 114.220
60.43000 108.733
60.44000 108.716
60.45000 109.061
60.46000 110.332
60.47000 113.735
60.48000 117.224
60.49000 120.298
60.50000 122.723
60.51000 125.140
60.52000 126.368
60.53000 124.325
60.54000 122.949
60.55000 120.835
60.56000 118.222
60.57000 115.744
60.58000 117.126
60.59000 120.278
60.60000 123.259
60.61000 121.573
60.62000 118.682
60.63000 116.033
60.64000 115.252
60.65000 114.861
60.66000 115.171
60.67000 118.904
60.68000 123.095
60.69000 126.358
60.70000 124.802
60.71000 123.266
60.72000 121.530
60.73000 119.346
60.74000 117.145
60.75000 116.066
60.76000 116.680
60.77000 117.311
60.78000 119.546
60.79000 123.373
60.80000 127.143
60.81000 125.688
60.82000 120.827
60.83000 116.001
60.84000 112.113
60.85000 108.639
60.86000 105.365
60.87000 109.387
60.88000 115.084
60.89000 120.539
60.90000 124.211
60.91000 127.523
60.92000 130.014
60.93000 128.643
60.94000 126.779
60.95000 125.341
60.96000 120.291
60.97000 116.079
60.98000 111.960
60.99000 108.043
61.00000 104.132
61.01000 104.536
61.02000 111.220
61.03000 117.956
61.04000 120.657
61.05000 119.518
61.06000 118.416
61.07000 120.242
61.08000 123.908
61.09000 127.413
61.10000 126.997
61.11000 124.904
61.12000 122.940
61.13000 125.170
61.14000 128.318
61.15000 130.952
61.16000 129.971
61.17000 128.290
61.18000 126.549
61.19000 124.535
61.20000 122.489
61.21000 120.925
61.22000 119.452
61.23000 118.296
61.24000 118.875
61.25000 123.055
61.26000 127.346
61.27000 129.562
61.28000 128.867
61.29000 128.152
61.30000 127.200
61.31000 126.031
61.32000 124.905
61.33000 126.682
61.34000 130.220
61.35000 133.583
61.36000 133.030
61.37000 130.861
61.38000 128.831
61.39000 126.566
61.40000 124.449
61.41000 122.760
61.42000 123.952
61.43000 125.681
61.44000 127.445
61.45000 129.364
61.46000 131.301
61.47000 132.768
61.48000 140.609
61.49000 147.089
61.50000 154.469
61.51000 163.651
61.52000 172.884
61.53000 184.796
61.54000 200.327
61.55000 215.870
61.56000 224.804
61.57000 227.927
61.58000 231.151
61.59000 240.392
61.60000 253.155
61.61000 265.700
61.62000 273.697
61.63000 279.881
61.64000 285.642
61.65000 288.231
61.66000 289.795
61.67000 291.323
61.68000 292.619
61.69000 293.873
61.70000 295.008
61.71000 295.643
61.72000 296.222
61.73000 296.656
61.74000 292.923
61.75000 289.807
61.76000 282.960
61.77000 268.895
61.78000 254.647
61.79000 238.459
61.80000 219.747
61.81000 201.041
61.82000 187.019
61.83000 176.979
61.84000 167.033
61.85000 162.006
61.86000 159.755
61.87000 157.256
61.88000 149.929
61.89000 140.744
61.90000 132.222
61.91000 130.469
61.92000 130.483
61.93000 130.695
61.94000 132.132
61.95000 133.779
61.96000 134.849
61.97000 133.581
61.98000 132.066
61.99000 130.941
62.00000 131.869
62.01000 132.681
62.02000 132.574
62.03000 130.750
62.04000 128.887
62.05000 129.912
62.06000 134.558
62.07000 139.207
62.08000 138.051
62.09000 132.196
62.10000 126.384
62.11000 122.609
62.12000 119.945
62.13000 117.590
62.14000 120.848
62.15000 126.194
62.16000 131.132
62.17000 128.685
62.18000 124.822
62.19000 121.829
62.20000 124.012
62.21000 127.048
62.22000 129.500
62.23000 129.677
62.24000 129.626
62.25000 129.588
62.26000 127.279
62.27000 125.399
62.28000 124.310
62.29000 124.647
62.30000 125.013
62.31000 125.261
62.32000 125.368
62.33000 125.475
62.34000 125.525
62.35000 125.532
62.36000 125.517
62.37000 124.585
62.38000 123.171
62.39000 121.887
62.40000 122.814
62.41000 124.535
62.42000 126.117
62.43000 128.752
62.44000 131.334
62.45000 133.533
62.46000 133.550
62.47000 133.223
62.48000 132.552
62.49000 130.587
62.50000 128.499
62.51000 126.979
62.52000 125.517
62.53000 124.393
62.54000 123.466
62.55000 122.881
62.56000 122.301
62.57000 122.456
62.58000 123.461
62.59000 124.464
62.60000 127.202
62.61000 131.219
62.62000 135.147
62.63000 135.750
62.64000 134.663
62.65000 133.372
62.66000 128.819
62.67000 123.135
62.68000 117.932
62.69000 120.865
62.70000 125.168
62.71000 128.740
62.72000 128.307
62.73000 127.267
62.74000 126.188
62.75000 124.967
62.76000 123.732
62.77000 122.843
62.78000 124.068
62.79000 125.081
62.80000 126.554
62.81000 128.798
62.82000 131.055
62.83000 130.883
62.84000 128.001
62.85000 125.128
62.86000 123.494
62.87000 122.765
62.88000 122.130
62.89000 124.643
62.90000 128.701
62.91000 132.547
62.92000 133.246
62.93000 132.892
62.94000 132.569
62.95000 132.993
62.96000 133.518
62.97000 134.081
62.98000 134.851
62.99000 135.650
63.00000 135.488
63.01000 131.967
63.02000 128.156
63.03000 125.440
63.04000 126.155
63.05000 126.812
63.06000 127.935
63.07000 129.813
63.08000 131.701
63.09000 132.096
63.10000 130.892
63.11000 129.693
63.12000 130.339
63.13000 132.254
63.14000 134.096
63.15000 133.652
63.16000 132.126
63.17000 130.685
63.18000 130.456
63.19000 130.618
63.20000 130.765
63.21000 131.310
63.22000 131.865
63.23000 132.227
63.24000 131.606
63.25000 130.848
63.26000 130.433
63.27000 131.178
63.28000 132.017
63.29000 132.609
63.30000 132.635
63.31000 132.638
63.32000 133.361
63.33000 135.207
63.34000 137.066
63.35000 135.604
63.36000 130.725
63.37000 125.873
63.38000 128.249
63.39000 135.404
63.40000 142.365
63.41000 143.808
63.42000 142.727
63.43000 141.620
63.44000 140.157
63.45000 138.583
63.46000 137.162
63.47000 132.005
63.48000 126.790
63.49000 123.064
63.50000 126.592
63.51000 131.085
63.52000 134.069
63.53000 132.139
63.54000 129.831
63.55000 128.222
63.56000 133.822
63.57000 138.246
63.58000 140.142
63.59000 138.233
63.60000 136.285
63.61000 135.580
63.62000 136.101
63.63000 136.618
63.64000 135.506
63.65000 133.368
63.66000 131.579
63.67000 138.888
63.68000 150.212
63.69000 160.460
63.70000 157.194
63.71000 149.862
63.72000 143.279
63.73000 143.925
63.74000 145.760
63.75000 147.106
63.76000 146.164
63.77000 144.931
63.78000 144.130
63.79000 144.689
63.80000 145.347
63.81000 145.801
63.82000 142.576
63.83000 140.063
63.84000 138.612
63.85000 138.705
63.86000 138.811
63.87000 139.896
63.88000 141.909
63.89000 143.906
63.90000 141.264
63.91000 135.810
63.92000 130.747
63.93000 135.109
63.94000 143.488
63.95000 151.129
63.96000 150.000
63.97000 146.325
63.98000 143.044
63.99000 138.417
64.00000 134.162
64.01000 130.821
64.02000 131.606
64.03000 132.893
64.04000 135.011
64.05000 139.651
64.06000 144.464
64.07000 147.740
64.08000 149.204
64.09000 150.256
64.10000 150.266
64.11000 148.817
64.12000 147.357
64.13000 143.996
64.14000 138.902
64.15000 133.855
64.16000 132.752
64.17000 134.009
64.18000 135.369
64.19000 139.058
64.20000 143.705
64.21000 148.319
64.22000 152.554
64.23000 156.684
64.24000 160.353
64.25000 156.182
64.26000 151.304
64.27000 147.139
64.28000 146.073
64.29000 145.367
64.30000 144.513
64.31000 143.231
64.32000 141.921
64.33000 141.040
64.34000 149.266
64.35000 155.566
64.36000 157.331
64.37000 152.987
64.38000 148.615
64.39000 147.447
64.40000 149.088
64.41000 150.711
64.42000 154.336
64.43000 159.022
64.44000 163.442
64.45000 162.387
64.46000 159.154
64.47000 156.163
64.48000 155.760
64.49000 156.056
64.50000 156.318
64.51000 157.518
64.52000 158.700
64.53000 160.372
64.54000 164.101
64.55000 168.056
64.56000 169.834
64.57000 165.460
64.58000 160.714
64.59000 157.562
64.60000 162.152
64.61000 165.690
64.62000 167.860
64.63000 168.257
64.64000 168.648
64.65000 169.158
64.66000 169.769
64.67000 170.373
64.68000 173.649
64.69000 178.308
64.70000 182.667
64.71000 181.240
64.72000 177.592
64.73000 174.138
64.74000 172.654
64.75000 171.684
64.76000 170.831
64.77000 174.576
64.78000 178.472
64.79000 181.021
64.80000 178.140
64.81000 174.686
64.82000 172.351
64.83000 173.065
64.84000 173.952
64.85000 174.534
64.86000 179.150
64.87000 182.611
64.88000 184.120
64.89000 183.189
64.90000 182.250
64.91000 181.190
64.92000 180.031
64.93000 178.888
64.94000 179.837
64.95000 181.863
64.96000 183.817
64.97000 184.485
64.98000 184.675
64.99000 184.982
65.00000 186.421
65.01000 188.143
65.02000 189.648
65.03000 197.881
65.04000 205.874
65.05000 211.815
65.06000 209.783
65.07000 206.951
65.08000 204.946
65.09000 205.114
65.10000 205.398
65.11000 205.582
65.12000 209.692
65.13000 212.756
65.14000 212.262
65.15000 207.491
65.16000 202.745
65.17000 206.902
65.18000 218.004
65.19000 228.932
65.20000 229.978
65.21000 225.970
65.22000 222.483
65.23000 227.793
65.24000 236.251
65.25000 243.519
65.26000 239.852
65.27000 233.539
65.28000 228.059
65.29000 225.454
65.30000 223.621
65.31000 222.452
65.32000 223.772
65.33000 225.329
65.34000 228.805
65.35000 237.161
65.36000 245.758
65.37000 251.245
65.38000 252.273
65.39000 252.962
65.40000 256.025
65.41000 261.832
65.42000 267.635
65.43000 271.801
65.44000 274.740
65.45000 277.627
65.46000 280.374
65.47000 282.958
65.48000 285.841
65.49000 293.437
65.50000 302.662
65.51000 311.434
65.52000 316.239
65.53000 320.120
65.54000 323.468
65.55000 320.708
65.56000 317.585
65.57000 319.056
65.58000 337.126
65.59000 356.697
65.60000 373.724
65.61000 384.505
65.62000 394.998
65.63000 401.604
65.64000 436.234
65.65000 461.608
65.66000 498.781
65.67000 549.070
65.68000 599.457
65.69000 663.961
65.70000 738.682
65.71000 811.945
65.72000 922.142
65.73000 1045.628
65.74000 1169.219
65.75000 1294.370
65.76000 1420.041
65.77000 1542.279
65.78000 1635.849
65.79000 1722.984
65.80000 1797.680
65.81000 1850.837
65.82000 1893.096
65.83000 1931.983
65.84000 1959.115
65.85000 1985.240
65.86000 1994.508
65.87000 1963.787
65.88000 1931.364
65.89000 1911.242
65.90000 1907.067
65.91000 1904.219
65.92000 1863.128
65.93000 1781.196
65.94000 1699.095
65.95000 1596.778
65.96000 1480.362
65.97000 1366.462
65.98000 1238.039
65.99000 1108.214
66.00000 980.271
66.01000 878.691
66.02000 785.601
66.03000 696.212
66.04000 636.335
66.05000 582.836
66.06000 537.271
66.07000 503.895
66.08000 477.255
66.09000 452.017
66.10000 431.497
66.11000 411.359
66.12000 393.580
66.13000 381.206
66.14000 369.044
66.15000 361.607
66.16000 361.730
66.17000 361.881
66.18000 362.504
66.19000 363.609
66.20000 364.695
66.21000 363.661
66.22000 361.202
66.23000 358.801
66.24000 374.086
66.25000 396.417
66.26000 418.706
66.27000 440.438
66.28000 461.999
66.29000 483.357
66.30000 503.177
66.31000 522.678
66.32000 539.176
66.33000 559.717
66.34000 577.358
66.35000 591.604
66.36000 594.837
66.37000 597.225
66.38000 601.398
66.39000 609.521
66.40000 617.786
66.41000 622.766
66.42000 635.294
66.43000 644.261
66.44000 643.320
66.45000 632.624
66.46000 621.854
66.47000 604.406
66.48000 582.630
66.49000 561.422
66.50000 544.221
66.51000 529.506
66.52000 514.685
66.53000 498.542
66.54000 482.001
66.55000 465.239
66.56000 446.865
66.57000 428.168
66.58000 412.457
66.59000 400.834
66.60000 391.581
66.61000 382.481
66.62000 373.858
66.63000 365.269
66.64000 359.389
66.65000 359.296
66.66000 359.395
66.67000 359.453
66.68000 364.500
66.69000 368.098
66.70000 368.689
66.71000 366.436
66.72000 364.246
66.73000 366.850
66.74000 372.449
66.75000 377.888
66.76000 381.132
66.77000 383.327
66.78000 385.190
66.79000 383.142
66.80000 379.961
66.81000 376.291
66.82000 369.204
66.83000 361.459
66.84000 354.997
66.85000 363.043
66.86000 371.173
66.87000 376.374
66.88000 372.719
66.89000 368.460
66.90000 364.429
66.91000 360.867
66.92000 357.319
66.93000 355.247
66.94000 352.956
66.95000 351.345
66.96000 352.488
66.97000 356.131
66.98000 359.796
66.99000 364.913
67.00000 370.906
67.01000 376.713
67.02000 378.711
67.03000 379.122
67.04000 379.718
67.05000 382.382
67.06000 385.624
67.07000 388.584
67.08000 389.665
67.09000 390.397
67.10000 391.004
67.11000 392.988
67.12000 394.757
67.13000 393.492
67.14000 383.370
67.15000 372.680
67.16000 366.995
67.17000 371.277
67.18000 375.833
67.19000 378.450
67.20000 378.437
67.21000 378.421
67.22000 381.045
67.23000 385.974
67.24000 390.969
67.25000 399.768
67.26000 410.781
67.27000 421.423
67.28000 413.453
67.29000 398.978
67.30000 386.199
67.31000 391.439
67.32000 401.532
67.33000 410.047
67.34000 408.450
67.35000 405.055
67.36000 402.264
67.37000 404.116
67.38000 406.058
67.39000 408.006
67.40000 409.969
67.41000 411.933
67.42000 414.771
67.43000 419.286
67.44000 423.843
67.45000 426.418
67.46000 419.577
67.47000 414.805
67.48000 415.524
67.49000 420.855
67.50000 426.076
67.51000 425.712
67.52000 422.213
67.53000 418.842
67.54000 420.371
67.55000 423.571
67.56000 426.225
67.57000 423.369
67.58000 419.083
67.59000 416.772
67.60000 426.599
67.61000 438.497
67.62000 448.208
67.63000 455.880
67.64000 461.980
67.65000 465.584
67.66000 462.398
67.67000 458.828
67.68000 456.634
67.69000 456.994
67.70000 457.410
67.71000 457.641
67.72000 453.761
67.73000 451.080
67.74000 451.095
67.75000 453.288
67.76000 455.536
67.77000 460.292
67.78000 466.407
67.79000 472.282
67.80000 467.732
67.81000 459.863
67.82000 453.047
67.83000 456.332
67.84000 462.146
67.85000 468.505
67.86000 478.077
67.87000 488.176
67.88000 496.355
67.89000 488.477
67.90000 480.758
67.91000 476.962
67.92000 483.471
67.93000 490.523
67.94000 496.138
67.95000 499.179
67.96000 502.168
67.97000 503.799
67.98000 508.578
67.99000 511.856
68.00000 512.851
68.01000 512.073
68.02000 511.233
68.03000 507.893
68.04000 503.245
68.05000 498.793
68.06000 501.667
68.07000 506.787
68.08000 511.651
68.09000 514.180
68.10000 516.145
68.11000 519.121
68.12000 527.826
68.13000 537.431
68.14000 545.148
68.15000 540.891
68.16000 536.519
68.17000 532.391
68.18000 528.880
68.19000 525.399
68.20000 524.561
68.21000 528.291
68.22000 532.101
68.23000 534.143
68.24000 550.502
68.25000 561.664
68.26000 570.114
68.27000 576.533
68.28000 582.922
68.29000 588.245
68.30000 593.029
68.31000 597.598
68.32000 596.438
68.33000 593.526
68.34000 591.279
68.35000 594.827
68.36000 599.722
68.37000 604.831
68.38000 611.104
68.39000 617.551
68.40000 622.690
68.41000 626.799
68.42000 630.039
68.43000 633.656
68.44000 638.198
68.45000 642.781
68.46000 650.776
68.47000 664.461
68.48000 678.235
68.49000 685.476
68.50000 693.788
68.51000 699.432
68.52000 706.280
68.53000 713.997
68.54000 721.828
68.55000 733.453
68.56000 746.927
68.57000 759.751
68.58000 786.895
68.59000 816.428
68.60000 845.515
68.61000 870.894
68.62000 895.443
68.63000 923.372
68.64000 968.972
68.65000 1017.122
68.66000 1055.179
68.67000 1106.084
68.68000 1147.840
68.69000 1189.655
68.70000 1231.611
68.71000 1273.573
68.72000 1315.655
68.73000 1357.932
68.74000 1400.212
68.75000 1422.014
68.76000 1473.937
68.77000 1509.011
68.78000 1555.998
68.79000 1611.265
68.80000 1666.406
68.81000 1717.664
68.82000 1767.096
68.83000 1813.981
68.84000 1888.034
68.85000 1964.354
68.86000 2045.481
68.87000 2164.796
68.88000 2292.337
68.89000 2458.045
68.90000 2815.627
68.91000 3199.707
68.92000 3500.706
68.93000 4809.830
68.94000 5921.157
68.95000 7446.449
68.96000 9917.271
68.97000 12425.032
68.98000 15339.862
68.99000 18886.340
69.00000 22440.070
69.01000 24236.426
69.02000 29074.537
69.03000 32305.297
69.04000 34858.715
69.05000 36958.250
69.06000 39027.703
69.07000 40255.441
69.08000 41100.637
69.09000 41899.457
69.10000 42521.828
69.11000 43043.184
69.12000 43594.258
69.13000 44370.984
69.14000 45194.500
69.15000 45956.813
69.16000 46423.133
69.17000 46850.352
69.18000 47182.246
69.19000 46230.184
69.20000 45394.922
69.21000 43980.414
69.22000 41288.270
69.23000 38550.195
69.24000 35849.668
69.25000 33205.320
69.26000 30561.545
69.27000 28367.703
69.28000 26615.355
69.29000 24869.492
69.30000 23694.979
69.31000 22889.607
69.32000 22099.732
69.33000 21708.785
69.34000 21492.918
69.35000 21289.641
69.36000 20792.662
69.37000 20257.713
69.38000 19630.832
69.39000 18336.238
69.40000 16908.463
69.41000 15403.225
69.42000 13537.459
69.43000 11626.169
69.44000 10154.568
69.45000 8295.300
69.46000 6801.314
69.47000 5482.882
69.48000 4538.360
69.49000 3606.160
69.50000 2882.553
69.51000 2459.777
69.52000 2039.466
69.53000 1751.002
69.54000 1586.809
69.55000 1423.337
69.56000 1314.295
69.57000 1239.167
69.58000 1164.828
69.59000 1109.246
69.60000 1061.613
69.61000 1016.927
69.62000 973.980
69.63000 935.310
69.64000 897.920
69.65000 869.438
69.66000 842.664
69.67000 816.393
69.68000 792.371
69.69000 768.620
69.70000 750.500
69.71000 740.161
69.72000 732.431
69.73000 716.595
69.74000 684.088
69.75000 651.080
69.76000 634.511
69.77000 640.790
69.78000 647.215
69.79000 645.629
69.80000 636.800
69.81000 627.888
69.82000 613.594
69.83000 596.065
69.84000 578.859
69.85000 568.752
69.86000 561.551
69.87000 554.823
69.88000 548.065
69.89000 541.927
69.90000 534.919
69.91000 522.124
69.92000 508.261
69.93000 498.065
69.94000 503.693
69.95000 511.141
69.96000 516.770
69.97000 500.143
69.98000 485.992
69.99000 478.019
70.00000 482.313
