20.00000 486.750
20.01000 487.147
20.02000 487.601
20.03000 485.005
20.04000 470.410
20.05000 454.593
20.06000 442.927
20.07000 455.574
20.08000 466.392
20.09000 474.837
20.10000 478.968
20.11000 483.008
20.12000 483.718
20.13000 480.375
20.14000 477.028
20.15000 472.752
20.16000 467.767
20.17000 462.903
20.18000 463.245
20.19000 466.349
20.20000 469.076
20.21000 465.300
20.22000 459.167
20.23000 453.520
20.24000 454.132
20.25000 456.052
20.26000 458.786
20.27000 466.217
20.28000 474.399
20.29000 478.520
20.30000 467.241
20.31000 454.469
20.32000 445.145
20.33000 449.174
20.34000 452.801
20.35000 454.300
20.36000 452.067
20.37000 449.765
20.38000 454.877
20.39000 468.674
20.40000 482.449
20.41000 485.354
20.42000 480.022
20.43000 474.724
20.44000 470.741
20.45000 467.433
20.46000 464.037
20.47000 459.229
20.48000 453.928
20.49000 449.068
20.50000 455.271
20.51000 463.122
20.52000 470.267
20.53000 473.506
20.54000 476.147
20.55000 476.404
20.56000 467.946
20.57000 458.685
20.58000 451.995
20.59000 452.047
20.60000 452.331
20.61000 451.904
20.62000 450.273
20.63000 448.622
20.64000 449.686
20.65000 453.808
20.66000 457.920
20.67000 460.857
20.68000 462.916
20.69000 465.028
20.70000 468.971
20.71000 473.820
20.72000 477.698
20.73000 466.835
20.74000 450.996
20.75000 436.543
20.76000 443.036
20.77000 453.019
20.78000 461.373
20.79000 461.068
20.80000 459.492
20.81000 457.273
20.82000 452.785
20.83000 448.100
20.84000 444.752
20.85000 456.814
20.86000 466.535
20.87000 470.460
20.88000 464.921
20.89000 459.246
20.90000 458.316
20.91000 462.524
20.92000 466.715
20.93000 462.378
20.94000 452.124
20.95000 442.276
20.96000 445.314
20.97000 454.508
20.98000 463.083
20.99000 462.806
21.00000 459.644
21.01000 456.773
21.02000 450.340
21.03000 443.968
21.04000 440.347
21.05000 450.777
21.06000 463.185
21.07000 472.414
21.08000 470.826
21.09000 468.343
21.10000 466.588
21.11000 467.341
21.12000 467.989
21.13000 467.012
21.14000 463.474
21.15000 459.904
21.16000 456.822
21.17000 454.248
21.18000 451.688
21.19000 450.831
21.20000 451.130
21.21000 451.490
21.22000 453.607
21.23000 456.534
21.24000 459.452
21.25000 462.236
21.26000 464.978
21.27000 467.456
21.28000 472.192
21.29000 476.775
21.30000 478.667
21.31000 467.327
21.32000 454.205
21.33000 444.042
21.34000 443.597
21.35000 443.911
21.36000 444.130
21.37000 446.058
21.38000 447.562
21.39000 450.902
21.40000 457.029
21.41000 463.185
21.42000 468.253
21.43000 472.235
21.44000 476.191
21.45000 472.900
21.46000 464.969
21.47000 457.107
21.48000 451.063
21.49000 445.829
21.50000 441.123
21.51000 443.127
21.52000 447.169
21.53000 450.803
21.54000 452.153
21.55000 452.929
21.56000 454.029
21.57000 456.660
21.58000 459.487
21.59000 461.927
21.60000 463.137
21.61000 464.257
21.62000 465.031
21.63000 462.031
21.64000 459.679
21.65000 460.250
21.66000 465.104
21.67000 469.995
21.68000 469.281
21.69000 463.195
21.70000 457.156
21.71000 463.886
21.72000 478.446
21.73000 492.479
21.74000 493.544
21.75000 489.031
21.76000 485.093
21.77000 488.087
21.78000 493.111
21.79000 497.604
21.80000 503.840
21.81000 509.575
21.82000 514.450
21.83000 515.411
21.84000 515.891
21.85000 515.455
21.86000 512.216
21.87000 508.782
21.88000 506.437
21.89000 514.388
21.90000 520.575
21.91000 525.234
21.92000 527.733
21.93000 530.219
21.94000 538.576
21.95000 552.337
21.96000 565.976
21.97000 567.495
21.98000 561.732
21.99000 556.001
22.00000 550.988
22.01000 546.273
22.02000 542.379
22.03000 547.848
22.04000 555.963
22.05000 563.182
22.06000 565.380
22.07000 566.471
22.08000 566.818
22.09000 563.903
22.10000 560.606
22.11000 560.197
22.12000 568.321
22.13000 577.003
22.14000 582.859
22.15000 569.266
22.16000 558.740
22.17000 546.805
22.18000 532.952
22.19000 519.099
22.20000 517.399
22.21000 526.453
22.22000 535.413
22.23000 541.205
22.24000 545.046
22.25000 548.262
22.26000 538.296
22.27000 523.042
22.28000 509.220
22.29000 510.890
22.30000 516.781
22.31000 521.993
22.32000 507.307
22.33000 491.514
22.34000 480.604
22.35000 490.317
22.36000 502.339
22.37000 509.651
22.38000 503.536
22.39000 496.594
22.40000 491.970
22.41000 486.791
22.42000 482.947
22.43000 478.484
22.44000 473.210
22.45000 467.946
22.46000 470.742
22.47000 480.396
22.48000 489.936
22.49000 483.438
22.50000 468.214
22.51000 453.541
22.52000 449.681
22.53000 450.009
22.54000 450.163
22.55000 448.533
22.56000 446.434
22.57000 444.587
22.58000 441.341
22.59000 438.338
22.60000 436.503
22.61000 439.418
22.62000 442.840
22.63000 445.143
22.64000 444.367
22.65000 443.413
22.66000 442.786
22.67000 456.770
22.68000 467.317
22.69000 469.331
22.70000 460.582
22.71000 451.798
22.72000 442.845
22.73000 433.753
22.74000 424.784
22.75000 423.921
22.76000 427.405
22.77000 431.099
22.78000 438.645
22.79000 447.631
22.80000 455.488
22.81000 452.312
22.82000 446.339
22.83000 441.116
22.84000 438.283
22.85000 436.196
22.86000 433.825
22.87000 430.344
22.88000 426.751
22.89000 424.887
22.90000 427.621
22.91000 430.602
22.92000 432.538
22.93000 435.036
22.94000 436.875
22.95000 438.079
22.96000 438.515
22.97000 438.954
22.98000 440.837
22.99000 443.859
23.00000 446.835
23.01000 451.083
23.02000 455.855
23.03000 460.090
23.04000 455.119
23.05000 446.824
23.06000 439.174
23.07000 437.531
23.08000 437.354
23.09000 437.201
23.10000 439.660
23.11000 442.112
23.12000 442.711
23.13000 436.304
23.14000 429.221
23.15000 424.453
23.16000 425.624
23.17000 427.094
23.18000 428.036
23.19000 429.198
23.20000 430.047
23.21000 427.620
23.22000 421.369
23.23000 415.162
23.24000 419.770
23.25000 432.582
23.26000 445.175
23.27000 444.079
23.28000 436.257
23.29000 428.601
23.30000 423.596
23.31000 419.516
23.32000 416.184
23.33000 419.477
23.34000 424.329
23.35000 428.522
23.36000 423.846
23.37000 418.725
23.38000 415.628
23.39000 419.913
23.40000 424.875
23.41000 428.876
23.42000 430.499
23.43000 432.010
23.44000 432.965
23.45000 421.438
23.46000 412.940
23.47000 408.288
23.48000 407.957
23.49000 407.680
23.50000 415.997
23.51000 430.593
23.52000 444.912
23.53000 448.740
23.54000 447.442
23.55000 445.890
23.56000 440.499
23.57000 433.817
23.58000 427.834
23.59000 427.770
23.60000 429.047
23.61000 430.144
23.62000 433.946
23.63000 437.495
23.64000 437.886
23.65000 427.167
23.66000 415.482
23.67000 409.482
23.68000 417.086
23.69000 425.282
23.70000 430.386
23.71000 440.056
23.72000 447.070
23.73000 450.964
23.74000 451.492
23.75000 451.966
23.76000 445.444
23.77000 433.997
23.78000 422.792
23.79000 427.019
23.80000 438.139
23.81000 448.697
23.82000 451.252
23.83000 451.208
23.84000 450.194
23.85000 441.362
23.86000 430.823
23.87000 421.833
23.88000 421.956
23.89000 423.136
23.90000 422.580
23.91000 416.134
23.92000 409.204
23.93000 406.803
23.94000 414.869
23.95000 423.356
23.96000 428.565
23.97000 425.062
23.98000 422.476
23.99000 424.724
24.00000 431.981
24.01000 439.195
24.02000 441.560
24.03000 440.636
24.04000 439.733
24.05000 434.279
24.06000 427.056
24.07000 420.636
24.08000 425.006
24.09000 432.759
24.10000 438.920
24.11000 432.797
24.12000 424.094
24.13000 416.718
24.14000 417.803
24.15000 419.663
24.16000 422.090
24.17000 426.373
24.18000 430.799
24.19000 431.476
24.20000 423.781
24.21000 415.776
24.22000 410.934
24.23000 410.328
24.24000 409.926
24.25000 410.720
24.26000 412.703
24.27000 414.676
24.28000 415.658
24.29000 415.992
24.30000 416.318
24.31000 414.848
24.32000 412.685
24.33000 410.317
24.34000 405.344
24.35000 399.582
24.36000 395.092
24.37000 399.973
24.38000 406.748
24.39000 412.451
24.40000 412.641
24.41000 412.210
24.42000 411.956
24.43000 412.264
24.44000 412.614
24.45000 412.805
24.46000 412.657
24.47000 412.497
24.48000 412.402
24.49000 418.970
24.50000 423.663
24.51000 420.275
24.52000 409.168
24.53000 398.207
24.54000 398.868
24.55000 406.861
24.56000 414.631
24.57000 414.993
24.58000 412.317
24.59000 409.532
24.60000 405.447
24.61000 400.983
24.62000 396.828
24.63000 394.859
24.64000 393.314
24.65000 392.023
24.66000 395.783
24.67000 399.418
24.68000 401.782
24.69000 400.267
24.70000 398.483
24.71000 397.922
24.72000 399.905
24.73000 401.968
24.74000 403.177
24.75000 408.378
24.76000 412.060
24.77000 413.120
24.78000 411.775
24.79000 410.402
24.80000 407.204
24.81000 402.894
24.82000 398.715
24.83000 398.451
24.84000 399.737
24.85000 400.706
24.86000 398.076
24.87000 394.432
24.88000 391.402
24.89000 392.518
24.90000 394.408
24.91000 395.976
24.92000 393.608
24.93000 391.271
24.94000 390.972
24.95000 396.679
24.96000 402.776
24.97000 407.577
24.98000 409.773
24.99000 411.894
25.00000 413.119
25.01000 414.179
25.02000 414.915
25.03000 408.964
25.04000 397.114
25.05000 385.421
25.06000 383.023
25.07000 386.083
25.08000 389.042
25.09000 389.890
25.10000 389.893
25.11000 390.340
25.12000 395.562
25.13000 402.082
25.14000 407.816
25.15000 408.460
25.16000 408.190
25.17000 407.968
25.18000 401.471
25.19000 395.550
25.20000 392.653
25.21000 398.356
25.22000 404.585
25.23000 407.098
25.24000 402.401
25.25000 397.520
25.26000 394.750
25.27000 394.114
25.28000 393.682
25.29000 395.370
25.30000 398.857
25.31000 402.242
25.32000 400.301
25.33000 395.343
25.34000 390.561
25.35000 390.191
25.36000 391.447
25.37000 392.584
25.38000 392.511
25.39000 392.121
25.40000 391.703
25.41000 391.111
25.42000 390.489
25.43000 389.981
25.44000 386.453
25.45000 383.302
25.46000 382.231
25.47000 386.870
25.48000 391.836
25.49000 393.901
25.50000 390.532
25.51000 387.038
25.52000 385.089
25.53000 388.675
25.54000 391.165
25.55000 392.250
25.56000 392.189
25.57000 392.082
25.58000 389.878
25.59000 386.527
25.60000 383.305
25.61000 385.433
25.62000 389.297
25.63000 392.683
25.64000 391.414
25.65000 388.968
25.66000 386.557
25.67000 384.346
25.68000 382.169
25.69000 380.402
25.70000 385.241
25.71000 389.730
25.72000 392.375
25.73000 390.133
25.74000 387.628
25.75000 384.760
25.76000 381.235
25.77000 377.696
25.78000 375.757
25.79000 377.859
25.80000 379.315
25.81000 381.905
25.82000 385.383
25.83000 388.749
25.84000 387.380
25.85000 383.512
25.86000 379.803
25.87000 380.542
25.88000 382.728
25.89000 384.963
25.90000 387.660
25.91000 390.471
25.92000 391.699
25.93000 383.880
25.94000 374.624
25.95000 367.171
25.96000 376.035
25.97000 384.500
25.98000 389.365
25.99000 385.017
26.00000 380.208
26.01000 379.135
26.02000 384.577
26.03000 390.139
26.04000 393.132
26.05000 387.465
26.06000 383.594
26.07000 381.979
26.08000 382.070
26.09000 382.131
26.10000 381.093
26.11000 379.496
26.12000 377.969
26.13000 380.779
26.14000 384.796
26.15000 387.851
26.16000 382.427
26.17000 375.015
26.18000 370.056
26.19000 378.581
26.20000 389.159
26.21000 397.607
26.22000 388.092
26.23000 379.083
26.24000 373.011
26.25000 374.197
26.26000 375.720
26.27000 377.335
26.28000 379.107
26.29000 380.880
26.30000 381.817
26.31000 377.173
26.32000 374.030
26.33000 373.208
26.34000 374.077
26.35000 374.930
26.36000 375.205
26.37000 375.197
26.38000 375.190
26.39000 381.589
26.40000 389.511
26.41000 396.383
26.42000 394.416
26.43000 390.451
26.44000 385.654
26.45000 376.456
26.46000 366.615
26.47000 358.821
26.48000 366.469
26.49000 373.691
26.50000 378.961
26.51000 379.574
26.52000 379.985
26.53000 381.279
26.54000 384.005
26.55000 386.751
26.56000 388.174
26.57000 384.258
26.58000 381.595
26.59000 376.253
26.60000 369.031
26.61000 362.055
26.62000 362.752
26.63000 367.094
26.64000 371.216
26.65000 371.378
26.66000 370.343
26.67000 369.319
26.68000 368.382
26.69000 367.464
26.70000 367.440
26.71000 371.953
26.72000 377.099
26.73000 381.141
26.74000 383.274
26.75000 384.855
26.76000 384.995
26.77000 381.813
26.78000 378.499
26.79000 375.042
26.80000 371.361
26.81000 367.677
26.82000 365.805
26.83000 369.214
26.84000 371.521
26.85000 376.293
26.86000 382.733
26.87000 388.764
26.88000 383.111
26.89000 372.102
26.90000 361.686
26.91000 359.118
26.92000 359.013
26.93000 359.644
26.94000 365.919
26.95000 373.377
26.96000 379.318
26.97000 377.849
26.98000 375.390
26.99000 373.475
27.00000 374.647
27.01000 375.771
27.02000 376.539
27.03000 376.513
27.04000 376.459
27.05000 377.120
27.06000 378.861
27.07000 380.613
27.08000 380.486
27.09000 378.498
27.10000 376.535
27.11000 376.968
27.12000 378.962
27.13000 380.647
27.14000 374.197
27.15000 364.144
27.16000 354.669
27.17000 355.445
27.18000 358.988
27.19000 362.355
27.20000 364.435
27.21000 366.255
27.22000 367.539
27.23000 366.305
27.24000 364.748
27.25000 363.548
27.26000 366.848
27.27000 369.725
27.28000 370.093
27.29000 365.069
27.30000 359.863
27.31000 354.646
27.32000 349.412
27.33000 344.178
27.34000 344.377
27.35000 349.747
27.36000 355.094
27.37000 358.624
27.38000 361.013
27.39000 363.574
27.40000 370.334
27.41000 378.889
27.42000 386.923
27.43000 381.761
27.44000 373.549
27.45000 366.000
27.46000 363.113
27.47000 361.130
27.48000 360.775
27.49000 367.792
27.50000 375.708
27.51000 381.762
27.52000 375.750
27.53000 370.352
27.54000 367.255
27.55000 368.937
27.56000 370.765
27.57000 368.681
27.58000 361.109
27.59000 353.501
27.60000 354.149
27.61000 362.341
27.62000 370.425
27.63000 371.227
27.64000 367.611
27.65000 364.115
27.66000 363.332
27.67000 363.670
27.68000 363.985
27.69000 370.122
27.70000 377.182
27.71000 382.988
27.72000 380.355
27.73000 376.149
27.74000 372.101
27.75000 368.739
27.76000 365.456
27.77000 362.968
27.78000 359.982
27.79000 357.611
27.80000 358.402
27.81000 365.524
27.82000 372.823
27.83000 375.195
27.84000 370.906
27.85000 366.584
27.86000 363.427
27.87000 361.300
27.88000 359.172
27.89000 357.045
27.90000 354.919
27.91000 352.875
27.92000 352.544
27.93000 352.896
27.94000 353.224
27.95000 356.132
27.96000 359.396
27.97000 362.072
27.98000 360.957
27.99000 359.164
28.00000 358.868
28.01000 364.852
28.02000 371.534
28.03000 376.549
28.04000 375.420
28.05000 374.245
28.06000 371.538
28.07000 365.863
28.08000 360.114
28.09000 354.647
28.10000 349.549
28.11000 344.457
28.12000 346.115
28.13000 353.462
28.14000 360.631
28.15000 358.562
28.16000 351.275
28.17000 344.497
28.18000 347.603
28.19000 354.515
28.20000 360.928
28.21000 362.594
28.22000 362.977
28.23000 362.793
28.24000 359.098
28.25000 354.798
28.26000 353.492
28.27000 364.293
28.28000 376.374
28.29000 385.351
28.30000 371.405
28.31000 359.546
28.32000 352.316
28.33000 353.731
28.34000 355.342
28.35000 354.807
28.36000 351.581
28.37000 348.352
28.38000 345.606
28.39000 343.262
28.40000 340.960
28.41000 340.622
28.42000 341.355
28.43000 342.187
28.44000 344.829
28.45000 348.145
28.46000 351.208
28.47000 354.906
28.48000 358.368
28.49000 360.717
28.50000 356.465
28.51000 351.124
28.52000 346.944
28.53000 347.289
28.54000 348.091
28.55000 348.680
28.56000 354.291
28.57000 358.839
28.58000 359.448
28.59000 352.958
28.60000 346.323
28.61000 345.539
28.62000 351.812
28.63000 358.088
28.64000 357.813
28.65000 352.437
28.66000 347.235
28.67000 349.290
28.68000 355.163
28.69000 360.899
28.70000 364.322
28.71000 366.915
28.72000 369.299
28.73000 358.718
28.74000 346.453
28.75000 336.508
28.76000 339.799
28.77000 345.184
28.78000 349.375
28.79000 349.081
28.80000 348.358
28.81000 347.832
28.82000 345.580
28.83000 343.781
28.84000 345.814
28.85000 354.513
28.86000 363.332
28.87000 366.999
28.88000 364.687
28.89000 362.373
28.90000 359.111
28.91000 355.161
28.92000 351.268
28.93000 349.507
28.94000 348.829
28.95000 348.282
28.96000 349.831
28.97000 352.105
28.98000 354.187
28.99000 351.311
29.00000 347.720
29.01000 344.473
29.02000 343.113
29.03000 342.040
29.04000 341.442
29.05000 342.566
29.06000 343.846
29.07000 344.769
29.08000 340.754
29.09000 337.504
29.10000 336.676
29.11000 339.914
29.12000 343.216
29.13000 348.621
29.14000 356.370
29.15000 364.094
29.16000 363.250
29.17000 356.247
29.18000 349.361
29.19000 346.438
29.20000 345.458
29.21000 344.332
29.22000 341.023
29.23000 336.984
29.24000 333.303
29.25000 335.608
29.26000 338.844
29.27000 341.633
29.28000 342.068
29.29000 342.160
29.30000 342.497
29.31000 343.691
29.32000 344.958
29.33000 345.861
29.34000 347.484
29.35000 348.744
29.36000 347.248
29.37000 341.287
29.38000 335.266
29.39000 331.422
29.40000 329.911
29.41000 328.407
29.42000 335.033
29.43000 347.216
29.44000 358.981
29.45000 357.800
29.46000 350.490
29.47000 343.416
29.48000 339.660
29.49000 336.976
29.50000 334.542
29.51000 340.842
29.52000 348.072
29.53000 352.829
29.54000 345.075
29.55000 335.580
29.56000 329.016
29.57000 332.335
29.58000 336.460
29.59000 339.368
29.60000 344.777
29.61000 348.954
29.62000 352.200
29.63000 353.990
29.64000 355.762
29.65000 356.772
29.66000 356.996
29.67000 357.219
29.68000 359.960
29.69000 364.341
29.70000 368.425
29.71000 364.065
29.72000 355.846
29.73000 348.431
29.74000 351.706
29.75000 358.314
29.76000 364.278
29.77000 367.942
29.78000 370.740
29.79000 373.486
29.80000 375.975
29.81000 378.430
29.82000 380.997
29.83000 383.933
29.84000 386.897
29.85000 388.963
29.86000 393.358
29.87000 396.738
29.88000 398.932
29.89000 399.338
29.90000 399.726
29.91000 402.824
29.92000 408.599
29.93000 414.335
29.94000 417.227
29.95000 418.254
29.96000 419.243
29.97000 419.262
29.98000 418.851
29.99000 418.212
30.00000 414.708
30.01000 410.342
30.02000 406.422
30.03000 409.757
30.04000 413.948
30.05000 416.239
30.06000 409.630
30.07000 401.889
30.08000 396.336
30.09000 397.659
30.10000 399.482
30.11000 400.737
30.12000 395.274
30.13000 391.003
30.14000 388.602
30.15000 388.914
30.16000 389.249
30.17000 387.455
30.18000 383.642
30.19000 379.859
30.20000 376.440
30.21000 373.305
30.22000 370.260
30.23000 369.380
30.24000 369.423
30.25000 369.511
30.26000 370.135
30.27000 370.914
30.28000 371.609
30.29000 375.928
30.30000 380.299
30.31000 383.811
30.32000 383.447
30.33000 382.611
30.34000 381.651
30.35000 380.309
30.36000 378.941
30.37000 378.010
30.38000 375.632
30.39000 373.822
30.40000 371.379
30.41000 368.050
30.42000 364.718
30.43000 367.712
30.44000 376.471
30.45000 385.149
30.46000 380.771
30.47000 368.741
30.48000 357.234
30.49000 357.374
30.50000 362.309
30.51000 366.656
30.52000 364.385
30.53000 360.261
30.54000 356.597
30.55000 360.812
30.56000 365.736
30.57000 369.280
30.58000 366.835
30.59000 363.694
30.60000 362.056
30.61000 364.819
30.62000 367.866
30.63000 369.915
30.64000 367.198
30.65000 365.081
30.66000 364.683
30.67000 366.600
30.68000 368.529
30.69000 369.180
30.70000 368.711
30.71000 368.248
30.72000 371.523
30.73000 376.854
30.74000 381.698
30.75000 376.429
30.76000 367.139
30.77000 358.798
30.78000 360.587
30.79000 365.113
30.80000 369.111
30.81000 376.989
30.82000 384.388
30.83000 391.283
30.84000 396.067
30.85000 400.617
30.86000 406.191
30.87000 414.660
30.88000 423.303
30.89000 429.043
30.90000 428.337
30.91000 427.696
30.92000 434.991
30.93000 452.586
30.94000 470.209
30.95000 479.647
30.96000 482.188
30.97000 484.698
30.98000 489.567
30.99000 495.607
31.00000 502.159
31.01000 518.588
31.02000 538.808
31.03000 559.625
31.04000 586.485
31.05000 614.920
31.06000 639.896
31.07000 675.437
31.08000 707.544
31.09000 743.293
31.10000 793.723
31.11000 845.700
31.12000 899.855
31.13000 959.953
31.14000 1020.388
31.15000 1060.010
31.16000 1131.338
31.17000 1184.314
31.18000 1237.629
31.19000 1291.367
31.20000 1345.122
31.21000 1404.426
31.22000 1468.227
31.23000 1531.142
31.24000 1609.091
31.25000 1692.782
31.26000 1775.193
31.27000 1834.530
31.28000 1885.311
31.29000 1934.984
31.30000 1973.967
31.31000 2010.267
31.32000 2041.967
31.33000 2081.133
31.34000 2115.704
31.35000 2140.948
31.36000 2129.941
31.37000 2115.301
31.38000 2098.973
31.39000 2078.197
31.40000 2057.185
31.41000 2043.590
31.42000 1963.497
31.43000 1903.935
31.44000 1855.246
31.45000 1819.627
31.46000 1783.963
31.47000 1728.997
31.48000 1658.970
31.49000 1590.039
31.50000 1508.877
31.51000 1424.021
31.52000 1339.869
31.53000 1267.599
31.54000 1199.582
31.55000 1131.550
31.56000 1063.381
31.57000 995.179
31.58000 935.977
31.59000 875.266
31.60000 823.332
31.61000 774.158
31.62000 735.330
31.63000 697.487
31.64000 661.528
31.65000 630.363
31.66000 599.434
31.67000 579.692
31.68000 550.982
31.69000 529.979
31.70000 513.121
31.71000 501.056
31.72000 488.981
31.73000 473.925
31.74000 456.627
31.75000 439.633
31.76000 428.178
31.77000 419.825
31.78000 411.590
31.79000 405.237
31.80000 399.535
31.81000 393.408
31.82000 383.565
31.83000 372.855
31.84000 363.616
31.85000 366.430
31.86000 370.362
31.87000 372.501
31.88000 368.161
31.89000 363.235
31.90000 360.213
31.91000 361.864
31.92000 363.730
31.93000 364.905
31.94000 366.102
31.95000 366.968
31.96000 367.089
31.97000 366.379
31.98000 365.645
31.99000 360.974
32.00000 353.453
32.01000 346.079
32.02000 345.228
32.03000 347.478
32.04000 349.679
32.05000 351.158
32.06000 352.396
32.07000 353.119
32.08000 349.547
32.09000 345.011
32.10000 341.122
32.11000 341.595
32.12000 342.528
32.13000 341.868
32.14000 335.660
32.15000 328.977
32.16000 324.582
32.17000 325.620
32.18000 326.889
32.19000 327.676
32.20000 328.238
32.21000 328.640
32.22000 328.153
32.23000 326.715
32.24000 325.291
32.25000 325.653
32.26000 327.261
32.27000 328.834
32.28000 330.959
32.29000 333.248
32.30000 335.461
32.31000 336.595
32.32000 337.382
32.33000 337.896
32.34000 336.230
32.35000 334.092
32.36000 332.272
32.37000 327.401
32.38000 322.950
32.39000 320.457
32.40000 324.545
32.41000 329.168
32.42000 330.576
32.43000 324.616
32.44000 318.368
32.45000 314.546
32.46000 316.841
32.47000 318.534
32.48000 319.267
32.49000 319.014
32.50000 318.757
32.51000 318.040
32.52000 317.015
32.53000 316.014
32.54000 313.650
32.55000 310.794
32.56000 308.119
32.57000 307.821
32.58000 308.262
32.59000 308.663
32.60000 308.755
32.61000 308.783
32.62000 308.807
32.63000 305.565
32.64000 302.489
32.65000 301.318
32.66000 306.328
32.67000 311.812
32.68000 314.263
32.69000 310.005
32.70000 305.503
32.71000 302.791
32.72000 314.781
32.73000 323.415
32.74000 324.833
32.75000 319.144
32.76000 313.544
32.77000 315.840
32.78000 323.254
32.79000 330.475
32.80000 342.824
32.81000 356.749
32.82000 370.828
32.83000 386.829
32.84000 403.406
32.85000 419.012
32.86000 427.539
32.87000 434.649
32.88000 440.623
32.89000 452.415
32.90000 462.855
32.91000 476.445
32.92000 499.901
32.93000 524.072
32.94000 538.352
32.95000 531.500
32.96000 523.946
32.97000 519.465
32.98000 522.861
32.99000 525.310
33.00000 527.462
33.01000 529.332
33.02000 531.021
33.03000 518.815
33.04000 497.924
33.05000 477.628
33.06000 461.941
33.07000 448.900
33.08000 435.597
33.09000 419.190
33.10000 401.885
33.11000 384.740
33.12000 368.713
33.13000 352.901
33.14000 339.707
33.15000 336.089
33.16000 334.050
33.17000 329.844
33.18000 319.087
33.19000 307.884
33.20000 301.709
33.21000 305.907
33.22000 310.420
33.23000 313.055
33.24000 291.844
33.25000 276.819
33.26000 273.743
33.27000 281.521
33.28000 289.202
33.29000 290.353
33.30000 287.568
33.31000 284.870
33.32000 284.528
33.33000 285.120
33.34000 285.476
33.35000 283.187
33.36000 280.159
33.37000 278.527
33.38000 286.232
33.39000 295.663
33.40000 303.477
33.41000 296.267
33.42000 288.880
33.43000 283.854
33.44000 285.719
33.45000 288.025
33.46000 290.765
33.47000 294.369
33.48000 297.997
33.49000 300.082
33.50000 301.351
33.51000 302.229
33.52000 297.166
33.53000 286.914
33.54000 276.811
33.55000 275.299
33.56000 278.786
33.57000 282.156
33.58000 284.399
33.59000 286.094
33.60000 287.645
33.61000 287.676
33.62000 287.296
33.63000 287.524
33.64000 291.643
33.65000 296.453
33.66000 300.410
33.67000 295.999
33.68000 291.617
33.69000 289.025
33.70000 291.480
33.71000 294.238
33.72000 295.320
33.73000 293.179
33.74000 290.957
33.75000 289.702
33.76000 295.991
33.77000 300.378
33.78000 301.872
33.79000 300.936
33.80000 299.902
33.81000 293.855
33.82000 284.995
33.83000 276.457
33.84000 276.749
33.85000 280.202
33.86000 283.625
33.87000 286.754
33.88000 289.807
33.89000 292.568
33.90000 293.531
33.91000 294.188
33.92000 294.723
33.93000 289.989
33.94000 285.663
33.95000 283.444
33.96000 286.952
33.97000 290.784
33.98000 293.710
33.99000 294.953
34.00000 296.159
34.01000 296.828
34.02000 302.354
34.03000 306.164
34.04000 303.446
34.05000 295.452
34.06000 287.709
34.07000 291.351
34.08000 301.163
34.09000 310.591
34.10000 315.133
34.11000 317.695
34.12000 319.611
34.13000 315.320
34.14000 309.476
34.15000 304.308
34.16000 303.134
34.17000 302.613
34.18000 302.191
34.19000 313.021
34.20000 322.754
34.21000 327.876
34.22000 320.885
34.23000 313.255
34.24000 307.322
34.25000 304.429
34.26000 301.596
34.27000 300.050
34.28000 298.405
34.29000 297.290
34.30000 299.897
34.31000 305.400
34.32000 310.773
34.33000 310.835
34.34000 308.119
34.35000 305.517
34.36000 305.605
34.37000 306.583
34.38000 307.620
34.39000 309.208
34.40000 310.927
34.41000 311.550
34.42000 305.957
34.43000 299.387
34.44000 294.109
34.45000 290.490
34.46000 287.684
34.47000 289.042
34.48000 300.961
34.49000 313.400
34.50000 318.674
34.51000 311.560
34.52000 304.228
34.53000 300.300
34.54000 292.216
34.55000 286.710
34.56000 284.151
34.57000 283.800
34.58000 283.485
34.59000 284.489
34.60000 286.158
34.61000 287.753
34.62000 289.044
34.63000 290.146
34.64000 291.543
34.65000 295.507
34.66000 300.068
34.67000 303.035
34.68000 297.330
34.69000 290.318
34.70000 284.729
34.71000 288.416
34.72000 292.065
34.73000 294.427
34.74000 293.634
34.75000 292.696
34.76000 288.901
34.77000 280.339
34.78000 271.703
34.79000 267.163
34.80000 273.623
34.81000 277.994
34.82000 280.349
34.83000 281.246
34.84000 282.109
34.85000 281.797
34.86000 280.912
34.87000 280.069
34.88000 275.396
34.89000 269.891
34.90000 265.405
34.91000 269.399
34.92000 275.290
34.93000 280.514
34.94000 282.247
34.95000 283.476
34.96000 284.448
34.97000 276.228
34.98000 268.998
34.99000 264.119
35.00000 264.800
35.01000 265.718
35.02000 268.792
35.03000 275.338
35.04000 281.930
35.05000 285.329
35.06000 271.673
35.07000 262.519
35.08000 259.451
35.09000 260.615
35.10000 261.904
35.11000 266.999
35.12000 273.886
35.13000 280.418
35.14000 274.146
35.15000 264.572
35.16000 255.865
35.17000 254.040
35.18000 253.699
35.19000 254.367
35.20000 260.106
35.21000 266.546
35.22000 271.594
35.23000 267.624
35.24000 263.870
35.25000 262.051
35.26000 264.655
35.27000 267.431
35.28000 270.863
35.29000 275.312
35.30000 279.773
35.31000 282.028
35.32000 266.943
35.33000 256.926
35.34000 255.049
35.35000 258.626
35.36000 262.017
35.37000 260.185
35.38000 255.978
35.39000 252.002
35.40000 256.872
35.41000 263.864
35.42000 269.655
35.43000 266.323
35.44000 261.100
35.45000 256.966
35.46000 258.104
35.47000 259.939
35.48000 261.364
35.49000 263.681
35.50000 265.578
35.51000 265.339
35.52000 260.387
35.53000 255.265
35.54000 252.981
35.55000 254.942
35.56000 256.944
35.57000 258.710
35.58000 260.243
35.59000 261.736
35.60000 259.738
35.61000 255.484
35.62000 251.449
35.63000 253.056
35.64000 257.138
35.65000 260.983
35.66000 267.023
35.67000 273.149
35.68000 277.771
35.69000 271.462
35.70000 262.973
35.71000 254.856
35.72000 248.468
35.73000 242.298
35.74000 237.548
35.75000 242.021
35.76000 246.089
35.77000 250.971
35.78000 257.589
35.79000 264.264
35.80000 266.717
35.81000 263.079
35.82000 259.393
35.83000 256.629
35.84000 254.735
35.85000 252.857
35.86000 252.209
35.87000 252.328
35.88000 252.338
35.89000 249.764
35.90000 246.095
35.91000 242.654
35.92000 245.216
35.93000 249.130
35.94000 253.048
35.95000 256.997
35.96000 260.953
35.97000 263.919
35.98000 262.453
35.99000 260.453
36.00000 258.927
36.01000 258.585
36.02000 258.378
36.03000 257.542
36.04000 255.411
36.05000 253.241
36.06000 253.602
36.07000 257.483
36.08000 261.385
36.09000 260.177
36.10000 254.346
36.11000 248.577
36.12000 246.831
36.13000 247.502
36.14000 248.328
36.15000 252.580
36.16000 258.233
36.17000 263.516
36.18000 265.017
36.19000 265.423
36.20000 265.242
36.21000 261.150
36.22000 256.337
36.23000 252.016
36.24000 249.821
36.25000 247.871
36.26000 246.397
36.27000 245.393
36.28000 244.629
36.29000 245.431
36.30000 249.342
36.31000 253.337
36.32000 251.623
36.33000 242.264
36.34000 232.871
36.35000 230.692
36.36000 234.784
36.37000 238.908
36.38000 244.888
36.39000 251.945
36.40000 258.810
36.41000 261.758
36.42000 263.157
36.43000 264.459
36.44000 262.029
36.45000 258.928
36.46000 256.190
36.47000 255.776
36.48000 255.774
36.49000 255.387
36.50000 253.403
36.51000 251.243
36.52000 249.626
36.53000 244.196
36.54000 239.781
36.55000 241.112
36.56000 253.460
36.57000 266.080
36.58000 269.825
36.59000 262.125
36.60000 254.389
36.61000 255.070
36.62000 262.774
36.63000 270.291
36.64000 268.340
36.65000 261.088
36.66000 254.306
36.67000 256.502
36.68000 262.124
36.69000 267.335
36.70000 265.491
36.71000 262.187
36.72000 259.112
36.73000 257.433
36.74000 255.993
36.75000 254.591
36.76000 253.346
36.77000 252.118
36.78000 251.207
36.79000 254.130
36.80000 256.566
36.81000 258.274
36.82000 258.634
36.83000 258.965
36.84000 259.605
36.85000 260.631
36.86000 261.656
36.87000 265.400
36.88000 271.312
36.89000 277.128
36.90000 278.650
36.91000 277.851
36.92000 276.994
36.93000 275.097
36.94000 272.816
36.95000 270.711
36.96000 268.203
36.97000 265.865
36.98000 263.451
36.99000 260.593
37.00000 257.663
37.01000 255.329
37.02000 255.295
37.03000 255.490
37.04000 255.633
37.05000 264.198
37.06000 271.157
37.07000 275.074
37.08000 273.558
37.09000 271.934
37.10000 271.486
37.11000 272.443
37.12000 273.400
37.13000 272.078
37.14000 269.007
37.15000 266.062
37.16000 268.261
37.17000 273.143
37.18000 277.515
37.19000 273.372
37.20000 266.199
37.21000 259.608
37.22000 256.084
37.23000 253.596
37.24000 251.679
37.25000 252.986
37.26000 254.797
37.27000 256.036
37.28000 255.150
37.29000 254.062
37.30000 253.272
37.31000 256.717
37.32000 259.525
37.33000 260.625
37.34000 258.781
37.35000 256.886
37.36000 254.683
37.37000 252.125
37.38000 249.574
37.39000 248.496
37.40000 248.517
37.41000 248.571
37.42000 249.847
37.43000 251.738
37.44000 253.625
37.45000 255.466
37.46000 257.290
37.47000 258.958
37.48000 255.991
37.49000 252.399
37.50000 249.839
37.51000 252.878
37.52000 256.757
37.53000 259.679
37.54000 259.162
37.55000 258.338
37.56000 257.746
37.57000 253.718
37.58000 250.517
37.59000 247.124
37.60000 243.412
37.61000 239.695
37.62000 240.945
37.63000 247.680
37.64000 254.394
37.65000 254.381
37.66000 249.575
37.67000 245.002
37.68000 248.206
37.69000 255.188
37.70000 261.702
37.71000 261.302
37.72000 258.608
37.73000 256.157
37.74000 247.960
37.75000 239.572
37.76000 232.751
37.77000 234.099
37.78000 236.623
37.79000 239.633
37.80000 244.333
37.81000 249.176
37.82000 252.618
37.83000 256.067
37.84000 258.693
37.85000 257.726
37.86000 250.992
37.87000 244.183
37.88000 241.984
37.89000 244.678
37.90000 247.361
37.91000 248.104
37.92000 247.509
37.93000 246.922
37.94000 246.557
37.95000 246.297
37.96000 245.972
37.97000 244.766
37.98000 243.276
37.99000 241.927
38.00000 246.647
38.01000 251.955
38.02000 256.440
38.03000 256.798
38.04000 256.589
38.05000 255.681
38.06000 252.435
38.07000 249.001
38.08000 246.587
38.09000 252.712
38.10000 257.602
38.11000 260.239
38.12000 259.391
38.13000 258.504
38.14000 256.817
38.15000 254.317
38.16000 251.831
38.17000 256.238
38.18000 265.131
38.19000 273.865
38.20000 278.172
38.21000 280.473
38.22000 282.465
38.23000 280.419
38.24000 277.125
38.25000 274.157
38.26000 277.184
38.27000 280.928
38.28000 284.953
38.29000 290.330
38.30000 295.886
38.31000 301.328
38.32000 306.407
38.33000 311.457
38.34000 314.967
38.35000 316.552
38.36000 317.694
38.37000 328.849
38.38000 354.940
38.39000 381.174
38.40000 397.500
38.41000 404.137
38.42000 410.727
38.43000 420.708
38.44000 432.682
38.45000 444.907
38.46000 463.540
38.47000 484.978
38.48000 506.309
38.49000 526.306
38.50000 545.906
38.51000 563.480
38.52000 596.233
38.53000 627.489
38.54000 655.907
38.55000 671.149
38.56000 684.733
38.57000 702.265
38.58000 732.088
38.59000 762.792
38.60000 783.882
38.61000 819.690
38.62000 846.901
38.63000 860.524
38.64000 854.607
38.65000 848.539
38.66000 856.870
38.67000 878.726
38.68000 900.402
38.69000 912.605
38.70000 918.809
38.71000 925.158
38.72000 934.943
38.73000 946.178
38.74000 954.966
38.75000 935.075
38.76000 906.932
38.77000 881.831
38.78000 855.511
38.79000 832.409
38.80000 807.848
38.81000 776.771
38.82000 744.910
38.83000 715.418
38.84000 693.041
38.85000 671.144
38.86000 656.283
38.87000 635.743
38.88000 620.294
38.89000 597.479
38.90000 564.460
38.91000 531.381
38.92000 507.865
38.93000 492.979
38.94000 478.235
38.95000 459.908
38.96000 439.856
38.97000 419.716
38.98000 397.656
38.99000 374.811
39.00000 352.618
39.01000 337.658
39.02000 324.706
39.03000 313.216
39.04000 305.211
39.05000 298.832
39.06000 293.696
39.07000 293.912
39.08000 294.742
39.09000 292.785
39.10000 282.746
39.11000 272.193
39.12000 265.118
39.13000 256.425
39.14000 249.941
39.15000 249.088
39.16000 255.751
39.17000 262.441
39.18000 260.966
39.19000 252.406
39.20000 243.941
39.21000 238.447
39.22000 234.757
39.23000 231.230
39.24000 230.988
39.25000 232.041
39.26000 233.350
39.27000 237.352
39.28000 242.076
39.29000 246.242
39.30000 247.885
39.31000 248.917
39.32000 249.181
39.33000 246.263
39.34000 242.997
39.35000 238.064
39.36000 228.460
39.37000 218.578
39.38000 212.037
39.39000 221.898
39.40000 229.475
39.41000 234.730
39.42000 237.002
39.43000 239.258
39.44000 239.894
39.45000 239.177
39.46000 238.469
39.47000 239.611
39.48000 241.729
39.49000 243.587
39.50000 240.529
39.51000 235.599
39.52000 231.191
39.53000 231.999
39.54000 234.153
39.55000 236.042
39.56000 230.985
39.57000 225.632
39.58000 220.676
39.59000 217.307
39.60000 214.102
39.61000 215.006
39.62000 227.021
39.63000 239.656
39.64000 247.912
39.65000 239.736
39.66000 233.468
39.67000 227.980
39.68000 223.459
39.69000 218.952
39.70000 218.725
39.71000 221.934
39.72000 225.097
39.73000 226.675
39.74000 227.379
39.75000 227.817
39.76000 223.563
39.77000 217.583
39.78000 212.330
39.79000 214.010
39.80000 217.415
39.81000 220.383
39.82000 218.803
39.83000 216.820
39.84000 216.297
39.85000 221.395
39.86000 227.050
39.87000 229.592
39.88000 224.005
39.89000 217.994
39.90000 214.118
39.91000 216.376
39.92000 218.114
39.93000 222.878
39.94000 231.245
39.95000 239.578
39.96000 237.679
39.97000 227.873
39.98000 218.224
39.99000 218.852
40.00000 224.634
40.01000 229.857
40.02000 225.799
40.03000 218.448
40.04000 212.084
40.05000 214.679
40.06000 219.421
40.07000 223.531
40.08000 230.922
40.09000 237.649
40.10000 241.650
40.11000 235.526
40.12000 228.450
40.13000 223.414
40.14000 223.525
40.15000 223.885
40.16000 224.114
40.17000 224.441
40.18000 224.679
40.19000 221.375
40.20000 214.015
40.21000 206.685
40.22000 205.767
40.23000 209.622
40.24000 213.408
40.25000 217.170
40.26000 220.789
40.27000 224.158
40.28000 223.619
40.29000 221.742
40.30000 220.381
40.31000 223.489
40.32000 227.629
40.33000 231.195
40.34000 226.052
40.35000 220.591
40.36000 216.736
40.37000 218.636
40.38000 221.049
40.39000 222.521
40.40000 221.697
40.41000 220.770
40.42000 220.189
40.43000 216.762
40.44000 214.256
40.45000 213.357
40.46000 214.227
40.47000 215.083
40.48000 213.437
40.49000 209.998
40.50000 206.629
40.51000 209.382
40.52000 214.885
40.53000 220.090
40.54000 220.919
40.55000 220.300
40.56000 219.732
40.57000 219.580
40.58000 219.519
40.59000 219.468
40.60000 214.665
40.61000 210.040
40.62000 207.243
40.63000 210.758
40.64000 214.807
40.65000 216.174
40.66000 211.230
40.67000 206.022
40.68000 202.802
40.69000 211.317
40.70000 217.546
40.71000 218.042
40.72000 212.476
40.73000 206.947
40.74000 206.061
40.75000 208.383
40.76000 210.654
40.77000 209.250
40.78000 206.253
40.79000 203.651
40.80000 206.480
40.81000 211.043
40.82000 215.071
40.83000 214.880
40.84000 213.785
40.85000 212.855
40.86000 212.258
40.87000 211.796
40.88000 211.217
40.89000 210.245
40.90000 209.241
40.91000 209.028
40.92000 210.608
40.93000 212.258
40.94000 213.263
40.95000 208.355
40.96000 204.800
40.97000 203.619
40.98000 204.848
40.99000 206.089
41.00000 208.507
41.01000 211.709
41.02000 214.833
41.03000 214.115
41.04000 211.770
41.05000 209.530
41.06000 208.654
41.07000 208.199
41.08000 206.994
41.09000 200.132
41.10000 192.106
41.11000 185.326
41.12000 190.267
41.13000 195.684
41.14000 198.613
41.15000 193.543
41.16000 187.867
41.17000 187.258
41.18000 197.761
41.19000 208.658
41.20000 215.198
41.21000 212.932
41.22000 211.263
41.23000 210.181
41.24000 209.673
41.25000 209.139
41.26000 206.463
41.27000 202.410
41.28000 198.465
41.29000 201.708
41.30000 207.785
41.31000 213.210
41.32000 210.616
41.33000 205.638
41.34000 201.704
41.35000 205.302
41.36000 210.393
41.37000 214.663
41.38000 211.694
41.39000 208.467
41.40000 204.877
41.41000 200.158
41.42000 195.358
41.43000 194.358
41.44000 201.403
41.45000 208.710
41.46000 213.027
41.47000 209.545
41.48000 207.042
41.49000 206.390
41.50000 207.473
41.51000 208.539
41.52000 208.435
41.53000 207.607
41.54000 206.803
41.55000 205.396
41.56000 203.820
41.57000 202.198
41.58000 200.031
41.59000 197.709
41.60000 195.851
41.61000 197.198
41.62000 199.156
41.63000 200.788
41.64000 200.558
41.65000 200.183
41.66000 201.175
41.67000 206.262
41.68000 211.623
41.69000 213.667
41.70000 208.927
41.71000 203.986
41.72000 201.112
41.73000 201.708
41.74000 202.141
41.75000 200.956
41.76000 198.316
41.77000 195.705
41.78000 194.945
41.79000 195.291
41.80000 195.625
41.81000 197.887
41.82000 200.768
41.83000 203.393
41.84000 203.200
41.85000 202.226
41.86000 201.597
41.87000 203.241
41.88000 205.301
41.89000 207.005
41.90000 206.070
41.91000 205.051
41.92000 202.883
41.93000 197.391
41.94000 191.690
41.95000 189.107
41.96000 192.678
41.97000 196.416
41.98000 198.554
41.99000 208.587
42.00000 215.613
42.01000 216.985
42.02000 213.470
42.03000 209.918
42.04000 204.350
42.05000 197.620
42.06000 191.122
42.07000 194.035
42.08000 200.265
42.09000 206.223
42.10000 209.320
42.11000 211.653
42.12000 214.031
42.13000 216.694
42.14000 219.407
42.15000 221.633
42.16000 215.666
42.17000 210.035
42.18000 204.177
42.19000 197.683
42.20000 191.152
42.21000 188.817
42.22000 194.480
42.23000 200.337
42.24000 203.632
42.25000 198.339
42.26000 194.651
42.27000 195.024
42.28000 198.775
42.29000 202.501
42.30000 205.034
42.31000 206.903
42.32000 208.703
42.33000 204.549
42.34000 198.528
42.35000 193.143
42.36000 194.088
42.37000 196.663
42.38000 199.064
42.39000 200.406
42.40000 201.569
42.41000 202.516
42.42000 197.109
42.43000 192.152
42.44000 189.257
42.45000 191.919
42.46000 194.889
42.47000 196.426
42.48000 195.327
42.49000 194.171
42.50000 193.531
42.51000 197.798
42.52000 200.738
42.53000 199.363
42.54000 194.535
42.55000 189.793
42.56000 188.880
42.57000 190.023
42.58000 191.121
42.59000 193.126
42.60000 195.312
42.61000 197.063
42.62000 194.681
42.63000 191.274
42.64000 188.556
42.65000 189.861
42.66000 191.818
42.67000 193.400
42.68000 191.534
42.69000 189.739
42.70000 189.545
42.71000 193.516
42.72000 197.702
42.73000 201.092
42.74000 203.069
42.75000 205.018
42.76000 206.076
42.77000 196.817
42.78000 190.479
42.79000 189.569
42.80000 192.842
42.81000 196.014
42.82000 195.183
42.83000 192.277
42.84000 189.495
42.85000 193.580
42.86000 199.651
42.87000 204.780
42.88000 201.390
42.89000 195.964
42.90000 191.183
42.91000 190.015
42.92000 189.409
42.93000 188.924
42.94000 188.912
42.95000 188.939
42.96000 189.943
42.97000 193.403
42.98000 196.981
42.99000 199.666
43.00000 200.821
43.01000 201.949
43.02000 202.551
43.03000 199.575
43.04000 197.561
43.05000 198.718
43.06000 202.229
43.07000 205.594
43.08000 203.718
43.09000 199.220
43.10000 194.929
43.11000 194.464
43.12000 195.245
43.13000 195.855
43.14000 194.982
43.15000 193.767
43.16000 193.140
43.17000 195.677
43.18000 198.685
43.19000 201.077
43.20000 198.893
43.21000 196.805
43.22000 195.013
43.23000 193.942
43.24000 192.903
43.25000 191.249
43.26000 188.579
43.27000 185.894
43.28000 184.488
43.29000 186.464
43.30000 187.796
43.31000 188.177
43.32000 187.879
43.33000 187.586
43.34000 187.488
43.35000 187.485
43.36000 187.482
43.37000 190.932
43.38000 195.176
43.39000 198.737
43.40000 196.686
43.41000 193.391
43.42000 190.929
43.43000 192.785
43.44000 195.258
43.45000 197.208
43.46000 193.180
43.47000 189.545
43.48000 187.382
43.49000 188.666
43.50000 190.093
43.51000 190.167
43.52000 188.084
43.53000 185.973
43.54000 184.890
43.55000 188.134
43.56000 190.288
43.57000 188.970
43.58000 185.260
43.59000 181.656
43.60000 181.186
43.61000 182.180
43.62000 183.121
43.63000 184.528
43.64000 185.960
43.65000 187.185
43.66000 186.783
43.67000 186.033
43.68000 185.811
43.69000 188.222
43.70000 190.992
43.71000 193.158
43.72000 193.242
43.73000 193.176
43.74000 191.735
43.75000 187.180
43.76000 182.506
43.77000 180.287
43.78000 181.845
43.79000 183.444
43.80000 184.248
43.81000 199.293
43.82000 209.229
43.83000 207.698
43.84000 198.553
43.85000 189.656
43.86000 187.552
43.87000 188.509
43.88000 189.413
43.89000 185.008
43.90000 179.470
43.91000 175.353
43.92000 181.901
43.93000 190.639
43.94000 197.741
43.95000 197.009
43.96000 195.252
43.97000 193.891
43.98000 200.612
43.99000 206.436
44.00000 209.938
44.01000 208.363
44.02000 206.609
44.03000 203.540
44.04000 198.523
44.05000 193.487
44.06000 189.963
44.07000 187.908
44.08000 185.859
44.09000 184.423
44.10000 183.379
44.11000 182.507
44.12000 185.972
44.13000 191.324
44.14000 196.360
44.15000 196.715
44.16000 195.771
44.17000 194.560
44.18000 191.423
44.19000 187.906
44.20000 184.992
44.21000 184.857
44.22000 185.069
44.23000 185.232
44.24000 184.608
44.25000 184.071
44.26000 185.982
44.27000 193.065
44.28000 200.315
44.29000 204.635
44.30000 204.768
44.31000 204.870
44.32000 201.517
44.33000 194.945
44.34000 188.471
44.35000 189.133
44.36000 194.203
44.37000 199.027
44.38000 198.118
44.39000 194.800
44.40000 191.690
44.41000 191.024
44.42000 191.055
44.43000 191.687
44.44000 196.462
44.45000 202.023
44.46000 205.696
44.47000 200.990
44.48000 195.285
44.49000 190.942
44.50000 196.294
44.51000 201.015
44.52000 203.960
44.53000 203.284
44.54000 202.502
44.55000 203.853
44.56000 208.141
44.57000 212.446
44.58000 213.282
44.59000 211.012
44.60000 208.809
44.61000 210.859
44.62000 215.443
44.63000 219.788
44.64000 218.974
44.65000 216.065
44.66000 213.350
44.67000 211.032
44.68000 209.029
44.69000 207.703
44.70000 210.831
44.71000 214.772
44.72000 217.868
44.73000 217.351
44.74000 216.424
44.75000 215.725
44.76000 227.466
44.77000 237.272
44.78000 242.288
44.79000 237.872
44.80000 233.204
44.81000 233.618
44.82000 240.770
44.83000 247.950
44.84000 249.197
44.85000 245.339
44.86000 241.674
44.87000 248.777
44.88000 262.070
44.89000 274.766
44.90000 275.453
44.91000 271.435
44.92000 267.700
44.93000 270.122
44.94000 273.787
44.95000 277.532
44.96000 281.780
44.97000 286.116
44.98000 288.629
44.99000 283.629
45.00000 277.814
45.01000 273.472
45.02000 274.123
45.03000 274.860
45.04000 276.627
45.05000 280.352
45.06000 284.125
45.07000 286.087
45.08000 285.735
45.09000 285.376
45.10000 281.565
45.11000 274.914
45.12000 268.382
45.13000 267.774
45.14000 270.452
45.15000 272.913
45.16000 271.313
45.17000 268.178
45.18000 265.275
45.19000 263.604
45.20000 262.387
45.21000 261.493
45.22000 262.559
45.23000 263.956
45.24000 262.988
45.25000 252.636
45.26000 241.316
45.27000 232.946
45.28000 242.089
45.29000 249.929
45.30000 254.251
45.31000 252.121
45.32000 249.852
45.33000 244.166
45.34000 234.277
45.35000 224.395
45.36000 222.741
45.37000 227.629
45.38000 232.438
45.39000 233.776
45.40000 233.255
45.41000 232.978
45.42000 236.962
45.43000 242.502
45.44000 247.610
45.45000 244.313
45.46000 239.502
45.47000 234.120
45.48000 225.417
45.49000 216.178
45.50000 208.448
45.51000 206.494
45.52000 205.107
45.53000 204.092
45.54000 209.995
45.55000 214.825
45.56000 217.016
45.57000 214.533
45.58000 211.961
45.59000 209.187
45.60000 206.174
45.61000 203.169
45.62000 204.269
45.63000 208.498
45.64000 212.548
45.65000 209.567
45.66000 202.951
45.67000 196.500
45.68000 192.758
45.69000 189.971
45.70000 187.414
45.71000 191.697
45.72000 196.968
45.73000 200.719
45.74000 195.977
45.75000 189.919
45.76000 186.487
45.77000 192.744
45.78000 199.904
45.79000 205.090
45.80000 202.161
45.81000 199.613
45.82000 197.326
45.83000 195.486
45.84000 193.652
45.85000 194.007
45.86000 196.851
45.87000 199.688
45.88000 194.920
45.89000 184.607
45.90000 174.630
45.91000 176.612
45.92000 184.563
45.93000 192.016
45.94000 191.774
45.95000 188.912
45.96000 186.298
45.97000 189.615
45.98000 193.769
45.99000 196.816
46.00000 193.925
46.01000 190.151
46.02000 186.019
46.03000 180.607
46.04000 175.082
46.05000 171.123
46.06000 180.074
46.07000 187.353
46.08000 189.044
46.09000 181.524
46.10000 173.867
46.11000 171.422
46.12000 174.675
46.13000 177.917
46.14000 181.206
46.15000 184.496
46.16000 187.605
46.17000 184.852
46.18000 179.274
46.19000 174.174
46.20000 176.003
46.21000 180.109
46.22000 183.842
46.23000 183.115
46.24000 181.601
46.25000 179.645
46.26000 175.405
46.27000 170.840
46.28000 167.291
46.29000 167.225
46.30000 167.452
46.31000 167.613
46.32000 175.125
46.33000 181.067
46.34000 183.380
46.35000 179.924
46.36000 176.395
46.37000 173.786
46.38000 172.143
46.39000 170.509
46.40000 170.428
46.41000 171.403
46.42000 172.398
46.43000 174.017
46.44000 175.925
46.45000 177.596
46.46000 176.031
46.47000 173.438
46.48000 171.093
46.49000 170.599
46.50000 170.511
46.51000 170.107
46.52000 168.130
46.53000 165.939
46.54000 165.550
46.55000 171.129
46.56000 177.180
46.57000 181.422
46.58000 185.248
46.59000 188.130
46.60000 187.933
46.61000 183.015
46.62000 178.045
46.63000 173.409
46.64000 169.108
46.65000 164.834
46.66000 163.274
46.67000 163.509
46.68000 163.785
46.69000 165.175
46.70000 167.067
46.71000 168.772
46.72000 168.072
46.73000 166.635
46.74000 165.342
46.75000 166.567
46.76000 168.092
46.77000 169.325
46.78000 169.164
46.79000 168.821
46.80000 169.178
46.81000 171.775
46.82000 174.540
46.83000 176.455
46.84000 176.135
46.85000 175.835
46.86000 174.157
46.87000 170.445
46.88000 166.714
46.89000 165.038
46.90000 165.352
46.91000 165.664
46.92000 163.492
46.93000 159.795
46.94000 156.383
46.95000 160.103
46.96000 166.918
46.97000 173.279
46.98000 174.100
46.99000 173.283
47.00000 172.551
47.01000 168.723
47.02000 164.849
47.03000 161.249
47.04000 158.906
47.05000 156.721
47.06000 156.663
47.07000 163.174
47.08000 170.149
47.09000 174.926
47.10000 171.789
47.11000 169.250
47.12000 167.817
47.13000 167.959
47.14000 168.112
47.15000 166.093
47.16000 162.056
47.17000 158.054
47.18000 156.966
47.19000 157.659
47.20000 158.198
47.21000 155.134
47.22000 150.561
47.23000 146.792
47.24000 152.300
47.25000 160.455
47.26000 167.718
47.27000 168.750
47.28000 168.621
47.29000 167.701
47.30000 163.277
47.31000 158.437
47.32000 154.532
47.33000 153.413
47.34000 152.479
47.35000 151.847
47.36000 154.127
47.37000 155.889
47.38000 156.562
47.39000 155.740
47.40000 154.911
47.41000 156.748
47.42000 160.966
47.43000 165.143
47.44000 165.915
47.45000 164.691
47.46000 163.434
47.47000 161.455
47.48000 159.184
47.49000 157.281
47.50000 159.422
47.51000 162.674
47.52000 165.555
47.53000 163.685
47.54000 161.319
47.55000 158.880
47.56000 156.131
47.57000 153.346
47.58000 152.214
47.59000 155.835
47.60000 159.753
47.61000 162.371
47.62000 158.697
47.63000 155.851
47.64000 156.295
47.65000 161.091
47.66000 165.901
47.67000 166.633
47.68000 163.862
47.69000 161.123
47.70000 160.553
47.71000 161.210
47.72000 161.885
47.73000 162.898
47.74000 164.044
47.75000 164.804
47.76000 161.562
47.77000 157.258
47.78000 153.467
47.79000 153.004
47.80000 153.106
47.81000 153.111
47.82000 152.715
47.83000 152.275
47.84000 152.046
47.85000 152.406
47.86000 152.799
47.87000 153.059
47.88000 156.996
47.89000 159.963
47.90000 160.049
47.91000 156.469
47.92000 152.879
47.93000 150.798
47.94000 149.966
47.95000 149.144
47.96000 152.585
47.97000 158.230
47.98000 163.736
47.99000 166.668
48.00000 168.628
48.01000 170.173
48.02000 167.598
48.03000 163.971
48.04000 160.794
48.05000 161.582
48.06000 162.828
48.07000 163.476
48.08000 161.755
48.09000 159.790
48.10000 158.973
48.11000 161.237
48.12000 163.669
48.13000 165.254
48.14000 168.223
48.15000 170.423
48.16000 168.504
48.17000 161.536
48.18000 154.577
48.19000 154.102
48.20000 158.785
48.21000 163.398
48.22000 160.883
48.23000 154.750
48.24000 149.082
48.25000 151.535
48.26000 156.946
48.27000 161.793
48.28000 161.331
48.29000 159.560
48.30000 158.019
48.31000 156.343
48.32000 154.894
48.33000 154.098
48.34000 155.798
48.35000 157.741
48.36000 159.430
48.37000 160.460
48.38000 161.457
48.39000 162.097
48.40000 162.935
48.41000 163.549
48.42000 162.646
48.43000 159.954
48.44000 157.272
48.45000 157.507
48.46000 159.975
48.47000 162.402
48.48000 159.715
48.49000 154.566
48.50000 149.893
48.51000 153.008
48.52000 158.861
48.53000 163.761
48.54000 160.101
48.55000 154.410
48.56000 149.484
48.57000 153.158
48.58000 157.410
48.59000 160.260
48.60000 157.953
48.61000 155.168
48.62000 152.516
48.63000 150.199
48.64000 147.899
48.65000 146.440
48.66000 147.358
48.67000 148.053
48.68000 151.327
48.69000 157.524
48.70000 163.688
48.71000 163.362
48.72000 158.251
48.73000 153.235
48.74000 151.991
48.75000 152.602
48.76000 153.249
48.77000 154.465
48.78000 155.875
48.79000 156.999
48.80000 155.692
48.81000 153.829
48.82000 152.226
48.83000 154.753
48.84000 157.410
48.85000 159.629
48.86000 160.298
48.87000 160.830
48.88000 160.154
48.89000 156.559
48.90000 152.835
48.91000 150.507
48.92000 150.367
48.93000 150.289
48.94000 152.022
48.95000 155.728
48.96000 159.417
48.97000 160.626
48.98000 160.073
48.99000 159.531
49.00000 158.497
49.01000 157.275
49.02000 156.154
49.03000 156.494
49.04000 157.312
49.05000 158.010
49.06000 157.720
49.07000 157.213
49.08000 156.779
49.09000 152.561
49.10000 148.554
49.11000 146.694
49.12000 152.188
49.13000 158.296
49.14000 162.316
49.15000 161.471
49.16000 160.426
49.17000 159.782
49.18000 158.644
49.19000 157.822
49.20000 157.453
49.21000 157.556
49.22000 157.620
49.23000 153.030
49.24000 145.253
49.25000 137.653
49.26000 138.607
49.27000 143.323
49.28000 147.847
49.29000 149.758
49.30000 150.843
49.31000 152.073
49.32000 154.434
49.33000 157.034
49.34000 159.242
49.35000 155.649
49.36000 151.976
49.37000 149.597
49.38000 151.493
49.39000 153.728
49.40000 155.326
49.41000 155.492
49.42000 155.604
49.43000 155.673
49.44000 158.076
49.45000 159.809
49.46000 159.598
49.47000 157.432
49.48000 155.266
49.49000 152.966
49.50000 150.578
49.51000 148.249
49.52000 147.105
49.53000 146.518
49.54000 145.964
49.55000 145.817
49.56000 145.795
49.57000 145.920
49.58000 147.143
49.59000 148.591
49.60000 149.811
49.61000 149.110
49.62000 148.316
49.63000 147.559
49.64000 146.922
49.65000 146.293
49.66000 145.433
49.67000 144.068
49.68000 142.686
49.69000 141.859
49.70000 150.196
49.71000 156.169
49.72000 159.811
49.73000 161.203
49.74000 162.554
49.75000 160.500
49.76000 156.279
49.77000 152.174
49.78000 149.177
49.79000 146.780
49.80000 144.852
49.81000 148.604
49.82000 154.031
49.83000 158.520
49.84000 156.323
49.85000 152.814
49.86000 149.875
49.87000 155.085
49.88000 160.256
49.89000 164.786
49.90000 167.344
49.91000 169.763
49.92000 168.877
49.93000 161.054
49.94000 153.009
49.95000 148.275
49.96000 150.969
49.97000 152.908
49.98000 152.610
49.99000 150.237
50.00000 147.908
50.01000 148.649
50.02000 151.274
50.03000 153.821
50.04000 155.941
50.05000 157.783
50.06000 159.164
50.07000 155.238
50.08000 149.805
50.09000 145.236
50.10000 146.571
50.11000 149.021
50.12000 151.057
50.13000 151.586
50.14000 151.877
50.15000 153.663
50.16000 159.891
50.17000 166.414
50.18000 168.752
50.19000 162.610
50.20000 156.222
50.21000 152.523
50.22000 153.852
50.23000 154.805
50.24000 154.594
50.25000 153.346
50.26000 152.130
50.27000 152.853
50.28000 154.724
50.29000 156.535
50.30000 156.714
50.31000 156.261
50.32000 156.305
50.33000 161.767
50.34000 168.715
50.35000 175.272
50.36000 179.273
50.37000 182.811
50.38000 185.730
50.39000 186.701
50.40000 187.319
50.41000 187.694
50.42000 187.372
50.43000 187.007
50.44000 188.752
50.45000 194.629
50.46000 200.613
50.47000 204.023
50.48000 203.336
50.49000 202.838
50.50000 198.554
50.51000 191.030
50.52000 183.608
50.53000 181.739
50.54000 183.045
50.55000 184.304
50.56000 188.684
50.57000 193.951
50.58000 198.742
50.59000 198.598
50.60000 197.149
50.61000 196.125
50.62000 197.765
50.63000 199.869
50.64000 201.593
50.65000 205.108
50.66000 208.149
50.67000 208.134
50.68000 199.662
50.69000 190.697
50.70000 184.743
50.71000 184.479
50.72000 184.349
50.73000 184.276
50.74000 190.653
50.75000 195.077
50.76000 194.727
50.77000 190.443
50.78000 186.236
50.79000 185.728
50.80000 187.260
50.81000 188.735
50.82000 185.335
50.83000 180.427
50.84000 175.544
50.85000 170.912
50.86000 166.345
50.87000 163.377
50.88000 170.045
50.89000 178.324
50.90000 185.055
50.91000 176.435
50.92000 168.118
50.93000 162.392
50.94000 163.593
50.95000 165.172
50.96000 165.251
50.97000 162.594
50.98000 159.880
50.99000 158.386
51.00000 155.350
51.01000 153.266
51.02000 154.183
51.03000 157.480
51.04000 160.728
51.05000 161.906
51.06000 161.983
51.07000 162.057
51.08000 160.556
51.09000 158.619
51.10000 156.529
51.11000 153.001
51.12000 149.121
51.13000 145.816
51.14000 145.832
51.15000 146.382
51.16000 146.825
51.17000 143.642
51.18000 140.769
51.19000 138.495
51.20000 137.768
51.21000 137.119
51.22000 139.405
51.23000 146.855
51.24000 154.402
51.25000 158.482
51.26000 149.898
51.27000 144.032
51.28000 143.704
51.29000 147.601
51.30000 151.391
51.31000 151.034
51.32000 148.546
51.33000 146.166
51.34000 144.167
51.35000 142.430
51.36000 141.153
51.37000 143.985
51.38000 147.789
51.39000 150.603
51.40000 147.918
51.41000 144.388
51.42000 141.562
51.43000 139.094
51.44000 137.125
51.45000 136.466
51.46000 139.072
51.47000 141.832
51.48000 144.946
51.49000 148.662
51.50000 152.387
51.51000 154.364
51.52000 154.283
51.53000 154.217
51.54000 152.428
51.55000 149.372
51.56000 146.350
51.57000 144.467
51.58000 143.150
51.59000 141.895
51.60000 138.968
51.61000 135.729
51.62000 132.972
51.63000 134.320
51.64000 136.604
51.65000 138.692
51.66000 139.733
51.67000 140.619
51.68000 141.323
51.69000 144.668
51.70000 147.548
51.71000 148.642
51.72000 145.439
51.73000 142.047
51.74000 138.666
51.75000 135.304
51.76000 131.942
51.77000 130.192
51.78000 134.298
51.79000 137.072
51.80000 139.501
51.81000 141.684
51.82000 143.796
51.83000 143.616
51.84000 142.337
51.85000 141.122
51.86000 139.053
51.87000 136.884
51.88000 134.848
51.89000 133.896
51.90000 133.183
51.91000 132.617
51.92000 132.802
51.93000 133.093
51.94000 133.322
51.95000 133.748
51.96000 134.102
51.97000 135.542
51.98000 139.505
51.99000 143.571
52.00000 143.361
52.01000 136.396
52.02000 129.346
52.03000 125.747
52.04000 133.330
52.05000 138.378
52.06000 138.381
52.07000 134.941
52.08000 131.617
52.09000 131.677
52.10000 133.302
52.11000 134.840
52.12000 134.318
52.13000 133.239
52.14000 132.132
52.15000 130.802
52.16000 129.425
52.17000 128.331
52.18000 128.631
52.19000 129.119
52.20000 129.500
52.21000 134.374
52.22000 138.542
52.23000 140.103
52.24000 135.812
52.25000 131.301
52.26000 129.269
52.27000 131.015
52.28000 132.802
52.29000 133.695
52.30000 135.802
52.31000 137.187
52.32000 136.603
52.33000 134.724
52.34000 132.894
52.35000 132.387
52.36000 132.470
52.37000 132.549
52.38000 131.968
52.39000 131.251
52.40000 131.084
52.41000 134.994
52.42000 139.733
52.43000 143.392
52.44000 141.922
52.45000 139.790
52.46000 138.141
52.47000 134.381
52.48000 131.273
52.49000 129.587
52.50000 130.984
52.51000 132.487
52.52000 132.668
52.53000 130.909
52.54000 129.133
52.55000 131.340
52.56000 137.375
52.57000 143.361
52.58000 145.405
52.59000 144.948
52.60000 144.428
52.61000 142.382
52.62000 139.678
52.63000 137.135
52.64000 137.776
52.65000 139.214
52.66000 140.233
52.67000 138.268
52.68000 135.720
52.69000 134.579
52.70000 139.862
52.71000 145.939
52.72000 150.596
52.73000 145.532
52.74000 140.995
52.75000 137.673
52.76000 136.896
52.77000 136.198
52.78000 136.331
52.79000 137.642
52.80000 138.961
52.81000 140.277
52.82000 141.591
52.83000 142.856
52.84000 140.708
52.85000 136.471
52.86000 132.518
52.87000 135.061
52.88000 140.309
52.89000 145.223
52.90000 141.301
52.91000 135.458
52.92000 130.989
52.93000 135.879
52.94000 142.529
52.95000 147.569
52.96000 145.530
52.97000 142.657
52.98000 140.476
52.99000 143.080
53.00000 145.374
53.01000 146.041
53.02000 143.417
53.03000 140.698
53.04000 138.556
53.05000 137.202
53.06000 135.852
53.07000 136.691
53.08000 139.468
53.09000 142.226
53.10000 143.752
53.11000 144.551
53.12000 145.283
53.13000 144.571
53.14000 143.278
53.15000 142.073
53.16000 142.702
53.17000 143.725
53.18000 144.790
53.19000 146.124
53.20000 147.506
53.21000 148.535
53.22000 148.071
53.23000 147.438
53.24000 146.962
53.25000 150.131
53.26000 152.785
53.27000 153.544
53.28000 150.602
53.29000 147.565
53.30000 147.363
53.31000 150.886
53.32000 154.423
53.33000 155.239
53.34000 153.736
53.35000 152.230
53.36000 150.581
53.37000 148.849
53.38000 147.193
53.39000 147.043
53.40000 147.478
53.41000 147.881
53.42000 148.787
53.43000 149.724
53.44000 150.417
53.45000 149.588
53.46000 148.494
53.47000 147.829
53.48000 148.908
53.49000 150.174
53.50000 151.118
53.51000 150.218
53.52000 149.435
53.53000 149.049
53.54000 149.409
53.55000 149.786
53.56000 148.323
53.57000 144.531
53.58000 140.737
53.59000 140.131
53.60000 142.136
53.61000 143.997
53.62000 138.947
53.63000 130.098
53.64000 121.952
53.65000 126.764
53.66000 136.435
53.67000 145.379
53.68000 147.116
53.69000 147.031
53.70000 146.834
53.71000 145.964
53.72000 144.982
53.73000 144.124
53.74000 143.759
53.75000 143.445
53.76000 143.213
53.77000 140.458
53.78000 138.219
53.79000 135.830
53.80000 133.169
53.81000 130.502
53.82000 129.763
53.83000 131.373
53.84000 132.984
53.85000 132.516
53.86000 130.415
53.87000 128.398
53.88000 129.980
53.89000 133.472
53.90000 136.789
53.91000 137.092
53.92000 136.303
53.93000 135.577
53.94000 135.147
53.95000 134.828
53.96000 134.825
53.97000 136.646
53.98000 138.759
53.99000 141.317
54.00000 145.568
54.01000 149.983
54.02000 153.205
54.03000 145.909
54.04000 139.874
54.05000 136.655
54.06000 138.374
54.07000 140.185
54.08000 140.563
54.09000 139.262
54.10000 137.963
54.11000 136.952
54.12000 136.166
54.13000 135.390
54.14000 134.977
54.15000 134.750
54.16000 134.576
54.17000 135.255
54.18000 136.234
54.19000 137.130
54.20000 136.500
54.21000 135.617
54.22000 134.862
54.23000 134.815
54.24000 134.876
54.25000 134.529
54.26000 132.689
54.27000 130.711
54.28000 129.282
54.29000 131.236
54.30000 132.857
54.31000 134.687
54.32000 136.871
54.33000 139.060
54.34000 138.961
54.35000 136.284
54.36000 133.614
54.37000 133.368
54.38000 134.887
54.39000 136.357
54.40000 136.110
54.41000 135.014
54.42000 133.955
54.43000 133.467
54.44000 133.172
54.45000 132.902
54.46000 133.833
54.47000 134.901
54.48000 135.571
54.49000 134.129
54.50000 132.377
54.51000 131.410
54.52000 133.209
54.53000 135.250
54.54000 136.708
54.55000 134.690
54.56000 133.034
54.57000 135.114
54.58000 143.299
54.59000 151.570
54.60000 151.568
54.61000 142.611
54.62000 133.689
54.63000 132.429
54.64000 136.537
54.65000 140.526
54.66000 140.734
54.67000 139.136
54.68000 137.728
54.69000 139.035
54.70000 141.227
54.71000 143.217
54.72000 141.589
54.73000 139.453
54.74000 137.150
54.75000 133.995
54.76000 130.720
54.77000 129.149
54.78000 133.377
54.79000 138.083
54.80000 141.410
54.81000 136.089
54.82000 131.782
54.83000 130.455
54.84000 133.821
54.85000 137.244
54.86000 137.890
54.87000 135.648
54.88000 133.418
54.89000 133.726
54.90000 135.736
54.91000 137.720
54.92000 138.945
54.93000 139.821
54.94000 140.707
54.95000 141.735
54.96000 142.808
54.97000 143.778
54.98000 141.861
54.99000 139.641
55.00000 137.811
55.01000 137.906
55.02000 138.260
55.03000 138.720
55.04000 139.528
55.05000 140.363
55.06000 140.947
55.07000 142.613
55.08000 143.903
55.09000 144.314
55.10000 143.390
55.11000 142.452
55.12000 143.533
55.13000 146.627
55.14000 149.702
55.15000 150.448
55.16000 149.678
55.17000 148.927
55.18000 148.701
55.19000 148.707
55.20000 149.053
55.21000 153.711
55.22000 159.679
55.23000 165.044
55.24000 161.233
55.25000 156.268
55.26000 152.388
55.27000 153.644
55.28000 155.560
55.29000 157.352
55.30000 158.749
55.31000 160.117
55.32000 161.062
55.33000 163.314
55.34000 165.040
55.35000 166.123
55.36000 166.266
55.37000 166.401
55.38000 170.077
55.39000 177.144
55.40000 184.158
55.41000 187.193
55.42000 187.704
55.43000 188.334
55.44000 191.927
55.45000 196.793
55.46000 201.452
55.47000 203.614
55.48000 205.044
55.49000 206.323
55.50000 213.620
55.51000 221.006
55.52000 228.587
55.53000 237.057
55.54000 245.638
55.55000 254.733
55.56000 265.406
55.57000 276.189
55.58000 283.551
55.59000 296.722
55.60000 306.709
55.61000 317.428
55.62000 329.182
55.63000 340.942
55.64000 351.125
55.65000 359.857
55.66000 368.511
55.67000 380.443
55.68000 394.106
55.69000 407.835
55.70000 423.055
55.71000 438.895
55.72000 454.543
55.73000 467.999
55.74000 480.837
55.75000 492.257
55.76000 508.811
55.77000 524.017
55.78000 536.912
55.79000 539.673
55.80000 541.244
55.81000 544.927
55.82000 554.845
55.83000 565.171
55.84000 572.136
55.85000 561.095
55.86000 552.498
55.87000 553.928
55.88000 568.992
55.89000 584.129
55.90000 594.081
55.91000 599.448
55.92000 604.759
55.93000 602.718
55.94000 596.488
55.95000 590.182
55.96000 582.251
55.97000 573.669
55.98000 564.619
55.99000 550.514
56.00000 535.030
56.01000 521.333
56.02000 508.941
56.03000 498.434
56.04000 486.758
56.05000 470.148
56.06000 452.985
56.07000 438.576
56.08000 432.015
56.09000 425.937
56.10000 421.888
56.11000 397.945
56.12000 379.844
56.13000 366.469
56.14000 359.285
56.15000 352.126
56.16000 343.419
56.17000 333.395
56.18000 323.489
56.19000 311.629
56.20000 298.978
56.21000 286.444
56.22000 276.206
56.23000 266.856
56.24000 258.072
56.25000 255.086
56.26000 253.624
56.27000 252.338
56.28000 245.139
56.29000 238.063
56.30000 230.653
56.31000 221.879
56.32000 212.959
56.33000 203.977
56.34000 194.820
56.35000 185.654
56.36000 179.625
56.37000 185.574
56.38000 190.159
56.39000 189.698
56.40000 182.875
56.41000 176.038
56.42000 171.925
56.43000 170.041
56.44000 168.182
56.45000 167.626
56.46000 167.780
56.47000 167.801
56.48000 165.396
56.49000 162.084
56.50000 158.574
56.51000 153.129
56.52000 147.195
56.53000 142.006
56.54000 150.293
56.55000 159.310
56.56000 165.755
56.57000 162.108
56.58000 157.437
56.59000 152.191
56.60000 145.415
56.61000 138.557
56.62000 134.104
56.63000 130.932
56.64000 128.628
56.65000 129.498
56.66000 134.220
56.67000 138.935
56.68000 139.384
56.69000 136.472
56.70000 133.604
56.71000 132.369
56.72000 132.009
56.73000 131.519
56.74000 128.800
56.75000 125.275
56.76000 122.353
56.77000 125.022
56.78000 129.058
56.79000 132.566
56.80000 133.982
56.81000 134.907
56.82000 135.485
56.83000 134.753
56.84000 133.895
56.85000 134.448
56.86000 138.620
56.87000 142.974
56.88000 145.763
56.89000 135.551
56.90000 127.938
56.91000 124.740
56.92000 126.694
56.93000 128.648
56.94000 128.666
56.95000 127.217
56.96000 125.793
56.97000 124.573
56.98000 123.493
56.99000 122.615
57.00000 124.955
57.01000 128.418
57.02000 131.374
57.03000 129.844
57.04000 127.258
57.05000 125.024
57.06000 126.664
57.07000 128.560
57.08000 129.914
57.09000 129.296
57.10000 128.498
57.11000 126.868
57.12000 123.174
57.13000 119.384
57.14000 116.989
57.15000 116.868
57.16000 116.808
57.17000 117.265
57.18000 118.305
57.19000 119.344
57.20000 120.232
57.21000 121.009
57.22000 121.772
57.23000 122.760
57.24000 123.819
57.25000 124.913
57.26000 126.547
57.27000 128.363
57.28000 129.818
57.29000 128.226
57.30000 125.942
57.31000 123.982
57.32000 122.928
57.33000 122.150
57.34000 121.577
57.35000 121.727
57.36000 121.940
57.37000 122.394
57.38000 123.427
57.39000 124.485
57.40000 125.145
57.41000 128.609
57.42000 131.133
57.43000 132.095
57.44000 131.372
57.45000 130.655
57.46000 130.847
57.47000 131.680
57.48000 132.495
57.49000 131.292
57.50000 129.214
57.51000 127.234
57.52000 126.651
57.53000 126.522
57.54000 126.206
57.55000 124.377
57.56000 122.218
57.57000 120.376
57.58000 121.620
57.59000 123.030
57.60000 123.980
57.61000 123.372
57.62000 122.635
57.63000 122.155
57.64000 122.270
57.65000 122.408
57.66000 122.492
57.67000 124.338
57.68000 125.675
57.69000 125.584
57.70000 124.011
57.71000 122.453
57.72000 122.524
57.73000 123.701
57.74000 124.850
57.75000 124.778
57.76000 124.171
57.77000 123.803
57.78000 126.641
57.79000 130.484
57.80000 133.985
57.81000 134.850
57.82000 135.161
57.83000 135.425
57.84000 129.300
57.85000 123.449
57.86000 119.081
57.87000 119.562
57.88000 120.420
57.89000 119.592
57.90000 115.002
57.91000 110.273
57.92000 107.413
57.93000 112.091
57.94000 115.480
57.95000 118.274
57.96000 120.476
57.97000 122.671
57.98000 124.276
57.99000 125.495
58.00000 126.683
58.01000 124.668
58.02000 121.389
58.03000 118.260
58.04000 117.032
58.05000 116.380
58.06000 116.486
58.07000 122.181
58.08000 129.005
58.09000 134.749
58.10000 133.454
58.11000 131.621
58.12000 129.210
58.13000 124.975
58.14000 120.605
58.15000 117.485
58.16000 117.059
58.17000 116.723
58.18000 116.524
58.19000 118.676
58.20000 120.215
58.21000 120.685
58.22000 120.136
58.23000 119.596
58.24000 119.886
58.25000 120.698
58.26000 121.488
58.27000 121.668
58.28000 121.592
58.29000 121.476
58.30000 120.882
58.31000 120.148
58.32000 119.468
58.33000 119.168
58.34000 118.942
58.35000 118.752
58.36000 116.041
58.37000 113.534
58.38000 111.899
58.39000 112.926
58.40000 114.137
58.41000 115.536
58.42000 117.326
58.43000 119.128
58.44000 120.184
58.45000 118.994
58.46000 118.144
58.47000 118.142
58.48000 118.917
58.49000 119.647
58.50000 117.312
58.51000 113.113
58.52000 109.042
58.53000 109.720
58.54000 112.226
58.55000 114.522
58.56000 114.433
58.57000 113.671
58.58000 112.770
58.59000 110.929
58.60000 108.911
58.61000 107.237
58.62000 108.423
58.63000 109.680
58.64000 111.166
58.65000 113.325
58.66000 115.529
58.67000 117.561
58.68000 119.250
58.69000 120.930
58.70000 121.898
58.71000 121.360
58.72000 120.977
58.73000 119.647
58.74000 117.485
58.75000 115.375
58.76000 116.416
58.77000 119.307
58.78000 122.103
58.79000 121.959
58.80000 120.714
58.81000 119.672
58.82000 120.822
58.83000 122.568
58.84000 123.810
58.85000 121.795
58.86000 119.194
58.87000 117.052
58.88000 118.170
58.89000 119.390
58.90000 120.541
58.91000 121.496
58.92000 122.440
58.93000 121.922
58.94000 118.571
58.95000 115.148
58.96000 113.205
58.97000 117.538
58.98000 120.570
58.99000 121.467
59.00000 120.552
59.01000 119.650
59.02000 119.347
59.03000 119.385
59.04000 119.421
59.05000 118.505
59.06000 117.297
59.07000 115.882
59.08000 112.339
59.09000 108.238
59.10000 104.733
59.11000 104.930
59.12000 105.766
59.13000 106.449
59.14000 109.140
59.15000 111.518
59.16000 113.803
59.17000 115.832
59.18000 117.846
59.19000 118.187
59.20000 115.397
59.21000 112.535
59.22000 110.939
59.23000 111.295
59.24000 111.545
59.25000 111.576
59.26000 111.427
59.27000 111.265
59.28000 110.511
59.29000 109.432
59.30000 108.395
59.31000 112.965
59.32000 119.209
59.33000 124.792
59.34000 123.960
59.35000 121.508
59.36000 119.235
59.37000 118.028
59.38000 116.998
59.39000 116.162
59.40000 116.534
59.41000 116.937
59.42000 117.058
59.43000 116.432
59.44000 115.766
59.45000 116.905
59.46000 121.309
59.47000 125.780
59.48000 128.230
59.49000 123.038
59.50000 119.466
59.51000 118.679
59.52000 120.080
59.53000 121.466
59.54000 122.242
59.55000 122.698
59.56000 123.135
59.57000 118.169
59.58000 111.716
59.59000 106.122
59.60000 108.472
59.61000 112.756
59.62000 116.450
59.63000 116.772
59.64000 116.559
59.65000 116.387
59.66000 114.741
59.67000 113.291
59.68000 112.450
59.69000 113.171
59.70000 113.970
59.71000 113.753
59.72000 111.763
59.73000 109.742
59.74000 108.654
59.75000 109.225
59.76000 109.629
59.77000 112.607
59.78000 117.532
59.79000 122.328
59.80000 122.262
59.81000 119.720
59.82000 117.290
59.83000 116.814
59.84000 117.003
59.85000 117.041
59.86000 115.751
59.87000 114.150
59.88000 113.034
59.89000 114.579
59.90000 116.529
59.91000 118.086
59.92000 117.024
59.93000 115.973
59.94000 115.907
59.95000 118.276
59.96000 120.758
59.97000 120.759
59.98000 116.585
59.99000 112.343
60.00000 110.103
60.01000 116.555
60.02000 120.924
60.03000 122.491
60.04000 122.017
60.05000 121.475
60.06000 118.577
60.07000 114.521
60.08000 110.658
60.09000 110.559
60.10000 111.637
60.11000 112.699
60.12000 113.617
60.13000 114.502
60.14000 115.209
60.15000 114.975
60.16000 114.604
60.17000 114.310
60.18000 114.486
60.19000 114.660
60.20000 113.443
60.21000 108.905
60.22000 104.225
60.23000 103.391
60.24000 108.804
60.25000 114.303
60.26000 117.152
60.27000 116.481
60.28000 116.041
60.29000 117.301
60.30000 119.754
60.31000 122.148
60.32000 122.690
60.33000 122.354
60.34000 122.034
60.35000 121.174
60.36000 120.219
60.37000 119.267
60.38000 118.338
60.39000 117.414
60.40000 116.971
60.41000 118.970
60.42000 121.309
60.43000 123.147
60.44000 118.569
60.45000 114.486
60.46000 112.716
60.47000 116.278
60.48000 120.053
60.49000 122.227
60.50000 121.894
60.51000 121.532
60.52000 121.348
60.53000 118.163
60.54000 116.042
60.55000 115.407
60.56000 115.778
60.57000 116.118
60.58000 115.586
60.59000 114.654
60.60000 113.772
60.61000 114.122
60.62000 114.797
60.63000 115.287
60.64000 114.358
60.65000 113.131
60.66000 112.434
60.67000 114.318
60.68000 116.547
60.69000 118.283
60.70000 119.370
60.71000 120.196
60.72000 120.635
60.73000 120.214
60.74000 119.761
60.75000 118.680
60.76000 116.648
60.77000 114.607
60.78000 114.560
60.79000 116.490
60.80000 118.401
60.81000 118.562
60.82000 117.584
60.83000 116.609
60.84000 115.735
60.85000 114.905
60.86000 114.123
60.87000 116.004
60.88000 118.463
60.89000 120.303
60.90000 117.599
60.91000 113.980
60.92000 111.012
60.93000 111.104
60.94000 111.587
60.95000 111.959
60.96000 114.048
60.97000 115.804
60.98000 117.190
60.99000 117.784
61.00000 118.352
61.01000 118.768
61.02000 118.963
61.03000 119.157
61.04000 120.925
61.05000 124.193
61.06000 127.398
61.07000 125.794
61.08000 121.166
61.09000 116.769
61.10000 117.988
61.11000 121.608
61.12000 125.007
61.13000 128.434
61.14000 131.568
61.15000 133.658
61.16000 128.418
61.17000 121.758
61.18000 116.311
61.19000 116.354
61.20000 117.066
61.21000 117.611
61.22000 121.893
61.23000 125.474
61.24000 126.800
61.25000 123.449
61.26000 119.954
61.27000 117.725
61.28000 117.273
61.29000 116.834
61.30000 115.260
61.31000 112.653
61.32000 110.135
61.33000 113.701
61.34000 120.956
61.35000 127.933
61.36000 128.671
61.37000 126.833
61.38000 125.114
61.39000 122.605
61.40000 120.124
61.41000 118.647
61.42000 123.934
61.43000 130.481
61.44000 135.149
61.45000 131.631
61.46000 127.161
61.47000 123.774
61.48000 128.549
61.49000 132.714
61.50000 139.494
61.51000 151.516
61.52000 163.684
61.53000 176.931
61.54000 191.635
61.55000 206.339
61.56000 218.377
61.57000 228.056
61.58000 237.788
61.59000 250.679
61.60000 265.419
61.61000 279.688
61.62000 284.134
61.63000 284.663
61.64000 285.157
61.65000 291.162
61.66000 297.945
61.67000 304.052
61.68000 305.791
61.69000 306.750
61.70000 307.115
61.71000 304.992
61.72000 302.592
61.73000 300.791
61.74000 297.011
61.75000 293.964
61.76000 287.397
61.77000 274.025
61.78000 260.480
61.79000 246.207
61.80000 230.985
61.81000 215.773
61.82000 200.229
61.83000 184.443
61.84000 168.722
61.85000 156.357
61.86000 145.888
61.87000 135.945
61.88000 136.222
61.89000 140.435
61.90000 144.343
61.91000 139.009
61.92000 132.030
61.93000 125.749
61.94000 123.792
61.95000 122.579
61.96000 121.583
61.97000 121.464
61.98000 121.438
61.99000 121.419
62.00000 124.666
62.01000 127.335
62.02000 128.181
62.03000 125.627
62.04000 122.995
62.05000 123.342
62.06000 127.422
62.07000 131.508
62.08000 134.311
62.09000 136.063
62.10000 137.734
62.11000 135.626
62.12000 131.458
62.13000 127.452
62.14000 126.369
62.15000 126.373
62.16000 126.377
62.17000 126.659
62.18000 126.975
62.19000 127.318
62.20000 127.821
62.21000 128.349
62.22000 128.646
62.23000 128.041
62.24000 127.344
62.25000 126.832
62.26000 127.516
62.27000 128.095
62.28000 128.604
62.29000 128.986
62.30000 129.366
62.31000 129.998
62.32000 130.933
62.33000 131.867
62.34000 129.944
62.35000 125.807
62.36000 121.871
62.37000 126.304
62.38000 135.139
62.39000 143.478
62.40000 143.398
62.41000 140.296
62.42000 137.443
62.43000 135.861
62.44000 134.724
62.45000 133.323
62.46000 130.419
62.47000 127.279
62.48000 124.629
62.49000 123.823
62.50000 123.194
62.51000 122.736
62.52000 121.936
62.53000 121.306
62.54000 121.955
62.55000 124.827
62.56000 127.740
62.57000 129.746
62.58000 130.701
62.59000 131.653
62.60000 130.740
62.61000 128.437
62.62000 126.179
62.63000 125.583
62.64000 125.830
62.65000 125.950
62.66000 124.036
62.67000 121.416
62.68000 119.018
62.69000 123.066
62.70000 128.007
62.71000 132.613
62.72000 135.374
62.73000 137.856
62.74000 139.161
62.75000 136.199
62.76000 132.849
62.77000 130.436
62.78000 129.085
62.79000 128.088
62.80000 125.802
62.81000 121.353
62.82000 116.871
62.83000 117.695
62.84000 124.438
62.85000 131.160
62.86000 135.087
62.87000 136.968
62.88000 138.728
62.89000 136.377
62.90000 132.009
62.91000 127.793
62.92000 125.848
62.93000 124.662
62.94000 123.581
62.95000 124.031
62.96000 124.735
62.97000 126.206
62.98000 131.714
62.99000 137.808
63.00000 141.347
63.01000 135.950
63.02000 129.784
63.03000 125.390
63.04000 123.730
63.05000 122.554
63.06000 122.262
63.07000 123.401
63.08000 124.559
63.09000 126.994
63.10000 130.798
63.11000 134.586
63.12000 135.359
63.13000 134.039
63.14000 132.784
63.15000 133.572
63.16000 135.327
63.17000 137.009
63.18000 137.676
63.19000 138.015
63.20000 138.322
63.21000 140.721
63.22000 143.237
63.23000 144.259
63.24000 137.718
63.25000 130.125
63.26000 124.282
63.27000 124.342
63.28000 124.882
63.29000 125.263
63.30000 127.908
63.31000 129.982
63.32000 132.389
63.33000 135.315
63.34000 138.248
63.35000 142.570
63.36000 148.323
63.37000 154.045
63.38000 151.514
63.39000 143.523
63.40000 135.758
63.41000 134.390
63.42000 135.946
63.43000 137.376
63.44000 137.116
63.45000 136.329
63.46000 135.619
63.47000 133.168
63.48000 130.696
63.49000 128.872
63.50000 130.199
63.51000 131.947
63.52000 133.347
63.53000 133.619
63.54000 133.803
63.55000 133.932
63.56000 131.279
63.57000 129.201
63.58000 132.057
63.59000 142.341
63.60000 152.700
63.61000 154.425
63.62000 147.622
63.63000 140.864
63.64000 138.087
63.65000 137.900
63.66000 137.722
63.67000 137.769
63.68000 137.914
63.69000 138.209
63.70000 140.384
63.71000 143.124
63.72000 145.584
63.73000 141.751
63.74000 137.292
63.75000 133.710
63.76000 134.234
63.77000 135.280
63.78000 136.433
63.79000 137.916
63.80000 139.424
63.81000 140.463
63.82000 138.746
63.83000 137.388
63.84000 135.902
63.85000 134.232
63.86000 132.560
63.87000 133.494
63.88000 136.899
63.89000 140.277
63.90000 144.462
63.91000 149.069
63.92000 153.400
63.93000 151.051
63.94000 145.855
63.95000 141.182
63.96000 142.715
63.97000 146.049
63.98000 149.027
63.99000 148.674
64.00000 147.807
64.01000 147.393
64.02000 149.023
64.03000 150.901
64.04000 151.048
64.05000 145.950
64.06000 140.491
64.07000 136.776
64.08000 143.599
64.09000 148.936
64.10000 151.375
64.11000 149.761
64.12000 148.118
64.13000 145.009
64.14000 140.563
64.15000 136.159
64.16000 136.621
64.17000 139.958
64.18000 143.221
64.19000 144.828
64.20000 145.753
64.21000 146.693
64.22000 147.811
64.23000 148.979
64.24000 150.016
64.25000 152.392
64.26000 154.668
64.27000 156.089
64.28000 153.796
64.29000 151.071
64.30000 149.578
64.31000 151.686
64.32000 154.027
64.33000 155.600
64.34000 155.792
64.35000 155.905
64.36000 155.028
64.37000 152.816
64.38000 150.599
64.39000 151.221
64.40000 154.328
64.41000 157.403
64.42000 158.675
64.43000 158.891
64.44000 159.090
64.45000 158.950
64.46000 158.674
64.47000 158.619
64.48000 160.908
64.49000 163.830
64.50000 166.412
64.51000 162.634
64.52000 158.392
64.53000 155.435
64.54000 157.850
64.55000 160.859
64.56000 163.573
64.57000 165.451
64.58000 167.278
64.59000 168.492
64.60000 162.239
64.61000 157.478
64.62000 156.321
64.63000 159.839
64.64000 163.371
64.65000 163.559
64.66000 160.928
64.67000 158.330
64.68000 158.531
64.69000 160.263
64.70000 162.306
64.71000 170.343
64.72000 180.682
64.73000 189.556
64.74000 183.573
64.75000 173.721
64.76000 165.068
64.77000 168.283
64.78000 172.794
64.79000 177.297
64.80000 181.768
64.81000 186.236
64.82000 188.028
64.83000 182.522
64.84000 176.601
64.85000 172.720
64.86000 176.804
64.87000 179.939
64.88000 181.765
64.89000 181.956
64.90000 182.148
64.91000 184.022
64.92000 187.262
64.93000 190.456
64.94000 192.342
64.95000 193.483
64.96000 194.531
64.97000 193.888
64.98000 192.617
64.99000 192.077
65.00000 198.577
65.01000 206.844
65.02000 214.063
65.03000 210.843
65.04000 206.619
65.05000 204.064
65.06000 207.996
65.07000 212.579
65.08000 216.965
65.09000 220.835
65.10000 224.678
65.11000 227.164
65.12000 232.954
65.13000 237.237
65.14000 239.082
65.15000 237.994
65.16000 236.911
65.17000 238.726
65.18000 242.802
65.19000 246.814
65.20000 250.377
65.21000 253.599
65.22000 256.587
65.23000 255.608
65.24000 253.208
65.25000 251.594
65.26000 257.196
65.27000 264.544
65.28000 270.922
65.29000 281.281
65.30000 290.643
65.31000 297.868
65.32000 297.087
65.33000 295.544
65.34000 295.526
65.35000 299.387
65.36000 303.440
65.37000 306.026
65.38000 304.667
65.39000 303.627
65.40000 309.580
65.41000 323.618
65.42000 337.646
65.43000 347.604
65.44000 354.503
65.45000 361.281
65.46000 363.489
65.47000 363.387
65.48000 363.456
65.49000 366.247
65.50000 369.979
65.51000 374.484
65.52000 385.756
65.53000 398.606
65.54000 409.691
65.55000 410.994
65.56000 410.845
65.57000 411.009
65.58000 412.303
65.59000 413.700
65.60000 420.592
65.61000 440.983
65.62000 461.994
65.63000 475.220
65.64000 502.891
65.65000 523.076
65.66000 559.754
65.67000 614.762
65.68000 669.943
65.69000 750.432
65.70000 849.235
65.71000 946.109
65.72000 1074.650
65.73000 1213.319
65.74000 1351.625
65.75000 1484.547
65.76000 1615.673
65.77000 1743.229
65.78000 1840.975
65.79000 1932.029
65.80000 2010.084
65.81000 2077.107
65.82000 2132.360
65.83000 2177.406
65.84000 2186.877
65.85000 2193.299
65.86000 2194.770
65.87000 2184.494
65.88000 2173.719
65.89000 2167.031
65.90000 2121.311
65.91000 2088.031
65.92000 2034.937
65.93000 1960.682
65.94000 1886.036
65.95000 1761.840
65.96000 1603.091
65.97000 1447.772
65.98000 1305.984
65.99000 1176.040
66.00000 1047.080
66.01000 931.899
66.02000 821.156
66.03000 715.814
66.04000 653.546
66.05000 600.587
66.06000 555.483
66.07000 515.074
66.08000 481.647
66.09000 453.542
66.10000 443.329
66.11000 434.568
66.12000 424.164
66.13000 409.998
66.14000 395.684
66.15000 386.930
66.16000 384.018
66.17000 381.983
66.18000 378.444
66.19000 373.362
66.20000 368.371
66.21000 372.962
66.22000 383.994
66.23000 394.764
66.24000 410.157
66.25000 426.896
66.26000 444.066
66.27000 466.916
66.28000 491.531
66.29000 515.972
66.30000 539.086
66.31000 561.923
66.32000 581.244
66.33000 596.485
66.34000 608.789
66.35000 621.602
66.36000 636.066
66.37000 650.658
66.38000 661.695
66.39000 664.871
66.40000 667.763
66.41000 669.505
66.42000 658.207
66.43000 650.077
66.44000 647.889
66.45000 651.551
66.46000 655.007
66.47000 639.980
66.48000 612.976
66.49000 586.676
66.50000 570.967
66.51000 560.435
66.52000 548.743
66.53000 522.556
66.54000 492.020
66.55000 463.288
66.56000 447.703
66.57000 434.749
66.58000 423.864
66.59000 416.033
66.60000 409.831
66.61000 402.955
66.62000 393.969
66.63000 384.831
66.64000 376.647
66.65000 370.502
66.66000 364.424
66.67000 360.819
66.68000 360.222
66.69000 359.818
66.70000 363.019
66.71000 369.627
66.72000 376.180
66.73000 378.531
66.74000 378.257
66.75000 377.990
66.76000 367.816
66.77000 354.152
66.78000 341.947
66.79000 346.989
66.80000 357.022
66.81000 365.615
66.82000 364.165
66.83000 360.783
66.84000 357.960
66.85000 349.998
66.86000 342.878
66.87000 339.279
66.88000 346.323
66.89000 354.093
66.90000 361.085
66.91000 366.473
66.92000 371.813
66.93000 374.931
66.94000 376.504
66.95000 377.603
66.96000 378.064
66.97000 377.946
66.98000 377.855
66.99000 379.507
67.00000 382.210
67.01000 384.830
67.02000 383.818
67.03000 381.450
67.04000 379.605
67.05000 383.607
67.06000 389.242
67.07000 393.652
67.08000 389.876
67.09000 384.586
67.10000 380.204
67.11000 378.705
67.12000 377.743
67.13000 377.962
67.14000 381.627
67.15000 385.513
67.16000 388.909
67.17000 391.333
67.18000 393.730
67.19000 395.106
67.20000 401.260
67.21000 405.578
67.22000 407.155
67.23000 406.337
67.24000 405.559
67.25000 407.083
67.26000 409.945
67.27000 412.711
67.28000 410.646
67.29000 406.893
67.30000 403.386
67.31000 402.488
67.32000 402.294
67.33000 402.279
67.34000 403.413
67.35000 404.751
67.36000 405.852
67.37000 410.921
67.38000 415.447
67.39000 418.352
67.40000 416.692
67.41000 414.757
67.42000 416.395
67.43000 424.900
67.44000 433.576
67.45000 438.478
67.46000 435.671
67.47000 433.698
67.48000 431.157
67.49000 428.139
67.50000 425.196
67.51000 426.083
67.52000 429.122
67.53000 432.049
67.54000 431.955
67.55000 430.779
67.56000 430.051
67.57000 433.850
67.58000 438.825
67.59000 443.847
67.60000 449.153
67.61000 454.508
67.62000 458.878
67.63000 451.138
67.64000 443.766
67.65000 438.957
67.66000 441.118
67.67000 443.673
67.68000 447.868
67.69000 455.107
67.70000 462.414
67.71000 466.472
67.72000 474.372
67.73000 479.818
67.74000 477.642
67.75000 469.310
67.76000 461.226
67.77000 464.410
67.78000 473.699
67.79000 482.624
67.80000 484.155
67.81000 483.029
67.82000 481.903
67.83000 480.781
67.84000 479.660
67.85000 478.989
67.86000 480.974
67.87000 483.393
67.88000 485.353
67.89000 484.205
67.90000 483.018
67.91000 485.694
67.92000 498.518
67.93000 511.877
67.94000 518.204
67.95000 511.935
67.96000 505.416
67.97000 501.859
67.98000 508.225
67.99000 512.594
68.00000 512.892
68.01000 510.023
68.02000 507.419
68.03000 515.598
68.04000 529.415
68.05000 542.651
68.06000 539.357
68.07000 530.782
68.08000 523.825
68.09000 531.669
68.10000 543.081
68.11000 551.589
68.12000 543.652
68.13000 533.132
68.14000 524.679
68.15000 529.172
68.16000 533.809
68.17000 538.732
68.18000 544.379
68.19000 550.063
68.20000 554.415
68.21000 556.468
68.22000 558.480
68.23000 559.558
68.24000 544.234
68.25000 533.846
68.26000 539.898
68.27000 558.260
68.28000 576.451
68.29000 588.355
68.30000 597.083
68.31000 605.419
68.32000 607.543
68.33000 607.528
68.34000 607.777
68.35000 610.325
68.36000 613.406
68.37000 617.726
68.38000 628.782
68.39000 640.852
68.40000 650.471
68.41000 652.708
68.42000 653.976
68.43000 655.104
68.44000 655.887
68.45000 656.654
68.46000 662.106
68.47000 675.373
68.48000 688.760
68.49000 695.798
68.50000 707.238
68.51000 715.037
68.52000 729.125
68.53000 747.750
68.54000 766.482
68.55000 788.803
68.56000 812.874
68.57000 835.783
68.58000 857.161
68.59000 876.477
68.60000 897.085
68.61000 928.445
68.62000 962.209
68.63000 994.348
68.64000 1017.984
68.65000 1040.393
68.66000 1058.106
68.67000 1123.080
68.68000 1178.490
68.69000 1232.369
68.70000 1282.626
68.71000 1332.729
68.72000 1385.846
68.73000 1443.815
68.74000 1501.848
68.75000 1531.773
68.76000 1588.327
68.77000 1626.443
68.78000 1666.734
68.79000 1708.535
68.80000 1751.150
68.81000 1818.584
68.82000 1897.698
68.83000 1972.738
68.84000 2059.472
68.85000 2142.905
68.86000 2236.768
68.87000 2413.498
68.88000 2608.079
68.89000 2845.361
68.90000 3297.309
68.91000 3778.903
68.92000 4156.323
68.93000 5738.727
68.94000 7081.168
68.95000 8877.065
68.96000 11708.695
68.97000 14580.786
68.98000 17801.355
68.99000 21562.652
69.00000 25330.158
69.01000 27234.574
69.02000 32331.461
69.03000 35734.473
69.04000 38366.410
69.05000 40481.660
69.06000 42570.762
69.07000 43928.180
69.08000 44953.066
69.09000 45921.723
69.10000 46692.688
69.11000 47344.461
69.12000 48013.648
69.13000 48815.039
69.14000 49643.836
69.15000 50410.590
69.16000 50877.262
69.17000 51304.289
69.18000 51636.039
69.19000 50349.262
69.20000 49227.441
69.21000 47520.398
69.22000 44522.527
69.23000 41478.246
69.24000 38615.902
69.25000 36025.754
69.26000 33438.273
69.27000 31141.912
69.28000 29131.240
69.29000 27128.547
69.30000 25828.600
69.31000 24982.688
69.32000 24151.967
69.33000 23712.330
69.34000 23444.332
69.35000 23191.965
69.36000 22493.271
69.37000 21732.055
69.38000 20889.938
69.39000 19460.234
69.40000 17913.332
69.41000 16296.437
69.42000 14353.785
69.43000 12369.998
69.44000 10842.580
69.45000 8884.198
69.46000 7309.281
69.47000 5903.133
69.48000 4856.447
69.49000 3821.605
69.50000 3035.163
69.51000 2606.959
69.52000 2181.681
69.53000 1882.408
69.54000 1701.907
69.55000 1522.045
69.56000 1390.293
69.57000 1288.519
69.58000 1188.245
69.59000 1123.601
69.60000 1074.059
69.61000 1027.584
69.62000 996.416
69.63000 972.044
69.64000 947.128
69.65000 918.429
69.66000 889.003
69.67000 859.157
69.68000 827.423
69.69000 795.461
69.70000 771.077
69.71000 752.600
69.72000 738.360
69.73000 724.143
69.74000 709.978
69.75000 695.813
69.76000 681.500
69.77000 666.981
69.78000 652.464
69.79000 636.075
69.80000 618.005
69.81000 600.177
69.82000 598.139
69.83000 605.592
69.84000 612.509
69.85000 607.610
69.86000 597.875
69.87000 588.778
69.88000 584.175
69.89000 581.132
69.90000 576.448
69.91000 560.829
69.92000 543.193
69.93000 528.804
69.94000 528.425
69.95000 529.658
69.96000 530.590
69.97000 521.669
69.98000 514.182
69.99000 506.226
70.00000 497.338
