20.00000 727.871
20.01000 713.874
20.02000 697.877
20.03000 687.169
20.04000 697.064
20.05000 709.031
20.06000 717.809
20.07000 715.069
20.08000 712.486
20.09000 712.829
20.10000 718.340
20.11000 723.949
20.12000 726.235
20.13000 724.642
20.14000 723.047
20.15000 719.218
20.16000 713.751
20.17000 708.549
20.18000 712.968
20.19000 722.210
20.20000 730.892
20.21000 731.012
20.22000 728.229
20.23000 725.692
20.24000 720.770
20.25000 715.931
20.26000 713.217
20.27000 721.615
20.28000 731.616
20.29000 738.389
20.30000 734.061
20.31000 728.799
20.32000 725.079
20.33000 723.604
20.34000 722.552
20.35000 720.507
20.36000 716.909
20.37000 713.293
20.38000 717.108
20.39000 728.491
20.40000 739.804
20.41000 750.966
20.42000 761.873
20.43000 773.039
20.44000 791.111
20.45000 812.253
20.46000 831.474
20.47000 826.695
20.48000 814.713
20.49000 803.974
20.50000 807.330
20.51000 812.701
20.52000 819.171
20.53000 830.667
20.54000 842.786
20.55000 850.575
20.56000 845.182
20.57000 838.878
20.58000 834.595
20.59000 837.406
20.60000 839.664
20.61000 835.407
20.62000 822.181
20.63000 808.905
20.64000 802.266
20.65000 801.511
20.66000 800.764
20.67000 798.210
20.68000 794.681
20.69000 791.125
20.70000 787.014
20.71000 782.684
20.72000 778.694
20.73000 778.243
20.74000 778.731
20.75000 779.160
20.76000 781.628
20.77000 784.055
20.78000 783.110
20.79000 768.590
20.80000 752.642
20.81000 744.661
20.82000 758.181
20.83000 772.895
20.84000 782.469
20.85000 781.647
20.86000 780.884
20.87000 795.734
20.88000 829.461
20.89000 863.157
20.90000 878.350
20.91000 879.170
20.92000 879.977
20.93000 879.013
20.94000 877.194
20.95000 876.312
20.96000 890.579
20.97000 910.144
20.98000 928.454
20.99000 935.736
21.00000 940.441
21.01000 944.495
21.02000 940.861
21.03000 936.804
21.04000 936.088
21.05000 947.239
21.06000 959.437
21.07000 970.808
21.08000 980.199
21.09000 989.503
21.10000 995.277
21.11000 981.935
21.12000 972.149
21.13000 971.803
21.14000 981.428
21.15000 991.027
21.16000 997.453
21.17000 1001.710
21.18000 1005.868
21.19000 1013.976
21.20000 1023.470
21.21000 1031.992
21.22000 1027.732
21.23000 1019.512
21.24000 1012.696
21.25000 1016.411
21.26000 1022.287
21.27000 1027.237
21.28000 1042.551
21.29000 1056.448
21.30000 1069.477
21.31000 1079.783
21.32000 1089.890
21.33000 1096.719
21.34000 1096.586
21.35000 1096.226
21.36000 1096.013
21.37000 1135.458
21.38000 1163.503
21.39000 1187.017
21.40000 1206.370
21.41000 1225.683
21.42000 1242.395
21.43000 1257.536
21.44000 1272.198
21.45000 1303.694
21.46000 1339.959
21.47000 1375.618
21.48000 1404.670
21.49000 1431.911
21.50000 1460.414
21.51000 1497.067
21.52000 1535.181
21.53000 1566.511
21.54000 1627.573
21.55000 1680.427
21.56000 1735.223
21.57000 1795.425
21.58000 1855.946
21.59000 1931.482
21.60000 2035.282
21.61000 2139.743
21.62000 2197.882
21.63000 2383.244
21.64000 2511.776
21.65000 2669.713
21.66000 2851.282
21.67000 3033.681
21.68000 3252.252
21.69000 3490.138
21.70000 3718.239
21.71000 4007.034
21.72000 4297.185
21.73000 4595.131
21.74000 4964.553
21.75000 5351.246
21.76000 5742.454
21.77000 6159.006
21.78000 6579.503
21.79000 6916.044
21.80000 7509.521
21.81000 8008.666
21.82000 8512.605
21.83000 9028.385
21.84000 9544.714
21.85000 10094.028
21.86000 10698.300
21.87000 11303.416
21.88000 11619.727
21.89000 12291.250
21.90000 12745.604
21.91000 13173.945
21.92000 13583.912
21.93000 13988.579
21.94000 14229.040
21.95000 14391.780
21.96000 14546.078
21.97000 14587.746
21.98000 14592.945
21.99000 14584.544
22.00000 14469.945
22.01000 14332.797
22.02000 14170.588
22.03000 13885.530
22.04000 13583.986
22.05000 13349.559
22.06000 12719.240
22.07000 12193.520
22.08000 11664.419
22.09000 11127.915
22.10000 10591.148
22.11000 10053.160
22.12000 9513.373
22.13000 8973.610
22.14000 8435.871
22.15000 7900.176
22.16000 7364.993
22.17000 6868.443
22.18000 6395.966
22.19000 5926.795
22.20000 5534.612
22.21000 5174.750
22.22000 4837.871
22.23000 4491.192
22.24000 4173.509
22.25000 3867.619
22.26000 3640.908
22.27000 3428.904
22.28000 3221.764
22.29000 3035.555
22.30000 2851.746
22.31000 2713.288
22.32000 2572.989
22.33000 2463.080
22.34000 2365.147
22.35000 2290.484
22.36000 2216.417
22.37000 2146.396
22.38000 2081.614
22.39000 2016.925
22.40000 1961.015
22.41000 1912.553
22.42000 1864.462
22.43000 1834.288
22.44000 1813.989
22.45000 1794.403
22.46000 1787.787
22.47000 1786.001
22.48000 1784.353
22.49000 1795.685
22.50000 1808.749
22.51000 1826.796
22.52000 1873.841
22.53000 1925.573
22.54000 2034.391
22.55000 2359.597
22.56000 2705.758
22.57000 2957.715
22.58000 4281.924
22.59000 5342.158
22.60000 6909.762
22.61000 9350.210
22.62000 11805.779
22.63000 15064.805
22.64000 19235.061
22.65000 23391.891
22.66000 27573.938
22.67000 31739.234
22.68000 35885.547
22.69000 39393.215
22.70000 42588.977
22.71000 45711.688
22.72000 47767.457
22.73000 49470.984
22.74000 51018.531
22.75000 51632.383
22.76000 51993.512
22.77000 52210.449
22.78000 51695.559
22.79000 51078.508
22.80000 50295.426
22.81000 48956.258
22.82000 47572.238
22.83000 46601.746
22.84000 43084.113
22.85000 40348.918
22.86000 37297.273
22.87000 33764.602
22.88000 30226.904
22.89000 26592.969
22.90000 22863.979
22.91000 19161.004
22.92000 15871.205
22.93000 12894.827
22.94000 9955.565
22.95000 7943.252
22.96000 6332.458
22.97000 4770.634
22.98000 3796.097
22.99000 2993.178
23.00000 2276.400
23.01000 1923.337
23.02000 1676.884
23.03000 1461.616
23.04000 1385.101
23.05000 1325.175
23.06000 1271.854
23.07000 1238.115
23.08000 1205.669
23.09000 1183.823
23.10000 1155.802
23.11000 1134.839
23.12000 1116.054
23.13000 1100.183
23.14000 1084.326
23.15000 1067.469
23.16000 1049.749
23.17000 1032.238
23.18000 1020.622
23.19000 1012.564
23.20000 1003.917
23.21000 983.875
23.22000 959.455
23.23000 936.218
23.24000 924.825
23.25000 916.490
23.26000 909.190
23.27000 911.150
23.28000 914.162
23.29000 912.972
23.30000 895.319
23.31000 875.997
23.32000 861.589
23.33000 860.098
23.34000 859.289
23.35000 858.768
23.36000 840.021
23.37000 826.075
23.38000 821.414
23.39000 827.658
23.40000 833.873
23.41000 830.432
23.42000 819.699
23.43000 809.158
23.44000 797.298
23.45000 785.206
23.46000 773.297
23.47000 764.207
23.48000 756.078
23.49000 748.433
23.50000 744.900
23.51000 742.300
23.52000 740.071
23.53000 743.767
23.54000 747.615
23.55000 747.784
23.56000 735.228
23.57000 721.595
23.58000 709.809
23.59000 702.330
23.60000 695.028
23.61000 690.546
23.62000 705.673
23.63000 716.683
23.64000 720.703
23.65000 717.561
23.66000 714.386
23.67000 707.853
23.68000 699.088
23.69000 690.543
23.70000 686.332
23.71000 684.161
23.72000 681.949
23.73000 679.210
23.74000 676.314
23.75000 673.688
23.76000 673.029
23.77000 672.762
23.78000 672.538
23.79000 665.768
23.80000 659.458
23.81000 653.221
23.82000 647.209
23.83000 641.213
23.84000 640.087
23.85000 649.040
23.86000 658.300
23.87000 663.691
23.88000 669.321
23.89000 673.267
23.90000 663.483
23.91000 641.453
23.92000 619.807
23.93000 621.186
23.94000 636.090
23.95000 650.494
23.96000 645.079
23.97000 632.562
23.98000 621.844
23.99000 629.993
24.00000 643.173
24.01000 653.596
24.02000 646.749
24.03000 636.898
24.04000 628.847
24.05000 638.764
24.06000 648.443
24.07000 653.983
24.08000 648.299
24.09000 641.985
24.10000 636.418
24.11000 632.221
24.12000 628.054
24.13000 625.765
24.14000 610.946
24.15000 600.759
24.16000 599.459
24.17000 605.102
24.18000 610.705
24.19000 614.712
24.20000 617.889
24.21000 620.929
24.22000 626.336
24.23000 632.147
24.24000 637.003
24.25000 633.405
24.26000 627.822
24.27000 623.319
24.28000 624.701
24.29000 626.970
24.30000 628.775
24.31000 618.456
24.32000 609.272
24.33000 601.597
24.34000 597.552
24.35000 593.667
24.36000 592.000
24.37000 593.931
24.38000 595.912
24.39000 596.932
24.40000 617.050
24.41000 630.429
24.42000 623.529
24.43000 602.695
24.44000 582.715
24.45000 587.518
24.46000 603.746
24.47000 619.093
24.48000 619.072
24.49000 614.656
24.50000 610.641
24.51000 609.660
24.52000 609.306
24.53000 610.498
24.54000 619.060
24.55000 628.579
24.56000 635.930
24.57000 617.715
24.58000 601.784
24.59000 594.142
24.60000 604.191
24.61000 614.827
24.62000 617.236
24.63000 607.869
24.64000 598.414
24.65000 596.773
24.66000 602.352
24.67000 607.834
24.68000 606.788
24.69000 601.781
24.70000 597.045
24.71000 598.253
24.72000 601.892
24.73000 605.289
24.74000 602.602
24.75000 598.649
24.76000 595.014
24.77000 593.456
24.78000 592.272
24.79000 590.511
24.80000 586.333
24.81000 581.887
24.82000 578.563
24.83000 593.404
24.84000 605.822
24.85000 612.959
24.86000 610.102
24.87000 607.009
24.88000 601.258
24.89000 592.165
24.90000 583.074
24.91000 586.754
24.92000 600.698
24.93000 614.334
24.94000 614.361
24.95000 607.083
24.96000 599.611
24.97000 588.795
24.98000 576.766
24.99000 565.700
25.00000 571.213
25.01000 579.738
25.02000 586.954
25.03000 586.785
25.04000 585.458
25.05000 583.619
25.06000 579.887
25.07000 575.979
25.08000 573.157
25.09000 572.422
25.10000 571.933
25.11000 572.967
25.12000 576.550
25.13000 580.173
25.14000 580.458
25.15000 577.067
25.16000 573.688
25.17000 572.128
25.18000 571.863
25.19000 571.723
25.20000 575.511
25.21000 581.167
25.22000 586.409
25.23000 585.871
25.24000 583.474
25.25000 581.306
25.26000 579.464
25.27000 577.904
25.28000 577.146
25.29000 580.348
25.30000 584.084
25.31000 584.765
25.32000 575.480
25.33000 565.424
25.34000 558.433
25.35000 568.081
25.36000 575.803
25.37000 577.142
25.38000 569.041
25.39000 560.855
25.40000 560.776
25.41000 568.467
25.42000 576.096
25.43000 575.679
25.44000 570.317
25.45000 565.089
25.46000 563.011
25.47000 562.261
25.48000 561.922
25.49000 566.314
25.50000 572.053
25.51000 577.155
25.52000 574.936
25.53000 571.823
25.54000 570.423
25.55000 576.432
25.56000 583.295
25.57000 586.278
25.58000 578.051
25.59000 569.118
25.60000 563.159
25.61000 563.512
25.62000 563.896
25.63000 562.428
25.64000 558.551
25.65000 554.681
25.66000 559.310
25.67000 571.048
25.68000 582.634
25.69000 581.525
25.70000 573.601
25.71000 565.649
25.72000 557.177
25.73000 548.512
25.74000 541.330
25.75000 548.469
25.76000 559.204
25.77000 568.563
25.78000 562.266
25.79000 554.706
25.80000 549.169
25.81000 551.341
25.82000 554.265
25.83000 555.235
25.84000 551.204
25.85000 546.922
25.86000 544.191
25.87000 539.893
25.88000 536.747
25.89000 542.462
25.90000 558.284
25.91000 574.039
25.92000 576.387
25.93000 568.892
25.94000 561.541
25.95000 559.804
25.96000 560.786
25.97000 561.383
25.98000 556.303
25.99000 549.341
26.00000 543.477
26.01000 546.620
26.02000 551.751
26.03000 556.131
26.04000 561.934
26.05000 566.988
26.06000 572.460
26.07000 579.338
26.08000 586.330
26.09000 586.753
26.10000 572.251
26.11000 557.173
26.12000 548.021
26.13000 546.202
26.14000 544.960
26.15000 545.200
26.16000 546.913
26.17000 548.635
26.18000 551.172
26.19000 554.235
26.20000 557.216
26.21000 554.673
26.22000 549.961
26.23000 545.791
26.24000 548.185
26.25000 552.506
26.26000 556.170
26.27000 555.214
26.28000 553.363
26.29000 551.821
26.30000 553.326
26.31000 554.879
26.32000 554.389
26.33000 547.815
26.34000 540.835
26.35000 536.189
26.36000 536.245
26.37000 536.435
26.38000 536.544
26.39000 536.686
26.40000 536.782
26.41000 534.436
26.42000 529.974
26.43000 525.696
26.44000 531.472
26.45000 542.998
26.46000 554.113
26.47000 555.859
26.48000 554.097
26.49000 552.490
26.50000 552.452
26.51000 552.822
26.52000 552.268
26.53000 546.107
26.54000 539.001
26.55000 533.225
26.56000 534.586
26.57000 536.290
26.58000 537.653
26.59000 538.112
26.60000 538.522
26.61000 539.784
26.62000 542.563
26.63000 545.372
26.64000 546.895
26.65000 535.812
26.66000 528.228
26.67000 525.624
26.68000 526.803
26.69000 528.204
26.70000 537.873
26.71000 551.731
26.72000 564.956
26.73000 560.906
26.74000 551.652
26.75000 543.485
26.76000 544.597
26.77000 547.829
26.78000 549.244
26.79000 541.046
26.80000 531.444
26.81000 523.854
26.82000 521.684
26.83000 520.313
26.84000 519.015
26.85000 517.886
26.86000 516.764
26.87000 520.203
26.88000 530.842
26.89000 541.570
26.90000 547.015
26.91000 533.059
26.92000 523.768
26.93000 520.830
26.94000 522.138
26.95000 523.631
26.96000 530.146
26.97000 538.916
26.98000 547.186
26.99000 545.512
27.00000 541.214
27.01000 536.472
27.02000 528.476
27.03000 519.829
27.04000 513.259
27.05000 516.304
27.06000 520.555
27.07000 523.816
27.08000 533.560
27.09000 541.619
27.10000 543.333
27.11000 531.857
27.12000 519.972
27.13000 516.096
27.14000 523.370
27.15000 530.716
27.16000 529.878
27.17000 521.708
27.18000 513.705
27.19000 515.870
27.20000 524.038
27.21000 532.050
27.22000 536.801
27.23000 540.252
27.24000 543.463
27.25000 541.809
27.26000 539.136
27.27000 536.520
27.28000 534.269
27.29000 532.081
27.30000 529.383
27.31000 524.614
27.32000 519.623
27.33000 515.918
27.34000 512.900
27.35000 510.585
27.36000 511.307
27.37000 517.626
27.38000 524.067
27.39000 526.794
27.40000 524.978
27.41000 523.155
27.42000 518.161
27.43000 510.716
27.44000 503.455
27.45000 503.736
27.46000 507.960
27.47000 511.980
27.48000 512.636
27.49000 512.102
27.50000 511.613
27.51000 511.818
27.52000 512.146
27.53000 513.348
27.54000 519.342
27.55000 526.063
27.56000 530.964
27.57000 529.330
27.58000 527.110
27.59000 525.520
27.60000 517.926
27.61000 511.921
27.62000 507.921
27.63000 507.193
27.64000 506.511
27.65000 505.557
27.66000 504.311
27.67000 503.072
27.68000 504.422
27.69000 507.525
27.70000 510.541
27.71000 511.009
27.72000 510.296
27.73000 509.655
27.74000 509.976
27.75000 510.599
27.76000 511.161
27.77000 501.958
27.78000 492.100
27.79000 485.348
27.80000 493.477
27.81000 503.551
27.82000 513.409
27.83000 522.581
27.84000 531.703
27.85000 537.990
27.86000 532.175
27.87000 527.503
27.88000 521.610
27.89000 513.960
27.90000 506.298
27.91000 503.404
27.92000 504.945
27.93000 506.472
27.94000 509.796
27.95000 514.128
27.96000 518.344
27.97000 519.941
27.98000 520.462
27.99000 520.853
28.00000 519.810
28.01000 518.370
28.02000 517.095
28.03000 507.473
28.04000 497.841
28.05000 490.242
28.06000 491.198
28.07000 493.107
28.08000 498.165
28.09000 512.082
28.10000 526.531
28.11000 536.079
28.12000 518.374
28.13000 504.829
28.14000 500.437
28.15000 507.628
28.16000 514.840
28.17000 515.085
28.18000 509.669
28.19000 504.329
28.20000 504.779
28.21000 508.249
28.22000 511.190
28.23000 504.905
28.24000 495.255
28.25000 487.024
28.26000 491.992
28.27000 500.184
28.28000 507.295
28.29000 504.224
28.30000 500.240
28.31000 498.511
28.32000 505.141
28.33000 512.557
28.34000 516.137
28.35000 510.143
28.36000 503.696
28.37000 499.626
28.38000 502.923
28.39000 505.397
28.40000 504.457
28.41000 499.738
28.42000 495.021
28.43000 490.922
28.44000 487.265
28.45000 483.684
28.46000 487.486
28.47000 494.532
28.48000 501.295
28.49000 504.076
28.50000 505.570
28.51000 506.504
28.52000 503.004
28.53000 498.553
28.54000 494.772
28.55000 497.321
28.56000 500.181
28.57000 501.213
28.58000 496.252
28.59000 490.823
28.60000 487.765
28.61000 489.951
28.62000 492.328
28.63000 493.754
28.64000 495.089
28.65000 496.037
28.66000 497.650
28.67000 499.905
28.68000 502.173
28.69000 505.466
28.70000 509.403
28.71000 513.227
28.72000 509.438
28.73000 502.771
28.74000 496.598
28.75000 496.145
28.76000 497.328
28.77000 498.500
28.78000 499.603
28.79000 500.693
28.80000 501.596
28.81000 495.231
28.82000 489.274
28.83000 486.758
28.84000 494.232
28.85000 502.342
28.86000 504.573
28.87000 495.264
28.88000 485.651
28.89000 480.190
28.90000 497.928
28.91000 510.340
28.92000 516.047
28.93000 516.113
28.94000 516.098
28.95000 512.104
28.96000 505.893
28.97000 499.916
28.98000 496.490
28.99000 494.177
29.00000 491.494
29.01000 485.210
29.02000 478.016
29.03000 472.349
29.04000 475.677
29.05000 480.477
29.06000 484.354
29.07000 489.636
29.08000 494.043
29.09000 496.765
29.10000 495.149
29.11000 493.314
29.12000 491.449
29.13000 489.533
29.14000 487.616
29.15000 486.591
29.16000 486.646
29.17000 486.677
29.18000 485.397
29.19000 483.149
29.20000 480.933
29.21000 479.813
29.22000 479.235
29.23000 478.683
29.24000 482.224
29.25000 486.766
29.26000 490.791
29.27000 490.555
29.28000 489.373
29.29000 488.105
29.30000 486.398
29.31000 484.630
29.32000 483.240
29.33000 487.009
29.34000 490.363
29.35000 492.204
29.36000 490.591
29.37000 488.844
29.38000 485.643
29.39000 480.211
29.40000 474.755
29.41000 471.824
29.42000 471.418
29.43000 471.031
29.44000 472.335
29.45000 474.741
29.46000 476.993
29.47000 475.320
29.48000 471.930
29.49000 468.741
29.50000 464.404
29.51000 460.132
29.52000 456.698
29.53000 459.188
29.54000 462.830
29.55000 467.578
29.56000 477.296
29.57000 487.618
29.58000 495.480
29.59000 478.228
29.60000 463.318
29.61000 453.872
29.62000 455.493
29.63000 457.434
29.64000 460.557
29.65000 465.282
29.66000 470.012
29.67000 473.788
29.68000 476.728
29.69000 479.594
29.70000 478.318
29.71000 474.660
29.72000 471.277
29.73000 473.335
29.74000 477.505
29.75000 481.373
29.76000 475.855
29.77000 468.679
29.78000 463.244
29.79000 468.441
29.80000 475.443
29.81000 480.501
29.82000 477.862
29.83000 474.431
29.84000 471.903
29.85000 475.523
29.86000 478.582
29.87000 480.147
29.88000 479.030
29.89000 477.861
29.90000 474.674
29.91000 469.093
29.92000 463.521
29.93000 462.372
29.94000 464.586
29.95000 466.714
29.96000 465.609
29.97000 462.857
29.98000 460.311
29.99000 461.002
30.00000 462.808
30.01000 464.457
30.02000 460.325
30.03000 455.477
30.04000 452.206
30.05000 457.325
30.06000 463.677
30.07000 469.365
30.08000 472.735
30.09000 475.905
30.10000 478.158
30.11000 471.334
30.12000 465.850
30.13000 460.084
30.14000 453.873
30.15000 447.656
30.16000 449.576
30.17000 459.933
30.18000 470.233
30.19000 470.502
30.20000 464.113
30.21000 458.009
30.22000 459.738
30.23000 465.004
30.24000 469.678
30.25000 466.785
30.26000 461.583
30.27000 456.910
30.28000 456.630
30.29000 457.160
30.30000 457.746
30.31000 458.597
30.32000 459.482
30.33000 459.036
30.34000 454.480
30.35000 449.633
30.36000 446.321
30.37000 456.600
30.38000 464.608
30.39000 464.895
30.40000 454.375
30.41000 443.785
30.42000 439.109
30.43000 439.769
30.44000 440.423
30.45000 448.362
30.46000 460.366
30.47000 471.886
30.48000 473.236
30.49000 470.513
30.50000 467.874
30.51000 466.140
30.52000 464.649
30.53000 463.334
30.54000 454.432
30.55000 445.605
30.56000 440.822
30.57000 452.585
30.58000 466.126
30.59000 474.766
30.60000 469.975
30.61000 464.415
30.62000 460.776
30.63000 461.332
30.64000 461.809
30.65000 464.146
30.66000 468.771
30.67000 473.381
30.68000 471.564
30.69000 464.671
30.70000 457.886
30.71000 450.887
30.72000 443.995
30.73000 437.744
30.74000 442.138
30.75000 450.314
30.76000 457.565
30.77000 456.516
30.78000 453.496
30.79000 450.887
30.80000 453.030
30.81000 455.466
30.82000 457.999
30.83000 460.881
30.84000 463.794
30.85000 465.086
30.86000 462.436
30.87000 459.610
30.88000 457.845
30.89000 453.644
30.90000 450.589
30.91000 449.238
30.92000 449.722
30.93000 450.202
30.94000 450.304
30.95000 450.143
30.96000 449.985
30.97000 447.690
30.98000 444.537
30.99000 442.205
31.00000 450.956
31.01000 463.194
31.02000 472.835
31.03000 462.606
31.04000 448.230
31.05000 436.083
31.06000 439.245
31.07000 443.573
31.08000 447.372
31.09000 449.480
31.10000 451.461
31.11000 452.174
31.12000 450.151
31.13000 448.034
31.14000 446.779
31.15000 446.258
31.16000 445.894
31.17000 448.582
31.18000 454.123
31.19000 459.582
31.20000 459.176
31.21000 455.176
31.22000 451.297
31.23000 448.999
31.24000 447.440
31.25000 445.905
31.26000 444.634
31.27000 443.436
31.28000 442.604
31.29000 444.182
31.30000 446.200
31.31000 447.864
31.32000 449.448
31.33000 450.744
31.34000 449.245
31.35000 439.840
31.36000 429.957
31.37000 425.736
31.38000 432.341
31.39000 439.210
31.40000 443.063
31.41000 464.549
31.42000 479.447
31.43000 477.435
31.44000 461.604
31.45000 446.061
31.46000 443.715
31.47000 448.527
31.48000 453.146
31.49000 453.189
31.50000 451.660
31.51000 449.821
31.52000 445.082
31.53000 439.631
31.54000 435.271
31.55000 437.145
31.56000 440.008
31.57000 442.307
31.58000 446.077
31.59000 449.244
31.60000 448.712
31.61000 438.903
31.62000 428.648
31.63000 423.273
31.64000 426.156
31.65000 429.174
31.66000 430.765
31.67000 448.980
31.68000 461.265
31.69000 460.853
31.70000 451.323
31.71000 441.978
31.72000 438.558
31.73000 437.987
31.74000 437.445
31.75000 432.622
31.76000 426.885
31.77000 422.141
31.78000 425.309
31.79000 430.186
31.80000 433.796
31.81000 431.092
31.82000 427.523
31.83000 424.738
31.84000 432.137
31.85000 438.676
31.86000 443.889
31.87000 446.155
31.88000 448.312
31.89000 447.450
31.90000 442.074
31.91000 436.654
31.92000 429.974
31.93000 422.071
31.94000 414.284
31.95000 415.819
31.96000 423.256
31.97000 430.418
31.98000 430.982
31.99000 428.731
32.00000 426.621
32.01000 430.278
32.02000 435.118
32.03000 439.539
32.04000 441.093
32.05000 442.105
32.06000 441.242
32.07000 432.184
32.08000 422.167
32.09000 414.589
32.10000 425.631
32.11000 435.229
32.12000 442.638
32.13000 445.727
32.14000 448.700
32.15000 446.336
32.16000 436.947
32.17000 427.535
32.18000 424.873
32.19000 427.913
32.20000 430.820
32.21000 426.941
32.22000 419.263
32.23000 412.196
32.24000 416.595
32.25000 425.330
32.26000 433.406
32.27000 438.796
32.28000 443.024
32.29000 445.200
32.30000 435.219
32.31000 423.238
32.32000 414.642
32.33000 419.082
32.34000 424.814
32.35000 429.004
32.36000 423.644
32.37000 419.132
32.38000 416.894
32.39000 418.630
32.40000 420.438
32.41000 423.712
32.42000 428.677
32.43000 433.629
32.44000 433.845
32.45000 430.571
32.46000 427.394
32.47000 427.649
32.48000 429.605
32.49000 431.734
32.50000 436.442
32.51000 442.013
32.52000 447.086
32.53000 443.617
32.54000 438.857
32.55000 434.287
32.56000 430.696
32.57000 427.243
32.58000 425.057
32.59000 427.177
32.60000 429.653
32.61000 431.397
32.62000 423.302
32.63000 416.868
32.64000 408.697
32.65000 397.845
32.66000 386.963
32.67000 388.804
32.68000 403.441
32.69000 417.984
32.70000 424.440
32.71000 425.590
32.72000 426.651
32.73000 425.412
32.74000 423.161
32.75000 421.037
32.76000 420.474
32.77000 420.374
32.78000 420.285
32.79000 419.828
32.80000 419.367
32.81000 418.933
32.82000 418.620
32.83000 418.321
32.84000 417.738
32.85000 416.298
32.86000 414.800
32.87000 413.785
32.88000 405.839
32.89000 399.766
32.90000 401.375
32.91000 413.441
32.92000 425.557
32.93000 429.288
32.94000 425.670
32.95000 422.093
32.96000 423.624
32.97000 428.003
32.98000 432.057
32.99000 429.635
33.00000 424.685
33.01000 420.151
33.02000 419.869
33.03000 420.701
33.04000 421.432
33.05000 415.988
33.06000 410.403
33.07000 407.139
33.08000 413.111
33.09000 420.040
33.10000 423.313
33.11000 416.826
33.12000 409.808
33.13000 405.260
33.14000 402.440
33.15000 400.403
33.16000 404.615
33.17000 416.295
33.18000 427.945
33.19000 429.224
33.20000 422.541
33.21000 415.971
33.22000 416.066
33.23000 419.455
33.24000 422.667
33.25000 423.061
33.26000 422.481
33.27000 421.933
33.28000 421.660
33.29000 421.450
33.30000 421.269
33.31000 419.919
33.32000 418.629
33.33000 417.704
33.34000 418.060
33.35000 418.528
33.36000 416.503
33.37000 408.576
33.38000 400.398
33.39000 395.346
33.40000 401.965
33.41000 406.827
33.42000 409.846
33.43000 410.942
33.44000 411.989
33.45000 407.860
33.46000 400.233
33.47000 392.789
33.48000 394.256
33.49000 399.526
33.50000 404.611
33.51000 407.302
33.52000 409.261
33.53000 410.721
33.54000 408.499
33.55000 405.530
33.56000 403.033
33.57000 408.559
33.58000 414.014
33.59000 415.878
33.60000 406.581
33.61000 396.486
33.62000 391.585
33.63000 397.598
33.64000 403.957
33.65000 407.686
33.66000 403.589
33.67000 400.664
33.68000 398.619
33.69000 397.371
33.70000 396.101
33.71000 393.366
33.72000 389.758
33.73000 386.267
33.74000 386.460
33.75000 388.043
33.76000 389.942
33.77000 395.226
33.78000 401.428
33.79000 407.558
33.80000 413.226
33.81000 418.812
33.82000 423.393
33.83000 415.935
33.84000 408.747
33.85000 402.503
33.86000 398.856
33.87000 395.359
33.88000 393.233
33.89000 393.660
33.90000 394.145
33.91000 394.414
33.92000 409.724
33.93000 420.285
33.94000 420.147
33.95000 411.509
33.96000 402.957
33.97000 397.985
33.98000 394.903
33.99000 391.951
34.00000 385.264
34.01000 377.783
34.02000 371.512
34.03000 376.176
34.04000 383.452
34.05000 390.719
34.06000 397.941
34.07000 405.156
34.08000 410.915
34.09000 405.513
34.10000 400.330
34.11000 395.152
34.12000 389.984
34.13000 384.816
34.14000 384.661
34.15000 392.766
34.16000 400.993
34.17000 405.268
34.18000 400.290
34.19000 396.943
34.20000 395.915
34.21000 396.508
34.22000 397.061
34.23000 396.412
34.24000 395.201
34.25000 394.053
34.26000 394.099
34.27000 394.489
34.28000 394.792
34.29000 394.419
34.30000 393.906
34.31000 393.121
34.32000 391.018
34.33000 388.742
34.34000 386.976
34.35000 393.276
34.36000 398.765
34.37000 399.064
34.38000 388.117
34.39000 376.781
34.40000 371.918
34.41000 376.470
34.42000 381.100
34.43000 385.457
34.44000 389.555
34.45000 393.579
34.46000 392.285
34.47000 387.713
34.48000 383.348
34.49000 383.695
34.50000 386.000
34.51000 388.154
34.52000 391.310
34.53000 394.429
34.54000 396.229
34.55000 389.292
34.56000 380.751
34.57000 374.935
34.58000 380.703
34.59000 387.780
34.60000 393.096
34.61000 391.564
34.62000 390.038
34.63000 390.142
34.64000 393.377
34.65000 396.690
34.66000 396.631
34.67000 392.259
34.68000 387.876
34.69000 386.937
34.70000 388.820
34.71000 390.624
34.72000 388.719
34.73000 384.790
34.74000 381.176
34.75000 383.157
34.76000 387.199
34.77000 390.924
34.78000 393.663
34.79000 395.897
34.80000 397.369
34.81000 394.464
34.82000 390.861
34.83000 388.173
34.84000 388.915
34.85000 389.985
34.86000 390.761
34.87000 387.667
34.88000 385.145
34.89000 384.077
34.90000 385.481
34.91000 386.927
34.92000 384.778
34.93000 378.600
34.94000 372.443
34.95000 371.108
34.96000 373.236
34.97000 375.322
34.98000 376.038
34.99000 376.092
35.00000 376.310
35.01000 378.868
35.02000 382.190
35.03000 385.204
35.04000 377.808
35.05000 369.286
35.06000 362.535
35.07000 364.659
35.08000 368.006
35.09000 371.299
35.10000 374.415
35.11000 377.516
35.12000 379.683
35.13000 377.089
35.14000 374.996
35.15000 373.770
35.16000 373.849
35.17000 373.941
35.18000 375.638
35.19000 378.899
35.20000 382.137
35.21000 381.193
35.22000 377.648
35.23000 374.197
35.24000 373.033
35.25000 372.849
35.26000 373.108
35.27000 378.586
35.28000 385.572
35.29000 391.798
35.30000 384.609
35.31000 376.140
35.32000 369.977
35.33000 373.949
35.34000 379.116
35.35000 382.574
35.36000 381.022
35.37000 379.145
35.38000 377.886
35.39000 365.536
35.40000 356.146
35.41000 350.606
35.42000 350.163
35.43000 349.749
35.44000 352.294
35.45000 357.357
35.46000 362.358
35.47000 368.129
35.48000 374.176
35.49000 379.881
35.50000 379.115
35.51000 375.889
35.52000 373.084
35.53000 374.428
35.54000 376.831
35.55000 378.932
35.56000 380.946
35.57000 382.658
35.58000 385.265
35.59000 391.340
35.60000 397.759
35.61000 399.363
35.62000 388.439
35.63000 376.867
35.64000 369.443
35.65000 375.453
35.66000 380.017
35.67000 383.219
35.68000 384.840
35.69000 386.442
35.70000 384.758
35.71000 380.621
35.72000 376.560
35.73000 371.886
35.74000 367.082
35.75000 363.048
35.76000 370.667
35.77000 382.214
35.78000 391.538
35.79000 382.277
35.80000 368.841
35.81000 357.342
35.82000 363.778
35.83000 371.373
35.84000 376.474
35.85000 373.045
35.86000 368.905
35.87000 367.281
35.88000 371.466
35.89000 375.882
35.90000 378.581
35.91000 374.482
35.92000 371.494
35.93000 368.804
35.94000 366.414
35.95000 364.036
35.96000 362.805
35.97000 362.329
35.98000 361.864
35.99000 366.591
36.00000 373.288
36.01000 379.327
36.02000 377.230
36.03000 372.704
36.04000 368.638
36.05000 367.866
36.06000 367.742
36.07000 367.639
36.08000 371.003
36.09000 374.152
36.10000 376.292
36.11000 375.381
36.12000 374.261
36.13000 372.482
36.14000 369.358
36.15000 366.193
36.16000 364.360
36.17000 362.618
36.18000 361.398
36.19000 361.034
36.20000 361.425
36.21000 361.843
36.22000 363.877
36.23000 366.850
36.24000 369.720
36.25000 368.999
36.26000 366.993
36.27000 365.061
36.28000 363.881
36.29000 362.901
36.30000 362.098
36.31000 362.391
36.32000 362.873
36.33000 363.266
36.34000 362.741
36.35000 362.233
36.36000 361.763
36.37000 361.397
36.38000 361.036
36.39000 362.772
36.40000 368.308
36.41000 373.923
36.42000 376.991
36.43000 365.192
36.44000 357.085
36.45000 354.056
36.46000 354.946
36.47000 355.906
36.48000 359.568
36.49000 364.622
36.50000 369.451
36.51000 366.456
36.52000 361.138
36.53000 356.104
36.54000 353.539
36.55000 351.547
36.56000 350.578
36.57000 355.114
36.58000 360.468
36.59000 364.716
36.60000 362.968
36.61000 361.139
36.62000 361.162
36.63000 365.591
36.64000 370.209
36.65000 371.252
36.66000 366.561
36.67000 361.794
36.68000 359.352
36.69000 362.781
36.70000 365.085
36.71000 367.228
36.72000 369.263
36.73000 371.201
36.74000 370.405
36.75000 368.360
36.76000 366.429
36.77000 364.987
36.78000 363.801
36.79000 362.255
36.80000 358.031
36.81000 353.262
36.82000 350.634
36.83000 358.092
36.84000 366.839
36.85000 373.576
36.86000 353.611
36.87000 336.278
36.88000 329.613
36.89000 345.477
36.90000 362.066
36.91000 371.305
36.92000 370.144
36.93000 368.908
36.94000 368.196
36.95000 367.964
36.96000 367.738
36.97000 367.946
36.98000 368.415
36.99000 368.796
37.00000 367.282
37.01000 365.001
37.02000 362.876
37.03000 356.722
37.04000 350.158
37.05000 344.655
37.06000 345.961
37.07000 348.479
37.08000 350.727
37.09000 351.859
37.10000 352.870
37.11000 353.623
37.12000 358.999
37.13000 363.396
37.14000 364.375
37.15000 358.955
37.16000 353.389
37.17000 349.661
37.18000 348.218
37.19000 346.785
37.20000 350.163
37.21000 357.352
37.22000 364.454
37.23000 367.795
37.24000 369.139
37.25000 370.351
37.26000 369.322
37.27000 367.487
37.28000 365.802
37.29000 356.249
37.30000 346.036
37.31000 338.401
37.32000 345.133
37.33000 354.087
37.34000 359.430
37.35000 351.598
37.36000 342.558
37.37000 336.051
37.38000 334.392
37.39000 333.292
37.40000 334.548
37.41000 339.707
37.42000 344.924
37.43000 346.346
37.44000 343.641
37.45000 340.945
37.46000 342.871
37.47000 347.988
37.48000 352.943
37.49000 352.925
37.50000 350.567
37.51000 348.365
37.52000 348.303
37.53000 348.920
37.54000 349.478
37.55000 349.926
37.56000 350.299
37.57000 350.732
37.58000 351.453
37.59000 352.212
37.60000 352.304
37.61000 350.245
37.62000 348.022
37.63000 346.482
37.64000 351.935
37.65000 356.223
37.66000 354.993
37.67000 345.693
37.68000 336.325
37.69000 332.525
37.70000 333.995
37.71000 335.452
37.72000 334.791
37.73000 332.852
37.74000 331.210
37.75000 336.387
37.76000 344.409
37.77000 351.659
37.78000 350.158
37.79000 346.195
37.80000 342.677
37.81000 342.313
37.82000 342.502
37.83000 342.126
37.84000 339.331
37.85000 336.261
37.86000 335.397
37.87000 340.835
37.88000 346.664
37.89000 350.536
37.90000 342.080
37.91000 335.597
37.92000 335.632
37.93000 344.054
37.94000 352.494
37.95000 354.609
37.96000 351.494
37.97000 348.422
37.98000 349.325
37.99000 352.322
38.00000 355.125
38.01000 354.434
38.02000 352.448
38.03000 350.373
38.04000 347.445
38.05000 344.305
38.06000 341.573
38.07000 336.655
38.08000 332.158
38.09000 329.141
38.10000 331.707
38.11000 334.810
38.12000 337.714
38.13000 340.116
38.14000 342.494
38.15000 344.004
38.16000 338.570
38.17000 334.540
38.18000 331.888
38.19000 330.790
38.20000 329.723
38.21000 333.505
38.22000 340.807
38.23000 347.964
38.24000 347.899
38.25000 344.462
38.26000 341.146
38.27000 339.568
38.28000 338.562
38.29000 338.223
38.30000 343.277
38.31000 349.509
38.32000 354.817
38.33000 356.581
38.34000 357.650
38.35000 358.097
38.36000 356.468
38.37000 354.674
38.38000 351.477
38.39000 345.127
38.40000 338.658
38.41000 334.750
38.42000 344.298
38.43000 351.197
38.44000 352.055
38.45000 346.984
38.46000 341.939
38.47000 339.075
38.48000 337.605
38.49000 336.176
38.50000 332.771
38.51000 328.722
38.52000 325.071
38.53000 326.141
38.54000 328.583
38.55000 331.308
38.56000 335.990
38.57000 341.045
38.58000 345.251
38.59000 344.692
38.60000 343.762
38.61000 341.498
38.62000 335.305
38.63000 328.855
38.64000 328.785
38.65000 341.433
38.66000 354.431
38.67000 361.869
38.68000 341.611
38.69000 327.388
38.70000 325.827
38.71000 335.102
38.72000 344.243
38.73000 346.347
38.74000 344.470
38.75000 342.662
38.76000 339.671
38.77000 336.437
38.78000 334.007
38.79000 339.568
38.80000 347.180
38.81000 353.216
38.82000 349.797
38.83000 344.804
38.84000 340.756
38.85000 340.388
38.86000 340.389
38.87000 340.206
38.88000 339.543
38.89000 338.854
38.90000 339.896
38.91000 343.993
38.92000 348.147
38.93000 350.387
38.94000 348.581
38.95000 347.331
38.96000 343.581
38.97000 337.957
38.98000 332.374
38.99000 328.299
39.00000 324.979
39.01000 321.813
39.02000 319.740
39.03000 318.159
39.04000 317.620
39.05000 325.843
39.06000 336.045
39.07000 344.255
39.08000 342.058
39.09000 338.362
39.10000 335.448
39.11000 331.070
39.12000 327.462
39.13000 325.340
39.14000 326.666
39.15000 328.132
39.16000 327.386
39.17000 323.186
39.18000 318.946
39.19000 316.807
39.20000 329.175
39.21000 337.401
39.22000 341.300
39.23000 342.339
39.24000 343.076
39.25000 335.808
39.26000 324.984
39.27000 314.787
39.28000 317.749
39.29000 324.070
39.30000 329.884
39.31000 332.041
39.32000 333.474
39.33000 334.707
39.34000 335.023
39.35000 335.225
39.36000 335.380
39.37000 339.319
39.38000 342.633
39.39000 343.112
39.40000 337.759
39.41000 332.231
39.42000 328.870
39.43000 328.489
39.44000 328.127
39.45000 326.163
39.46000 322.785
39.47000 319.472
39.48000 320.021
39.49000 322.825
39.50000 325.434
39.51000 324.090
39.52000 321.188
39.53000 318.492
39.54000 325.064
39.55000 333.212
39.56000 339.635
39.57000 335.317
39.58000 329.145
39.59000 325.802
39.60000 333.849
39.61000 343.091
39.62000 349.931
39.63000 339.975
39.64000 331.525
39.65000 325.382
39.66000 323.441
39.67000 321.588
39.68000 320.962
39.69000 321.818
39.70000 322.675
39.71000 324.289
39.72000 326.477
39.73000 328.629
39.74000 329.354
39.75000 329.342
39.76000 329.598
39.77000 334.200
39.78000 340.321
39.79000 345.925
39.80000 347.210
39.81000 347.455
39.82000 347.469
39.83000 346.230
39.84000 344.803
39.85000 343.634
39.86000 343.380
39.87000 343.207
39.88000 343.084
39.89000 339.204
39.90000 336.120
39.91000 333.280
39.92000 330.834
39.93000 328.393
39.94000 331.646
39.95000 340.909
39.96000 350.126
39.97000 350.986
39.98000 346.197
39.99000 341.616
40.00000 342.986
40.01000 347.086
40.02000 350.830
40.03000 349.895
40.04000 347.510
40.05000 345.364
40.06000 339.012
40.07000 332.686
40.08000 328.581
40.09000 334.980
40.10000 342.733
40.11000 348.992
40.12000 350.559
40.13000 351.784
40.14000 352.625
40.15000 348.770
40.16000 345.764
40.17000 343.791
40.18000 343.289
40.19000 342.797
40.20000 341.911
40.21000 340.664
40.22000 339.428
40.23000 339.559
40.24000 340.496
40.25000 341.661
40.26000 347.776
40.27000 355.906
40.28000 363.140
40.29000 360.622
40.30000 355.432
40.31000 350.845
40.32000 349.251
40.33000 348.338
40.34000 347.716
40.35000 348.308
40.36000 349.032
40.37000 347.853
40.38000 341.372
40.39000 334.579
40.40000 330.108
40.41000 341.317
40.42000 349.841
40.43000 350.486
40.44000 341.279
40.45000 332.069
40.46000 332.159
40.47000 339.717
40.48000 347.163
40.49000 347.431
40.50000 343.974
40.51000 340.773
40.52000 341.945
40.53000 344.696
40.54000 347.564
40.55000 351.503
40.56000 355.702
40.57000 359.339
40.58000 354.605
40.59000 349.469
40.60000 345.220
40.61000 344.225
40.62000 343.531
40.63000 343.811
40.64000 346.491
40.65000 349.283
40.66000 351.038
40.67000 341.456
40.68000 334.403
40.69000 329.229
40.70000 326.112
40.71000 323.049
40.72000 327.236
40.73000 336.541
40.74000 345.646
40.75000 345.452
40.76000 341.045
40.77000 337.194
40.78000 341.045
40.79000 347.359
40.80000 352.065
40.81000 344.226
40.82000 333.726
40.83000 324.826
40.84000 321.604
40.85000 319.542
40.86000 319.463
40.87000 325.814
40.88000 332.658
40.89000 338.405
40.90000 341.749
40.91000 345.007
40.92000 346.954
40.93000 347.092
40.94000 347.178
40.95000 347.260
40.96000 347.338
40.97000 347.454
40.98000 350.399
40.99000 355.107
41.00000 359.676
41.01000 358.030
41.02000 353.993
41.03000 349.782
41.04000 343.569
41.05000 336.790
41.06000 331.415
41.07000 335.460
41.08000 341.254
41.09000 346.047
41.10000 347.259
41.11000 347.921
41.12000 347.492
41.13000 343.931
41.14000 340.175
41.15000 338.522
41.16000 340.955
41.17000 343.492
41.18000 344.925
41.19000 341.889
41.20000 339.774
41.21000 342.196
41.22000 348.387
41.23000 354.572
41.24000 360.445
41.25000 366.146
41.26000 371.626
41.27000 373.828
41.28000 374.749
41.29000 375.630
41.30000 376.133
41.31000 376.542
41.32000 376.753
41.33000 375.816
41.34000 374.694
41.35000 373.790
41.36000 379.677
41.37000 384.991
41.38000 388.779
41.39000 388.681
41.40000 388.391
41.41000 388.932
41.42000 390.903
41.43000 392.899
41.44000 393.960
41.45000 391.060
41.46000 389.102
41.47000 390.196
41.48000 393.517
41.49000 396.769
41.50000 397.657
41.51000 397.392
41.52000 397.140
41.53000 400.140
41.54000 403.907
41.55000 406.605
41.56000 400.614
41.57000 392.715
41.58000 389.542
41.59000 410.340
41.60000 434.483
41.61000 453.396
41.62000 498.652
41.63000 536.511
41.64000 572.892
41.65000 605.934
41.66000 638.848
41.67000 677.258
41.68000 724.015
41.69000 770.859
41.70000 810.982
41.71000 844.468
41.72000 877.854
41.73000 902.472
41.74000 921.451
41.75000 940.026
41.76000 948.516
41.77000 952.640
41.78000 956.514
41.79000 962.033
41.80000 967.507
41.81000 970.656
41.82000 957.588
41.83000 941.400
41.84000 922.760
41.85000 893.213
41.86000 862.363
41.87000 838.929
41.88000 784.285
41.89000 739.713
41.90000 691.595
41.91000 636.372
41.92000 580.951
41.93000 540.134
41.94000 518.864
41.95000 497.709
41.96000 478.350
41.97000 460.572
41.98000 442.913
41.99000 431.596
42.00000 423.885
42.01000 416.829
42.02000 422.426
42.03000 432.882
42.04000 442.569
42.05000 441.776
42.06000 438.631
42.07000 435.935
42.08000 435.944
42.09000 436.406
42.10000 435.333
42.11000 428.245
42.12000 420.548
42.13000 414.895
42.14000 418.962
42.15000 422.503
42.16000 425.461
42.17000 427.385
42.18000 429.290
42.19000 429.996
42.20000 429.295
42.21000 428.595
42.22000 428.539
42.23000 428.967
42.24000 429.295
42.25000 425.931
42.26000 420.709
42.27000 416.325
42.28000 424.860
42.29000 437.795
42.30000 449.594
42.31000 449.781
42.32000 447.607
42.33000 445.249
42.34000 441.919
42.35000 438.447
42.36000 437.838
42.37000 447.117
42.38000 457.235
42.39000 464.399
42.40000 459.135
42.41000 454.747
42.42000 453.735
42.43000 458.022
42.44000 462.374
42.45000 468.688
42.46000 477.011
42.47000 485.285
42.48000 488.683
42.49000 488.839
42.50000 489.185
42.51000 494.640
42.52000 502.377
42.53000 510.023
42.54000 516.529
42.55000 522.690
42.56000 528.216
42.57000 527.729
42.58000 526.258
42.59000 527.729
42.60000 542.731
42.61000 559.418
42.62000 569.566
42.63000 559.711
42.64000 548.464
42.65000 540.809
42.66000 556.083
42.67000 568.013
42.68000 572.840
42.69000 567.839
42.70000 562.788
42.71000 572.569
42.72000 595.572
42.73000 618.336
42.74000 625.375
42.75000 623.230
42.76000 621.214
42.77000 621.860
42.78000 623.561
42.79000 625.011
42.80000 623.845
42.81000 621.982
42.82000 620.342
42.83000 626.688
42.84000 633.347
42.85000 640.615
42.86000 650.350
42.87000 660.346
42.88000 665.039
42.89000 655.352
42.90000 644.859
42.91000 638.020
42.92000 642.631
42.93000 646.194
42.94000 650.268
42.95000 654.961
42.96000 659.644
42.97000 661.146
42.98000 660.163
42.99000 659.197
43.00000 664.953
43.01000 673.909
43.02000 682.549
43.03000 686.041
43.04000 687.724
43.05000 688.014
43.06000 675.988
43.07000 661.070
43.08000 648.206
43.09000 658.332
43.10000 669.857
43.11000 678.619
43.12000 677.512
43.13000 675.529
43.14000 672.710
43.15000 667.879
43.16000 662.960
43.17000 659.902
43.18000 669.377
43.19000 676.324
43.20000 686.973
43.21000 701.554
43.22000 716.007
43.23000 715.435
43.24000 704.544
43.25000 693.904
43.26000 686.424
43.27000 680.656
43.28000 676.060
43.29000 686.990
43.30000 702.753
43.31000 717.393
43.32000 723.547
43.33000 727.952
43.34000 731.667
43.35000 739.157
43.36000 745.821
43.37000 749.526
43.38000 743.888
43.39000 737.564
43.40000 736.116
43.41000 745.072
43.42000 754.373
43.43000 759.864
43.44000 773.104
43.45000 782.496
43.46000 788.235
43.47000 790.599
43.48000 793.046
43.49000 801.050
43.50000 812.423
43.51000 823.440
43.52000 832.678
43.53000 840.730
43.54000 848.416
43.55000 852.072
43.56000 854.619
43.57000 857.842
43.58000 865.460
43.59000 873.870
43.60000 880.790
43.61000 898.068
43.62000 913.215
43.63000 924.880
43.64000 926.804
43.65000 928.149
43.66000 936.458
43.67000 957.936
43.68000 979.726
43.69000 991.881
43.70000 985.700
43.71000 981.410
43.72000 987.432
43.73000 1001.783
43.74000 1016.368
43.75000 1041.262
43.76000 1071.687
43.77000 1100.872
43.78000 1115.426
43.79000 1124.067
43.80000 1133.029
43.81000 1144.946
43.82000 1157.582
43.83000 1171.960
43.84000 1196.166
43.85000 1221.910
43.86000 1242.536
43.87000 1263.383
43.88000 1280.269
43.89000 1297.588
43.90000 1315.982
43.91000 1334.426
43.92000 1358.588
43.93000 1392.320
43.94000 1426.202
43.95000 1443.958
43.96000 1480.583
43.97000 1505.446
43.98000 1537.231
43.99000 1573.932
44.00000 1610.544
44.01000 1644.392
44.02000 1676.927
44.03000 1707.788
44.04000 1758.188
44.05000 1810.449
44.06000 1863.941
44.07000 1927.101
44.08000 1992.324
44.09000 2051.105
44.10000 2078.150
44.11000 2100.912
44.12000 2118.628
44.13000 2206.248
44.14000 2280.314
44.15000 2354.813
44.16000 2430.263
44.17000 2505.749
44.18000 2591.101
44.19000 2691.041
44.20000 2791.108
44.21000 2907.931
44.22000 3040.775
44.23000 3174.114
44.24000 3345.561
44.25000 3540.865
44.26000 3738.510
44.27000 3991.188
44.28000 4267.078
44.29000 4525.482
44.30000 4955.161
44.31000 5390.280
44.32000 5825.004
44.33000 6257.067
44.34000 6688.632
44.35000 7100.764
44.36000 7428.874
44.37000 7747.292
44.38000 7987.448
44.39000 8309.942
44.40000 8566.598
44.41000 8833.279
44.42000 9119.533
44.43000 9406.297
44.44000 9665.652
44.45000 9889.348
44.46000 10112.655
44.47000 10328.329
44.48000 10537.026
44.49000 10743.932
44.50000 10863.263
44.51000 10934.100
44.52000 11004.070
44.53000 11058.158
44.54000 11106.303
44.55000 11150.762
44.56000 11182.081
44.57000 11207.212
44.58000 11249.847
44.59000 11394.889
44.60000 11556.570
44.61000 11734.366
44.62000 11973.538
44.63000 12218.694
44.64000 12397.380
44.65000 12750.677
44.66000 13029.535
44.67000 13318.960
44.68000 13626.646
44.69000 13934.655
44.70000 14246.804
44.71000 14563.673
44.72000 14879.494
44.73000 15078.221
44.74000 15190.105
44.75000 15302.504
44.76000 15432.421
44.77000 15570.934
44.78000 15706.017
44.79000 15790.604
44.80000 15858.443
44.81000 15920.110
44.82000 15931.543
44.83000 15931.844
44.84000 15916.943
44.85000 15824.496
44.86000 15721.160
44.87000 15610.186
44.88000 15473.504
44.89000 15334.733
44.90000 15237.280
44.91000 14931.740
44.92000 14694.319
44.93000 14439.128
44.94000 14156.797
44.95000 13874.175
44.96000 13590.650
44.97000 13306.229
44.98000 13023.746
44.99000 12724.838
45.00000 12420.072
45.01000 12114.096
45.02000 11777.519
45.03000 11427.627
45.04000 11080.188
45.05000 10762.380
45.06000 10453.271
45.07000 10177.130
45.08000 9811.505
45.09000 9477.914
45.10000 9143.282
45.11000 8803.990
45.12000 8464.138
45.13000 8137.857
45.14000 7852.006
45.15000 7568.846
45.16000 7377.878
45.17000 7003.350
45.18000 6720.820
45.19000 6452.697
45.20000 6203.961
45.21000 5955.342
45.22000 5717.488
45.23000 5488.953
45.24000 5263.059
45.25000 5074.015
45.26000 4910.097
45.27000 4746.055
45.28000 4579.583
45.29000 4412.174
45.30000 4249.255
45.31000 4131.615
45.32000 4025.718
45.33000 3932.906
45.34000 3808.815
45.35000 3697.797
45.36000 3591.613
45.37000 3504.456
45.38000 3419.239
45.39000 3338.155
45.40000 3267.986
45.41000 3198.398
45.42000 3153.491
45.43000 3072.385
45.44000 3012.604
45.45000 2948.335
45.46000 2878.767
45.47000 2809.356
45.48000 2775.983
45.49000 2769.958
45.50000 2764.039
45.51000 2732.258
45.52000 2688.915
45.53000 2646.894
45.54000 2625.434
45.55000 2611.013
45.56000 2596.278
45.57000 2578.874
45.58000 2560.859
45.59000 2545.398
45.60000 2513.896
45.61000 2485.290
45.62000 2463.523
45.63000 2465.517
45.64000 2469.538
45.65000 2473.131
45.66000 2475.719
45.67000 2478.266
45.68000 2479.833
45.69000 2485.212
45.70000 2489.103
45.71000 2490.204
45.72000 2488.430
45.73000 2486.660
45.74000 2485.235
45.75000 2484.040
45.76000 2482.875
45.77000 2480.646
45.78000 2478.061
45.79000 2477.786
45.80000 2506.836
45.81000 2544.776
45.82000 2579.007
45.83000 2586.175
45.84000 2587.921
45.85000 2589.385
45.86000 2628.374
45.87000 2664.738
45.88000 2692.123
45.89000 2691.902
45.90000 2689.741
45.91000 2700.645
45.92000 2738.702
45.93000 2777.599
45.94000 2800.292
45.95000 2850.309
45.96000 2885.617
45.97000 2933.183
45.98000 2991.740
45.99000 3050.386
46.00000 3114.446
46.01000 3181.700
46.02000 3246.719
46.03000 3328.839
46.04000 3412.758
46.05000 3499.939
46.06000 3621.550
46.07000 3752.387
46.08000 3893.569
46.09000 4099.919
46.10000 4317.663
46.11000 4495.824
46.12000 4850.513
46.13000 5156.529
46.14000 5485.550
46.15000 5877.266
46.16000 6272.531
46.17000 6694.986
46.18000 7167.520
46.19000 7641.146
46.20000 7901.919
46.21000 8730.288
46.22000 9302.979
46.23000 10178.859
46.24000 11292.736
46.25000 12442.065
46.26000 15035.888
46.27000 18384.449
46.28000 21589.123
46.29000 30034.738
46.30000 39628.176
46.31000 50141.020
46.32000 68837.953
46.33000 89467.539
46.34000 110997.617
46.35000 137458.188
46.36000 164666.516
46.37000 186333.016
46.38000 212362.813
46.39000 233667.047
46.40000 252599.391
46.41000 265797.969
46.42000 278742.094
46.43000 290376.000
46.44000 299874.719
46.45000 309343.313
46.46000 314234.000
46.47000 328073.031
46.48000 337391.094
46.49000 345407.625
46.50000 352525.500
46.51000 359413.719
46.52000 359565.531
46.53000 356596.875
46.54000 353788.344
46.55000 338271.938
46.56000 320350.188
46.57000 301974.313
46.58000 280149.313
46.59000 257609.031
46.60000 235280.828
46.61000 213967.719
46.62000 192787.125
46.63000 176410.719
46.64000 158556.078
46.65000 144303.422
46.66000 130860.781
46.67000 119155.195
46.68000 107507.836
46.69000 95809.047
46.70000 84036.273
46.71000 72264.953
46.72000 61093.313
46.73000 50484.129
46.74000 39908.953
46.75000 31678.408
46.76000 24876.758
46.77000 18204.916
46.78000 14416.462
46.79000 11812.864
46.80000 9381.477
46.81000 8115.265
46.82000 7259.467
46.83000 6459.853
46.84000 6027.712
46.85000 5662.177
46.86000 5315.452
46.87000 5047.824
46.88000 4789.000
46.89000 4595.194
46.90000 4361.090
46.91000 4176.501
46.92000 4006.894
46.93000 3865.766
46.94000 3725.323
46.95000 3605.950
46.96000 3513.225
46.97000 3420.723
46.98000 3327.835
46.99000 3234.987
47.00000 3142.506
47.01000 3066.466
47.02000 2999.294
47.03000 2932.490
47.04000 2872.118
47.05000 2814.090
47.06000 2760.681
47.07000 2702.258
47.08000 2648.929
47.09000 2599.443
47.10000 2571.765
47.11000 2547.522
47.12000 2519.307
47.13000 2476.368
47.14000 2432.048
47.15000 2399.998
47.16000 2366.138
47.17000 2340.088
47.18000 2299.092
47.19000 2232.944
47.20000 2166.393
47.21000 2119.469
47.22000 2094.270
47.23000 2069.184
47.24000 2033.444
47.25000 1990.515
47.26000 1948.441
47.27000 1933.522
47.28000 1931.583
47.29000 1927.558
47.30000 1894.170
47.31000 1851.297
47.32000 1812.467
47.33000 1776.734
47.34000 1745.830
47.35000 1716.315
47.36000 1693.677
47.37000 1671.973
47.38000 1650.209
47.39000 1628.249
47.40000 1606.273
47.41000 1590.972
47.42000 1541.481
47.43000 1503.215
47.44000 1478.628
47.45000 1474.374
47.46000 1470.308
47.47000 1455.017
47.48000 1428.911
47.49000 1403.007
47.50000 1380.401
47.51000 1360.223
47.52000 1340.457
47.53000 1330.476
47.54000 1324.642
47.55000 1317.234
47.56000 1291.558
47.57000 1260.661
47.58000 1233.170
47.59000 1217.253
47.60000 1205.320
47.61000 1193.726
47.62000 1183.604
47.63000 1173.652
47.64000 1159.974
47.65000 1135.479
47.66000 1110.298
47.67000 1093.472
47.68000 1082.693
47.69000 1074.823
47.70000 1063.532
47.71000 1047.765
47.72000 1031.982
47.73000 1018.689
47.74000 1007.488
47.75000 996.431
47.76000 984.640
47.77000 972.761
47.78000 961.189
47.79000 955.305
47.80000 951.560
47.81000 947.507
47.82000 940.460
47.83000 932.658
47.84000 925.850
47.85000 904.307
47.86000 883.820
47.87000 862.948
47.88000 840.597
47.89000 818.102
47.90000 802.943
47.91000 806.661
47.92000 811.333
47.93000 814.317
47.94000 805.825
47.95000 799.495
47.96000 788.658
47.97000 772.655
47.98000 756.663
47.99000 743.809
48.00000 733.271
48.01000 722.932
48.02000 715.886
48.03000 710.661
48.04000 705.471
48.05000 700.807
48.06000 696.319
48.07000 692.282
48.08000 691.973
48.09000 692.492
48.10000 692.935
48.11000 690.077
48.12000 687.276
48.13000 683.519
48.14000 676.529
48.15000 669.273
48.16000 659.805
48.17000 645.287
48.18000 630.573
48.19000 621.623
48.20000 608.634
48.21000 599.326
48.22000 593.548
48.23000 591.295
48.24000 589.003
48.25000 583.071
48.26000 574.774
48.27000 566.697
48.28000 567.606
48.29000 572.217
48.30000 576.475
48.31000 576.442
48.32000 575.141
48.33000 573.476
48.34000 569.229
48.35000 564.480
48.36000 560.517
48.37000 542.786
48.38000 526.697
48.39000 515.212
48.40000 517.519
48.41000 520.752
48.42000 521.886
48.43000 518.771
48.44000 515.533
48.45000 513.667
48.46000 501.086
48.47000 492.247
48.48000 491.775
48.49000 498.590
48.50000 505.241
48.51000 502.865
48.52000 495.303
48.53000 488.007
48.54000 478.760
48.55000 469.346
48.56000 460.884
48.57000 462.094
48.58000 465.826
48.59000 469.142
48.60000 469.924
48.61000 470.275
48.62000 470.561
48.63000 470.863
48.64000 471.111
48.65000 469.518
48.66000 463.036
48.67000 456.290
48.68000 453.167
48.69000 456.542
48.70000 460.046
48.71000 461.950
48.72000 445.754
48.73000 434.652
48.74000 429.388
48.75000 428.580
48.76000 427.746
48.77000 425.961
48.78000 423.691
48.79000 421.523
48.80000 419.736
48.81000 418.197
48.82000 417.015
48.83000 418.898
48.84000 421.485
48.85000 423.103
48.86000 419.578
48.87000 415.297
48.88000 411.909
48.89000 409.380
48.90000 407.408
48.91000 405.019
48.92000 401.651
48.93000 398.241
48.94000 396.616
48.95000 397.821
48.96000 399.062
48.97000 399.693
48.98000 388.884
48.99000 381.687
49.00000 379.995
49.01000 382.002
49.02000 384.091
49.03000 388.454
49.04000 393.843
49.05000 398.928
49.06000 396.433
49.07000 392.028
49.08000 387.025
49.09000 377.630
49.10000 367.351
49.11000 359.097
49.12000 360.261
49.13000 362.614
49.14000 364.420
49.15000 366.281
49.16000 367.754
49.17000 369.678
49.18000 372.543
49.19000 375.437
49.20000 378.750
49.21000 382.650
49.22000 386.552
49.23000 382.665
49.24000 371.765
49.25000 360.873
49.26000 350.475
49.27000 340.370
49.28000 331.185
49.29000 341.339
49.30000 359.234
49.31000 375.896
49.32000 376.073
49.33000 372.219
49.34000 367.653
49.35000 358.572
49.36000 348.697
49.37000 341.149
49.38000 343.118
49.39000 346.109
49.40000 348.333
49.41000 346.182
49.42000 344.316
49.43000 342.010
49.44000 338.892
49.45000 335.755
49.46000 330.851
49.47000 323.775
49.48000 316.706
49.49000 318.454
49.50000 327.119
49.51000 335.591
49.52000 336.071
49.53000 332.353
49.54000 328.610
49.55000 324.441
49.56000 320.121
49.57000 316.158
49.58000 318.057
49.59000 320.991
49.60000 323.267
49.61000 321.922
49.62000 320.024
49.63000 318.276
49.64000 317.071
49.65000 315.915
49.66000 315.085
49.67000 314.127
49.68000 313.390
49.69000 313.674
49.70000 315.629
49.71000 317.609
49.72000 317.812
49.73000 316.106
49.74000 314.407
49.75000 314.479
49.76000 315.765
49.77000 316.993
49.78000 316.515
49.79000 315.242
49.80000 314.221
49.81000 316.585
49.82000 320.013
49.83000 323.107
49.84000 320.614
49.85000 317.400
49.86000 315.120
49.87000 317.342
49.88000 320.154
49.89000 319.949
49.90000 310.116
49.91000 299.564
49.92000 292.280
49.93000 301.992
49.94000 309.724
49.95000 312.333
49.96000 307.534
49.97000 302.674
49.98000 299.647
49.99000 298.331
50.00000 297.027
50.01000 298.540
50.02000 301.718
50.03000 304.802
50.04000 305.768
50.05000 305.859
50.06000 305.385
50.07000 298.604
50.08000 290.068
50.09000 282.504
50.10000 292.350
50.11000 303.618
50.12000 310.619
50.13000 299.578
50.14000 286.514
50.15000 278.965
50.16000 287.004
50.17000 295.986
50.18000 301.932
50.19000 306.525
50.20000 309.892
50.21000 307.380
50.22000 297.391
50.23000 287.396
50.24000 285.544
50.25000 290.344
50.26000 295.076
50.27000 296.247
50.28000 295.510
50.29000 295.049
50.30000 299.465
50.31000 305.668
50.32000 310.478
50.33000 302.246
50.34000 290.812
50.35000 280.880
50.36000 281.066
50.37000 282.592
50.38000 283.262
50.39000 280.748
50.40000 277.932
50.41000 276.856
50.42000 280.142
50.43000 283.637
50.44000 285.846
50.45000 284.268
50.46000 283.080
50.47000 281.810
50.48000 280.448
50.49000 279.094
50.50000 278.802
50.51000 279.272
50.52000 279.733
50.53000 280.839
50.54000 282.200
50.55000 283.596
50.56000 285.496
50.57000 287.559
50.58000 289.511
50.59000 290.576
50.60000 291.450
50.61000 292.194
50.62000 288.918
50.63000 285.706
50.64000 282.331
50.65000 278.421
50.66000 274.469
50.67000 272.835
50.68000 276.357
50.69000 280.067
50.70000 282.298
50.71000 281.213
50.72000 280.418
50.73000 279.664
50.74000 278.951
50.75000 278.201
50.76000 274.535
50.77000 269.024
50.78000 263.669
50.79000 270.525
50.80000 281.984
50.81000 292.831
50.82000 296.514
50.83000 298.140
50.84000 298.800
50.85000 292.856
50.86000 285.664
50.87000 279.695
50.88000 285.205
50.89000 290.870
50.90000 295.009
50.91000 294.702
50.92000 294.108
50.93000 293.994
50.94000 294.822
50.95000 295.675
50.96000 296.160
50.97000 287.650
50.98000 281.697
50.99000 279.781
51.00000 281.280
51.01000 282.747
51.02000 282.579
51.03000 281.495
51.04000 280.452
51.05000 275.141
51.06000 268.642
51.07000 262.804
51.08000 263.426
51.09000 265.686
51.10000 267.529
51.11000 266.901
51.12000 265.866
51.13000 265.028
51.14000 262.585
51.15000 260.468
51.16000 258.669
51.17000 257.695
51.18000 256.763
51.19000 255.887
51.20000 255.109
51.21000 254.333
51.22000 253.917
51.23000 251.136
51.24000 249.230
51.25000 246.232
51.26000 242.423
51.27000 238.626
51.28000 235.279
51.29000 232.153
51.30000 229.177
51.31000 233.016
51.32000 238.689
51.33000 243.276
51.34000 238.854
51.35000 232.422
51.36000 227.361
51.37000 229.383
51.38000 232.412
51.39000 234.794
51.40000 234.503
51.41000 234.094
51.42000 236.060
51.43000 243.477
51.44000 251.110
51.45000 253.419
51.46000 247.510
51.47000 241.509
51.48000 238.500
51.49000 238.694
51.50000 238.842
51.51000 240.699
51.52000 243.673
51.53000 246.681
51.54000 250.563
51.55000 254.829
51.56000 258.843
51.57000 253.180
51.58000 245.380
51.59000 237.848
51.60000 232.221
51.61000 226.967
51.62000 222.779
51.63000 223.411
51.64000 224.631
51.65000 225.561
51.66000 232.438
51.67000 238.172
51.68000 242.412
51.69000 243.614
51.70000 244.727
51.71000 245.278
51.72000 245.062
51.73000 244.843
51.74000 243.416
51.75000 240.935
51.76000 238.430
51.77000 234.564
51.78000 229.912
51.79000 225.355
51.80000 222.724
51.81000 220.844
51.82000 219.098
51.83000 221.367
51.84000 224.360
51.85000 227.593
51.86000 232.296
51.87000 237.249
51.88000 239.543
51.89000 231.256
51.90000 221.873
51.91000 214.951
51.92000 222.143
51.93000 228.308
51.94000 231.697
51.95000 230.078
51.96000 228.357
51.97000 226.232
51.98000 223.624
51.99000 221.021
52.00000 220.671
52.01000 222.042
52.02000 223.431
52.03000 225.520
52.04000 227.967
52.05000 230.441
52.06000 233.332
52.07000 236.369
52.08000 239.144
52.09000 238.049
52.10000 236.282
52.11000 234.183
52.12000 230.307
52.13000 226.169
52.14000 222.522
52.15000 220.600
52.16000 218.827
52.17000 217.565
52.18000 221.584
52.19000 224.816
52.20000 226.732
52.21000 226.549
52.22000 226.339
52.23000 224.428
52.24000 220.742
52.25000 217.076
52.26000 215.016
52.27000 214.053
52.28000 213.267
52.29000 217.383
52.30000 223.724
52.31000 229.772
52.32000 232.055
52.33000 233.184
52.34000 234.199
52.35000 232.277
52.36000 230.072
52.37000 226.618
52.38000 217.319
52.39000 207.278
52.40000 200.611
52.41000 204.431
52.42000 209.000
52.43000 212.127
52.44000 221.104
52.45000 227.963
52.46000 230.020
52.47000 225.323
52.48000 220.579
52.49000 217.767
52.50000 216.706
52.51000 215.655
52.52000 215.264
52.53000 215.266
52.54000 215.285
52.55000 215.686
52.56000 216.239
52.57000 216.615
52.58000 215.087
52.59000 213.044
52.60000 211.241
52.61000 210.667
52.62000 210.359
52.63000 210.447
52.64000 212.159
52.65000 214.046
52.66000 215.768
52.67000 217.033
52.68000 218.271
52.69000 219.082
52.70000 215.892
52.71000 213.480
52.72000 213.239
52.73000 215.681
52.74000 218.119
52.75000 216.776
52.76000 212.432
52.77000 208.154
52.78000 202.551
52.79000 196.440
52.80000 190.882
52.81000 194.592
52.82000 201.609
52.83000 207.909
52.84000 207.737
52.85000 206.019
52.86000 204.534
52.87000 206.510
52.88000 208.641
52.89000 210.754
52.90000 212.805
52.91000 214.849
52.92000 215.253
52.93000 211.647
52.94000 207.860
52.95000 205.491
52.96000 211.040
52.97000 215.130
52.98000 215.292
52.99000 211.209
53.00000 207.170
53.01000 209.003
53.02000 214.934
53.03000 220.734
53.04000 221.291
53.05000 219.471
53.06000 217.431
53.07000 212.392
53.08000 206.404
53.09000 201.458
53.10000 204.530
53.11000 209.284
53.12000 213.304
53.13000 213.893
53.14000 214.005
53.15000 213.813
53.16000 212.643
53.17000 211.400
53.18000 208.778
53.19000 203.169
53.20000 197.457
53.21000 194.061
53.22000 206.371
53.23000 215.179
53.24000 217.998
53.25000 215.185
53.26000 212.408
53.27000 212.195
53.28000 213.561
53.29000 214.886
53.30000 213.244
53.31000 210.520
53.32000 207.715
53.33000 204.006
53.34000 200.043
53.35000 197.430
53.36000 203.752
53.37000 211.712
53.38000 218.284
53.39000 212.467
53.40000 206.524
53.41000 200.760
53.42000 195.507
53.43000 190.286
53.44000 188.470
53.45000 193.193
53.46000 198.079
53.47000 200.825
53.48000 214.817
53.49000 224.529
53.50000 223.574
53.51000 213.858
53.52000 204.311
53.53000 202.602
53.54000 205.164
53.55000 207.625
53.56000 205.862
53.57000 202.758
53.58000 199.970
53.59000 200.168
53.60000 201.104
53.61000 201.583
53.62000 199.442
53.63000 196.882
53.64000 194.825
53.65000 195.284
53.66000 195.852
53.67000 197.709
53.68000 202.818
53.69000 208.084
53.70000 211.680
53.71000 212.436
53.72000 213.145
53.73000 213.519
53.74000 205.178
53.75000 199.517
53.76000 195.185
53.77000 191.812
53.78000 188.614
53.79000 191.108
53.80000 196.351
53.81000 201.332
53.82000 201.377
53.83000 199.931
53.84000 198.787
53.85000 200.069
53.86000 201.877
53.87000 203.448
53.88000 203.829
53.89000 204.047
53.90000 204.217
53.91000 196.411
53.92000 189.679
53.93000 185.679
53.94000 187.787
53.95000 190.123
53.96000 193.099
53.97000 197.039
53.98000 200.987
53.99000 200.883
54.00000 196.826
54.01000 192.801
54.02000 191.332
54.03000 191.489
54.04000 191.730
54.05000 194.049
54.06000 197.258
54.07000 200.269
54.08000 203.423
54.09000 206.334
54.10000 208.427
54.11000 204.884
54.12000 200.270
54.13000 196.776
54.14000 198.205
54.15000 200.214
54.16000 201.736
54.17000 198.988
54.18000 196.615
54.19000 196.004
54.20000 198.889
54.21000 201.869
54.22000 202.190
54.23000 198.995
54.24000 195.786
54.25000 194.271
54.26000 194.198
54.27000 194.158
54.28000 195.841
54.29000 198.494
54.30000 201.006
54.31000 200.841
54.32000 199.659
54.33000 198.566
54.34000 197.148
54.35000 195.801
54.36000 194.261
54.37000 191.578
54.38000 188.705
54.39000 186.663
54.40000 187.834
54.41000 189.325
54.42000 190.417
54.43000 195.693
54.44000 199.932
54.45000 201.820
54.46000 199.578
54.47000 197.260
54.48000 195.993
54.49000 195.945
54.50000 195.899
54.51000 193.043
54.52000 188.129
54.53000 183.484
54.54000 188.417
54.55000 198.122
54.56000 207.319
54.57000 208.819
54.58000 207.726
54.59000 206.731
54.60000 202.729
54.61000 198.587
54.62000 195.407
54.63000 197.219
54.64000 199.745
54.65000 202.039
54.66000 203.538
54.67000 204.972
54.68000 205.983
54.69000 205.303
54.70000 204.736
54.71000 203.621
54.72000 201.655
54.73000 199.679
54.74000 198.083
54.75000 196.871
54.76000 195.666
54.77000 193.866
54.78000 191.706
54.79000 189.525
54.80000 186.768
54.81000 183.758
54.82000 181.043
54.83000 181.991
54.84000 184.030
54.85000 185.857
54.86000 190.737
54.87000 195.522
54.88000 199.019
54.89000 196.666
54.90000 193.594
54.91000 191.423
54.92000 191.977
54.93000 192.719
54.94000 193.221
54.95000 194.577
54.96000 195.608
54.97000 196.714
54.98000 197.923
54.99000 199.130
55.00000 197.139
55.01000 192.331
55.02000 187.576
55.03000 185.250
55.04000 184.355
55.05000 183.547
55.06000 184.481
55.07000 186.099
55.08000 188.391
55.09000 197.639
55.10000 208.720
55.11000 218.457
55.12000 216.037
55.13000 212.162
55.14000 209.246
55.15000 210.160
55.16000 211.474
55.17000 211.739
55.18000 209.190
55.19000 206.487
55.20000 204.732
55.21000 207.426
55.22000 209.465
55.23000 207.650
55.24000 201.205
55.25000 194.776
55.26000 194.686
55.27000 199.486
55.28000 204.206
55.29000 204.506
55.30000 202.596
55.31000 200.963
55.32000 203.762
55.33000 208.102
55.34000 212.258
55.35000 214.817
55.36000 217.007
55.37000 218.891
55.38000 213.848
55.39000 208.706
55.40000 205.050
55.41000 206.644
55.42000 208.697
55.43000 211.584
55.44000 216.458
55.45000 221.416
55.46000 224.486
55.47000 221.312
55.48000 218.971
55.49000 220.924
55.50000 227.380
55.51000 233.781
55.52000 234.115
55.53000 230.330
55.54000 226.634
55.55000 231.802
55.56000 240.610
55.57000 249.199
55.58000 254.939
55.59000 259.802
55.60000 263.786
55.61000 261.227
55.62000 257.335
55.63000 254.061
55.64000 257.037
55.65000 260.186
55.66000 262.819
55.67000 263.839
55.68000 264.744
55.69000 267.168
55.70000 272.800
55.71000 278.534
55.72000 281.904
55.73000 292.132
55.74000 299.377
55.75000 304.088
55.76000 306.489
55.77000 308.912
55.78000 312.845
55.79000 317.682
55.80000 322.364
55.81000 328.988
55.82000 335.989
55.83000 341.828
55.84000 335.105
55.85000 324.963
55.86000 316.815
55.87000 321.464
55.88000 328.391
55.89000 334.078
55.90000 335.110
55.91000 335.541
55.92000 336.612
55.93000 339.453
55.94000 342.396
55.95000 343.061
55.96000 339.462
55.97000 335.765
55.98000 333.714
55.99000 327.356
56.00000 322.958
56.01000 319.593
56.02000 317.052
56.03000 314.463
56.04000 309.787
56.05000 304.004
56.06000 298.463
56.07000 293.046
56.08000 288.032
56.09000 283.385
56.10000 282.074
56.11000 281.563
56.12000 280.504
56.13000 276.388
56.14000 271.799
56.15000 268.132
56.16000 261.828
56.17000 256.539
56.18000 252.434
56.19000 251.232
56.20000 250.164
56.21000 247.558
56.22000 242.406
56.23000 237.215
56.24000 234.511
56.25000 235.183
56.26000 235.639
56.27000 236.275
56.28000 237.038
56.29000 237.729
56.30000 236.260
56.31000 233.775
56.32000 231.421
56.33000 224.847
56.34000 217.558
56.35000 210.916
56.36000 209.281
56.37000 208.702
56.38000 208.462
56.39000 209.874
56.40000 211.505
56.41000 212.771
56.42000 206.705
56.43000 201.439
56.44000 196.561
56.45000 192.527
56.46000 188.522
56.47000 184.876
56.48000 181.753
56.49000 178.634
56.50000 178.738
56.51000 181.889
56.52000 185.061
56.53000 189.834
56.54000 195.598
56.55000 201.060
56.56000 199.594
56.57000 195.237
56.58000 191.160
56.59000 188.290
56.60000 185.990
56.61000 184.253
56.62000 186.273
56.63000 188.985
56.64000 190.783
56.65000 188.677
56.66000 186.127
56.67000 184.209
56.68000 178.500
56.69000 173.852
56.70000 173.560
56.71000 181.681
56.72000 190.013
56.73000 191.828
56.74000 185.261
56.75000 178.670
56.76000 175.033
56.77000 173.841
56.78000 172.703
56.79000 174.110
56.80000 176.911
56.81000 179.432
56.82000 176.937
56.83000 172.585
56.84000 168.572
56.85000 168.654
56.86000 169.638
56.87000 171.501
56.88000 178.441
56.89000 186.195
56.90000 191.225
56.91000 185.998
56.92000 179.787
56.93000 175.274
56.94000 173.841
56.95000 172.855
56.96000 171.633
56.97000 170.006
56.98000 168.373
56.99000 169.445
57.00000 173.565
57.01000 177.672
57.02000 183.226
57.03000 189.772
57.04000 195.914
57.05000 188.687
57.06000 174.971
57.07000 162.303
57.08000 164.780
57.09000 172.226
57.10000 178.985
57.11000 177.005
57.12000 173.574
57.13000 171.592
57.14000 176.916
57.15000 183.251
57.16000 186.286
57.17000 178.335
57.18000 169.507
57.19000 163.329
57.20000 160.701
57.21000 158.815
57.22000 160.920
57.23000 169.054
57.24000 177.249
57.25000 181.240
57.26000 181.107
57.27000 180.976
57.28000 178.742
57.29000 175.222
57.30000 171.785
57.31000 170.410
57.32000 169.922
57.33000 169.391
57.34000 168.346
57.35000 167.150
57.36000 166.085
57.37000 164.541
57.38000 163.120
57.39000 162.389
57.40000 164.717
57.41000 167.408
57.42000 168.910
57.43000 166.910
57.44000 164.682
57.45000 163.184
57.46000 162.548
57.47000 162.092
57.48000 161.638
57.49000 161.186
57.50000 160.734
57.51000 160.909
57.52000 161.619
57.53000 162.321
57.54000 161.639
57.55000 160.211
57.56000 159.050
57.57000 162.966
57.58000 168.822
57.59000 174.428
57.60000 177.555
57.61000 180.046
57.62000 182.225
57.63000 174.590
57.64000 166.647
57.65000 160.740
57.66000 162.761
57.67000 165.577
57.68000 167.224
57.69000 165.815
57.70000 164.247
57.71000 163.239
57.72000 164.826
57.73000 166.020
57.74000 164.671
57.75000 160.356
57.76000 156.055
57.77000 155.463
57.78000 157.654
57.79000 159.804
57.80000 163.041
57.81000 166.690
57.82000 170.035
57.83000 168.746
57.84000 165.888
57.85000 163.170
57.86000 161.632
57.87000 160.360
57.88000 159.271
57.89000 164.354
57.90000 169.394
57.91000 172.032
57.92000 166.415
57.93000 160.104
57.94000 156.891
57.95000 160.858
57.96000 165.115
57.97000 167.722
57.98000 166.954
57.99000 166.377
58.00000 164.579
58.01000 161.539
58.02000 158.542
58.03000 159.580
58.04000 163.285
58.05000 166.895
58.06000 167.650
58.07000 167.161
58.08000 166.694
58.09000 166.512
58.10000 166.414
58.11000 165.436
58.12000 158.117
58.13000 149.543
58.14000 142.366
58.15000 144.443
58.16000 147.121
58.17000 150.441
58.18000 155.719
58.19000 161.131
58.20000 163.909
58.21000 161.270
58.22000 158.468
58.23000 156.841
58.24000 160.178
58.25000 162.538
58.26000 160.107
58.27000 153.432
58.28000 146.931
58.29000 150.606
58.30000 160.222
58.31000 169.510
58.32000 173.027
58.33000 174.201
58.34000 174.812
58.35000 169.595
58.36000 162.834
58.37000 156.545
58.38000 153.200
58.39000 150.363
58.40000 148.046
58.41000 151.064
58.42000 153.991
58.43000 157.700
58.44000 163.518
58.45000 169.453
58.46000 172.286
58.47000 169.469
58.48000 166.533
58.49000 164.925
58.50000 156.389
58.51000 150.532
58.52000 150.423
58.53000 154.774
58.54000 159.068
58.55000 161.137
58.56000 162.054
58.57000 162.932
58.58000 163.850
58.59000 164.718
58.60000 165.175
58.61000 162.026
58.62000 158.034
58.63000 154.819
58.64000 155.802
58.65000 157.414
58.66000 158.694
58.67000 157.586
58.68000 156.525
58.69000 155.844
58.70000 156.070
58.71000 156.336
58.72000 158.043
58.73000 162.072
58.74000 166.132
58.75000 168.217
58.76000 164.517
58.77000 162.039
58.78000 160.862
58.79000 160.573
58.80000 160.224
58.81000 158.162
58.82000 155.315
58.83000 152.624
58.84000 154.841
58.85000 158.272
58.86000 161.048
58.87000 158.921
58.88000 155.789
58.89000 153.213
58.90000 153.267
58.91000 153.659
58.92000 153.961
58.93000 155.720
58.94000 157.198
58.95000 157.975
58.96000 157.267
58.97000 156.511
58.98000 156.172
58.99000 156.428
59.00000 156.687
59.01000 157.300
59.02000 158.237
59.03000 159.129
59.04000 157.089
59.05000 153.280
59.06000 149.783
59.07000 153.026
59.08000 159.009
59.09000 164.590
59.10000 162.301
59.11000 158.278
59.12000 154.997
59.13000 156.504
59.14000 158.870
59.15000 160.981
59.16000 162.034
59.17000 162.972
59.18000 163.673
59.19000 157.067
59.20000 151.584
59.21000 149.967
59.22000 155.617
59.23000 161.437
59.24000 164.824
59.25000 165.170
59.26000 165.505
59.27000 162.369
59.28000 156.471
59.29000 150.675
59.30000 149.305
59.31000 150.295
59.32000 151.203
59.33000 150.700
59.34000 149.689
59.35000 148.759
59.36000 149.491
59.37000 150.503
59.38000 151.592
59.39000 153.119
59.40000 154.713
59.41000 155.954
59.42000 155.902
59.43000 155.730
59.44000 155.606
59.45000 157.057
59.46000 158.225
59.47000 158.201
59.48000 156.193
59.49000 154.154
59.50000 152.200
59.51000 150.340
59.52000 148.487
59.53000 150.142
59.54000 154.230
59.55000 158.131
59.56000 156.258
59.57000 151.653
59.58000 147.374
59.59000 147.591
59.60000 149.244
59.61000 150.739
59.62000 148.924
59.63000 146.708
59.64000 144.939
59.65000 145.360
59.66000 146.073
59.67000 147.427
59.68000 150.855
59.69000 154.441
59.70000 156.930
59.71000 152.616
59.72000 149.187
59.73000 149.171
59.74000 154.171
59.75000 159.215
59.76000 160.176
59.77000 157.253
59.78000 154.353
59.79000 153.386
59.80000 153.617
59.81000 153.726
59.82000 150.996
59.83000 147.076
59.84000 143.579
59.85000 144.919
59.86000 147.627
59.87000 150.032
59.88000 151.925
59.89000 153.485
59.90000 154.789
59.91000 154.997
59.92000 155.079
59.93000 155.022
59.94000 154.562
59.95000 154.078
59.96000 153.755
59.97000 147.181
59.98000 142.198
59.99000 140.287
60.00000 142.350
60.01000 144.430
60.02000 146.963
60.03000 149.872
60.04000 152.743
60.05000 151.687
60.06000 148.555
60.07000 145.575
60.08000 145.326
60.09000 146.094
60.10000 146.892
60.11000 147.977
60.12000 149.134
60.13000 150.141
60.14000 150.849
60.15000 151.413
60.16000 151.457
60.17000 149.535
60.18000 147.423
60.19000 147.025
60.20000 150.992
60.21000 155.175
60.22000 157.836
60.23000 155.092
60.24000 153.031
60.25000 152.564
60.26000 153.903
60.27000 155.241
60.28000 156.072
60.29000 156.532
60.30000 156.984
60.31000 158.882
60.32000 161.389
60.33000 163.580
60.34000 161.167
60.35000 157.236
60.36000 153.105
60.37000 147.362
60.38000 141.265
60.39000 136.068
60.40000 139.993
60.41000 144.365
60.42000 148.388
60.43000 151.244
60.44000 154.006
60.45000 155.179
60.46000 152.766
60.47000 150.216
60.48000 148.672
60.49000 152.207
60.50000 154.765
60.51000 154.632
60.52000 151.844
60.53000 149.075
60.54000 147.893
60.55000 147.731
60.56000 147.573
60.57000 147.743
60.58000 148.039
60.59000 148.706
60.60000 153.820
60.61000 160.232
60.62000 165.556
60.63000 163.298
60.64000 159.584
60.65000 156.491
60.66000 153.500
60.67000 151.033
60.68000 148.829
60.69000 147.405
60.70000 146.032
60.71000 145.251
60.72000 145.657
60.73000 146.096
60.74000 146.348
60.75000 146.775
60.76000 147.075
60.77000 148.053
60.78000 149.614
60.79000 151.162
60.80000 151.967
60.81000 152.349
60.82000 152.718
60.83000 150.363
60.84000 147.166
60.85000 144.260
60.86000 144.263
60.87000 145.017
60.88000 145.426
60.89000 143.760
60.90000 141.746
60.91000 140.112
60.92000 142.367
60.93000 144.527
60.94000 146.771
60.95000 149.235
60.96000 151.710
60.97000 153.690
60.98000 154.791
60.99000 155.876
61.00000 156.462
61.01000 149.482
61.02000 144.711
61.03000 142.983
61.04000 143.550
61.05000 144.060
61.06000 142.512
61.07000 139.928
61.08000 137.463
61.09000 137.367
61.10000 138.026
61.11000 138.770
61.12000 140.229
61.13000 141.850
61.14000 143.062
61.15000 142.130
61.16000 140.886
61.17000 139.905
61.18000 147.133
61.19000 153.490
61.20000 156.146
61.21000 150.179
61.22000 143.859
61.23000 140.527
61.24000 141.881
61.25000 143.291
61.26000 144.005
61.27000 144.046
61.28000 144.061
61.29000 142.722
61.30000 140.484
61.31000 138.400
61.32000 140.419
61.33000 144.270
61.34000 147.899
61.35000 148.115
61.36000 147.372
61.37000 146.785
61.38000 147.334
61.39000 148.110
61.40000 148.482
61.41000 146.996
61.42000 145.278
61.43000 143.962
61.44000 140.489
61.45000 137.629
61.46000 137.417
61.47000 142.679
61.48000 148.107
61.49000 149.465
61.50000 145.195
61.51000 140.891
61.52000 137.824
61.53000 135.861
61.54000 133.961
61.55000 135.826
61.56000 139.901
61.57000 143.890
61.58000 146.127
61.59000 147.670
61.60000 149.104
61.61000 148.450
61.62000 147.356
61.63000 146.276
61.64000 145.288
61.65000 144.316
61.66000 143.401
61.67000 142.716
61.68000 142.055
61.69000 141.566
61.70000 148.337
61.71000 153.910
61.72000 156.164
61.73000 152.340
61.74000 148.386
61.75000 146.747
61.76000 147.920
61.77000 149.097
61.78000 145.659
61.79000 138.657
61.80000 131.828
61.81000 131.936
61.82000 135.648
61.83000 139.436
61.84000 144.451
61.85000 149.898
61.86000 154.887
61.87000 155.986
61.88000 156.150
61.89000 155.805
61.90000 152.688
61.91000 149.154
61.92000 145.931
61.93000 143.819
61.94000 141.805
61.95000 140.365
61.96000 149.853
61.97000 157.461
61.98000 160.842
61.99000 157.374
62.00000 153.812
62.01000 148.708
62.02000 141.967
62.03000 135.259
62.04000 135.233
62.05000 139.739
62.06000 143.986
62.07000 140.745
62.08000 134.053
62.09000 128.130
62.10000 132.375
62.11000 139.783
62.12000 146.457
62.13000 150.057
62.14000 152.659
62.15000 153.573
62.16000 146.453
62.17000 138.293
62.18000 134.196
62.19000 142.922
62.20000 152.589
62.21000 159.238
62.22000 154.699
62.23000 151.017
62.24000 147.620
62.25000 144.632
62.26000 141.647
62.27000 140.007
62.28000 139.608
62.29000 139.214
62.30000 143.118
62.31000 149.499
62.32000 155.418
62.33000 151.204
62.34000 142.848
62.35000 135.211
62.36000 135.447
62.37000 137.848
62.38000 139.973
62.39000 144.964
62.40000 149.725
62.41000 152.617
62.42000 147.702
62.43000 141.924
62.44000 137.485
62.45000 136.792
62.46000 136.322
62.47000 136.012
62.48000 145.662
62.49000 152.949
62.50000 155.502
62.51000 152.105
62.52000 148.690
62.53000 145.417
62.54000 142.257
62.55000 139.143
62.56000 138.736
62.57000 139.749
62.58000 140.729
62.59000 141.140
62.60000 141.345
62.61000 141.871
62.62000 145.358
62.63000 149.564
62.64000 153.211
62.65000 146.972
62.66000 140.342
62.67000 136.060
62.68000 140.427
62.69000 145.598
62.70000 148.755
62.71000 146.919
62.72000 144.849
62.73000 143.546
62.74000 141.791
62.75000 140.516
62.76000 140.208
62.77000 140.963
62.78000 141.729
62.79000 143.949
62.80000 147.200
62.81000 150.383
62.82000 150.873
62.83000 150.116
62.84000 149.461
62.85000 150.242
62.86000 151.484
62.87000 152.363
62.88000 150.389
62.89000 147.807
62.90000 145.616
62.91000 139.099
62.92000 133.146
62.93000 128.629
62.94000 128.790
62.95000 129.313
62.96000 132.016
62.97000 139.518
62.98000 147.191
62.99000 151.784
63.00000 144.004
63.01000 138.401
63.02000 134.954
63.03000 133.571
63.04000 132.197
63.05000 131.502
63.06000 131.232
63.07000 130.970
63.08000 132.802
63.09000 135.377
63.10000 137.881
63.11000 139.549
63.12000 140.981
63.13000 142.250
63.14000 142.422
63.15000 142.389
63.16000 142.362
63.17000 136.968
63.18000 132.006
63.19000 128.662
63.20000 129.990
63.21000 131.612
63.22000 133.590
63.23000 136.264
63.24000 138.955
63.25000 140.479
63.26000 139.948
63.27000 139.572
63.28000 138.987
63.29000 138.227
63.30000 137.478
63.31000 137.262
63.32000 137.341
63.33000 137.417
63.34000 140.332
63.35000 144.061
63.36000 147.164
63.37000 144.237
63.38000 139.799
63.39000 136.014
63.40000 136.053
63.41000 136.713
63.42000 137.246
63.43000 135.426
63.44000 133.762
63.45000 133.730
63.46000 137.878
63.47000 142.235
63.48000 144.941
63.49000 144.796
63.50000 144.600
63.51000 144.496
63.52000 140.313
63.53000 137.486
63.54000 139.097
63.55000 143.964
63.56000 148.643
63.57000 146.922
63.58000 142.063
63.59000 137.440
63.60000 139.849
63.61000 144.236
63.62000 147.919
63.63000 145.840
63.64000 142.490
63.65000 140.018
63.66000 142.028
63.67000 144.666
63.68000 146.735
63.69000 147.321
63.70000 147.694
63.71000 147.513
63.72000 146.075
63.73000 144.589
63.74000 141.704
63.75000 136.686
63.76000 131.644
63.77000 132.323
63.78000 138.679
63.79000 144.959
63.80000 144.547
63.81000 139.810
63.82000 135.237
63.83000 134.793
63.84000 136.147
63.85000 137.419
63.86000 138.096
63.87000 138.556
63.88000 138.966
63.89000 139.027
63.90000 139.020
63.91000 138.566
63.92000 136.119
63.93000 133.432
63.94000 131.389
63.95000 127.966
63.96000 125.201
63.97000 123.843
63.98000 125.318
63.99000 126.874
64.00000 129.777
64.01000 134.493
64.02000 139.216
64.03000 140.865
64.04000 139.857
64.05000 138.820
64.06000 136.228
64.07000 132.748
64.08000 129.534
64.09000 131.509
64.10000 135.486
64.11000 139.172
64.12000 139.103
64.13000 138.164
64.14000 136.760
64.15000 132.527
64.16000 127.818
64.17000 124.845
64.18000 128.699
64.19000 133.249
64.20000 136.596
64.21000 139.818
64.22000 142.306
64.23000 143.245
64.24000 141.425
64.25000 139.551
64.26000 137.958
64.27000 136.698
64.28000 135.442
64.29000 135.440
64.30000 136.384
64.31000 137.314
64.32000 137.772
64.33000 137.991
64.34000 138.051
64.35000 135.651
64.36000 132.409
64.37000 129.449
64.38000 131.842
64.39000 135.050
64.40000 137.626
64.41000 136.866
64.42000 135.619
64.43000 134.755
64.44000 135.215
64.45000 135.790
64.46000 136.197
64.47000 135.240
64.48000 134.470
64.49000 134.642
64.50000 136.298
64.51000 137.972
64.52000 139.857
64.53000 141.959
64.54000 144.049
64.55000 146.932
64.56000 150.297
64.57000 153.602
64.58000 155.255
64.59000 156.166
64.60000 157.184
64.61000 159.556
64.62000 162.338
64.63000 164.834
64.64000 162.585
64.65000 159.787
64.66000 157.094
64.67000 154.892
64.68000 152.751
64.69000 151.955
64.70000 155.291
64.71000 158.916
64.72000 161.388
64.73000 158.876
64.74000 156.884
64.75000 155.179
64.76000 153.873
64.77000 152.570
64.78000 151.901
64.79000 151.800
64.80000 151.700
64.81000 149.109
64.82000 145.137
64.83000 141.143
64.84000 136.688
64.85000 132.050
64.86000 127.803
64.87000 127.681
64.88000 128.664
64.89000 129.529
64.90000 130.118
64.91000 130.583
64.92000 131.573
64.93000 134.700
64.94000 138.053
64.95000 140.229
64.96000 139.195
64.97000 137.979
64.98000 137.186
64.99000 134.964
65.00000 133.311
65.01000 132.808
65.02000 133.710
65.03000 134.616
65.04000 135.479
65.05000 136.309
65.06000 137.126
65.07000 133.970
65.08000 128.904
65.09000 124.175
65.10000 124.990
65.11000 127.762
65.12000 130.356
65.13000 131.356
65.14000 131.982
65.15000 132.521
65.16000 134.540
65.17000 136.444
65.18000 137.820
65.19000 137.305
65.20000 136.620
65.21000 135.251
65.22000 132.232
65.23000 129.140
65.24000 127.214
65.25000 131.242
65.26000 134.206
65.27000 136.670
65.28000 138.601
65.29000 140.524
65.30000 141.416
65.31000 141.598
65.32000 141.775
65.33000 141.723
65.34000 141.571
65.35000 141.199
65.36000 137.884
65.37000 133.650
65.38000 130.261
65.39000 133.294
65.40000 137.659
65.41000 141.342
65.42000 138.910
65.43000 136.212
65.44000 134.045
65.45000 133.568
65.46000 133.216
65.47000 132.515
65.48000 131.070
65.49000 129.599
65.50000 128.729
65.51000 131.413
65.52000 133.330
65.53000 137.809
65.54000 144.666
65.55000 151.407
65.56000 150.203
65.57000 144.158
65.58000 138.300
65.59000 132.164
65.60000 126.247
65.61000 121.110
65.62000 124.584
65.63000 130.441
65.64000 135.853
65.65000 138.360
65.66000 140.340
65.67000 141.971
65.68000 136.506
65.69000 131.361
65.70000 127.613
65.71000 127.792
65.72000 128.207
65.73000 129.253
65.74000 131.499
65.75000 133.774
65.76000 135.045
65.77000 129.417
65.78000 125.510
65.79000 124.388
65.80000 125.528
65.81000 126.706
65.82000 129.632
65.83000 133.498
65.84000 137.209
65.85000 138.793
65.86000 139.551
65.87000 140.686
65.88000 145.329
65.89000 150.828
65.90000 154.890
65.91000 150.802
65.92000 145.431
65.93000 141.123
65.94000 137.747
65.95000 135.085
65.96000 133.909
65.97000 136.442
65.98000 139.150
65.99000 140.656
66.00000 140.140
66.01000 139.592
66.02000 139.304
66.03000 133.987
66.04000 130.402
66.05000 129.908
66.06000 131.620
66.07000 133.312
66.08000 134.375
66.09000 135.137
66.10000 135.861
66.11000 135.474
66.12000 134.787
66.13000 134.366
66.14000 136.049
66.15000 138.182
66.16000 140.036
66.17000 140.506
66.18000 140.788
66.19000 141.008
66.20000 138.254
66.21000 135.876
66.22000 134.549
66.23000 135.545
66.24000 136.626
66.25000 135.706
66.26000 131.814
66.27000 127.895
66.28000 128.483
66.29000 133.411
66.30000 138.299
66.31000 140.084
66.32000 139.917
66.33000 139.697
66.34000 138.235
66.35000 136.245
66.36000 134.380
66.37000 134.638
66.38000 135.424
66.39000 135.802
66.40000 133.412
66.41000 130.502
66.42000 129.523
66.43000 136.934
66.44000 145.318
66.45000 151.650
66.46000 144.811
66.47000 138.797
66.48000 134.399
66.49000 133.171
66.50000 132.028
66.51000 132.544
66.52000 135.230
66.53000 137.922
66.54000 138.064
66.55000 136.066
66.56000 134.044
66.57000 130.770
66.58000 126.800
66.59000 123.088
66.60000 124.149
66.61000 127.006
66.62000 129.645
66.63000 130.766
66.64000 131.429
66.65000 132.120
66.66000 132.979
66.67000 133.866
66.68000 134.774
66.69000 135.765
66.70000 136.764
66.71000 137.493
66.72000 134.524
66.73000 132.092
66.74000 130.996
66.75000 132.222
66.76000 133.489
66.77000 136.146
66.78000 140.395
66.79000 144.632
66.80000 144.671
66.81000 141.640
66.82000 138.594
66.83000 135.015
66.84000 131.174
66.85000 127.798
66.86000 131.326
66.87000 137.155
66.88000 142.457
66.89000 142.439
66.90000 141.379
66.91000 139.904
66.92000 136.301
66.93000 132.399
66.94000 130.058
66.95000 132.997
66.96000 136.368
66.97000 138.739
66.98000 138.983
66.99000 139.106
67.00000 138.618
67.01000 137.193
67.02000 135.758
67.03000 134.558
67.04000 133.592
67.05000 132.633
67.06000 131.819
67.07000 131.111
67.08000 130.468
67.09000 131.497
67.10000 133.257
67.11000 134.890
67.12000 134.982
67.13000 134.618
67.14000 134.293
67.15000 136.737
67.16000 139.336
67.17000 140.949
67.18000 138.129
67.19000 134.774
67.20000 131.613
67.21000 129.036
67.22000 126.498
67.23000 124.783
67.24000 129.911
67.25000 133.876
67.26000 134.311
67.27000 129.974
67.28000 125.613
67.29000 123.940
67.30000 124.603
67.31000 125.259
67.32000 126.369
67.33000 127.706
67.34000 129.155
67.35000 132.805
67.36000 137.308
67.37000 141.283
67.38000 139.885
67.39000 137.089
67.40000 134.635
67.41000 136.817
67.42000 139.365
67.43000 141.480
67.44000 141.884
67.45000 142.113
67.46000 142.354
67.47000 142.627
67.48000 142.901
67.49000 143.078
67.50000 136.709
67.51000 131.956
67.52000 128.353
67.53000 126.114
67.54000 123.889
67.55000 124.406
67.56000 127.015
67.57000 129.579
67.58000 128.516
67.59000 125.706
67.60000 123.197
67.61000 125.395
67.62000 129.213
67.63000 133.092
67.64000 137.501
67.65000 142.031
67.66000 145.923
67.67000 143.302
67.68000 140.277
67.69000 138.235
67.70000 139.629
67.71000 141.318
67.72000 141.628
67.73000 138.694
67.74000 135.625
67.75000 133.734
67.76000 133.608
67.77000 133.533
67.78000 135.101
67.79000 138.369
67.80000 141.606
67.81000 141.500
67.82000 139.152
67.83000 136.860
67.84000 138.941
67.85000 142.813
67.86000 146.118
67.87000 142.174
67.88000 136.023
67.89000 131.085
67.90000 135.060
67.91000 140.830
67.92000 145.674
67.93000 145.455
67.94000 144.741
67.95000 143.047
67.96000 138.324
67.97000 133.388
67.98000 130.727
67.99000 132.818
68.00000 135.059
68.01000 136.368
68.02000 139.704
68.03000 142.060
68.04000 142.132
68.05000 140.145
68.06000 138.225
68.07000 140.432
68.08000 145.086
68.09000 149.586
68.10000 150.387
68.11000 149.746
68.12000 148.945
68.13000 146.434
68.14000 143.463
68.15000 141.166
68.16000 143.139
68.17000 145.862
68.18000 148.092
68.19000 148.628
68.20000 148.918
68.21000 150.301
68.22000 154.675
68.23000 159.220
68.24000 159.611
68.25000 152.312
68.26000 144.844
68.27000 140.723
68.28000 148.213
68.29000 153.380
68.30000 153.165
68.31000 148.703
68.32000 144.352
68.33000 144.568
68.34000 147.182
68.35000 149.684
68.36000 150.837
68.37000 151.464
68.38000 151.796
68.39000 149.472
68.40000 146.518
68.41000 144.400
68.42000 146.880
68.43000 150.062
68.44000 152.598
68.45000 153.167
68.46000 153.484
68.47000 154.671
68.48000 157.975
68.49000 161.373
68.50000 163.319
68.51000 162.884
68.52000 162.415
68.53000 162.172
68.54000 156.061
68.55000 151.964
68.56000 151.228
68.57000 152.823
68.58000 154.383
68.59000 154.896
68.60000 154.922
68.61000 154.947
68.62000 158.359
68.63000 162.476
68.64000 165.936
68.65000 164.369
68.66000 161.755
68.67000 159.808
68.68000 161.077
68.69000 162.768
68.70000 164.077
68.71000 171.734
68.72000 178.188
68.73000 180.823
68.74000 175.226
68.75000 169.350
68.76000 168.887
68.77000 176.247
68.78000 183.669
68.79000 185.597
68.80000 182.392
68.81000 179.268
68.82000 181.726
68.83000 187.602
68.84000 193.262
68.85000 194.066
68.86000 192.864
68.87000 191.741
68.88000 193.732
68.89000 196.323
68.90000 199.919
68.91000 210.130
68.92000 221.546
68.93000 231.779
68.94000 237.014
68.95000 241.689
68.96000 245.194
68.97000 256.442
68.98000 265.592
68.99000 273.527
69.00000 279.142
69.01000 284.700
69.02000 294.604
69.03000 310.034
69.04000 325.462
69.05000 330.609
69.06000 327.375
69.07000 324.332
69.08000 329.961
69.09000 340.289
69.10000 349.710
69.11000 343.171
69.12000 330.788
69.13000 319.384
69.14000 328.192
69.15000 340.508
69.16000 349.962
69.17000 343.092
69.18000 333.636
69.19000 325.609
69.20000 322.900
69.21000 320.694
69.22000 319.096
69.23000 315.376
69.24000 312.441
69.25000 308.374
69.26000 302.393
69.27000 296.380
69.28000 293.774
69.29000 294.956
69.30000 296.136
69.31000 296.713
69.32000 296.855
69.33000 297.105
69.34000 300.835
69.35000 306.235
69.36000 311.625
69.37000 316.863
69.38000 322.051
69.39000 326.754
69.40000 327.421
69.41000 327.242
69.42000 328.200
69.43000 334.819
69.44000 342.212
69.45000 349.144
69.46000 354.560
69.47000 359.857
69.48000 363.551
69.49000 364.901
69.50000 365.856
69.51000 370.210
69.52000 379.642
69.53000 389.122
69.54000 395.189
69.55000 397.950
69.56000 400.691
69.57000 401.353
69.58000 400.714
69.59000 400.247
69.60000 403.958
69.61000 409.447
69.62000 414.785
69.63000 418.352
69.64000 421.411
69.65000 424.135
69.66000 425.852
69.67000 427.179
69.68000 429.273
69.69000 434.718
69.70000 440.555
69.71000 445.200
69.72000 446.371
69.73000 447.320
69.74000 447.955
69.75000 446.380
69.76000 445.168
69.77000 443.918
69.78000 442.618
69.79000 441.328
69.80000 445.676
69.81000 454.790
69.82000 463.789
69.83000 458.528
69.84000 445.633
69.85000 433.235
69.86000 430.116
69.87000 430.503
69.88000 430.664
69.89000 428.618
69.90000 426.013
69.91000 423.738
69.92000 431.627
69.93000 439.809
69.94000 445.650
69.95000 442.482
69.96000 438.422
69.97000 434.640
69.98000 431.571
69.99000 428.539
70.00000 426.599
