20.00000 762.398
20.01000 762.223
20.02000 762.023
20.03000 759.862
20.04000 750.068
20.05000 739.506
20.06000 731.759
20.07000 757.037
20.08000 777.900
20.09000 789.603
20.10000 785.125
20.11000 780.338
20.12000 779.622
20.13000 783.658
20.14000 787.690
20.15000 789.286
20.16000 789.053
20.17000 788.893
20.18000 791.338
20.19000 795.089
20.20000 798.901
20.21000 803.655
20.22000 808.729
20.23000 813.354
20.24000 812.244
20.25000 810.110
20.26000 807.808
20.27000 804.622
20.28000 801.308
20.29000 800.902
20.30000 810.497
20.31000 820.932
20.32000 828.311
20.33000 845.041
20.34000 858.037
20.35000 868.580
20.36000 875.294
20.37000 881.963
20.38000 890.963
20.39000 902.339
20.40000 913.645
20.41000 923.269
20.42000 931.660
20.43000 940.663
20.44000 965.903
20.45000 998.361
20.46000 1029.556
20.47000 1044.961
20.48000 1055.627
20.49000 1065.186
20.50000 1114.181
20.51000 1163.801
20.52000 1215.263
20.53000 1275.150
20.54000 1336.081
20.55000 1398.448
20.56000 1465.189
20.57000 1532.233
20.58000 1577.789
20.59000 1649.146
20.60000 1702.985
20.61000 1758.854
20.62000 1817.520
20.63000 1876.184
20.64000 1913.253
20.65000 1931.172
20.66000 1948.901
20.67000 1964.031
20.68000 1977.336
20.69000 1989.991
20.70000 1989.376
20.71000 1983.528
20.72000 1977.818
20.73000 1973.543
20.74000 1969.650
20.75000 1966.226
20.76000 1924.904
20.77000 1883.709
20.78000 1844.889
20.79000 1815.632
20.80000 1787.381
20.81000 1751.061
20.82000 1692.966
20.83000 1633.660
20.84000 1595.074
20.85000 1585.111
20.86000 1578.252
20.87000 1576.600
20.88000 1581.246
20.89000 1585.893
20.90000 1587.225
20.91000 1585.982
20.92000 1584.759
20.93000 1603.025
20.94000 1630.459
20.95000 1656.782
20.96000 1665.148
20.97000 1667.232
20.98000 1672.528
20.99000 1706.034
21.00000 1746.132
21.01000 1780.682
21.02000 1830.366
21.03000 1874.398
21.04000 1917.559
21.05000 1957.623
21.06000 1997.415
21.07000 2043.777
21.08000 2105.872
21.09000 2168.649
21.10000 2207.604
21.11000 2359.490
21.12000 2469.879
21.13000 2587.501
21.14000 2712.761
21.15000 2838.107
21.16000 2973.170
21.17000 3114.874
21.18000 3253.264
21.19000 3453.425
21.20000 3672.115
21.21000 3893.844
21.22000 4155.520
21.23000 4429.574
21.24000 4712.999
21.25000 5066.716
21.26000 5434.853
21.27000 5744.985
21.28000 6326.492
21.29000 6841.013
21.30000 7415.727
21.31000 8179.609
21.32000 8957.269
21.33000 9836.212
21.34000 10930.243
21.35000 12031.311
21.36000 12680.027
21.37000 15005.450
21.38000 16655.637
21.39000 18793.127
21.40000 21378.383
21.41000 23977.307
21.42000 27482.572
21.43000 31534.688
21.44000 35458.605
21.45000 40845.980
21.46000 46504.203
21.47000 52212.574
21.48000 58467.406
21.49000 64871.965
21.50000 71147.078
21.51000 76585.430
21.52000 81873.805
21.53000 86220.906
21.54000 90284.867
21.55000 93598.398
21.56000 96224.961
21.57000 96938.500
21.58000 97539.281
21.59000 97545.781
21.60000 96433.563
21.61000 95295.242
21.62000 94661.680
21.63000 91000.125
21.64000 88459.133
21.65000 85011.273
21.66000 80834.609
21.67000 76636.516
21.68000 71505.641
21.69000 65876.672
21.70000 60479.242
21.71000 54232.648
21.72000 48112.996
21.73000 42049.020
21.74000 36495.574
21.75000 31065.488
21.76000 25860.701
21.77000 21920.346
21.78000 18176.811
21.79000 15180.706
21.80000 12522.672
21.81000 10398.455
21.82000 8582.287
21.83000 7526.972
21.84000 6507.013
21.85000 5672.018
21.86000 5145.197
21.87000 4623.119
21.88000 4350.215
21.89000 3890.687
21.90000 3580.302
21.91000 3358.536
21.92000 3199.363
21.93000 3040.278
21.94000 2883.923
21.95000 2728.860
21.96000 2581.841
21.97000 2458.893
21.98000 2352.679
21.99000 2250.490
22.00000 2179.726
22.01000 2115.635
22.02000 2049.250
22.03000 1971.616
22.04000 1892.473
22.05000 1830.945
22.06000 1803.967
22.07000 1784.609
22.08000 1754.498
22.09000 1700.826
22.10000 1646.320
22.11000 1597.292
22.12000 1556.323
22.13000 1515.428
22.14000 1486.923
22.15000 1470.222
22.16000 1453.306
22.17000 1420.199
22.18000 1377.002
22.19000 1335.060
22.20000 1322.319
22.21000 1321.837
22.22000 1321.386
22.23000 1300.155
22.24000 1275.509
22.25000 1253.402
22.26000 1248.350
22.27000 1246.467
22.28000 1241.043
22.29000 1220.390
22.30000 1197.992
22.31000 1181.120
22.32000 1202.643
22.33000 1221.367
22.34000 1232.856
22.35000 1230.288
22.36000 1227.359
22.37000 1215.053
22.38000 1190.608
22.39000 1166.141
22.40000 1162.361
22.41000 1175.747
22.42000 1188.933
22.43000 1192.530
22.44000 1190.841
22.45000 1188.983
22.46000 1184.048
22.47000 1177.966
22.48000 1172.353
22.49000 1181.930
22.50000 1193.916
22.51000 1212.587
22.52000 1270.165
22.53000 1334.031
22.54000 1415.162
22.55000 1561.738
22.56000 1714.651
22.57000 1825.951
22.58000 2537.701
22.59000 3108.488
22.60000 3843.689
22.61000 4861.741
22.62000 5884.692
22.63000 7327.500
22.64000 9246.485
22.65000 11159.349
22.66000 13220.347
22.67000 15371.355
22.68000 17511.031
22.69000 19269.406
22.70000 20841.564
22.71000 22385.246
22.72000 23513.039
22.73000 24503.529
22.74000 25403.326
22.75000 25637.082
22.76000 25714.334
22.77000 25752.869
22.78000 25594.896
22.79000 25409.494
22.80000 25136.057
22.81000 24567.768
22.82000 23975.697
22.83000 23560.529
22.84000 22147.361
22.85000 21049.260
22.86000 19664.984
22.87000 17845.703
22.88000 16021.874
22.89000 14166.383
22.90000 12279.616
22.91000 10406.013
22.92000 8748.998
22.93000 7255.220
22.94000 5777.656
22.95000 4705.033
22.96000 3807.815
22.97000 2939.217
22.98000 2413.848
22.99000 1988.779
23.00000 1609.313
23.01000 1424.463
23.02000 1296.133
23.03000 1181.258
23.04000 1126.258
23.05000 1078.417
23.06000 1040.755
23.07000 1033.279
23.08000 1027.796
23.09000 1024.104
23.10000 989.272
23.11000 962.726
23.12000 946.716
23.13000 944.815
23.14000 942.984
23.15000 939.781
23.16000 935.396
23.17000 931.063
23.18000 914.854
23.19000 892.453
23.20000 871.120
23.21000 870.421
23.22000 877.651
23.23000 883.738
23.24000 878.370
23.25000 870.046
23.26000 862.756
23.27000 853.969
23.28000 846.218
23.29000 842.909
23.30000 857.000
23.31000 872.853
23.32000 878.375
23.33000 856.737
23.34000 833.664
23.35000 818.802
23.36000 830.436
23.37000 839.305
23.38000 838.424
23.39000 826.091
23.40000 813.770
23.41000 807.602
23.42000 806.081
23.43000 804.588
23.44000 797.348
23.45000 787.562
23.46000 778.400
23.47000 778.861
23.48000 782.601
23.49000 786.357
23.50000 790.250
23.51000 794.175
23.52000 797.541
23.53000 790.487
23.54000 783.252
23.55000 778.506
23.56000 782.369
23.57000 786.961
23.58000 788.845
23.59000 784.413
23.60000 779.721
23.61000 776.841
23.62000 778.403
23.63000 779.560
23.64000 778.321
23.65000 774.628
23.66000 770.981
23.67000 771.992
23.68000 776.102
23.69000 780.109
23.70000 778.439
23.71000 774.423
23.72000 770.506
23.73000 767.833
23.74000 765.535
23.75000 762.362
23.76000 752.833
23.77000 742.038
23.78000 732.991
23.79000 741.114
23.80000 749.651
23.81000 755.130
23.82000 751.250
23.83000 746.719
23.84000 745.601
23.85000 751.545
23.86000 757.705
23.87000 761.291
23.88000 731.121
23.89000 709.784
23.90000 704.627
23.91000 713.903
23.92000 722.991
23.93000 720.808
23.94000 712.005
23.95000 703.497
23.96000 705.264
23.97000 710.772
23.98000 715.404
23.99000 710.852
24.00000 703.850
24.01000 699.033
24.02000 707.900
24.03000 719.148
24.04000 728.342
24.05000 719.394
24.06000 710.495
24.07000 707.496
24.08000 720.503
24.09000 734.409
24.10000 740.327
24.11000 731.601
24.12000 722.561
24.13000 717.596
24.14000 702.744
24.15000 692.529
24.16000 688.580
24.17000 689.524
24.18000 690.714
24.19000 701.794
24.20000 718.019
24.21000 733.539
24.22000 725.199
24.23000 709.620
24.24000 696.099
24.25000 700.778
24.26000 709.734
24.27000 715.055
24.28000 700.580
24.29000 683.120
24.30000 669.230
24.31000 685.037
24.32000 699.902
24.33000 705.558
24.34000 689.055
24.35000 671.578
24.36000 665.895
24.37000 679.343
24.38000 693.056
24.39000 700.120
24.40000 705.385
24.41000 708.862
24.42000 704.398
24.43000 694.476
24.44000 684.817
24.45000 682.782
24.46000 684.262
24.47000 685.661
24.48000 683.654
24.49000 680.835
24.50000 677.936
24.51000 674.441
24.52000 670.823
24.53000 668.592
24.54000 672.961
24.55000 678.187
24.56000 682.223
24.57000 679.307
24.58000 676.589
24.59000 674.766
24.60000 674.853
24.61000 675.003
24.62000 677.439
24.63000 683.149
24.64000 688.882
24.65000 688.791
24.66000 683.320
24.67000 677.854
24.68000 672.708
24.69000 667.758
24.70000 663.164
24.71000 666.423
24.72000 672.894
24.73000 678.935
24.74000 676.573
24.75000 672.336
24.76000 668.222
24.77000 664.917
24.78000 661.757
24.79000 659.588
24.80000 661.567
24.81000 664.003
24.82000 665.826
24.83000 672.756
24.84000 678.398
24.85000 679.293
24.86000 671.206
24.87000 662.907
24.88000 652.705
24.89000 640.110
24.90000 627.527
24.91000 632.128
24.92000 650.543
24.93000 668.498
24.94000 666.107
24.95000 652.796
24.96000 640.572
24.97000 647.146
24.98000 660.542
24.99000 672.864
25.00000 663.153
25.01000 649.691
25.02000 637.690
25.03000 633.929
25.04000 631.458
25.05000 631.768
25.06000 642.336
25.07000 653.859
25.08000 662.181
25.09000 656.016
25.10000 650.767
25.11000 648.090
25.12000 649.724
25.13000 651.425
25.14000 652.044
25.15000 651.471
25.16000 650.900
25.17000 646.228
25.18000 638.718
25.19000 631.419
25.20000 630.746
25.21000 633.224
25.22000 635.225
25.23000 630.552
25.24000 623.733
25.25000 617.562
25.26000 625.432
25.27000 635.005
25.28000 642.542
25.29000 640.047
25.30000 636.196
25.31000 632.716
25.32000 630.442
25.33000 628.263
25.34000 626.747
25.35000 623.193
25.36000 620.459
25.37000 619.103
25.38000 619.786
25.39000 620.488
25.40000 621.175
25.41000 621.848
25.42000 622.516
25.43000 627.782
25.44000 635.786
25.45000 643.452
25.46000 643.136
25.47000 639.454
25.48000 636.174
25.49000 637.544
25.50000 640.236
25.51000 642.630
25.52000 633.643
25.53000 624.000
25.54000 616.896
25.55000 620.783
25.56000 625.939
25.57000 627.230
25.58000 617.354
25.59000 606.775
25.60000 599.717
25.61000 605.797
25.62000 610.552
25.63000 612.506
25.64000 610.812
25.65000 609.104
25.66000 607.982
25.67000 607.349
25.68000 606.725
25.69000 607.350
25.70000 608.633
25.71000 609.955
25.72000 612.009
25.73000 614.337
25.74000 616.016
25.75000 611.440
25.76000 605.292
25.77000 599.932
25.78000 600.237
25.79000 601.285
25.80000 603.154
25.81000 608.152
25.82000 613.455
25.83000 616.613
25.84000 614.278
25.85000 611.667
25.86000 610.002
25.87000 603.100
25.88000 598.014
25.89000 597.490
25.90000 602.170
25.91000 606.849
25.92000 610.411
25.93000 613.152
25.94000 615.840
25.95000 609.623
25.96000 599.424
25.97000 589.471
25.98000 583.143
25.99000 578.019
26.00000 573.974
26.01000 578.778
26.02000 585.536
26.03000 591.303
26.04000 593.026
26.05000 593.997
26.06000 596.338
26.07000 603.290
26.08000 610.617
26.09000 615.179
26.10000 613.461
26.11000 611.501
26.12000 610.311
26.13000 606.722
26.14000 604.142
26.15000 600.582
26.16000 596.046
26.17000 591.518
26.18000 587.634
26.19000 584.167
26.20000 580.792
26.21000 581.624
26.22000 584.160
26.23000 586.919
26.24000 592.375
26.25000 598.624
26.26000 604.362
26.27000 606.516
26.28000 607.975
26.29000 609.192
26.30000 605.160
26.31000 601.294
26.32000 598.412
26.33000 598.466
26.34000 598.716
26.35000 596.689
26.36000 590.074
26.37000 583.328
26.38000 579.449
26.39000 579.676
26.40000 579.853
26.41000 581.666
26.42000 584.898
26.43000 588.027
26.44000 585.560
26.45000 579.893
26.46000 574.427
26.47000 576.563
26.48000 581.332
26.49000 586.268
26.50000 592.879
26.51000 599.924
26.52000 604.928
26.53000 597.528
26.54000 588.035
26.55000 580.321
26.56000 577.568
26.57000 575.734
26.58000 573.998
26.59000 572.519
26.60000 571.054
26.61000 576.449
26.62000 594.092
26.63000 611.977
26.64000 621.670
26.65000 599.997
26.66000 585.143
26.67000 577.259
26.68000 574.667
26.69000 572.191
26.70000 574.045
26.71000 578.094
26.72000 581.957
26.73000 573.383
26.74000 561.466
26.75000 551.602
26.76000 559.257
26.77000 570.915
26.78000 580.281
26.79000 577.526
26.80000 573.002
26.81000 569.426
26.82000 566.340
26.83000 563.897
26.84000 562.365
26.85000 562.969
26.86000 563.662
26.87000 564.024
26.88000 563.863
26.89000 563.695
26.90000 563.610
26.91000 564.641
26.92000 565.355
26.93000 568.443
26.94000 573.119
26.95000 577.423
26.96000 571.611
26.97000 561.255
26.98000 551.489
26.99000 555.856
27.00000 563.785
27.01000 570.803
27.02000 571.176
27.03000 570.218
27.04000 568.139
27.05000 560.878
27.06000 552.967
27.07000 546.899
27.08000 556.804
27.09000 565.518
27.10000 568.674
27.11000 560.276
27.12000 551.520
27.13000 549.810
27.14000 557.906
27.15000 566.065
27.16000 565.342
27.17000 556.660
27.18000 548.126
27.19000 548.665
27.20000 554.562
27.21000 560.351
27.22000 563.880
27.23000 566.510
27.24000 568.956
27.25000 568.610
27.26000 567.620
27.27000 565.781
27.28000 558.584
27.29000 550.451
27.30000 544.875
27.31000 549.711
27.32000 555.658
27.33000 560.073
27.34000 563.402
27.35000 565.941
27.36000 565.804
27.37000 560.737
27.38000 555.562
27.39000 554.840
27.40000 559.564
27.41000 564.292
27.42000 560.524
27.43000 550.135
27.44000 539.922
27.45000 536.862
27.46000 537.542
27.47000 538.140
27.48000 537.397
27.49000 536.181
27.50000 535.065
27.51000 542.387
27.52000 550.686
27.53000 557.945
27.54000 559.506
27.55000 560.202
27.56000 560.115
27.57000 557.211
27.58000 554.055
27.59000 551.794
27.60000 553.909
27.61000 555.673
27.62000 555.153
27.63000 550.908
27.64000 546.610
27.65000 548.775
27.66000 557.847
27.67000 566.876
27.68000 566.524
27.69000 559.769
27.70000 553.001
27.71000 545.865
27.72000 538.559
27.73000 532.025
27.74000 535.820
27.75000 542.848
27.76000 549.185
27.77000 543.038
27.78000 535.366
27.79000 530.340
27.80000 537.980
27.81000 547.275
27.82000 552.405
27.83000 544.307
27.84000 535.229
27.85000 528.973
27.86000 530.342
27.87000 531.562
27.88000 532.785
27.89000 534.012
27.90000 535.240
27.91000 539.208
27.92000 545.722
27.93000 552.178
27.94000 546.191
27.95000 532.878
27.96000 520.026
27.97000 517.391
27.98000 518.958
27.99000 520.944
28.00000 527.569
28.01000 535.479
28.02000 542.483
28.03000 538.757
28.04000 533.850
28.05000 529.508
28.06000 527.539
28.07000 525.834
28.08000 524.336
28.09000 523.421
28.10000 522.540
28.11000 521.958
28.12000 524.320
28.13000 526.116
28.14000 527.198
28.15000 527.380
28.16000 527.570
28.17000 532.129
28.18000 540.237
28.19000 548.231
28.20000 546.146
28.21000 538.839
28.22000 531.716
28.23000 527.791
28.24000 525.031
28.25000 522.886
28.26000 526.457
28.27000 531.424
28.28000 535.735
28.29000 532.068
28.30000 527.873
28.31000 525.120
28.32000 527.715
28.33000 530.813
28.34000 531.068
28.35000 524.234
28.36000 517.062
28.37000 512.536
28.38000 511.757
28.39000 511.236
28.40000 517.145
28.41000 530.177
28.42000 543.128
28.43000 543.485
28.44000 534.848
28.45000 526.390
28.46000 526.894
28.47000 531.494
28.48000 535.555
28.49000 532.007
28.50000 525.999
28.51000 520.664
28.52000 520.653
28.53000 521.784
28.54000 522.744
28.55000 526.155
28.56000 529.297
28.57000 530.020
28.58000 522.814
28.59000 514.990
28.60000 511.837
28.61000 519.024
28.62000 526.586
28.63000 531.124
28.64000 527.160
28.65000 524.287
28.66000 520.378
28.67000 515.470
28.68000 510.652
28.69000 512.908
28.70000 519.619
28.71000 526.138
28.72000 526.342
28.73000 523.991
28.74000 521.484
28.75000 517.154
28.76000 512.304
28.77000 507.704
28.78000 504.811
28.79000 502.238
28.80000 500.105
28.81000 507.857
28.82000 515.211
28.83000 519.475
28.84000 514.768
28.85000 509.490
28.86000 506.281
28.87000 507.130
28.88000 508.086
28.89000 508.629
28.90000 516.505
28.91000 521.999
28.92000 519.695
28.93000 510.830
28.94000 502.144
28.95000 502.357
28.96000 507.524
28.97000 512.497
28.98000 510.373
28.99000 505.876
29.00000 501.641
29.01000 499.964
29.02000 498.932
29.03000 498.623
29.04000 502.573
29.05000 507.218
29.06000 510.972
29.07000 522.154
29.08000 531.840
29.09000 535.987
29.10000 525.871
29.11000 515.034
29.12000 506.887
29.13000 503.418
29.14000 500.032
29.15000 498.222
29.16000 513.945
29.17000 524.621
29.18000 524.643
29.19000 516.799
29.20000 509.042
29.21000 504.291
29.22000 501.023
29.23000 497.912
29.24000 499.476
29.25000 502.367
29.26000 504.247
29.27000 497.789
29.28000 489.477
29.29000 484.064
29.30000 493.531
29.31000 505.102
29.32000 514.191
29.33000 516.551
29.34000 517.999
29.35000 518.919
29.36000 518.634
29.37000 518.302
29.38000 513.831
29.39000 502.999
29.40000 492.097
29.41000 492.573
29.42000 504.423
29.43000 516.130
29.44000 514.880
29.45000 505.200
29.46000 495.928
29.47000 497.074
29.48000 502.777
29.49000 508.141
29.50000 504.990
29.51000 499.815
29.52000 495.722
29.53000 499.276
29.54000 504.319
29.55000 507.929
29.56000 505.091
29.57000 501.472
29.58000 498.715
29.59000 501.890
29.60000 504.703
29.61000 504.972
29.62000 500.088
29.63000 495.055
29.64000 492.664
29.65000 493.850
29.66000 495.056
29.67000 491.582
29.68000 484.043
29.69000 476.781
29.70000 484.804
29.71000 501.615
29.72000 517.544
29.73000 516.078
29.74000 507.858
29.75000 500.233
29.76000 497.393
29.77000 495.958
29.78000 495.464
29.79000 500.716
29.80000 506.943
29.81000 510.066
29.82000 500.900
29.83000 490.471
29.84000 482.786
29.85000 483.084
29.86000 483.647
29.87000 485.269
29.88000 488.792
29.89000 492.353
29.90000 496.044
29.91000 499.890
29.92000 503.727
29.93000 503.365
29.94000 499.819
29.95000 496.247
29.96000 491.663
29.97000 486.563
29.98000 481.666
29.99000 479.957
30.00000 479.347
30.01000 478.789
30.02000 480.824
30.03000 483.161
30.04000 485.806
30.05000 490.087
30.06000 494.610
30.07000 497.510
30.08000 494.737
30.09000 491.477
30.10000 489.160
30.11000 489.704
30.12000 490.210
30.13000 487.789
30.14000 480.724
30.15000 473.600
30.16000 468.907
30.17000 466.733
30.18000 464.571
30.19000 467.321
30.20000 473.295
30.21000 479.149
30.22000 481.708
30.23000 482.780
30.24000 483.273
30.25000 476.350
30.26000 467.165
30.27000 458.914
30.28000 469.108
30.29000 481.282
30.30000 490.673
30.31000 487.108
30.32000 481.907
30.33000 479.572
30.34000 486.100
30.35000 493.256
30.36000 498.145
30.37000 471.692
30.38000 451.168
30.39000 445.368
30.40000 460.175
30.41000 475.115
30.42000 479.255
30.43000 473.650
30.44000 468.100
30.45000 469.348
30.46000 474.517
30.47000 479.662
30.48000 484.276
30.49000 488.677
30.50000 491.775
30.51000 481.011
30.52000 466.512
30.53000 453.726
30.54000 456.363
30.55000 460.976
30.56000 465.255
30.57000 468.171
30.58000 470.940
30.59000 473.101
30.60000 473.595
30.61000 473.993
30.62000 474.254
30.63000 471.823
30.64000 469.992
30.65000 468.637
30.66000 467.865
30.67000 467.091
30.68000 465.170
30.69000 462.343
30.70000 459.560
30.71000 457.586
30.72000 456.086
30.73000 454.907
30.74000 459.079
30.75000 465.152
30.76000 470.975
30.77000 474.551
30.78000 477.594
30.79000 480.224
30.80000 479.496
30.81000 478.442
30.82000 477.022
30.83000 474.277
30.84000 471.412
30.85000 468.441
30.86000 465.212
30.87000 461.971
30.88000 459.947
30.89000 467.282
30.90000 472.671
30.91000 477.872
30.92000 482.873
30.93000 487.797
30.94000 483.117
30.95000 471.766
30.96000 460.670
30.97000 464.368
30.98000 474.519
30.99000 483.559
31.00000 477.611
31.01000 466.947
31.02000 458.133
31.03000 463.470
31.04000 471.759
31.05000 478.764
31.06000 480.184
31.07000 480.759
31.08000 480.761
31.09000 478.939
31.10000 476.981
31.11000 475.402
31.12000 474.640
31.13000 473.906
31.14000 473.471
31.15000 474.698
31.16000 475.577
31.17000 481.457
31.18000 492.015
31.19000 502.384
31.20000 499.510
31.21000 488.519
31.22000 477.862
31.23000 483.482
31.24000 495.177
31.25000 506.529
31.26000 514.069
31.27000 520.547
31.28000 525.747
31.29000 522.525
31.30000 517.768
31.31000 513.845
31.32000 517.238
31.33000 520.707
31.34000 520.884
31.35000 511.749
31.36000 502.049
31.37000 495.174
31.38000 493.700
31.39000 492.358
31.40000 491.606
31.41000 483.877
31.42000 478.505
31.43000 474.998
31.44000 473.015
31.45000 471.036
31.46000 469.256
31.47000 467.582
31.48000 465.976
31.49000 468.670
31.50000 472.665
31.51000 476.131
31.52000 474.654
31.53000 471.963
31.54000 468.359
31.55000 459.538
31.56000 449.890
31.57000 442.140
31.58000 449.701
31.59000 457.002
31.60000 462.090
31.61000 461.628
31.62000 460.899
31.63000 457.931
31.64000 451.170
31.65000 444.347
31.66000 440.751
31.67000 449.241
31.68000 454.984
31.69000 457.063
31.70000 456.512
31.71000 455.928
31.72000 454.294
31.73000 452.155
31.74000 450.125
31.75000 447.934
31.76000 445.864
31.77000 444.453
31.78000 448.290
31.79000 453.260
31.80000 457.311
31.81000 456.775
31.82000 455.611
31.83000 454.703
31.84000 450.638
31.85000 447.198
31.86000 444.696
31.87000 444.280
31.88000 443.940
31.89000 445.244
31.90000 449.004
31.91000 452.789
31.92000 453.748
31.93000 451.968
31.94000 450.227
31.95000 451.602
31.96000 454.950
31.97000 457.991
31.98000 453.641
31.99000 446.139
32.00000 439.105
32.01000 444.344
32.02000 452.329
32.03000 459.140
32.04000 457.915
32.05000 455.171
32.06000 452.136
32.07000 447.827
32.08000 443.368
32.09000 439.996
32.10000 437.939
32.11000 436.391
32.12000 436.487
32.13000 439.826
32.14000 443.252
32.15000 443.814
32.16000 440.606
32.17000 437.383
32.18000 440.896
32.19000 450.085
32.20000 459.018
32.21000 455.000
32.22000 443.733
32.23000 433.118
32.24000 434.730
32.25000 440.966
32.26000 446.732
32.27000 451.469
32.28000 455.487
32.29000 457.629
32.30000 448.650
32.31000 437.841
32.32000 430.225
32.33000 434.908
32.34000 440.808
32.35000 445.122
32.36000 444.999
32.37000 444.729
32.38000 443.512
32.39000 440.641
32.40000 437.739
32.41000 438.800
32.42000 444.432
32.43000 450.053
32.44000 452.657
32.45000 453.017
32.46000 453.186
32.47000 446.629
32.48000 436.734
32.49000 427.595
32.50000 429.768
32.51000 435.734
32.52000 441.166
32.53000 439.211
32.54000 436.019
32.55000 432.582
32.56000 427.879
32.57000 422.995
32.58000 421.365
32.59000 430.807
32.60000 441.164
32.61000 448.462
32.62000 456.621
32.63000 462.834
32.64000 463.244
32.65000 454.691
32.66000 446.037
32.67000 440.646
32.68000 438.536
32.69000 436.440
32.70000 434.759
32.71000 433.369
32.72000 431.825
32.73000 426.289
32.74000 418.996
32.75000 412.121
32.76000 410.376
32.77000 410.154
32.78000 409.955
32.79000 418.712
32.80000 427.880
32.81000 436.326
32.82000 441.505
32.83000 446.285
32.84000 447.883
32.85000 439.897
32.86000 431.261
32.87000 425.414
32.88000 428.516
32.89000 431.022
32.90000 433.831
32.91000 437.051
32.92000 440.266
32.93000 435.983
32.94000 425.131
32.95000 414.399
32.96000 415.789
32.97000 423.988
32.98000 431.682
32.99000 429.306
33.00000 423.000
33.01000 417.948
33.02000 425.746
33.03000 436.914
33.04000 446.719
33.05000 444.584
33.06000 440.998
33.07000 437.600
33.08000 434.953
33.09000 432.384
33.10000 430.057
33.11000 428.375
33.12000 426.729
33.13000 425.662
33.14000 418.779
33.15000 413.655
33.16000 416.388
33.17000 428.508
33.18000 440.604
33.19000 442.772
33.20000 437.319
33.21000 431.959
33.22000 429.975
33.23000 429.728
33.24000 429.345
33.25000 426.806
33.26000 423.520
33.27000 420.478
33.28000 419.546
33.29000 419.103
33.30000 418.721
33.31000 418.693
33.32000 418.714
33.33000 417.477
33.34000 411.821
33.35000 405.781
33.36000 401.727
33.37000 402.378
33.38000 403.229
33.39000 403.754
33.40000 410.953
33.41000 416.185
33.42000 418.676
33.43000 418.306
33.44000 417.924
33.45000 416.318
33.46000 413.883
33.47000 411.507
33.48000 412.316
33.49000 414.472
33.50000 416.089
33.51000 410.753
33.52000 403.285
33.53000 397.347
33.54000 402.726
33.55000 410.400
33.56000 416.851
33.57000 416.788
33.58000 416.046
33.59000 414.524
33.60000 410.580
33.61000 406.464
33.62000 406.362
33.63000 414.697
33.64000 423.299
33.65000 428.343
33.66000 433.011
33.67000 436.294
33.68000 434.283
33.69000 427.466
33.70000 420.695
33.71000 416.836
33.72000 414.714
33.73000 412.661
33.74000 416.697
33.75000 422.825
33.76000 427.891
33.77000 421.559
33.78000 412.139
33.79000 403.996
33.80000 404.007
33.81000 405.461
33.82000 406.653
33.83000 409.638
33.84000 412.246
33.85000 415.037
33.86000 418.335
33.87000 421.662
33.88000 423.851
33.89000 423.919
33.90000 423.940
33.91000 423.951
33.92000 414.532
33.93000 408.030
33.94000 406.659
33.95000 409.364
33.96000 411.993
33.97000 411.427
33.98000 409.175
33.99000 407.017
34.00000 406.443
34.01000 406.435
34.02000 406.362
34.03000 405.695
34.04000 404.887
34.05000 404.366
34.06000 405.438
34.07000 406.754
34.08000 407.805
34.09000 411.611
34.10000 414.886
34.11000 417.670
34.12000 419.252
34.13000 420.780
34.14000 420.561
34.15000 417.463
34.16000 414.324
34.17000 412.692
34.18000 417.728
34.19000 421.085
34.20000 418.626
34.21000 412.104
34.22000 405.763
34.23000 404.853
34.24000 406.486
34.25000 408.033
34.26000 407.832
34.27000 407.137
34.28000 406.511
34.29000 406.416
34.30000 406.432
34.31000 406.424
34.32000 406.295
34.33000 406.151
34.34000 406.040
34.35000 408.641
34.36000 410.871
34.37000 412.233
34.38000 411.715
34.39000 411.133
34.40000 411.357
34.41000 412.754
34.42000 414.161
34.43000 411.650
34.44000 405.456
34.45000 399.402
34.46000 403.464
34.47000 413.759
34.48000 423.443
34.49000 419.211
34.50000 409.199
34.51000 399.839
34.52000 396.192
34.53000 394.334
34.54000 393.602
34.55000 400.336
34.56000 408.441
34.57000 414.336
34.58000 410.831
34.59000 406.265
34.60000 402.836
34.61000 398.830
34.62000 395.672
34.63000 393.506
34.64000 393.245
34.65000 393.032
34.66000 394.360
34.67000 397.660
34.68000 400.962
34.69000 406.376
34.70000 413.502
34.71000 420.524
34.72000 422.763
34.73000 422.393
34.74000 422.023
34.75000 421.669
34.76000 421.321
34.77000 421.000
34.78000 413.959
34.79000 406.170
34.80000 399.741
34.81000 401.131
34.82000 403.769
34.83000 406.204
34.84000 407.881
34.85000 409.486
34.86000 410.651
34.87000 413.118
34.88000 415.063
34.89000 415.953
34.90000 415.051
34.91000 414.119
34.92000 412.792
34.93000 411.022
34.94000 409.259
34.95000 409.437
34.96000 411.003
34.97000 412.453
34.98000 410.128
34.99000 405.979
35.00000 402.448
35.01000 407.791
35.02000 416.032
35.03000 423.507
35.04000 412.996
35.05000 400.274
35.06000 389.874
35.07000 391.116
35.08000 393.961
35.09000 396.310
35.10000 397.014
35.11000 397.587
35.12000 397.988
35.13000 401.675
35.14000 404.552
35.15000 405.136
35.16000 402.272
35.17000 399.374
35.18000 396.071
35.19000 392.371
35.20000 388.698
35.21000 389.902
35.22000 394.140
35.23000 398.291
35.24000 400.350
35.25000 401.511
35.26000 402.913
35.27000 407.141
35.28000 412.186
35.29000 416.683
35.30000 409.084
35.31000 400.476
35.32000 393.266
35.33000 392.195
35.34000 391.849
35.35000 393.082
35.36000 398.949
35.37000 405.117
35.38000 409.253
35.39000 405.874
35.40000 403.215
35.41000 400.358
35.42000 397.243
35.43000 394.129
35.44000 393.344
35.45000 394.540
35.46000 395.722
35.47000 394.746
35.48000 392.613
35.49000 390.646
35.50000 391.829
35.51000 394.209
35.52000 396.688
35.53000 400.147
35.54000 403.855
35.55000 407.096
35.56000 402.026
35.57000 396.505
35.58000 392.274
35.59000 393.039
35.60000 394.304
35.61000 394.657
35.62000 392.640
35.63000 390.502
35.64000 389.129
35.65000 392.082
35.66000 394.293
35.67000 395.706
35.68000 396.194
35.69000 396.677
35.70000 396.704
35.71000 396.389
35.72000 396.080
35.73000 396.164
35.74000 396.435
35.75000 396.598
35.76000 395.133
35.77000 393.120
35.78000 391.405
35.79000 392.188
35.80000 393.532
35.81000 394.682
35.82000 397.775
35.83000 400.618
35.84000 401.693
35.85000 396.715
35.86000 391.234
35.87000 386.931
35.88000 385.346
35.89000 383.869
35.90000 382.967
35.91000 384.182
35.92000 385.068
35.93000 387.777
35.94000 392.329
35.95000 396.847
35.96000 398.140
35.97000 397.314
35.98000 396.508
35.99000 392.161
36.00000 386.521
36.01000 381.444
36.02000 383.351
36.03000 387.342
36.04000 390.863
36.05000 391.023
36.06000 390.521
36.07000 390.101
36.08000 386.587
36.09000 383.353
36.10000 383.398
36.11000 393.374
36.12000 404.029
36.13000 407.810
36.14000 397.523
36.15000 386.818
36.16000 380.617
36.17000 385.942
36.18000 389.725
36.19000 393.456
36.20000 397.141
36.21000 400.790
36.22000 402.333
36.23000 402.652
36.24000 402.960
36.25000 406.008
36.26000 409.892
36.27000 412.936
36.28000 407.311
36.29000 399.400
36.30000 392.625
36.31000 392.876
36.32000 394.333
36.33000 395.521
36.34000 393.353
36.35000 391.294
36.36000 389.866
36.37000 390.131
36.38000 390.489
36.39000 390.028
36.40000 388.082
36.41000 386.106
36.42000 385.026
36.43000 390.040
36.44000 393.475
36.45000 392.550
36.46000 388.259
36.47000 384.062
36.48000 383.555
36.49000 384.945
36.50000 386.273
36.51000 388.468
36.52000 390.789
36.53000 392.694
36.54000 390.978
36.55000 388.421
36.56000 386.149
36.57000 385.413
36.58000 384.906
36.59000 384.503
36.60000 372.576
36.61000 362.166
36.62000 358.120
36.63000 369.221
36.64000 380.972
36.65000 389.558
36.66000 393.069
36.67000 396.513
36.68000 398.276
36.69000 391.211
36.70000 386.462
36.71000 381.611
36.72000 376.691
36.73000 371.987
36.74000 373.393
36.75000 377.586
36.76000 381.547
36.77000 382.136
36.78000 381.724
36.79000 381.544
36.80000 383.101
36.81000 385.012
36.82000 386.375
36.83000 385.160
36.84000 383.614
36.85000 382.424
36.86000 386.514
36.87000 390.054
36.88000 392.372
36.89000 392.112
36.90000 391.769
36.91000 391.405
36.92000 391.011
36.93000 390.618
36.94000 390.871
36.95000 391.713
36.96000 392.545
36.97000 392.762
36.98000 392.610
36.99000 392.399
37.00000 390.929
37.01000 388.949
37.02000 387.103
37.03000 386.275
37.04000 385.776
37.05000 386.297
37.06000 393.366
37.07000 401.602
37.08000 407.584
37.09000 404.242
37.10000 399.884
37.11000 396.634
37.12000 384.316
37.13000 374.311
37.14000 371.394
37.15000 381.745
37.16000 392.400
37.17000 396.532
37.18000 392.551
37.19000 388.553
37.20000 387.733
37.21000 389.444
37.22000 391.102
37.23000 390.524
37.24000 388.759
37.25000 387.148
37.26000 388.171
37.27000 390.138
37.28000 391.945
37.29000 387.650
37.30000 382.509
37.31000 378.349
37.32000 379.663
37.33000 381.823
37.34000 383.247
37.35000 381.985
37.36000 380.477
37.37000 379.391
37.38000 381.237
37.39000 382.753
37.40000 383.083
37.41000 381.448
37.42000 379.783
37.43000 379.335
37.44000 380.209
37.45000 381.080
37.46000 380.255
37.47000 378.259
37.48000 376.439
37.49000 379.961
37.50000 385.997
37.51000 391.612
37.52000 391.454
37.53000 389.460
37.54000 387.658
37.55000 389.613
37.56000 392.029
37.57000 394.328
37.58000 396.057
37.59000 397.709
37.60000 397.256
37.61000 390.013
37.62000 382.254
37.63000 376.879
37.64000 378.482
37.65000 379.872
37.66000 382.794
37.67000 387.956
37.68000 393.138
37.69000 397.714
37.70000 401.719
37.71000 405.690
37.72000 404.520
37.73000 400.245
37.74000 396.113
37.75000 395.282
37.76000 395.829
37.77000 396.101
37.78000 393.253
37.79000 389.527
37.80000 386.220
37.81000 385.354
37.82000 384.995
37.83000 384.477
37.84000 383.275
37.85000 381.996
37.86000 382.818
37.87000 389.644
37.88000 396.840
37.89000 401.621
37.90000 401.849
37.91000 401.932
37.92000 404.372
37.93000 409.843
37.94000 415.316
37.95000 415.833
37.96000 412.254
37.97000 408.724
37.98000 412.427
37.99000 419.883
38.00000 426.755
38.01000 423.144
38.02000 415.650
38.03000 408.631
38.04000 406.122
38.05000 404.732
38.06000 403.523
38.07000 403.995
38.08000 404.630
38.09000 404.307
38.10000 400.381
38.11000 396.109
38.12000 393.347
38.13000 394.414
38.14000 395.668
38.15000 396.465
38.16000 393.415
38.17000 391.154
38.18000 392.775
38.19000 398.770
38.20000 404.734
38.21000 405.137
38.22000 401.503
38.23000 397.942
38.24000 400.888
38.25000 406.764
38.26000 412.493
38.27000 416.094
38.28000 418.998
38.29000 420.979
38.30000 415.518
38.31000 408.432
38.32000 402.397
38.33000 410.499
38.34000 418.958
38.35000 424.338
38.36000 419.467
38.37000 413.776
38.38000 409.878
38.39000 410.011
38.40000 410.295
38.41000 410.467
38.42000 418.866
38.43000 424.908
38.44000 424.625
38.45000 418.135
38.46000 411.711
38.47000 410.835
38.48000 413.507
38.49000 416.106
38.50000 416.237
38.51000 415.350
38.52000 414.522
38.53000 414.382
38.54000 414.441
38.55000 414.407
38.56000 413.723
38.57000 412.914
38.58000 412.241
38.59000 408.150
38.60000 404.429
38.61000 402.255
38.62000 404.644
38.63000 407.332
38.64000 410.258
38.65000 413.659
38.66000 417.073
38.67000 419.026
38.68000 417.620
38.69000 416.630
38.70000 418.058
38.71000 421.554
38.72000 425.018
38.73000 426.754
38.74000 427.512
38.75000 428.242
38.76000 426.964
38.77000 425.043
38.78000 423.197
38.79000 422.100
38.80000 421.196
38.81000 420.610
38.82000 421.929
38.83000 423.566
38.84000 424.894
38.85000 428.975
38.86000 432.526
38.87000 434.448
38.88000 432.111
38.89000 429.553
38.90000 427.901
38.91000 427.850
38.92000 427.830
38.93000 427.819
38.94000 431.283
38.95000 433.670
38.96000 439.164
38.97000 446.990
38.98000 454.726
38.99000 459.246
39.00000 462.154
39.01000 464.926
39.02000 459.818
39.03000 452.605
39.04000 445.847
39.05000 442.927
39.06000 440.874
39.07000 439.588
39.08000 442.313
39.09000 445.616
39.10000 448.219
39.11000 451.084
39.12000 453.398
39.13000 457.617
39.14000 466.255
39.15000 475.071
39.16000 477.458
39.17000 469.807
39.18000 462.037
39.19000 458.117
39.20000 473.785
39.21000 484.235
39.22000 492.100
39.23000 498.257
39.24000 504.092
39.25000 501.400
39.26000 494.919
39.27000 488.814
39.28000 496.930
39.29000 508.259
39.30000 519.003
39.31000 525.527
39.32000 531.216
39.33000 537.204
39.34000 544.564
39.35000 552.094
39.36000 557.853
39.37000 566.695
39.38000 573.838
39.39000 579.342
39.40000 581.474
39.41000 583.505
39.42000 598.068
39.43000 629.878
39.44000 661.778
39.45000 681.290
39.46000 689.812
39.47000 698.384
39.48000 709.941
39.49000 723.242
39.50000 736.034
39.51000 738.479
39.52000 736.844
39.53000 735.325
39.54000 748.323
39.55000 763.526
39.56000 774.987
39.57000 763.169
39.58000 747.328
39.59000 733.149
39.60000 725.651
39.61000 718.856
39.62000 713.827
39.63000 695.036
39.64000 679.863
39.65000 666.452
39.66000 656.253
39.67000 646.123
39.68000 634.013
39.69000 619.512
39.70000 605.037
39.71000 593.474
39.72000 584.222
39.73000 574.973
39.74000 565.797
39.75000 556.658
39.76000 547.944
39.77000 546.086
39.78000 546.625
39.79000 547.118
39.80000 543.006
39.81000 538.390
39.82000 533.448
39.83000 526.743
39.84000 519.774
39.85000 515.620
39.86000 521.465
39.87000 528.190
39.88000 532.993
39.89000 513.107
39.90000 497.119
39.91000 490.123
39.92000 497.626
39.93000 505.326
39.94000 508.043
39.95000 505.501
39.96000 502.970
39.97000 505.536
39.98000 511.510
39.99000 517.308
40.00000 518.065
40.01000 516.512
40.02000 515.397
40.03000 520.038
40.04000 526.460
40.05000 532.242
40.06000 535.164
40.07000 537.213
40.08000 540.544
40.09000 549.948
40.10000 560.135
40.11000 566.489
40.12000 560.800
40.13000 554.235
40.14000 549.727
40.15000 557.812
40.16000 564.181
40.17000 563.183
40.18000 551.701
40.19000 540.148
40.20000 544.432
40.21000 563.257
40.22000 581.907
40.23000 582.242
40.24000 571.749
40.25000 561.560
40.26000 557.956
40.27000 557.030
40.28000 556.433
40.29000 559.419
40.30000 563.386
40.31000 566.893
40.32000 565.633
40.33000 563.807
40.34000 563.667
40.35000 570.543
40.36000 578.189
40.37000 584.115
40.38000 585.255
40.39000 586.113
40.40000 586.678
40.41000 580.633
40.42000 576.068
40.43000 580.591
40.44000 596.479
40.45000 612.366
40.46000 615.937
40.47000 609.618
40.48000 603.392
40.49000 603.391
40.50000 606.615
40.51000 609.609
40.52000 608.685
40.53000 606.348
40.54000 604.266
40.55000 604.515
40.56000 605.327
40.57000 606.030
40.58000 599.280
40.59000 592.550
40.60000 589.241
40.61000 598.482
40.62000 608.882
40.63000 618.193
40.64000 624.814
40.65000 631.311
40.66000 635.393
40.67000 637.067
40.68000 638.250
40.69000 639.227
40.70000 639.977
40.71000 640.721
40.72000 640.478
40.73000 639.538
40.74000 638.619
40.75000 635.650
40.76000 631.871
40.77000 629.038
40.78000 639.304
40.79000 653.757
40.80000 666.143
40.81000 662.388
40.82000 655.208
40.83000 649.124
40.84000 655.955
40.85000 663.131
40.86000 668.836
40.87000 669.778
40.88000 670.354
40.89000 671.378
40.90000 673.385
40.91000 675.427
40.92000 676.647
40.93000 680.567
40.94000 683.364
40.95000 687.196
40.96000 692.013
40.97000 696.843
40.98000 702.652
40.99000 709.071
41.00000 715.301
41.01000 721.548
41.02000 727.482
41.03000 732.643
41.04000 728.977
41.05000 722.815
41.06000 716.965
41.07000 713.209
41.08000 709.841
41.09000 707.055
41.10000 718.986
41.11000 730.219
41.12000 740.945
41.13000 750.216
41.14000 759.396
41.15000 769.882
41.16000 782.901
41.17000 795.986
41.18000 803.380
41.19000 795.912
41.20000 790.685
41.21000 788.224
41.22000 788.064
41.23000 788.072
41.24000 796.157
41.25000 808.691
41.26000 820.741
41.27000 826.109
41.28000 828.808
41.29000 831.860
41.30000 838.302
41.31000 845.590
41.32000 851.182
41.33000 846.914
41.34000 841.053
41.35000 836.329
41.36000 859.891
41.37000 881.247
41.38000 896.647
41.39000 896.878
41.40000 896.358
41.41000 898.860
41.42000 906.559
41.43000 914.348
41.44000 918.488
41.45000 928.065
41.46000 934.567
41.47000 937.908
41.48000 938.941
41.49000 940.110
41.50000 945.886
41.51000 953.909
41.52000 961.539
41.53000 983.406
41.54000 1007.971
41.55000 1030.689
41.56000 1038.380
41.57000 1042.771
41.58000 1051.318
41.59000 1080.938
41.60000 1113.499
41.61000 1139.008
41.62000 1183.403
41.63000 1220.094
41.64000 1259.767
41.65000 1306.182
41.66000 1352.853
41.67000 1406.213
41.68000 1469.735
41.69000 1533.364
41.70000 1592.921
41.71000 1648.458
41.72000 1703.815
41.73000 1743.624
41.74000 1773.430
41.75000 1803.218
41.76000 1832.553
41.77000 1861.694
41.78000 1889.066
41.79000 1937.403
41.80000 1987.088
41.81000 2035.491
41.82000 2074.956
41.83000 2112.702
41.84000 2150.271
41.85000 2187.057
41.86000 2223.750
41.87000 2251.620
41.88000 2250.760
41.89000 2248.594
41.90000 2267.067
41.91000 2326.899
41.92000 2387.888
41.93000 2442.429
41.94000 2488.337
41.95000 2534.168
41.96000 2585.168
41.97000 2640.507
41.98000 2695.746
41.99000 2745.606
42.00000 2792.408
42.01000 2838.574
42.02000 2872.434
42.03000 2901.569
42.04000 2928.560
42.05000 2931.496
42.06000 2928.556
42.07000 2923.284
42.08000 2903.945
42.09000 2882.249
42.10000 2859.239
42.11000 2831.084
42.12000 2802.409
42.13000 2781.347
42.14000 2714.411
42.15000 2660.792
42.16000 2595.233
42.17000 2508.477
42.18000 2421.311
42.19000 2342.841
42.20000 2274.577
42.21000 2206.515
42.22000 2157.347
42.23000 2122.677
42.24000 2088.332
42.25000 2065.960
42.26000 2049.617
42.27000 2033.548
42.28000 2021.691
42.29000 2011.269
42.30000 2001.761
42.31000 1992.343
42.32000 1984.008
42.33000 1978.785
42.34000 1989.909
42.35000 2003.403
42.36000 2013.474
42.37000 2011.714
42.38000 2008.952
42.39000 2006.996
42.40000 2013.314
42.41000 2018.374
42.42000 2022.129
42.43000 2023.838
42.44000 2025.522
42.45000 2033.199
42.46000 2047.013
42.47000 2060.745
42.48000 2059.931
42.49000 2049.593
42.50000 2039.427
42.51000 2033.896
42.52000 2030.436
42.53000 2028.379
42.54000 2043.992
42.55000 2064.935
42.56000 2083.717
42.57000 2076.202
42.58000 2065.056
42.59000 2058.552
42.60000 2073.404
42.61000 2090.915
42.62000 2103.885
42.63000 2102.970
42.64000 2101.088
42.65000 2099.806
42.66000 2144.885
42.67000 2179.610
42.68000 2209.782
42.69000 2233.653
42.70000 2257.482
42.71000 2277.915
42.72000 2295.321
42.73000 2312.545
42.74000 2345.447
42.75000 2386.620
42.76000 2427.480
42.77000 2461.881
42.78000 2493.724
42.79000 2525.073
42.80000 2551.251
42.81000 2576.052
42.82000 2597.883
42.83000 2668.874
42.84000 2737.356
42.85000 2796.592
42.86000 2818.429
42.87000 2836.309
42.88000 2861.611
42.89000 2907.039
42.90000 2953.596
42.91000 2983.940
42.92000 3066.989
42.93000 3128.741
42.94000 3187.480
42.95000 3242.556
42.96000 3297.641
42.97000 3357.360
42.98000 3420.696
42.99000 3483.010
43.00000 3540.218
43.01000 3593.035
43.02000 3646.260
43.03000 3706.146
43.04000 3768.373
43.05000 3831.525
43.06000 3902.846
43.07000 3976.087
43.08000 4039.244
43.09000 4132.297
43.10000 4215.032
43.11000 4297.850
43.12000 4380.966
43.13000 4464.109
43.14000 4562.035
43.15000 4695.512
43.16000 4830.550
43.17000 4914.504
43.18000 5076.167
43.19000 5193.349
43.20000 5316.875
43.21000 5447.137
43.22000 5577.616
43.23000 5733.696
43.24000 5907.357
43.25000 6077.008
43.26000 6281.757
43.27000 6493.292
43.28000 6703.724
43.29000 6899.532
43.30000 7090.787
43.31000 7288.123
43.32000 7531.340
43.33000 7784.019
43.34000 7997.077
43.35000 8316.292
43.36000 8594.361
43.37000 8872.314
43.38000 9149.898
43.39000 9427.455
43.40000 9758.838
43.41000 10205.060
43.42000 10655.081
43.43000 10920.774
43.44000 11569.558
43.45000 12029.875
43.46000 12548.718
43.47000 13121.624
43.48000 13695.207
43.49000 14314.524
43.50000 14961.568
43.51000 15588.361
43.52000 16379.199
43.53000 17190.926
43.54000 18008.334
43.55000 18888.088
43.56000 19785.008
43.57000 20712.555
43.58000 21839.195
43.59000 23001.711
43.60000 23958.252
43.61000 25513.209
43.62000 26845.969
43.63000 28228.516
43.64000 29750.350
43.65000 31280.465
43.66000 32926.816
43.67000 34792.996
43.68000 36664.383
43.69000 37708.328
43.70000 41177.164
43.71000 43583.914
43.72000 46268.984
43.73000 49178.855
43.74000 52099.730
43.75000 55506.516
43.76000 59173.984
43.77000 62692.016
43.78000 67374.156
43.79000 72143.195
43.80000 76995.914
43.81000 82620.977
43.82000 88433.570
43.83000 94365.664
43.84000 100972.023
43.85000 107683.922
43.86000 113061.477
43.87000 120888.930
43.88000 127407.305
43.89000 133684.188
43.90000 139361.828
43.91000 145011.344
43.92000 150142.031
43.93000 154404.156
43.94000 158652.672
43.95000 160879.109
43.96000 163667.688
43.97000 165549.422
43.98000 166421.438
43.99000 166576.750
44.00000 166680.031
44.01000 165151.625
44.02000 162847.375
44.03000 160661.656
44.04000 156411.703
44.05000 151881.234
44.06000 147151.219
44.07000 140853.828
44.08000 134221.938
44.09000 127478.594
44.10000 120186.180
44.11000 112819.656
44.12000 107086.063
44.13000 98149.703
44.14000 90837.313
44.15000 83741.289
44.16000 77121.563
44.17000 70518.875
44.18000 64317.816
44.19000 58710.480
44.20000 53108.898
44.21000 48011.828
44.22000 43398.656
44.23000 38794.184
44.24000 34858.840
44.25000 31342.424
44.26000 27859.279
44.27000 25158.568
44.28000 22787.881
44.29000 20567.438
44.30000 18794.459
44.31000 17297.523
44.32000 15870.987
44.33000 14919.812
44.34000 14057.399
44.35000 13243.844
44.36000 12641.532
44.37000 12063.589
44.38000 11627.693
44.39000 11167.735
44.40000 10806.285
44.41000 10479.971
44.42000 10222.233
44.43000 9966.279
44.44000 9712.488
44.45000 9461.514
44.46000 9210.818
44.47000 8974.570
44.48000 8751.039
44.49000 8527.193
44.50000 8287.979
44.51000 8040.252
44.52000 7787.308
44.53000 7438.635
44.54000 7054.145
44.55000 6699.090
44.56000 6358.201
44.57000 6055.654
44.58000 5759.726
44.59000 5502.515
44.60000 5251.596
44.61000 5019.600
44.62000 4859.675
44.63000 4706.777
44.64000 4595.335
44.65000 4514.391
44.66000 4453.220
44.67000 4400.608
44.68000 4362.790
44.69000 4325.233
44.70000 4300.701
44.71000 4291.019
44.72000 4281.384
44.73000 4253.912
44.74000 4213.679
44.75000 4173.187
44.76000 4123.853
44.77000 4070.180
44.78000 4017.667
44.79000 3982.214
44.80000 3952.421
44.81000 3925.339
44.82000 3880.728
44.83000 3837.867
44.84000 3794.688
44.85000 3749.885
44.86000 3704.852
44.87000 3656.750
44.88000 3598.317
44.89000 3539.045
44.90000 3497.421
44.91000 3428.230
44.92000 3375.035
44.93000 3327.290
44.94000 3287.867
44.95000 3248.533
44.96000 3224.621
44.97000 3216.023
44.98000 3207.483
44.99000 3198.706
45.00000 3189.913
45.01000 3181.383
45.02000 3179.497
45.03000 3180.502
45.04000 3181.059
45.05000 3176.206
45.06000 3169.765
45.07000 3164.011
45.08000 3146.036
45.09000 3128.318
45.10000 3117.868
45.11000 3139.917
45.12000 3165.875
45.13000 3182.859
45.14000 3173.108
45.15000 3161.577
45.16000 3153.801
45.17000 3116.689
45.18000 3088.458
45.19000 3065.050
45.20000 3048.132
45.21000 3031.222
45.22000 2993.966
45.23000 2939.098
45.24000 2884.864
45.25000 2860.887
45.26000 2854.368
45.27000 2846.042
45.28000 2802.452
45.29000 2745.249
45.30000 2689.943
45.31000 2653.762
45.32000 2622.541
45.33000 2595.178
45.34000 2582.122
45.35000 2572.988
45.36000 2563.978
45.37000 2555.460
45.38000 2546.992
45.39000 2530.383
45.40000 2492.271
45.41000 2453.012
45.42000 2427.678
45.43000 2447.213
45.44000 2462.131
45.45000 2470.583
45.46000 2471.401
45.47000 2472.159
45.48000 2462.911
45.49000 2446.068
45.50000 2429.521
45.51000 2424.470
45.52000 2425.214
45.53000 2426.328
45.54000 2433.217
45.55000 2442.081
45.56000 2450.082
45.57000 2450.709
45.58000 2449.653
45.59000 2448.746
45.60000 2466.606
45.61000 2484.016
45.62000 2496.868
45.63000 2493.880
45.64000 2489.540
45.65000 2480.661
45.66000 2461.146
45.67000 2441.191
45.68000 2428.919
45.69000 2468.034
45.70000 2496.539
45.71000 2517.688
45.72000 2531.262
45.73000 2544.666
45.74000 2540.574
45.75000 2524.792
45.76000 2509.401
45.77000 2544.817
45.78000 2600.429
45.79000 2652.379
45.80000 2657.834
45.81000 2649.195
45.82000 2642.782
45.83000 2652.622
45.84000 2665.717
45.85000 2676.702
45.86000 2700.236
45.87000 2721.132
45.88000 2745.307
45.89000 2779.565
45.90000 2814.532
45.91000 2829.712
45.92000 2803.771
45.93000 2776.557
45.94000 2760.680
45.95000 2856.765
45.96000 2924.840
45.97000 2981.058
45.98000 3026.646
45.99000 3072.011
46.00000 3103.864
46.01000 3127.741
46.02000 3150.824
46.03000 3199.925
46.04000 3256.036
46.05000 3316.657
46.06000 3424.873
46.07000 3545.841
46.08000 3672.095
46.09000 3831.642
46.10000 3997.010
46.11000 4132.315
46.12000 4397.623
46.13000 4626.344
46.14000 4866.081
46.15000 5135.839
46.16000 5407.297
46.17000 5713.213
46.18000 6082.600
46.19000 6453.372
46.20000 6657.514
46.21000 7235.297
46.22000 7634.809
46.23000 8273.931
46.24000 9101.145
46.25000 9953.779
46.26000 11842.204
46.27000 14271.823
46.28000 16597.041
46.29000 23159.258
46.30000 30667.568
46.31000 38688.457
46.32000 51272.059
46.33000 64933.137
46.34000 79645.750
46.35000 100115.906
46.36000 121459.219
46.37000 138455.313
46.38000 159464.734
46.39000 176695.500
46.40000 192302.422
46.41000 203983.875
46.42000 215491.141
46.43000 225386.188
46.44000 232653.875
46.45000 239884.484
46.46000 243619.234
46.47000 254079.938
46.48000 261125.766
46.49000 267488.625
46.50000 273379.938
46.51000 279124.375
46.52000 280560.469
46.53000 280000.875
46.54000 279471.438
46.55000 269899.875
46.56000 258498.375
46.57000 246286.484
46.58000 227919.859
46.59000 208276.906
46.60000 189001.813
46.61000 171487.609
46.62000 154203.297
46.63000 140839.406
46.64000 127165.461
46.65000 116298.375
46.66000 106169.953
46.67000 97625.539
46.68000 89134.234
46.69000 80117.047
46.70000 70343.547
46.71000 60565.762
46.72000 51162.668
46.73000 42112.203
46.74000 33094.473
46.75000 26333.510
46.76000 20947.891
46.77000 15659.255
46.78000 12524.828
46.79000 10275.621
46.80000 8175.184
46.81000 7095.469
46.82000 6372.536
46.83000 5696.354
46.84000 5325.958
46.85000 5010.986
46.86000 4711.313
46.87000 4475.965
46.88000 4247.777
46.89000 4076.911
46.90000 3896.368
46.91000 3755.015
46.92000 3630.947
46.93000 3539.738
46.94000 3449.320
46.95000 3359.243
46.96000 3269.596
46.97000 3180.082
46.98000 3098.342
46.99000 3023.204
47.00000 2948.259
47.01000 2881.987
47.02000 2820.393
47.03000 2759.406
47.04000 2709.034
47.05000 2662.530
47.06000 2619.727
47.07000 2564.035
47.08000 2511.427
47.09000 2459.759
47.10000 2413.420
47.11000 2367.920
47.12000 2328.457
47.13000 2311.372
47.14000 2296.385
47.15000 2285.548
47.16000 2252.542
47.17000 2226.407
47.18000 2200.581
47.19000 2175.275
47.20000 2149.977
47.21000 2112.055
47.22000 2060.159
47.23000 2008.461
47.24000 1981.895
47.25000 1973.348
47.26000 1963.887
47.27000 1925.378
47.28000 1872.984
47.29000 1822.677
47.30000 1801.721
47.31000 1790.248
47.32000 1779.856
47.33000 1770.657
47.34000 1762.776
47.35000 1749.791
47.36000 1711.511
47.37000 1669.794
47.38000 1634.917
47.39000 1622.449
47.40000 1611.727
47.41000 1604.261
47.42000 1562.389
47.43000 1529.865
47.44000 1509.419
47.45000 1506.925
47.46000 1504.599
47.47000 1496.568
47.48000 1483.042
47.49000 1469.621
47.50000 1449.051
47.51000 1424.411
47.52000 1399.748
47.53000 1374.532
47.54000 1349.082
47.55000 1325.416
47.56000 1322.450
47.57000 1325.401
47.58000 1328.027
47.59000 1310.943
47.60000 1292.895
47.61000 1275.611
47.62000 1261.650
47.63000 1248.074
47.64000 1230.745
47.65000 1202.523
47.66000 1173.609
47.67000 1154.289
47.68000 1156.943
47.69000 1159.339
47.70000 1157.614
47.71000 1150.499
47.72000 1143.354
47.73000 1133.049
47.74000 1120.087
47.75000 1107.291
47.76000 1097.600
47.77000 1089.847
47.78000 1081.896
47.79000 1070.281
47.80000 1057.289
47.81000 1044.789
47.82000 1037.078
47.83000 1030.574
47.84000 1024.900
47.85000 1012.461
47.86000 1000.876
47.87000 989.490
47.88000 978.870
47.89000 968.325
47.90000 960.495
47.91000 959.654
47.92000 959.165
47.93000 958.853
47.94000 927.645
47.95000 904.531
47.96000 894.300
47.97000 898.843
47.98000 903.324
47.99000 893.765
48.00000 873.845
48.01000 854.305
48.02000 842.539
48.03000 834.897
48.04000 828.115
48.05000 834.130
48.06000 844.410
48.07000 852.262
48.08000 840.099
48.09000 823.494
48.10000 809.310
48.11000 797.474
48.12000 787.783
48.13000 779.416
48.14000 775.524
48.15000 771.999
48.16000 766.363
48.17000 755.905
48.18000 745.260
48.19000 738.786
48.20000 737.928
48.21000 737.359
48.22000 730.888
48.23000 718.520
48.24000 706.221
48.25000 700.169
48.26000 698.181
48.27000 696.245
48.28000 695.160
48.29000 694.482
48.30000 693.220
48.31000 684.846
48.32000 674.372
48.33000 664.841
48.34000 661.968
48.35000 660.390
48.36000 659.074
48.37000 656.854
48.38000 654.921
48.39000 652.567
48.40000 648.952
48.41000 645.252
48.42000 639.538
48.43000 629.747
48.44000 619.839
48.45000 614.128
48.46000 603.423
48.47000 595.913
48.48000 591.386
48.49000 589.457
48.50000 587.636
48.51000 591.812
48.52000 599.434
48.53000 606.787
48.54000 597.975
48.55000 583.781
48.56000 570.760
48.57000 569.669
48.58000 571.688
48.59000 573.062
48.60000 570.497
48.61000 567.266
48.62000 564.636
48.63000 565.997
48.64000 567.443
48.65000 565.665
48.66000 555.325
48.67000 544.525
48.68000 536.290
48.69000 532.657
48.70000 529.117
48.71000 527.193
48.72000 525.587
48.73000 524.461
48.74000 517.877
48.75000 507.126
48.76000 496.703
48.77000 498.650
48.78000 506.891
48.79000 514.759
48.80000 513.057
48.81000 508.415
48.82000 503.541
48.83000 496.662
48.84000 489.322
48.85000 483.540
48.86000 486.031
48.87000 489.738
48.88000 492.671
48.89000 495.113
48.90000 497.041
48.91000 495.012
48.92000 483.662
48.93000 471.923
48.94000 468.318
48.95000 477.617
48.96000 487.079
48.97000 491.894
48.98000 472.313
48.99000 459.254
49.00000 454.024
49.01000 454.053
49.02000 454.260
49.03000 459.364
49.04000 466.676
49.05000 473.576
49.06000 471.908
49.07000 467.987
49.08000 463.579
49.09000 455.603
49.10000 446.908
49.11000 439.405
49.12000 437.443
49.13000 436.181
49.14000 435.211
49.15000 435.575
49.16000 435.937
49.17000 438.087
49.18000 443.974
49.19000 449.978
49.20000 451.270
49.21000 445.971
49.22000 440.629
49.23000 435.137
49.24000 429.516
49.25000 423.952
49.26000 421.899
49.27000 421.929
49.28000 421.897
49.29000 420.559
49.30000 418.698
49.31000 416.966
49.32000 408.082
49.33000 398.308
49.34000 390.366
49.35000 394.028
49.36000 399.731
49.37000 404.542
49.38000 405.709
49.39000 406.484
49.40000 407.061
49.41000 419.278
49.42000 429.296
49.43000 431.777
49.44000 420.306
49.45000 408.525
49.46000 399.347
49.47000 393.368
49.48000 387.408
49.49000 381.584
49.50000 375.897
49.51000 370.372
49.52000 371.558
49.53000 376.270
49.54000 380.629
49.55000 379.145
49.56000 375.585
49.57000 372.319
49.58000 375.823
49.59000 380.379
49.60000 382.770
49.61000 373.240
49.62000 361.890
49.63000 352.930
49.64000 352.592
49.65000 353.032
49.66000 353.348
49.67000 359.146
49.68000 363.767
49.69000 366.254
49.70000 365.243
49.71000 364.182
49.72000 364.053
49.73000 364.925
49.74000 365.794
49.75000 367.925
49.76000 370.899
49.77000 373.609
49.78000 368.468
49.79000 359.672
49.80000 351.034
49.81000 344.539
49.82000 338.717
49.83000 333.464
49.84000 332.589
49.85000 332.622
49.86000 332.983
49.87000 334.927
49.88000 337.079
49.89000 338.777
49.90000 339.024
49.91000 339.163
49.92000 339.259
49.93000 333.152
49.94000 328.405
49.95000 324.979
49.96000 323.462
49.97000 321.961
49.98000 320.531
49.99000 319.169
50.00000 317.818
50.01000 318.758
50.02000 321.056
50.03000 323.299
50.04000 324.308
50.05000 324.807
50.06000 325.215
50.07000 324.615
50.08000 323.733
50.09000 322.952
50.10000 326.214
50.11000 329.676
50.12000 332.224
50.13000 330.909
50.14000 329.161
50.15000 327.737
50.16000 327.231
50.17000 326.780
50.18000 326.482
50.19000 326.255
50.20000 326.089
50.21000 322.433
50.22000 314.338
50.23000 306.246
50.24000 305.500
50.25000 310.754
50.26000 315.934
50.27000 316.586
50.28000 314.833
50.29000 313.090
50.30000 311.540
50.31000 310.059
50.32000 308.608
50.33000 307.431
50.34000 306.321
50.35000 305.358
50.36000 303.312
50.37000 301.421
50.38000 300.151
50.39000 301.193
50.40000 302.453
50.41000 303.907
50.42000 305.846
50.43000 307.807
50.44000 309.048
50.45000 307.967
50.46000 307.156
50.47000 306.667
50.48000 306.535
50.49000 306.425
50.50000 309.650
50.51000 315.268
50.52000 320.770
50.53000 314.730
50.54000 303.594
50.55000 293.206
50.56000 293.446
50.57000 297.138
50.58000 300.526
50.59000 301.495
50.60000 301.943
50.61000 302.324
50.62000 298.845
50.63000 295.481
50.64000 292.549
50.65000 291.037
50.66000 289.636
50.67000 289.021
50.68000 290.154
50.69000 291.352
50.70000 292.072
50.71000 294.283
50.72000 295.866
50.73000 298.219
50.74000 301.320
50.75000 304.397
50.76000 305.531
50.77000 305.438
50.78000 305.347
50.79000 304.796
50.80000 304.087
50.81000 303.620
50.82000 305.983
50.83000 309.159
50.84000 312.043
50.85000 312.926
50.86000 313.430
50.87000 313.849
50.88000 307.786
50.89000 302.148
50.90000 298.445
50.91000 300.390
50.92000 302.697
50.93000 301.221
50.94000 292.287
50.95000 283.154
50.96000 277.954
50.97000 279.583
50.98000 280.741
50.99000 282.096
51.00000 283.618
51.01000 285.154
51.02000 287.376
51.03000 289.982
51.04000 292.491
51.05000 290.706
51.06000 287.507
51.07000 283.989
51.08000 277.349
51.09000 269.917
51.10000 264.188
51.11000 268.548
51.12000 274.566
51.13000 279.435
51.14000 275.671
51.15000 271.914
51.16000 268.378
51.17000 265.416
51.18000 262.483
51.19000 260.500
51.20000 260.176
51.21000 259.881
51.22000 259.724
51.23000 255.975
51.24000 253.447
51.25000 257.232
51.26000 265.700
51.27000 273.949
51.28000 274.532
51.29000 271.315
51.30000 268.252
51.31000 266.102
51.32000 264.394
51.33000 262.798
51.34000 262.123
51.35000 261.654
51.36000 260.425
51.37000 255.271
51.38000 249.560
51.39000 245.068
51.40000 250.339
51.41000 255.205
51.42000 258.405
51.43000 257.785
51.44000 257.013
51.45000 256.551
51.46000 256.567
51.47000 256.588
51.48000 256.598
51.49000 258.680
51.50000 260.016
51.51000 256.519
51.52000 249.862
51.53000 243.592
51.54000 247.309
51.55000 255.416
51.56000 263.044
51.57000 262.560
51.58000 259.917
51.59000 257.410
51.60000 255.859
51.61000 254.496
51.62000 254.075
51.63000 257.913
51.64000 262.271
51.65000 265.594
51.66000 256.273
51.67000 248.256
51.68000 243.533
51.69000 245.514
51.70000 247.691
51.71000 249.968
51.72000 252.379
51.73000 254.790
51.74000 254.510
51.75000 251.877
51.76000 249.281
51.77000 248.717
51.78000 249.326
51.79000 249.722
51.80000 245.888
51.81000 240.404
51.82000 235.314
51.83000 239.521
51.84000 245.508
51.85000 250.360
51.86000 248.239
51.87000 244.928
51.88000 242.157
51.89000 241.531
51.90000 241.128
51.91000 240.830
51.92000 240.624
51.93000 240.469
51.94000 239.271
51.95000 236.193
51.96000 233.078
51.97000 231.902
51.98000 233.041
51.99000 234.183
52.00000 238.539
52.01000 245.321
52.02000 251.857
52.03000 248.981
52.04000 241.290
52.05000 234.125
52.06000 235.280
52.07000 239.314
52.08000 243.001
52.09000 240.848
52.10000 237.737
52.11000 235.772
52.12000 239.930
52.13000 244.993
52.14000 248.336
52.15000 245.638
52.16000 242.416
52.17000 240.123
52.18000 236.125
52.19000 233.025
52.20000 231.970
52.21000 234.177
52.22000 236.426
52.23000 237.112
52.24000 236.166
52.25000 235.226
52.26000 236.111
52.27000 238.202
52.28000 240.131
52.29000 237.569
52.30000 232.968
52.31000 228.995
52.32000 233.109
52.33000 239.701
52.34000 245.627
52.35000 237.911
52.36000 228.735
52.37000 221.136
52.38000 220.915
52.39000 221.632
52.40000 223.167
52.41000 227.246
52.42000 231.506
52.43000 234.421
52.44000 233.080
52.45000 231.976
52.46000 232.767
52.47000 236.224
52.48000 239.696
52.49000 237.204
52.50000 229.302
52.51000 221.477
52.52000 218.569
52.53000 218.594
52.54000 218.612
52.55000 218.493
52.56000 218.318
52.57000 218.081
52.58000 217.176
52.59000 216.091
52.60000 215.133
52.61000 215.588
52.62000 216.197
52.63000 216.763
52.64000 217.155
52.65000 217.528
52.66000 218.756
52.67000 222.340
52.68000 226.060
52.69000 228.499
52.70000 217.409
52.71000 209.031
52.72000 206.327
52.73000 210.637
52.74000 214.961
52.75000 218.222
52.76000 220.638
52.77000 223.017
52.78000 223.470
52.79000 222.924
52.80000 222.371
52.81000 221.698
52.82000 220.982
52.83000 220.100
52.84000 217.717
52.85000 214.977
52.86000 212.607
52.87000 212.545
52.88000 212.794
52.89000 213.214
52.90000 214.256
52.91000 215.354
52.92000 215.538
52.93000 213.490
52.94000 211.341
52.95000 209.996
52.96000 213.667
52.97000 216.371
52.98000 217.654
52.99000 217.403
53.00000 217.133
53.01000 214.413
53.02000 209.985
53.03000 205.654
53.04000 207.767
53.05000 212.683
53.06000 217.003
53.07000 213.214
53.08000 206.861
53.09000 201.472
53.10000 203.500
53.11000 207.083
53.12000 210.114
53.13000 211.350
53.14000 212.186
53.15000 212.940
53.16000 213.431
53.17000 213.902
53.18000 213.759
53.19000 212.285
53.20000 210.765
53.21000 209.861
53.22000 200.083
53.23000 193.110
53.24000 194.870
53.25000 204.842
53.26000 214.708
53.27000 216.949
53.28000 214.493
53.29000 212.111
53.30000 211.383
53.31000 211.343
53.32000 211.137
53.33000 209.071
53.34000 206.484
53.35000 204.118
53.36000 203.215
53.37000 202.580
53.38000 202.056
53.39000 201.151
53.40000 200.370
53.41000 200.842
53.42000 204.876
53.43000 209.128
53.44000 211.687
53.45000 210.995
53.46000 210.222
53.47000 209.787
53.48000 212.143
53.49000 213.786
53.50000 215.509
53.51000 217.300
53.52000 218.967
53.53000 214.950
53.54000 207.835
53.55000 201.001
53.56000 199.900
53.57000 200.846
53.58000 201.472
53.59000 199.086
53.60000 195.956
53.61000 194.018
53.62000 198.926
53.63000 204.925
53.64000 209.749
53.65000 209.646
53.66000 209.182
53.67000 209.322
53.68000 210.984
53.69000 212.720
53.70000 209.358
53.71000 197.325
53.72000 185.149
53.73000 178.714
53.74000 179.553
53.75000 180.134
53.76000 181.749
53.77000 184.111
53.78000 186.444
53.79000 187.816
53.80000 188.725
53.81000 189.588
53.82000 192.545
53.83000 195.907
53.84000 199.174
53.85000 201.678
53.86000 204.016
53.87000 205.486
53.88000 202.608
53.89000 199.133
53.90000 196.417
53.91000 201.514
53.92000 206.074
53.93000 207.688
53.94000 202.715
53.95000 197.497
53.96000 195.240
53.97000 197.430
53.98000 199.664
53.99000 201.097
54.00000 201.750
54.01000 202.388
54.02000 201.773
54.03000 200.362
54.04000 198.902
54.05000 196.260
54.06000 193.111
54.07000 190.157
54.08000 187.382
54.09000 184.901
54.10000 182.773
54.11000 183.077
54.12000 183.842
54.13000 184.927
54.14000 187.412
54.15000 190.062
54.16000 192.070
54.17000 192.824
54.18000 193.353
54.19000 193.080
54.20000 191.217
54.21000 189.311
54.22000 188.948
54.23000 190.624
54.24000 192.308
54.25000 192.088
54.26000 190.254
54.27000 188.479
54.28000 189.757
54.29000 192.752
54.30000 195.768
54.31000 199.195
54.32000 202.777
54.33000 206.091
54.34000 204.553
54.35000 202.060
54.36000 199.449
54.37000 196.138
54.38000 192.711
54.39000 190.369
54.40000 192.226
54.41000 194.500
54.42000 196.166
54.43000 191.404
54.44000 187.473
54.45000 184.653
54.46000 183.784
54.47000 182.952
54.48000 185.071
54.49000 190.615
54.50000 196.146
54.51000 199.034
54.52000 199.944
54.53000 200.836
54.54000 201.049
54.55000 200.926
54.56000 200.866
54.57000 201.783
54.58000 203.028
54.59000 204.162
54.60000 201.322
54.61000 198.017
54.62000 195.757
54.63000 198.922
54.64000 202.863
54.65000 205.832
54.66000 205.479
54.67000 204.850
54.68000 204.405
54.69000 197.808
54.70000 192.614
54.71000 189.788
54.72000 190.637
54.73000 191.528
54.74000 191.439
54.75000 190.360
54.76000 189.287
54.77000 187.736
54.78000 185.899
54.79000 184.107
54.80000 183.509
54.81000 183.439
54.82000 183.646
54.83000 187.301
54.84000 191.983
54.85000 196.176
54.86000 195.240
54.87000 193.542
54.88000 191.910
54.89000 190.578
54.90000 189.284
54.91000 188.293
54.92000 188.221
54.93000 188.212
54.94000 188.206
54.95000 184.413
54.96000 181.502
54.97000 180.909
54.98000 183.488
54.99000 186.085
55.00000 188.211
55.01000 189.921
55.02000 191.613
55.03000 191.454
55.04000 190.248
55.05000 189.084
55.06000 188.753
55.07000 188.747
55.08000 188.839
55.09000 189.942
55.10000 191.311
55.11000 192.513
55.12000 191.979
55.13000 191.263
55.14000 189.577
55.15000 184.013
55.16000 178.045
55.17000 174.494
55.18000 177.431
55.19000 180.723
55.20000 182.861
55.21000 183.245
55.22000 183.499
55.23000 185.010
55.24000 188.029
55.25000 191.036
55.26000 190.427
55.27000 187.028
55.28000 183.686
55.29000 186.007
55.30000 191.069
55.31000 195.519
55.32000 190.191
55.33000 181.464
55.34000 174.002
55.35000 177.568
55.36000 183.693
55.37000 188.966
55.38000 184.525
55.39000 179.541
55.40000 176.410
55.41000 179.821
55.42000 183.803
55.43000 186.674
55.44000 186.900
55.45000 187.014
55.46000 187.084
55.47000 183.116
55.48000 180.225
55.49000 178.308
55.50000 177.413
55.51000 176.540
55.52000 178.122
55.53000 181.373
55.54000 184.546
55.55000 185.529
55.56000 185.515
55.57000 185.203
55.58000 181.013
55.59000 175.629
55.60000 171.697
55.61000 178.572
55.62000 187.649
55.63000 195.286
55.64000 194.771
55.65000 193.472
55.66000 192.032
55.67000 190.153
55.68000 188.241
55.69000 189.321
55.70000 196.714
55.71000 204.310
55.72000 208.773
55.73000 196.408
55.74000 187.608
55.75000 183.820
55.76000 184.605
55.77000 185.389
55.78000 186.113
55.79000 186.801
55.80000 187.466
55.81000 186.228
55.82000 184.331
55.83000 182.863
55.84000 186.030
55.85000 190.459
55.86000 193.418
55.87000 186.949
55.88000 178.802
55.89000 172.114
55.90000 178.101
55.91000 184.150
55.92000 188.744
55.93000 189.313
55.94000 189.648
55.95000 188.785
55.96000 185.681
55.97000 182.525
55.98000 180.775
55.99000 179.331
56.00000 178.341
56.01000 179.467
56.02000 182.282
56.03000 185.012
56.04000 184.152
56.05000 181.387
56.06000 178.737
56.07000 178.714
56.08000 179.572
56.09000 179.952
56.10000 175.978
56.11000 170.960
56.12000 167.595
56.13000 173.443
56.14000 180.715
56.15000 186.527
56.16000 189.881
56.17000 192.410
56.18000 192.907
56.19000 188.414
56.20000 183.693
56.21000 181.104
56.22000 182.042
56.23000 183.033
56.24000 183.550
56.25000 174.909
56.26000 169.110
56.27000 169.093
56.28000 173.133
56.29000 177.096
56.30000 178.724
56.31000 179.253
56.32000 179.754
56.33000 179.102
56.34000 178.164
56.35000 177.387
56.36000 177.864
56.37000 178.606
56.38000 179.222
56.39000 179.229
56.40000 179.156
56.41000 179.098
56.42000 180.065
56.43000 180.894
56.44000 180.560
56.45000 177.692
56.46000 174.735
56.47000 174.142
56.48000 177.002
56.49000 179.893
56.50000 182.068
56.51000 183.568
56.52000 185.003
56.53000 181.720
56.54000 175.515
56.55000 169.524
56.56000 168.449
56.57000 169.425
56.58000 170.339
56.59000 170.039
56.60000 169.456
56.61000 168.930
56.62000 168.774
56.63000 168.687
56.64000 169.828
56.65000 176.215
56.66000 183.198
56.67000 188.449
56.68000 181.529
56.69000 175.529
56.70000 171.389
56.71000 170.839
56.72000 170.380
56.73000 170.520
56.74000 171.429
56.75000 172.341
56.76000 173.547
56.77000 174.992
56.78000 176.356
56.79000 173.922
56.80000 169.408
56.81000 165.251
56.82000 167.510
56.83000 172.143
56.84000 176.415
56.85000 180.586
56.86000 184.300
56.87000 187.006
56.88000 183.885
56.89000 179.831
56.90000 176.746
56.91000 177.312
56.92000 178.228
56.93000 178.894
56.94000 177.840
56.95000 176.964
56.96000 174.967
56.97000 171.051
56.98000 167.104
56.99000 165.364
57.00000 166.110
57.01000 166.855
57.02000 168.285
57.03000 170.195
57.04000 172.024
57.05000 171.182
57.06000 169.044
57.07000 166.961
57.08000 165.667
57.09000 164.633
57.10000 163.694
57.11000 167.773
57.12000 172.341
57.13000 175.936
57.14000 174.623
57.15000 172.630
57.16000 171.250
57.17000 171.906
57.18000 172.725
57.19000 173.298
57.20000 171.557
57.21000 170.174
57.22000 168.941
57.23000 167.932
57.24000 166.926
57.25000 166.751
57.26000 167.393
57.27000 168.030
57.28000 165.797
57.29000 161.793
57.30000 158.079
57.31000 161.498
57.32000 167.988
57.33000 173.892
57.34000 172.835
57.35000 169.756
57.36000 167.009
57.37000 166.371
57.38000 166.165
57.39000 166.414
57.40000 168.667
57.41000 171.158
57.42000 171.666
57.43000 166.329
57.44000 160.610
57.45000 156.768
57.46000 161.671
57.47000 165.492
57.48000 166.164
57.49000 162.649
57.50000 159.119
57.51000 159.812
57.52000 164.118
57.53000 168.371
57.54000 170.142
57.55000 170.499
57.56000 170.692
57.57000 167.734
57.58000 163.573
57.59000 159.763
57.60000 159.434
57.61000 159.997
57.62000 160.491
57.63000 163.435
57.64000 166.309
57.65000 168.572
57.66000 168.460
57.67000 168.109
57.68000 168.611
57.69000 171.340
57.70000 174.186
57.71000 176.015
57.72000 176.618
57.73000 177.041
57.74000 175.094
57.75000 170.380
57.76000 165.679
57.77000 164.300
57.78000 165.413
57.79000 166.506
57.80000 166.919
57.81000 166.990
57.82000 167.256
57.83000 170.508
57.84000 174.772
57.85000 178.342
57.86000 176.068
57.87000 172.475
57.88000 169.397
57.89000 166.821
57.90000 164.708
57.91000 161.867
57.92000 156.520
57.93000 150.964
57.94000 149.385
57.95000 157.025
57.96000 165.037
57.97000 169.943
57.98000 163.681
57.99000 159.105
58.00000 158.959
58.01000 163.319
58.02000 167.651
58.03000 169.280
58.04000 169.123
58.05000 168.969
58.06000 167.908
58.07000 166.510
58.08000 165.234
58.09000 165.477
58.10000 166.176
58.11000 166.335
58.12000 162.604
58.13000 158.104
58.14000 154.336
58.15000 156.677
58.16000 159.249
58.17000 161.341
58.18000 161.969
58.19000 162.496
58.20000 162.921
58.21000 163.138
58.22000 163.348
58.23000 163.470
58.24000 169.593
58.25000 173.911
58.26000 172.640
58.27000 166.418
58.28000 160.282
58.29000 159.147
58.30000 160.933
58.31000 162.657
58.32000 162.018
58.33000 160.537
58.34000 159.329
58.35000 160.961
58.36000 163.345
58.37000 165.355
58.38000 165.047
58.39000 164.338
58.40000 163.760
58.41000 167.566
58.42000 171.056
58.43000 171.233
58.44000 162.474
58.45000 153.220
58.46000 148.245
58.47000 151.067
58.48000 154.052
58.49000 155.687
58.50000 152.411
58.51000 150.165
58.52000 151.274
58.53000 154.986
58.54000 158.598
58.55000 158.217
58.56000 155.773
58.57000 153.436
58.58000 152.243
58.59000 151.506
58.60000 151.238
58.61000 155.076
58.62000 159.873
58.63000 163.598
58.64000 161.527
58.65000 158.589
58.66000 156.255
58.67000 154.668
58.68000 153.443
58.69000 153.868
58.70000 158.236
58.71000 162.775
58.72000 164.111
58.73000 160.283
58.74000 156.385
58.75000 154.384
58.76000 153.029
58.77000 152.147
58.78000 154.531
58.79000 159.145
58.80000 163.655
58.81000 165.165
58.82000 165.301
58.83000 165.429
58.84000 163.169
58.85000 160.415
58.86000 158.184
58.87000 159.876
58.88000 162.371
58.89000 163.930
58.90000 161.056
58.91000 157.611
58.92000 154.955
58.93000 150.541
58.94000 146.942
58.95000 145.002
58.96000 146.582
58.97000 148.276
58.98000 151.508
58.99000 156.928
59.00000 162.363
59.01000 165.068
59.02000 165.268
59.03000 165.458
59.04000 165.005
59.05000 164.164
59.06000 163.282
59.07000 161.518
59.08000 159.396
59.09000 157.417
59.10000 158.844
59.11000 160.981
59.12000 162.672
59.13000 161.488
59.14000 159.789
59.15000 158.767
59.16000 160.562
59.17000 162.665
59.18000 164.236
59.19000 161.420
59.20000 159.024
59.21000 157.390
59.22000 157.190
59.23000 157.022
59.24000 157.980
59.25000 160.346
59.26000 162.713
59.27000 161.658
59.28000 157.873
59.29000 154.181
59.30000 154.516
59.31000 156.998
59.32000 159.282
59.33000 158.169
59.34000 155.830
59.35000 153.681
59.36000 155.567
59.37000 158.120
59.38000 160.094
59.39000 158.821
59.40000 157.043
59.41000 154.994
59.42000 151.956
59.43000 148.827
59.44000 146.571
59.45000 152.659
59.46000 157.621
59.47000 159.404
59.48000 155.896
59.49000 152.307
59.50000 152.683
59.51000 157.394
59.52000 162.087
59.53000 161.162
59.54000 156.323
59.55000 151.617
59.56000 151.045
59.57000 152.429
59.58000 153.913
59.59000 156.799
59.60000 160.133
59.61000 163.148
59.62000 163.160
59.63000 162.611
59.64000 161.234
59.65000 155.805
59.66000 149.833
59.67000 145.600
59.68000 147.004
59.69000 148.839
59.70000 150.113
59.71000 149.323
59.72000 148.672
59.73000 149.224
59.74000 151.541
59.75000 153.874
59.76000 156.825
59.77000 160.365
59.78000 163.875
59.79000 164.498
59.80000 163.343
59.81000 162.109
59.82000 159.037
59.83000 155.193
59.84000 151.815
59.85000 153.750
59.86000 157.188
59.87000 160.242
59.88000 159.756
59.89000 158.765
59.90000 158.005
59.91000 158.237
59.92000 158.583
59.93000 158.216
59.94000 155.803
59.95000 153.262
59.96000 151.571
59.97000 150.907
59.98000 150.435
59.99000 150.624
60.00000 151.667
60.01000 152.715
60.02000 154.139
60.03000 155.875
60.04000 157.588
60.05000 158.576
60.06000 159.148
60.07000 159.531
60.08000 156.476
60.09000 152.141
60.10000 147.934
60.11000 144.936
60.12000 142.240
60.13000 139.892
60.14000 149.081
60.15000 158.520
60.16000 165.124
60.17000 160.993
60.18000 155.823
60.19000 153.628
60.20000 159.007
60.21000 164.761
60.22000 168.421
60.23000 161.012
60.24000 155.490
60.25000 151.944
60.26000 150.636
60.27000 149.344
60.28000 150.332
60.29000 152.982
60.30000 155.581
60.31000 153.786
60.32000 149.995
60.33000 146.592
60.34000 148.849
60.35000 152.973
60.36000 156.305
60.37000 153.214
60.38000 148.712
60.39000 144.875
60.40000 144.433
60.41000 144.460
60.42000 146.307
60.43000 154.242
60.44000 162.667
60.45000 166.711
60.46000 160.864
60.47000 154.639
60.48000 150.871
60.49000 146.763
60.50000 143.832
60.51000 143.062
60.52000 144.422
60.53000 145.763
60.54000 145.348
60.55000 143.804
60.56000 142.302
60.57000 144.719
60.58000 148.633
60.59000 152.008
60.60000 148.935
60.61000 143.979
60.62000 140.269
60.63000 145.244
60.64000 151.888
60.65000 157.420
60.66000 151.403
60.67000 145.277
60.68000 141.342
60.69000 143.900
60.70000 146.885
60.71000 147.843
60.72000 144.738
60.73000 141.520
60.74000 139.674
60.75000 146.015
60.76000 150.471
60.77000 151.906
60.78000 150.742
60.79000 149.630
60.80000 151.266
60.81000 154.463
60.82000 157.545
60.83000 158.175
60.84000 157.882
60.85000 157.316
60.86000 154.019
60.87000 150.019
60.88000 146.855
60.89000 148.739
60.90000 151.468
60.91000 153.684
60.92000 155.093
60.93000 156.175
60.94000 157.168
60.95000 157.927
60.96000 158.674
60.97000 157.817
60.98000 154.117
60.99000 150.361
61.00000 148.332
61.01000 154.483
61.02000 158.690
61.03000 160.719
61.04000 161.103
61.05000 161.373
61.06000 157.427
61.07000 151.360
61.08000 145.573
61.09000 149.224
61.10000 155.593
61.11000 161.501
61.12000 163.500
61.13000 164.612
61.14000 164.761
61.15000 159.850
61.16000 154.205
61.17000 149.750
61.18000 150.843
61.19000 152.097
61.20000 153.944
61.21000 157.173
61.22000 160.458
61.23000 159.770
61.24000 152.847
61.25000 145.849
61.26000 142.310
61.27000 146.943
61.28000 150.021
61.29000 150.764
61.30000 149.957
61.31000 149.165
61.32000 148.793
61.33000 148.608
61.34000 148.434
61.35000 146.550
61.36000 144.353
61.37000 142.912
61.38000 146.948
61.39000 152.074
61.40000 156.134
61.41000 155.294
61.42000 153.843
61.43000 152.732
61.44000 148.655
61.45000 145.273
61.46000 143.041
61.47000 143.184
61.48000 143.399
61.49000 144.589
61.50000 147.129
61.51000 149.675
61.52000 150.193
61.53000 148.906
61.54000 147.633
61.55000 147.265
61.56000 147.429
61.57000 147.446
61.58000 144.467
61.59000 140.301
61.60000 136.427
61.61000 139.203
61.62000 143.308
61.63000 146.920
61.64000 147.447
61.65000 147.439
61.66000 146.863
61.67000 143.994
61.68000 140.882
61.69000 138.576
61.70000 140.939
61.71000 142.976
61.72000 144.307
61.73000 144.345
61.74000 144.355
61.75000 145.237
61.76000 147.178
61.77000 149.117
61.78000 149.888
61.79000 149.749
61.80000 149.585
61.81000 148.388
61.82000 146.654
61.83000 145.147
61.84000 147.315
61.85000 150.774
61.86000 153.942
61.87000 156.713
61.88000 159.095
61.89000 161.309
61.90000 162.606
61.91000 163.764
61.92000 163.030
61.93000 155.547
61.94000 147.465
61.95000 141.687
61.96000 138.140
61.97000 135.508
61.98000 136.532
61.99000 143.479
62.00000 150.508
62.01000 152.885
62.02000 150.325
62.03000 147.777
62.04000 145.781
62.05000 144.183
62.06000 142.653
62.07000 143.097
62.08000 144.450
62.09000 145.427
62.10000 141.420
62.11000 135.862
62.12000 130.855
62.13000 133.242
62.14000 136.673
62.15000 140.282
62.16000 144.740
62.17000 149.308
62.18000 152.157
62.19000 149.582
62.20000 146.609
62.21000 144.564
62.22000 147.418
62.23000 149.681
62.24000 149.661
62.25000 146.377
62.26000 143.069
62.27000 142.047
62.28000 143.136
62.29000 144.215
62.30000 145.003
62.31000 145.601
62.32000 146.270
62.33000 148.471
62.34000 151.298
62.35000 153.775
62.36000 152.418
62.37000 150.005
62.38000 147.871
62.39000 145.553
62.40000 143.520
62.41000 141.507
62.42000 139.570
62.43000 137.642
62.44000 136.908
62.45000 139.513
62.46000 142.317
62.47000 144.166
62.48000 154.157
62.49000 161.663
62.50000 163.524
62.51000 158.292
62.52000 153.049
62.53000 151.690
62.54000 153.467
62.55000 155.219
62.56000 154.359
62.57000 152.167
62.58000 150.029
62.59000 148.838
62.60000 147.990
62.61000 147.467
62.62000 149.941
62.63000 153.142
62.64000 155.918
62.65000 148.994
62.66000 141.807
62.67000 136.508
62.68000 138.164
62.69000 140.467
62.70000 143.500
62.71000 148.343
62.72000 153.270
62.73000 156.372
62.74000 149.611
62.75000 144.608
62.76000 141.756
62.77000 141.272
62.78000 140.779
62.79000 138.894
62.80000 136.021
62.81000 133.210
62.82000 135.134
62.83000 139.143
62.84000 142.760
62.85000 140.910
62.86000 137.302
62.87000 134.081
62.88000 133.890
62.89000 134.345
62.90000 134.731
62.91000 141.211
62.92000 147.332
62.93000 150.900
62.94000 146.149
62.95000 140.755
62.96000 139.062
62.97000 145.513
62.98000 152.254
62.99000 156.289
63.00000 146.871
63.01000 140.099
63.02000 138.971
63.03000 143.245
63.04000 147.483
63.05000 148.923
63.06000 148.612
63.07000 148.311
63.08000 147.245
63.09000 145.927
63.10000 144.637
63.11000 143.666
63.12000 142.786
63.13000 141.802
63.14000 140.115
63.15000 138.297
63.16000 136.792
63.17000 137.867
63.18000 139.000
63.19000 140.659
63.20000 143.838
63.21000 147.113
63.22000 148.292
63.23000 145.385
63.24000 142.372
63.25000 140.666
63.26000 140.959
63.27000 141.165
63.28000 139.295
63.29000 135.691
63.30000 132.235
63.31000 136.025
63.32000 143.823
63.33000 151.324
63.34000 148.365
63.35000 141.925
63.36000 136.263
63.37000 138.103
63.38000 141.825
63.39000 145.466
63.40000 148.635
63.41000 151.727
63.42000 154.222
63.43000 150.323
63.44000 146.648
63.45000 144.116
63.46000 144.507
63.47000 145.044
63.48000 145.998
63.49000 147.671
63.50000 149.357
63.51000 150.255
63.52000 147.332
63.53000 145.351
63.54000 145.581
63.55000 147.433
63.56000 149.171
63.57000 147.080
63.58000 143.111
63.59000 139.335
63.60000 138.569
63.61000 138.783
63.62000 139.192
63.63000 141.190
63.64000 143.538
63.65000 145.487
63.66000 145.396
63.67000 145.020
63.68000 144.725
63.69000 142.034
63.70000 139.728
63.71000 139.642
63.72000 144.598
63.73000 149.748
63.74000 152.280
63.75000 150.815
63.76000 149.308
63.77000 147.326
63.78000 144.873
63.79000 142.458
63.80000 143.377
63.81000 146.451
63.82000 149.353
63.83000 147.921
63.84000 144.604
63.85000 141.486
63.86000 139.813
63.87000 138.673
63.88000 138.396
63.89000 144.182
63.90000 151.140
63.91000 156.175
63.92000 152.615
63.93000 148.022
63.94000 144.528
63.95000 148.873
63.96000 152.700
63.97000 153.989
63.98000 150.168
63.99000 146.203
64.00000 145.395
64.01000 148.833
64.02000 152.292
64.03000 152.406
64.04000 149.632
64.05000 146.901
64.06000 146.522
64.07000 147.488
64.08000 148.448
64.09000 149.299
64.10000 150.107
64.11000 150.855
64.12000 147.686
64.13000 143.919
64.14000 141.218
64.15000 144.984
64.16000 149.840
64.17000 153.816
64.18000 154.326
64.19000 154.483
64.20000 154.598
64.21000 150.233
64.22000 146.672
64.23000 144.871
64.24000 146.211
64.25000 147.612
64.26000 148.594
64.27000 149.082
64.28000 149.567
64.29000 148.390
64.30000 145.970
64.31000 143.641
64.32000 144.713
64.33000 147.505
64.34000 150.169
64.35000 150.839
64.36000 150.826
64.37000 150.815
64.38000 150.983
64.39000 151.168
64.40000 152.519
64.41000 160.027
64.42000 168.432
64.43000 173.096
64.44000 164.763
64.45000 155.322
64.46000 148.627
64.47000 147.937
64.48000 147.602
64.49000 150.789
64.50000 159.531
64.51000 168.342
64.52000 168.530
64.53000 159.842
64.54000 151.203
64.55000 152.081
64.56000 159.218
64.57000 166.128
64.58000 166.902
64.59000 164.924
64.60000 163.190
64.61000 164.570
64.62000 166.893
64.63000 168.978
64.64000 169.248
64.65000 169.165
64.66000 168.719
64.67000 166.586
64.68000 164.242
64.69000 162.436
64.70000 162.279
64.71000 162.238
64.72000 162.210
64.73000 161.862
64.74000 161.595
64.75000 161.929
64.76000 163.100
64.77000 164.276
64.78000 163.902
64.79000 162.138
64.80000 160.393
64.81000 160.940
64.82000 162.800
64.83000 164.452
64.84000 161.812
64.85000 157.462
64.86000 153.498
64.87000 153.590
64.88000 154.769
64.89000 155.808
64.90000 162.505
64.91000 169.127
64.92000 173.736
64.93000 170.166
64.94000 165.724
64.95000 163.405
64.96000 166.866
64.97000 170.654
64.98000 173.127
64.99000 166.951
65.00000 162.278
65.01000 163.473
65.02000 171.835
65.03000 180.192
65.04000 182.112
65.05000 178.982
65.06000 175.902
65.07000 176.285
65.08000 178.408
65.09000 180.373
65.10000 179.737
65.11000 178.182
65.12000 176.732
65.13000 176.220
65.14000 175.928
65.15000 175.677
65.16000 171.749
65.17000 167.943
65.18000 165.915
65.19000 170.263
65.20000 175.183
65.21000 177.257
65.22000 172.456
65.23000 167.350
65.24000 164.169
65.25000 172.307
65.26000 178.285
65.27000 179.382
65.28000 175.268
65.29000 171.191
65.30000 171.753
65.31000 175.516
65.32000 179.193
65.33000 178.146
65.34000 175.049
65.35000 172.115
65.36000 171.379
65.37000 171.329
65.38000 170.761
65.39000 166.266
65.40000 160.957
65.41000 156.476
65.42000 158.570
65.43000 161.036
65.44000 163.044
65.45000 163.598
65.46000 164.044
65.47000 164.436
65.48000 164.714
65.49000 164.989
65.50000 165.151
65.51000 167.707
65.52000 169.526
65.53000 167.586
65.54000 162.155
65.55000 156.778
65.56000 155.089
65.57000 155.647
65.58000 156.188
65.59000 160.539
65.60000 166.139
65.61000 171.189
65.62000 170.148
65.63000 167.422
65.64000 165.260
65.65000 166.779
65.66000 168.966
65.67000 170.767
65.68000 167.757
65.69000 164.841
65.70000 161.830
65.71000 158.554
65.72000 155.262
65.73000 154.502
65.74000 158.553
65.75000 162.719
65.76000 165.049
65.77000 168.311
65.78000 170.566
65.79000 170.267
65.80000 167.896
65.81000 165.527
65.82000 163.266
65.83000 161.065
65.84000 158.952
65.85000 158.196
65.86000 157.951
65.87000 158.048
65.88000 161.329
65.89000 165.387
65.90000 168.363
65.91000 165.204
65.92000 161.079
65.93000 157.771
65.94000 157.634
65.95000 157.764
65.96000 157.940
65.97000 158.230
65.98000 158.526
65.99000 160.770
66.00000 166.292
66.01000 171.867
66.02000 174.795
66.03000 167.868
66.04000 163.188
66.05000 161.467
66.06000 161.859
66.07000 162.234
66.08000 162.091
66.09000 161.702
66.10000 161.333
66.11000 160.023
66.12000 158.534
66.13000 157.718
66.14000 162.221
66.15000 167.863
66.16000 172.729
66.17000 173.749
66.18000 174.245
66.19000 174.633
66.20000 169.103
66.21000 164.331
66.22000 163.440
66.23000 171.136
66.24000 179.142
66.25000 182.678
66.26000 179.573
66.27000 176.406
66.28000 175.519
66.29000 176.828
66.30000 178.119
66.31000 178.005
66.32000 177.007
66.33000 176.018
66.34000 175.225
66.35000 174.516
66.36000 173.852
66.37000 173.832
66.38000 173.982
66.39000 174.424
66.40000 176.856
66.41000 179.661
66.42000 181.674
66.43000 180.245
66.44000 178.418
66.45000 177.037
66.46000 179.209
66.47000 181.089
66.48000 182.044
66.49000 181.189
66.50000 180.287
66.51000 180.017
66.52000 180.575
66.53000 181.136
66.54000 181.634
66.55000 182.079
66.56000 182.498
66.57000 181.657
66.58000 180.115
66.59000 178.819
66.60000 182.069
66.61000 187.028
66.62000 191.611
66.63000 188.744
66.64000 184.486
66.65000 180.954
66.66000 181.688
66.67000 183.118
66.68000 185.643
66.69000 192.353
66.70000 199.474
66.71000 204.671
66.72000 203.048
66.73000 201.531
66.74000 199.571
66.75000 196.841
66.76000 194.097
66.77000 191.943
66.78000 190.463
66.79000 188.989
66.80000 190.201
66.81000 193.371
66.82000 196.580
66.83000 201.177
66.84000 206.458
66.85000 211.428
66.86000 211.800
66.87000 210.639
66.88000 209.583
66.89000 204.754
66.90000 199.742
66.91000 196.928
66.92000 205.388
66.93000 215.439
66.94000 223.145
66.95000 222.917
66.96000 222.041
66.97000 221.425
66.98000 216.845
66.99000 213.258
67.00000 212.522
67.01000 216.161
67.02000 219.848
67.03000 222.443
67.04000 223.949
67.05000 225.445
67.06000 226.565
67.07000 227.429
67.08000 228.343
67.09000 230.531
67.10000 233.275
67.11000 236.027
67.12000 238.858
67.13000 241.713
67.14000 244.265
67.15000 237.548
67.16000 230.122
67.17000 225.741
67.18000 235.043
67.19000 246.001
67.20000 255.152
67.21000 258.894
67.22000 262.272
67.23000 264.554
67.24000 264.206
67.25000 263.890
67.26000 261.925
67.27000 257.731
67.28000 253.530
67.29000 254.431
67.30000 259.771
67.31000 265.050
67.32000 276.342
67.33000 290.736
67.34000 304.392
67.35000 303.504
67.36000 296.975
67.37000 290.865
67.38000 289.014
67.39000 288.272
67.40000 287.622
67.41000 299.653
67.42000 311.829
67.43000 320.609
67.44000 315.960
67.45000 309.932
67.46000 309.075
67.47000 321.943
67.48000 335.548
67.49000 344.343
67.50000 342.497
67.51000 340.993
67.52000 339.099
67.53000 336.745
67.54000 334.431
67.55000 341.604
67.56000 356.010
67.57000 370.167
67.58000 377.453
67.59000 381.117
67.60000 385.171
67.61000 395.353
67.62000 407.642
67.63000 419.841
67.64000 431.268
67.65000 442.518
67.66000 452.182
67.67000 459.564
67.68000 465.525
67.69000 472.579
67.70000 483.453
67.71000 494.655
67.72000 505.843
67.73000 516.999
67.74000 528.154
67.75000 535.027
67.76000 561.484
67.77000 580.646
67.78000 593.550
67.79000 599.971
67.80000 606.471
67.81000 621.287
67.82000 641.687
67.83000 661.587
67.84000 679.091
67.85000 694.784
67.86000 710.620
67.87000 728.282
67.88000 746.501
67.89000 764.889
67.90000 784.512
67.91000 804.385
67.92000 821.070
67.93000 839.451
67.94000 854.936
67.95000 874.270
67.96000 905.497
67.97000 937.565
67.98000 967.106
67.99000 991.370
68.00000 1015.469
68.01000 1029.558
68.02000 1088.685
68.03000 1130.506
68.04000 1167.180
68.05000 1199.216
68.06000 1231.468
68.07000 1277.141
68.08000 1330.773
68.09000 1382.641
68.10000 1449.504
68.11000 1518.292
68.12000 1586.829
68.13000 1652.697
68.14000 1717.847
68.15000 1782.305
68.16000 1842.385
68.17000 1901.696
68.18000 1950.273
68.19000 2037.822
68.20000 2113.023
68.21000 2187.697
68.22000 2260.928
68.23000 2334.078
68.24000 2401.408
68.25000 2457.972
68.26000 2514.298
68.27000 2545.382
68.28000 2612.993
68.29000 2659.643
68.30000 2697.743
68.31000 2729.098
68.32000 2759.521
68.33000 2751.467
68.34000 2723.214
68.35000 2696.165
68.36000 2686.863
68.37000 2684.063
68.38000 2676.612
68.39000 2627.502
68.40000 2568.505
68.41000 2512.374
68.42000 2472.011
68.43000 2434.054
68.44000 2403.795
68.45000 2363.526
68.46000 2330.306
68.47000 2282.800
68.48000 2200.595
68.49000 2116.836
68.50000 2033.885
68.51000 1952.258
68.52000 1870.649
68.53000 1828.388
68.54000 1738.246
68.55000 1677.350
68.56000 1606.555
68.57000 1528.890
68.58000 1451.636
68.59000 1386.554
68.60000 1327.137
68.61000 1270.897
68.62000 1210.633
68.63000 1154.034
68.64000 1096.821
68.65000 1034.917
68.66000 972.035
68.67000 911.248
68.68000 860.543
68.69000 811.161
68.70000 772.935
68.71000 715.321
68.72000 668.434
68.73000 627.371
68.74000 598.857
68.75000 570.769
68.76000 546.385
68.77000 527.354
68.78000 508.369
68.79000 490.711
68.80000 474.301
68.81000 457.859
68.82000 439.174
68.83000 419.116
68.84000 399.503
68.85000 389.884
68.86000 384.389
68.87000 379.256
68.88000 368.848
68.89000 358.075
68.90000 348.041
68.91000 342.869
68.92000 338.583
68.93000 335.506
68.94000 337.539
68.95000 340.145
68.96000 342.099
68.97000 337.750
68.98000 334.055
68.99000 335.265
69.00000 345.842
69.01000 356.647
69.02000 363.630
69.03000 365.756
69.04000 367.862
69.05000 369.708
69.06000 371.336
69.07000 372.954
69.08000 374.155
69.09000 375.130
69.10000 375.841
69.11000 371.902
69.12000 366.260
69.13000 361.064
69.14000 356.760
69.15000 353.106
69.16000 348.385
69.17000 337.579
69.18000 325.810
69.19000 316.276
69.20000 315.067
69.21000 314.645
69.22000 314.339
69.23000 306.811
69.24000 300.765
69.25000 293.298
69.26000 283.430
69.27000 273.523
69.28000 266.285
69.29000 262.017
69.30000 257.767
69.31000 256.549
69.32000 257.497
69.33000 258.284
69.34000 253.890
69.35000 247.009
69.36000 240.359
69.37000 236.988
69.38000 234.681
69.39000 232.590
69.40000 239.426
69.41000 247.151
69.42000 252.967
69.43000 249.272
69.44000 244.278
69.45000 239.995
69.46000 238.053
69.47000 236.295
69.48000 235.069
69.49000 235.421
69.50000 235.731
69.51000 238.776
69.52000 245.907
69.53000 253.077
69.54000 251.688
69.55000 242.011
69.56000 232.407
69.57000 231.888
69.58000 237.028
69.59000 241.750
69.60000 236.451
69.61000 226.883
69.62000 218.207
69.63000 219.948
69.64000 224.681
69.65000 228.895
69.66000 236.056
69.67000 242.761
69.68000 246.984
69.69000 240.361
69.70000 232.470
69.71000 226.765
69.72000 227.435
69.73000 228.513
69.74000 229.235
69.75000 230.403
69.76000 231.278
69.77000 228.526
69.78000 221.005
69.79000 213.475
69.80000 213.414
69.81000 219.663
69.82000 225.835
69.83000 226.462
69.84000 224.052
69.85000 221.524
69.86000 216.786
69.87000 211.214
69.88000 206.153
69.89000 206.094
69.90000 207.303
69.91000 208.359
69.92000 210.217
69.93000 211.919
69.94000 212.453
69.95000 208.486
69.96000 204.075
69.97000 201.433
69.98000 203.366
69.99000 205.531
70.00000 206.917
