20.00000 737.824
20.01000 742.472
20.02000 747.785
20.03000 751.357
20.04000 748.152
20.05000 744.265
20.06000 741.414
20.07000 746.715
20.08000 751.139
20.09000 753.100
20.10000 750.706
20.11000 748.229
20.12000 749.526
20.13000 755.232
20.14000 760.928
20.15000 761.816
20.16000 759.113
20.17000 756.581
20.18000 760.227
20.19000 766.969
20.20000 773.606
20.21000 778.626
20.22000 783.097
20.23000 787.174
20.24000 777.340
20.25000 765.838
20.26000 756.800
20.27000 760.640
20.28000 766.336
20.29000 769.456
20.30000 763.709
20.31000 757.217
20.32000 752.627
20.33000 774.134
20.34000 791.272
20.35000 801.900
20.36000 802.359
20.37000 802.697
20.38000 803.325
20.39000 804.249
20.40000 805.167
20.41000 813.955
20.42000 827.753
20.43000 841.628
20.44000 857.565
20.45000 874.417
20.46000 890.631
20.47000 898.852
20.48000 904.675
20.49000 909.894
20.50000 908.812
20.51000 906.776
20.52000 904.387
20.53000 900.384
20.54000 896.180
20.55000 895.808
20.56000 907.103
20.57000 919.203
20.58000 927.425
20.59000 939.948
20.60000 949.392
20.61000 951.792
20.62000 944.490
20.63000 937.137
20.64000 939.128
20.65000 949.406
20.66000 959.574
20.67000 965.531
20.68000 968.947
20.69000 972.795
20.70000 985.454
20.71000 1001.588
20.72000 1018.393
20.73000 1042.176
20.74000 1067.809
20.75000 1090.356
20.76000 1131.399
20.77000 1169.469
20.78000 1207.771
20.79000 1247.007
20.80000 1286.342
20.81000 1329.206
20.82000 1381.596
20.83000 1434.515
20.84000 1468.946
20.85000 1513.262
20.86000 1545.902
20.87000 1578.010
20.88000 1609.476
20.89000 1640.903
20.90000 1662.665
20.91000 1676.920
20.92000 1690.942
20.93000 1708.193
20.94000 1726.506
20.95000 1745.472
20.96000 1775.007
20.97000 1808.239
20.98000 1834.580
20.99000 1800.392
21.00000 1752.058
21.01000 1710.413
21.02000 1695.899
21.03000 1687.044
21.04000 1679.749
21.05000 1677.998
21.06000 1676.737
21.07000 1682.006
21.08000 1702.911
21.09000 1724.496
21.10000 1737.890
21.11000 1752.569
21.12000 1763.144
21.13000 1779.923
21.14000 1803.253
21.15000 1826.560
21.16000 1847.030
21.17000 1865.560
21.18000 1883.657
21.19000 1914.038
21.20000 1948.507
21.21000 1982.656
21.22000 2012.585
21.23000 2041.206
21.24000 2072.552
21.25000 2124.341
21.26000 2180.324
21.27000 2227.487
21.28000 2271.752
21.29000 2308.384
21.30000 2351.301
21.31000 2413.966
21.32000 2478.070
21.33000 2531.731
21.34000 2563.216
21.35000 2593.976
21.36000 2612.098
21.37000 2723.916
21.38000 2803.321
21.39000 2876.755
21.40000 2944.701
21.41000 3012.943
21.42000 3100.774
21.43000 3200.424
21.44000 3296.922
21.45000 3366.558
21.46000 3422.078
21.47000 3481.218
21.48000 3579.823
21.49000 3689.240
21.50000 3799.267
21.51000 3913.236
21.52000 4027.912
21.53000 4122.177
21.54000 4334.069
21.55000 4518.781
21.56000 4734.947
21.57000 5038.703
21.58000 5347.621
21.59000 5744.955
21.60000 6308.727
21.61000 6876.384
21.62000 7192.326
21.63000 8833.432
21.64000 9972.477
21.65000 11601.126
21.66000 13623.244
21.67000 15661.714
21.68000 18411.918
21.69000 21542.176
21.70000 24543.672
21.71000 28207.604
21.72000 31852.479
21.73000 35482.313
21.74000 38974.223
21.75000 42432.809
21.76000 45723.742
21.77000 48073.770
21.78000 50277.336
21.79000 52040.941
21.80000 53497.621
21.81000 54652.656
21.82000 55446.434
21.83000 55347.949
21.84000 55208.000
21.85000 54720.965
21.86000 53655.641
21.87000 52581.414
21.88000 52019.891
21.89000 49046.656
21.90000 47029.324
21.91000 44390.180
21.92000 41311.824
21.93000 38226.703
21.94000 34932.078
21.95000 31538.287
21.96000 28320.549
21.97000 24837.092
21.98000 21548.383
21.99000 18340.939
22.00000 15768.063
22.01000 13329.927
22.02000 11036.206
22.03000 9450.421
22.04000 7959.634
22.05000 6800.658
22.06000 5760.324
22.07000 4939.745
22.08000 4235.316
22.09000 3785.386
22.10000 3344.458
22.11000 2992.330
22.12000 2770.840
22.13000 2550.530
22.14000 2384.118
22.15000 2269.066
22.16000 2154.312
22.17000 2061.988
22.18000 1983.642
22.19000 1905.611
22.20000 1834.935
22.21000 1767.347
22.22000 1704.074
22.23000 1650.514
22.24000 1604.323
22.25000 1560.780
22.26000 1535.030
22.27000 1512.584
22.28000 1489.446
22.29000 1463.327
22.30000 1436.865
22.31000 1416.933
22.32000 1396.457
22.33000 1380.402
22.34000 1368.312
22.35000 1363.923
22.36000 1359.732
22.37000 1349.475
22.38000 1331.366
22.39000 1313.246
22.40000 1302.686
22.41000 1298.426
22.42000 1294.316
22.43000 1297.425
22.44000 1304.513
22.45000 1312.327
22.46000 1333.343
22.47000 1359.276
22.48000 1383.209
22.49000 1405.965
22.50000 1426.098
22.51000 1452.626
22.52000 1516.358
22.53000 1586.103
22.54000 1689.332
22.55000 1919.485
22.56000 2161.929
22.57000 2338.395
22.58000 3384.463
22.59000 4222.865
22.60000 5458.242
22.61000 7376.548
22.62000 9306.686
22.63000 11844.188
22.64000 15070.524
22.65000 18286.459
22.66000 21499.135
22.67000 24682.553
22.68000 27853.078
22.69000 30589.811
22.70000 33114.691
22.71000 35579.430
22.72000 37165.742
22.73000 38462.055
22.74000 39639.672
22.75000 40005.141
22.76000 40170.410
22.77000 40257.125
22.78000 39945.145
22.79000 39577.508
22.80000 39101.578
22.81000 38262.949
22.82000 37395.063
22.83000 36786.488
22.84000 33749.555
22.85000 31381.514
22.86000 28774.635
22.87000 25804.695
22.88000 22830.965
22.89000 20038.145
22.90000 17424.018
22.91000 14828.128
22.92000 12294.565
22.93000 9840.279
22.94000 7423.312
22.95000 5938.339
22.96000 4857.072
22.97000 3805.102
22.98000 3104.487
22.99000 2506.547
23.00000 1972.755
23.01000 1684.031
23.02000 1473.715
23.03000 1290.922
23.04000 1230.589
23.05000 1184.899
23.06000 1147.550
23.07000 1134.939
23.08000 1123.961
23.09000 1116.569
23.10000 1081.997
23.11000 1055.726
23.12000 1027.661
23.13000 997.193
23.14000 966.723
23.15000 944.101
23.16000 928.239
23.17000 912.563
23.18000 909.545
23.19000 913.625
23.20000 917.528
23.21000 917.986
23.22000 917.120
23.23000 915.309
23.24000 904.023
23.25000 890.293
23.26000 878.269
23.27000 859.892
23.28000 843.217
23.29000 827.907
23.30000 817.945
23.31000 808.524
23.32000 803.110
23.33000 808.231
23.34000 813.908
23.35000 817.566
23.36000 817.994
23.37000 818.261
23.38000 811.795
23.39000 797.418
23.40000 783.087
23.41000 780.833
23.42000 787.698
23.43000 794.442
23.44000 796.172
23.45000 795.405
23.46000 793.815
23.47000 779.545
23.48000 760.955
23.49000 744.265
23.50000 743.689
23.51000 746.775
23.52000 749.421
23.53000 732.102
23.54000 715.024
23.55000 705.547
23.56000 722.359
23.57000 741.398
23.58000 753.507
23.59000 749.454
23.60000 744.739
23.61000 741.844
23.62000 744.294
23.63000 746.095
23.64000 741.924
23.65000 731.633
23.66000 721.414
23.67000 718.375
23.68000 720.112
23.69000 721.804
23.70000 723.684
23.71000 725.557
23.72000 726.387
23.73000 714.061
23.74000 697.766
23.75000 685.083
23.76000 698.608
23.77000 717.357
23.78000 733.070
23.79000 732.102
23.80000 729.568
23.81000 724.093
23.82000 709.617
23.83000 694.515
23.84000 683.855
23.85000 682.385
23.86000 681.197
23.87000 680.505
23.88000 681.409
23.89000 682.049
23.90000 679.638
23.91000 674.505
23.92000 669.460
23.93000 669.723
23.94000 673.106
23.95000 676.375
23.96000 670.701
23.97000 662.007
23.98000 654.791
23.99000 663.069
24.00000 675.478
24.01000 686.751
24.02000 690.907
24.03000 693.825
24.04000 696.210
24.05000 682.552
24.06000 669.977
24.07000 660.868
24.08000 661.158
24.09000 661.976
24.10000 659.401
24.11000 650.605
24.12000 641.676
24.13000 636.771
24.14000 646.449
24.15000 653.111
24.16000 653.764
24.17000 649.723
24.18000 645.861
24.19000 649.179
24.20000 656.231
24.21000 662.977
24.22000 655.595
24.23000 644.093
24.24000 634.080
24.25000 637.221
24.26000 643.455
24.27000 647.208
24.28000 637.451
24.29000 625.656
24.30000 616.273
24.31000 632.268
24.32000 646.976
24.33000 656.616
24.34000 654.066
24.35000 650.979
24.36000 648.342
24.37000 646.432
24.38000 644.532
24.39000 643.553
24.40000 641.099
24.41000 639.477
24.42000 641.474
24.43000 645.959
24.44000 650.149
24.45000 645.794
24.46000 637.500
24.47000 629.657
24.48000 627.626
24.49000 627.424
24.50000 627.892
24.51000 633.416
24.52000 639.983
24.53000 643.235
24.54000 630.700
24.55000 616.115
24.56000 604.852
24.57000 622.473
24.58000 638.127
24.59000 649.174
24.60000 650.388
24.61000 651.276
24.62000 648.798
24.63000 641.502
24.64000 634.172
24.65000 631.209
24.66000 632.283
24.67000 633.367
24.68000 635.152
24.69000 637.362
24.70000 639.546
24.71000 641.177
24.72000 642.581
24.73000 643.892
24.74000 642.684
24.75000 640.960
24.76000 638.835
24.77000 634.104
24.78000 628.903
24.79000 624.241
24.80000 621.834
24.81000 619.677
24.82000 618.063
24.83000 619.062
24.84000 619.962
24.85000 621.722
24.86000 625.109
24.87000 628.535
24.88000 628.643
24.89000 624.575
24.90000 620.501
24.91000 616.813
24.92000 613.452
24.93000 609.985
24.94000 601.801
24.95000 591.086
24.96000 581.489
24.97000 591.231
24.98000 607.989
24.99000 623.404
25.00000 630.942
25.01000 635.968
25.02000 639.548
25.03000 634.960
25.04000 629.093
25.05000 624.390
25.06000 623.978
25.07000 623.967
25.08000 623.959
25.09000 619.709
25.10000 616.298
25.11000 616.313
25.12000 622.066
25.13000 627.910
25.14000 625.515
25.15000 614.047
25.16000 602.622
25.17000 599.335
25.18000 601.803
25.19000 604.353
25.20000 609.490
25.21000 615.858
25.22000 621.225
25.23000 612.617
25.24000 599.516
25.25000 587.658
25.26000 589.714
25.27000 594.140
25.28000 598.167
25.29000 600.225
25.30000 602.017
25.31000 603.427
25.32000 603.590
25.33000 603.657
25.34000 603.703
25.35000 593.501
25.36000 585.534
25.37000 585.157
25.38000 596.008
25.39000 606.961
25.40000 614.990
25.41000 620.217
25.42000 625.402
25.43000 619.638
25.44000 607.235
25.45000 595.125
25.46000 589.906
25.47000 587.596
25.48000 586.108
25.49000 594.088
25.50000 604.762
25.51000 614.252
25.52000 602.328
25.53000 588.509
25.54000 577.127
25.55000 576.287
25.56000 576.664
25.57000 577.244
25.58000 578.410
25.59000 579.612
25.60000 580.414
25.61000 589.595
25.62000 596.556
25.63000 600.720
25.64000 601.243
25.65000 601.741
25.66000 597.458
25.67000 589.177
25.68000 581.003
25.69000 578.507
25.70000 579.140
25.71000 579.736
25.72000 579.667
25.73000 579.348
25.74000 579.375
25.75000 582.738
25.76000 586.939
25.77000 590.601
25.78000 589.925
25.79000 588.743
25.80000 588.497
25.81000 591.818
25.82000 595.486
25.83000 596.814
25.84000 592.148
25.85000 587.182
25.86000 584.016
25.87000 579.446
25.88000 576.105
25.89000 572.759
25.90000 569.408
25.91000 566.097
25.92000 569.884
25.93000 578.882
25.94000 587.707
25.95000 591.850
25.96000 593.628
25.97000 595.044
25.98000 591.139
25.99000 585.469
26.00000 580.331
26.01000 579.562
26.02000 579.757
26.03000 579.924
26.04000 576.915
26.05000 574.006
26.06000 570.857
26.07000 566.903
26.08000 562.883
26.09000 562.886
26.10000 572.028
26.11000 581.523
26.12000 587.286
26.13000 578.890
26.14000 572.791
26.15000 569.529
26.16000 569.088
26.17000 568.704
26.18000 573.380
26.19000 581.330
26.20000 589.067
26.21000 585.165
26.22000 576.625
26.23000 568.662
26.24000 567.671
26.25000 568.728
26.26000 569.852
26.27000 571.444
26.28000 573.126
26.29000 574.528
26.30000 564.989
26.31000 555.990
26.32000 550.123
26.33000 553.590
26.34000 557.679
26.35000 560.164
26.36000 559.414
26.37000 558.572
26.38000 558.088
26.39000 567.338
26.40000 573.839
26.41000 575.066
26.42000 571.725
26.43000 568.388
26.44000 565.229
26.45000 562.172
26.46000 559.223
26.47000 558.166
26.48000 557.858
26.49000 557.099
26.50000 551.784
26.51000 545.287
26.52000 540.809
26.53000 548.597
26.54000 558.454
26.55000 566.465
26.56000 559.291
26.57000 552.173
26.58000 547.192
26.59000 547.858
26.60000 548.826
26.61000 549.002
26.62000 547.764
26.63000 546.498
26.64000 545.812
26.65000 553.295
26.66000 558.435
26.67000 564.194
26.68000 570.422
26.69000 576.270
26.70000 567.977
26.71000 552.521
26.72000 537.771
26.73000 547.048
26.74000 563.304
26.75000 577.389
26.76000 572.948
26.77000 564.273
26.78000 556.201
26.79000 551.317
26.80000 546.897
26.81000 543.404
26.82000 544.223
26.83000 545.176
26.84000 546.040
26.85000 546.693
26.86000 547.338
26.87000 549.288
26.88000 553.298
26.89000 557.335
26.90000 559.383
26.91000 551.981
26.92000 547.082
26.93000 548.597
26.94000 554.400
26.95000 559.975
26.96000 559.376
26.97000 556.004
26.98000 552.824
26.99000 553.973
27.00000 556.227
27.01000 558.383
27.02000 559.816
27.03000 561.103
27.04000 561.352
27.05000 556.796
27.06000 551.636
27.07000 547.679
27.08000 542.755
27.09000 538.811
27.10000 538.562
27.11000 545.996
27.12000 553.667
27.13000 560.244
27.14000 565.297
27.15000 570.338
27.16000 565.460
27.17000 551.697
27.18000 538.080
27.19000 533.341
27.20000 533.844
27.21000 534.198
27.22000 531.449
27.23000 527.463
27.24000 523.753
27.25000 525.476
27.26000 528.348
27.27000 531.026
27.28000 532.484
27.29000 533.729
27.30000 533.001
27.31000 524.246
27.32000 514.634
27.33000 507.499
27.34000 509.977
27.35000 512.326
27.36000 516.814
27.37000 525.245
27.38000 533.762
27.39000 539.917
27.40000 543.184
27.41000 546.437
27.42000 545.330
27.43000 540.822
27.44000 536.348
27.45000 533.298
27.46000 530.992
27.47000 528.915
27.48000 530.623
27.49000 533.668
27.50000 536.460
27.51000 537.827
27.52000 538.746
27.53000 539.038
27.54000 535.900
27.55000 532.241
27.56000 528.543
27.57000 524.708
27.58000 520.860
27.59000 518.104
27.60000 527.406
27.61000 534.922
27.62000 539.054
27.63000 537.667
27.64000 536.201
27.65000 531.339
27.66000 522.847
27.67000 514.395
27.68000 517.148
27.69000 527.522
27.70000 537.490
27.71000 535.509
27.72000 527.990
27.73000 521.271
27.74000 525.231
27.75000 532.536
27.76000 539.123
27.77000 543.320
27.78000 546.569
27.79000 547.620
27.80000 538.145
27.81000 527.296
27.82000 519.349
27.83000 520.618
27.84000 522.571
27.85000 523.916
27.86000 524.292
27.87000 524.549
27.88000 526.074
27.89000 529.422
27.90000 532.783
27.91000 530.997
27.92000 524.426
27.93000 517.914
27.94000 518.304
27.95000 522.813
27.96000 527.061
27.97000 525.515
27.98000 521.586
27.99000 518.313
28.00000 522.300
28.01000 528.297
28.02000 533.607
28.03000 536.985
28.04000 539.604
28.05000 539.949
28.06000 530.733
28.07000 520.451
28.08000 513.167
28.09000 514.317
28.10000 515.973
28.11000 517.068
28.12000 521.182
28.13000 524.271
28.14000 526.737
28.15000 528.415
28.16000 530.096
28.17000 533.807
28.18000 539.169
28.19000 544.454
28.20000 541.786
28.21000 535.028
28.22000 528.483
28.23000 525.672
28.24000 524.224
28.25000 523.052
28.26000 524.454
28.27000 526.486
28.28000 528.249
28.29000 523.127
28.30000 517.838
28.31000 514.524
28.32000 518.533
28.33000 523.230
28.34000 526.876
28.35000 527.898
28.36000 528.796
28.37000 529.362
28.38000 517.265
28.39000 508.357
28.40000 503.473
28.41000 503.044
28.42000 502.636
28.43000 504.905
28.44000 509.087
28.45000 513.181
28.46000 514.519
28.47000 514.538
28.48000 514.552
28.49000 514.500
28.50000 514.426
28.51000 514.489
28.52000 515.634
28.53000 517.012
28.54000 518.182
28.55000 518.132
28.56000 517.950
28.57000 518.907
28.58000 523.596
28.59000 528.576
28.60000 528.977
28.61000 519.241
28.62000 509.137
28.63000 503.073
28.64000 512.402
28.65000 519.133
28.66000 515.483
28.67000 501.828
28.68000 488.348
28.69000 488.717
28.70000 497.808
28.71000 506.638
28.72000 505.986
28.73000 501.547
28.74000 497.239
28.75000 494.444
28.76000 492.083
28.77000 490.460
28.78000 493.857
28.79000 498.198
28.80000 501.798
28.81000 495.291
28.82000 488.945
28.83000 486.184
28.84000 493.831
28.85000 502.139
28.86000 507.359
28.87000 506.515
28.88000 505.512
28.89000 504.942
28.90000 492.587
28.91000 483.968
28.92000 487.552
28.93000 501.403
28.94000 514.997
28.95000 515.850
28.96000 509.605
28.97000 503.597
28.98000 501.161
28.99000 500.137
29.00000 499.762
29.01000 505.701
29.02000 513.234
29.03000 519.306
29.04000 516.780
29.05000 512.848
29.06000 509.671
29.07000 507.259
29.08000 505.360
29.09000 504.074
29.10000 504.367
29.11000 504.740
29.12000 507.879
29.13000 515.828
29.14000 523.864
29.15000 528.159
29.16000 510.480
29.17000 498.442
29.18000 492.845
29.19000 492.001
29.20000 491.364
29.21000 497.881
29.22000 507.929
29.23000 517.493
29.24000 512.105
29.25000 502.497
29.26000 493.934
29.27000 493.985
29.28000 495.950
29.29000 498.153
29.30000 501.585
29.31000 505.189
29.32000 508.021
29.33000 502.795
29.34000 498.085
29.35000 493.418
29.36000 488.849
29.37000 484.285
29.38000 480.626
29.39000 478.361
29.40000 476.111
29.41000 477.935
29.42000 483.833
29.43000 489.676
29.44000 490.579
29.45000 488.269
29.46000 486.141
29.47000 488.662
29.48000 493.217
29.49000 497.501
29.50000 489.935
29.51000 479.828
29.52000 470.561
29.53000 467.234
29.54000 465.063
29.55000 465.471
29.56000 477.480
29.57000 490.895
29.58000 501.114
29.59000 502.944
29.60000 503.941
29.61000 500.161
29.62000 486.703
29.63000 472.965
29.64000 467.568
29.65000 473.463
29.66000 479.416
29.67000 480.946
29.68000 478.628
29.69000 476.398
29.70000 479.112
29.71000 484.669
29.72000 489.759
29.73000 485.646
29.74000 477.960
29.75000 470.831
29.76000 470.301
29.77000 471.375
29.78000 472.283
29.79000 472.176
29.80000 471.897
29.81000 472.773
29.82000 478.222
29.83000 484.141
29.84000 488.502
29.85000 485.927
29.86000 483.643
29.87000 483.172
29.88000 485.953
29.89000 488.800
29.90000 489.945
29.91000 489.071
29.92000 488.195
29.93000 486.668
29.94000 484.656
29.95000 482.701
29.96000 482.864
29.97000 484.106
29.98000 485.651
29.99000 491.966
30.00000 499.922
30.01000 507.191
30.02000 493.580
30.03000 477.234
30.04000 463.790
30.05000 465.784
30.06000 470.046
30.07000 472.190
30.08000 466.927
30.09000 461.026
30.10000 456.833
30.11000 465.081
30.12000 471.757
30.13000 476.076
30.14000 476.654
30.15000 477.186
30.16000 475.042
30.17000 470.123
30.18000 465.232
30.19000 466.907
30.20000 472.917
30.21000 478.763
30.22000 480.095
30.23000 479.390
30.24000 478.973
30.25000 482.234
30.26000 486.617
30.27000 490.555
30.28000 486.138
30.29000 480.799
30.30000 475.553
30.31000 470.739
30.32000 465.980
30.33000 462.988
30.34000 465.463
30.35000 468.325
30.36000 470.280
30.37000 476.830
30.38000 481.837
30.39000 484.244
30.40000 483.011
30.41000 481.752
30.42000 476.900
30.43000 468.806
30.44000 460.793
30.45000 464.555
30.46000 475.077
30.47000 485.427
30.48000 492.177
30.49000 497.484
30.50000 501.549
30.51000 492.385
30.52000 479.657
30.53000 468.433
30.54000 474.453
30.55000 482.260
30.56000 488.139
30.57000 486.132
30.58000 483.277
30.59000 478.349
30.60000 467.740
30.61000 456.806
30.62000 449.651
30.63000 460.320
30.64000 468.450
30.65000 471.680
30.66000 468.882
30.67000 466.091
30.68000 470.014
30.69000 479.238
30.70000 488.319
30.71000 483.481
30.72000 471.705
30.73000 460.868
30.74000 465.638
30.75000 475.953
30.76000 484.248
30.77000 474.420
30.78000 460.286
30.79000 448.075
30.80000 459.740
30.81000 472.742
30.82000 480.769
30.83000 470.839
30.84000 459.289
30.85000 450.552
30.86000 448.655
30.87000 447.066
30.88000 446.073
30.89000 449.149
30.90000 451.411
30.91000 450.455
30.92000 446.042
30.93000 441.717
30.94000 448.695
30.95000 463.525
30.96000 478.022
30.97000 481.019
30.98000 478.758
30.99000 476.431
31.00000 473.222
31.01000 469.736
31.02000 466.211
31.03000 462.385
31.04000 458.496
31.05000 455.211
31.06000 449.661
31.07000 444.771
31.08000 441.420
31.09000 442.977
31.10000 444.902
31.11000 448.596
31.12000 456.109
31.13000 463.751
31.14000 468.285
31.15000 466.812
31.16000 465.736
31.17000 466.586
31.18000 469.237
31.19000 471.754
31.20000 464.793
31.21000 452.024
31.22000 439.644
31.23000 442.483
31.24000 451.130
31.25000 458.919
31.26000 457.148
31.27000 452.716
31.28000 448.872
31.29000 448.904
31.30000 449.643
31.31000 450.253
31.32000 445.661
31.33000 441.399
31.34000 438.467
31.35000 439.294
31.36000 440.348
31.37000 441.254
31.38000 441.878
31.39000 442.494
31.40000 442.840
31.41000 445.270
31.42000 446.957
31.43000 447.577
31.44000 447.326
31.45000 447.155
31.46000 450.686
31.47000 456.223
31.48000 461.539
31.49000 459.136
31.50000 454.241
31.51000 450.111
31.52000 453.143
31.53000 457.933
31.54000 461.738
31.55000 459.911
31.56000 457.191
31.57000 455.006
31.58000 451.521
31.59000 448.597
31.60000 446.162
31.61000 444.954
31.62000 443.805
31.63000 444.022
31.64000 446.552
31.65000 449.120
31.66000 450.473
31.67000 453.341
31.68000 455.244
31.69000 450.469
31.70000 440.901
31.71000 431.649
31.72000 432.610
31.73000 438.479
31.74000 444.052
31.75000 446.472
31.76000 447.761
31.77000 448.915
31.78000 449.002
31.79000 448.858
31.80000 448.651
31.81000 448.131
31.82000 447.568
31.83000 447.129
31.84000 448.067
31.85000 448.902
31.86000 446.516
31.87000 436.965
31.88000 427.150
31.89000 425.135
31.90000 434.778
31.91000 444.534
31.92000 444.367
31.93000 434.578
31.94000 424.960
31.95000 429.002
31.96000 441.693
31.97000 453.597
31.98000 446.539
31.99000 431.396
32.00000 417.195
32.01000 422.048
32.02000 431.457
32.03000 439.155
32.04000 435.148
32.05000 428.929
32.06000 422.757
32.07000 416.790
32.08000 410.848
32.09000 406.353
32.10000 423.898
32.11000 438.771
32.12000 447.164
32.13000 442.774
32.14000 438.041
32.15000 432.622
32.16000 426.300
32.17000 419.980
32.18000 421.232
32.19000 428.871
32.20000 436.412
32.21000 438.963
32.22000 438.720
32.23000 438.273
32.24000 434.012
32.25000 428.307
32.26000 423.033
32.27000 427.380
32.28000 433.478
32.29000 439.435
32.30000 444.568
32.31000 449.565
32.32000 450.637
32.33000 436.590
32.34000 421.045
32.35000 409.680
32.36000 415.995
32.37000 421.565
32.38000 423.562
32.39000 419.314
32.40000 414.952
32.41000 415.783
32.42000 422.608
32.43000 429.419
32.44000 432.519
32.45000 432.862
32.46000 433.173
32.47000 432.370
32.48000 431.015
32.49000 429.936
32.50000 433.007
32.51000 437.470
32.52000 441.532
32.53000 445.534
32.54000 449.065
32.55000 450.112
32.56000 438.336
32.57000 424.736
32.58000 414.153
32.59000 413.834
32.60000 414.364
32.61000 414.737
32.62000 415.786
32.63000 416.601
32.64000 417.616
32.65000 418.938
32.66000 420.264
32.67000 425.117
32.68000 433.518
32.69000 441.864
32.70000 440.954
32.71000 434.091
32.72000 427.652
32.73000 432.150
32.74000 441.460
32.75000 449.077
32.76000 435.898
32.77000 416.545
32.78000 399.228
32.79000 404.994
32.80000 413.966
32.81000 422.511
32.82000 429.126
32.83000 435.505
32.84000 438.023
32.85000 428.912
32.86000 419.012
32.87000 412.310
32.88000 424.398
32.89000 433.815
32.90000 438.160
32.91000 435.599
32.92000 432.996
32.93000 428.084
32.94000 421.147
32.95000 414.287
32.96000 415.572
32.97000 421.426
32.98000 427.292
32.99000 433.401
33.00000 439.606
33.01000 444.872
33.02000 440.532
33.03000 433.672
33.04000 427.650
33.05000 427.682
33.06000 428.597
33.07000 427.323
33.08000 417.331
33.09000 406.436
33.10000 399.072
33.11000 401.135
33.12000 403.710
33.13000 405.379
33.14000 415.844
33.15000 423.635
33.16000 426.078
33.17000 422.132
33.18000 418.170
33.19000 413.212
33.20000 407.488
33.21000 401.862
33.22000 403.060
33.23000 407.595
33.24000 412.116
33.25000 416.426
33.26000 420.661
33.27000 424.853
33.28000 428.667
33.29000 432.393
33.30000 435.598
33.31000 420.850
33.32000 406.120
33.33000 394.944
33.34000 396.254
33.35000 398.648
33.36000 399.291
33.37000 395.790
33.38000 392.114
33.39000 389.842
33.40000 399.117
33.41000 405.886
33.42000 407.768
33.43000 404.551
33.44000 401.357
33.45000 400.610
33.46000 401.518
33.47000 402.404
33.48000 399.128
33.49000 394.190
33.50000 389.784
33.51000 392.252
33.52000 396.826
33.53000 401.734
33.54000 409.105
33.55000 416.976
33.56000 423.592
33.57000 418.998
33.58000 413.981
33.59000 411.241
33.60000 415.579
33.61000 420.424
33.62000 420.295
33.63000 409.717
33.64000 398.806
33.65000 392.409
33.66000 400.571
33.67000 406.388
33.68000 403.404
33.69000 392.431
33.70000 381.706
33.71000 386.711
33.72000 401.104
33.73000 415.029
33.74000 415.197
33.75000 410.123
33.76000 405.304
33.77000 403.229
33.78000 401.898
33.79000 400.587
33.80000 399.412
33.81000 398.261
33.82000 397.316
33.83000 399.422
33.84000 401.420
33.85000 402.344
33.86000 400.311
33.87000 398.107
33.88000 397.661
33.89000 400.489
33.90000 403.391
33.91000 404.998
33.92000 400.126
33.93000 396.776
33.94000 401.149
33.95000 411.655
33.96000 421.772
33.97000 415.540
33.98000 400.672
33.99000 386.429
34.00000 383.472
34.01000 384.472
34.02000 385.839
34.03000 390.516
34.04000 395.985
34.05000 401.241
34.06000 405.323
34.07000 409.224
34.08000 412.339
34.09000 414.169
34.10000 415.551
34.11000 412.279
34.12000 397.632
34.13000 382.468
34.14000 375.910
34.15000 383.532
34.16000 391.363
34.17000 395.432
34.18000 402.380
34.19000 407.039
34.20000 407.319
34.21000 404.540
34.22000 401.957
34.23000 405.271
34.24000 411.346
34.25000 417.099
34.26000 414.698
34.27000 410.112
34.28000 404.890
34.29000 394.770
34.30000 383.622
34.31000 376.924
34.32000 391.783
34.33000 409.495
34.34000 423.227
34.35000 419.101
34.36000 414.754
34.37000 410.309
34.38000 405.653
34.39000 400.989
34.40000 398.842
34.41000 400.356
34.42000 401.901
34.43000 402.489
34.44000 402.178
34.45000 401.820
34.46000 398.091
34.47000 392.285
34.48000 386.724
34.49000 386.759
34.50000 389.117
34.51000 391.323
34.52000 393.763
34.53000 396.039
34.54000 397.765
34.55000 395.847
34.56000 393.260
34.57000 391.471
34.58000 393.074
34.59000 395.060
34.60000 396.551
34.61000 397.076
34.62000 397.441
34.63000 396.693
34.64000 393.806
34.65000 390.867
34.66000 390.643
34.67000 393.896
34.68000 397.157
34.69000 396.884
34.70000 393.717
34.71000 390.644
34.72000 391.945
34.73000 395.630
34.74000 398.940
34.75000 395.566
34.76000 389.731
34.77000 384.352
34.78000 380.827
34.79000 378.081
34.80000 377.538
34.81000 389.659
34.82000 403.799
34.83000 413.876
34.84000 408.725
34.85000 402.122
34.86000 397.332
34.87000 392.922
34.88000 389.546
34.89000 388.849
34.90000 392.711
34.91000 396.648
34.92000 395.187
34.93000 387.677
34.94000 380.190
34.95000 377.531
34.96000 378.349
34.97000 379.144
34.98000 379.182
34.99000 378.856
35.00000 378.703
35.01000 381.040
35.02000 384.190
35.03000 387.047
35.04000 388.916
35.05000 390.376
35.06000 391.377
35.07000 390.072
35.08000 388.450
35.09000 387.960
35.10000 391.224
35.11000 394.785
35.12000 397.273
35.13000 395.128
35.14000 393.378
35.15000 389.638
35.16000 382.910
35.17000 376.152
35.18000 373.455
35.19000 374.719
35.20000 375.974
35.21000 381.527
35.22000 389.681
35.23000 397.448
35.24000 395.797
35.25000 390.110
35.26000 385.298
35.27000 390.808
35.28000 399.302
35.29000 406.872
35.30000 402.194
35.31000 396.101
35.32000 390.314
35.33000 385.868
35.34000 381.580
35.35000 378.162
35.36000 377.295
35.37000 376.594
35.38000 376.124
35.39000 389.716
35.40000 400.090
35.41000 401.627
35.42000 391.469
35.43000 381.265
35.44000 376.985
35.45000 377.744
35.46000 378.494
35.47000 378.525
35.48000 378.161
35.49000 377.956
35.50000 380.749
35.51000 384.682
35.52000 388.553
35.53000 391.810
35.54000 394.910
35.55000 397.621
35.56000 398.974
35.57000 399.941
35.58000 399.872
35.59000 395.786
35.60000 391.301
35.61000 387.293
35.62000 384.530
35.63000 381.831
35.64000 380.099
35.65000 382.303
35.66000 383.963
35.67000 384.227
35.68000 382.870
35.69000 381.517
35.70000 381.143
35.71000 381.500
35.72000 381.850
35.73000 377.889
35.74000 371.997
35.75000 366.735
35.76000 371.028
35.77000 378.542
35.78000 384.704
35.79000 379.560
35.80000 371.877
35.81000 365.302
35.82000 368.954
35.83000 373.270
35.84000 376.655
35.85000 376.859
35.86000 376.798
35.87000 376.298
35.88000 374.786
35.89000 373.234
35.90000 372.285
35.91000 379.470
35.92000 384.677
35.93000 383.405
35.94000 375.578
35.95000 367.828
35.96000 367.487
35.97000 372.017
35.98000 376.430
35.99000 376.058
36.00000 373.686
36.01000 371.452
36.02000 370.919
36.03000 370.895
36.04000 370.633
36.05000 368.678
36.06000 366.389
36.07000 364.475
36.08000 363.381
36.09000 362.556
36.10000 363.151
36.11000 368.043
36.12000 373.229
36.13000 375.888
36.14000 373.375
36.15000 370.709
36.16000 369.165
36.17000 367.379
36.18000 366.130
36.19000 368.982
36.20000 375.450
36.21000 381.814
36.22000 382.200
36.23000 379.114
36.24000 376.133
36.25000 376.064
36.26000 377.075
36.27000 377.956
36.28000 377.502
36.29000 376.696
36.30000 376.135
36.31000 377.088
36.32000 378.301
36.33000 379.290
36.34000 374.623
36.35000 370.324
36.36000 367.836
36.37000 370.203
36.38000 372.838
36.39000 374.175
36.40000 373.160
36.41000 372.095
36.42000 371.514
36.43000 371.961
36.44000 372.266
36.45000 371.514
36.46000 369.946
36.47000 368.475
36.48000 370.770
36.49000 375.003
36.50000 379.048
36.51000 382.993
36.52000 386.632
36.53000 389.470
36.54000 385.333
36.55000 379.577
36.56000 374.743
36.57000 374.872
36.58000 375.740
36.59000 376.429
36.60000 374.176
36.61000 372.157
36.62000 370.328
36.63000 368.956
36.64000 367.603
36.65000 367.929
36.66000 370.949
36.67000 374.004
36.68000 375.569
36.69000 380.671
36.70000 384.080
36.71000 385.329
36.72000 385.110
36.73000 384.698
36.74000 378.855
36.75000 370.535
36.76000 362.676
36.77000 370.733
36.78000 382.629
36.79000 391.832
36.80000 380.990
36.81000 366.061
36.82000 354.328
36.83000 357.634
36.84000 362.866
36.85000 366.894
36.86000 375.339
36.87000 382.278
36.88000 386.105
36.89000 383.363
36.90000 380.410
36.91000 377.076
36.92000 373.203
36.93000 369.328
36.94000 363.566
36.95000 356.085
36.96000 348.696
36.97000 347.223
36.98000 349.299
36.99000 351.468
37.00000 355.649
37.01000 360.645
37.02000 365.302
37.03000 367.248
37.04000 368.341
37.05000 369.195
37.06000 368.516
37.07000 367.563
37.08000 366.821
37.09000 366.950
37.10000 367.174
37.11000 367.341
37.12000 369.309
37.13000 370.924
37.14000 372.824
37.15000 375.258
37.16000 377.704
37.17000 376.599
37.18000 371.077
37.19000 365.551
37.20000 361.960
37.21000 359.924
37.22000 357.914
37.23000 357.062
37.24000 356.825
37.25000 356.747
37.26000 359.390
37.27000 363.008
37.28000 366.332
37.29000 364.722
37.30000 362.227
37.31000 359.721
37.32000 357.153
37.33000 354.575
37.34000 353.742
37.35000 359.273
37.36000 365.387
37.37000 369.787
37.38000 364.668
37.39000 360.413
37.40000 357.898
37.41000 358.264
37.42000 358.674
37.43000 360.063
37.44000 362.518
37.45000 364.963
37.46000 369.327
37.47000 374.978
37.48000 380.382
37.49000 378.251
37.50000 372.573
37.51000 366.993
37.52000 362.759
37.53000 358.952
37.54000 355.512
37.55000 355.417
37.56000 355.953
37.57000 357.169
37.58000 361.694
37.59000 366.660
37.60000 369.834
37.61000 367.227
37.62000 364.181
37.63000 362.071
37.64000 354.881
37.65000 349.337
37.66000 349.304
37.67000 357.332
37.68000 365.428
37.69000 367.705
37.70000 364.478
37.71000 361.277
37.72000 359.440
37.73000 358.465
37.74000 357.641
37.75000 360.260
37.76000 364.317
37.77000 367.804
37.78000 364.827
37.79000 360.031
37.80000 355.775
37.81000 349.138
37.82000 343.006
37.83000 338.725
37.84000 342.362
37.85000 346.900
37.86000 350.821
37.87000 352.982
37.88000 355.033
37.89000 356.396
37.90000 352.569
37.91000 349.642
37.92000 351.531
37.93000 359.616
37.94000 367.708
37.95000 368.083
37.96000 362.079
37.97000 356.157
37.98000 355.938
37.99000 358.764
38.00000 361.370
38.01000 359.997
38.02000 357.152
38.03000 354.646
38.04000 355.369
38.05000 356.894
38.06000 358.221
38.07000 361.236
38.08000 364.041
38.09000 366.539
38.10000 367.882
38.11000 369.113
38.12000 368.683
38.13000 364.045
38.14000 359.202
38.15000 356.126
38.16000 349.783
38.17000 345.138
38.18000 343.514
38.19000 345.295
38.20000 347.106
38.21000 353.174
38.22000 362.332
38.23000 371.307
38.24000 372.025
38.25000 368.857
38.26000 365.971
38.27000 367.167
38.28000 369.702
38.29000 372.919
38.30000 381.630
38.31000 391.540
38.32000 399.981
38.33000 389.986
38.34000 379.434
38.35000 370.484
38.36000 366.865
38.37000 363.672
38.38000 361.803
38.39000 362.907
38.40000 364.123
38.41000 364.858
38.42000 371.549
38.43000 376.359
38.44000 374.216
38.45000 365.250
38.46000 356.346
38.47000 352.718
38.48000 352.466
38.49000 352.220
38.50000 357.259
38.51000 364.216
38.52000 370.489
38.53000 368.619
38.54000 364.384
38.55000 360.960
38.56000 363.165
38.57000 366.446
38.58000 369.174
38.59000 368.010
38.60000 366.663
38.61000 364.320
38.62000 359.040
38.63000 353.569
38.64000 350.529
38.65000 352.336
38.66000 354.277
38.67000 355.388
38.68000 362.878
38.69000 368.120
38.70000 366.526
38.71000 359.080
38.72000 351.778
38.73000 351.986
38.74000 356.444
38.75000 360.739
38.76000 358.969
38.77000 355.129
38.78000 351.235
38.79000 346.798
38.80000 342.221
38.81000 339.347
38.82000 346.685
38.83000 355.723
38.84000 363.051
38.85000 368.235
38.86000 372.283
38.87000 375.007
38.88000 374.266
38.89000 373.345
38.90000 371.243
38.91000 367.055
38.92000 362.828
38.93000 360.550
38.94000 363.211
38.95000 365.027
38.96000 365.149
38.97000 364.001
38.98000 362.735
38.99000 357.203
39.00000 349.533
39.01000 342.220
39.02000 350.610
39.03000 363.324
39.04000 374.902
39.05000 376.920
39.06000 376.779
39.07000 375.116
39.08000 365.507
39.09000 354.752
39.10000 346.273
39.11000 350.469
39.12000 354.688
39.13000 357.486
39.14000 356.990
39.15000 356.361
39.16000 354.902
39.17000 352.149
39.18000 349.380
39.19000 347.983
39.20000 350.580
39.21000 352.327
39.22000 355.108
39.23000 358.571
39.24000 362.108
39.25000 367.603
39.26000 373.969
39.27000 379.966
39.28000 374.671
39.29000 366.726
39.30000 359.774
39.31000 359.973
39.32000 361.589
39.33000 364.707
39.34000 374.695
39.35000 385.532
39.36000 393.822
39.37000 394.289
39.38000 394.233
39.39000 392.400
39.40000 386.912
39.41000 381.315
39.42000 377.801
39.43000 377.153
39.44000 376.522
39.45000 372.475
39.46000 365.407
39.47000 358.511
39.48000 361.628
39.49000 370.594
39.50000 379.366
39.51000 384.188
39.52000 387.452
39.53000 390.486
39.54000 384.564
39.55000 377.078
39.56000 371.699
39.57000 379.433
39.58000 389.434
39.59000 395.910
39.60000 388.208
39.61000 379.016
39.62000 372.213
39.63000 376.005
39.64000 379.404
39.65000 380.117
39.66000 375.932
39.67000 371.645
39.68000 375.388
39.69000 388.835
39.70000 402.274
39.71000 405.571
39.72000 401.018
39.73000 396.521
39.74000 394.191
39.75000 392.982
39.76000 392.007
39.77000 394.817
39.78000 398.951
39.79000 402.735
39.80000 406.476
39.81000 409.794
39.82000 414.771
39.83000 428.719
39.84000 444.010
39.85000 456.996
39.86000 461.799
39.87000 465.880
39.88000 468.793
39.89000 480.835
39.90000 490.324
39.91000 500.783
39.92000 512.807
39.93000 524.852
39.94000 524.060
39.95000 509.719
39.96000 495.449
39.97000 498.514
39.98000 513.242
39.99000 527.595
40.00000 531.243
40.01000 529.983
40.02000 529.238
40.03000 535.272
40.04000 543.404
40.05000 550.726
40.06000 537.317
40.07000 521.834
40.08000 506.637
40.09000 492.797
40.10000 479.133
40.11000 468.871
40.12000 469.302
40.13000 470.510
40.14000 471.339
40.15000 455.956
40.16000 444.026
40.17000 438.489
40.18000 442.047
40.19000 445.672
40.20000 444.144
40.21000 437.887
40.22000 431.687
40.23000 425.419
40.24000 419.235
40.25000 413.383
40.26000 414.729
40.27000 419.004
40.28000 422.741
40.29000 420.630
40.30000 416.918
40.31000 413.637
40.32000 409.345
40.33000 405.481
40.34000 402.797
40.35000 405.020
40.36000 407.782
40.37000 410.116
40.38000 411.260
40.39000 412.333
40.40000 413.040
40.41000 402.337
40.42000 394.258
40.43000 389.229
40.44000 388.012
40.45000 386.814
40.46000 388.011
40.47000 391.131
40.48000 394.205
40.49000 398.158
40.50000 402.449
40.51000 406.507
40.52000 406.585
40.53000 405.227
40.54000 403.970
40.55000 403.644
40.56000 403.543
40.57000 403.456
40.58000 420.561
40.59000 437.392
40.60000 447.227
40.61000 431.408
40.62000 413.218
40.63000 403.056
40.64000 412.711
40.65000 423.286
40.66000 429.931
40.67000 430.365
40.68000 430.610
40.69000 428.100
40.70000 422.577
40.71000 417.095
40.72000 417.491
40.73000 422.038
40.74000 426.487
40.75000 429.081
40.76000 430.728
40.77000 432.140
40.78000 430.304
40.79000 427.429
40.80000 425.588
40.81000 431.815
40.82000 439.754
40.83000 446.482
40.84000 432.527
40.85000 418.509
40.86000 411.343
40.87000 426.389
40.88000 443.138
40.89000 451.315
40.90000 440.719
40.91000 429.459
40.92000 422.734
40.93000 422.183
40.94000 421.831
40.95000 425.600
40.96000 433.290
40.97000 440.976
40.98000 448.335
40.99000 455.491
41.00000 462.437
41.01000 461.855
41.02000 458.304
41.03000 455.342
41.04000 459.091
41.05000 464.739
41.06000 469.800
41.07000 470.928
41.08000 471.326
41.09000 471.655
41.10000 469.996
41.11000 468.441
41.12000 468.336
41.13000 472.401
41.14000 476.726
41.15000 478.494
41.16000 475.300
41.17000 471.978
41.18000 470.101
41.19000 482.740
41.20000 491.553
41.21000 493.284
41.22000 489.129
41.23000 485.137
41.24000 488.990
41.25000 497.164
41.26000 505.024
41.27000 507.734
41.28000 508.478
41.29000 509.155
41.30000 509.184
41.31000 509.053
41.32000 509.049
41.33000 509.792
41.34000 510.656
41.35000 511.352
41.36000 512.925
41.37000 514.270
41.38000 516.963
41.39000 523.088
41.40000 529.383
41.41000 532.376
41.42000 529.689
41.43000 526.905
41.44000 525.424
41.45000 545.440
41.46000 558.981
41.47000 556.737
41.48000 542.971
41.49000 529.676
41.50000 532.147
41.51000 542.316
41.52000 551.986
41.53000 555.378
41.54000 556.600
41.55000 559.235
41.56000 573.355
41.57000 589.995
41.58000 606.035
41.59000 619.026
41.60000 631.591
41.61000 641.435
41.62000 666.874
41.63000 688.206
41.64000 717.952
41.65000 766.709
41.66000 816.190
41.67000 861.406
41.68000 900.144
41.69000 938.813
41.70000 974.651
41.71000 1007.691
41.72000 1040.646
41.73000 1066.289
41.74000 1087.227
41.75000 1107.876
41.76000 1121.348
41.77000 1131.712
41.78000 1141.446
41.79000 1140.857
41.80000 1137.568
41.81000 1133.776
41.82000 1126.474
41.83000 1118.496
41.84000 1109.058
41.85000 1093.127
41.86000 1076.420
41.87000 1063.730
41.88000 1026.357
41.89000 995.699
41.90000 958.114
41.91000 906.648
41.92000 854.792
41.93000 818.459
41.94000 802.896
41.95000 787.452
41.96000 777.603
41.97000 772.580
41.98000 767.641
41.99000 767.180
42.00000 769.264
42.01000 771.187
42.02000 769.995
42.03000 767.607
42.04000 765.394
42.05000 770.369
42.06000 776.513
42.07000 783.076
42.08000 792.170
42.09000 801.688
42.10000 810.104
42.11000 814.208
42.12000 817.876
42.13000 820.569
42.14000 828.573
42.15000 834.976
42.16000 840.154
42.17000 843.157
42.18000 846.117
42.19000 859.326
42.20000 884.564
42.21000 909.753
42.22000 927.658
42.23000 939.982
42.24000 952.275
42.25000 963.441
42.26000 974.039
42.27000 985.133
42.28000 1003.863
42.29000 1025.194
42.30000 1044.653
42.31000 1081.915
42.32000 1118.547
42.33000 1152.842
42.34000 1174.862
42.35000 1195.101
42.36000 1222.694
42.37000 1275.707
42.38000 1330.871
42.39000 1369.936
42.40000 1445.223
42.41000 1503.571
42.42000 1560.460
42.43000 1615.062
42.44000 1669.635
42.45000 1718.588
42.46000 1761.786
42.47000 1804.726
42.48000 1841.270
42.49000 1873.122
42.50000 1904.835
42.51000 1932.827
42.52000 1959.159
42.53000 1984.967
42.54000 2004.192
42.55000 2021.431
42.56000 2036.892
42.57000 2065.891
42.58000 2093.592
42.59000 2112.993
42.60000 2094.216
42.61000 2070.685
42.62000 2043.198
42.63000 2003.611
42.64000 1963.181
42.65000 1935.665
42.66000 1924.143
42.67000 1915.902
42.68000 1891.166
42.69000 1843.606
42.70000 1795.925
42.71000 1778.505
42.72000 1788.062
42.73000 1797.518
42.74000 1793.996
42.75000 1783.099
42.76000 1773.293
42.77000 1785.914
42.78000 1807.422
42.79000 1826.053
42.80000 1814.563
42.81000 1795.044
42.82000 1777.863
42.83000 1811.489
42.84000 1848.044
42.85000 1877.139
42.86000 1876.054
42.87000 1871.775
42.88000 1871.365
42.89000 1881.447
42.90000 1892.117
42.91000 1899.072
42.92000 1900.069
42.93000 1900.707
42.94000 1903.561
42.95000 1909.108
42.96000 1914.724
42.97000 1937.074
42.98000 1972.488
42.99000 2007.331
43.00000 2020.105
43.01000 2021.365
43.02000 2022.540
43.03000 2022.318
43.04000 2021.604
43.05000 2021.671
43.06000 2028.630
43.07000 2037.209
43.08000 2044.606
43.09000 2058.039
43.10000 2070.203
43.11000 2086.880
43.12000 2119.668
43.13000 2153.887
43.14000 2183.939
43.15000 2203.970
43.16000 2223.562
43.17000 2235.742
43.18000 2261.705
43.19000 2280.537
43.20000 2296.863
43.21000 2310.528
43.22000 2324.235
43.23000 2342.874
43.24000 2364.901
43.25000 2386.419
43.26000 2404.623
43.27000 2420.592
43.28000 2437.174
43.29000 2461.873
43.30000 2489.098
43.31000 2515.331
43.32000 2534.069
43.33000 2551.261
43.34000 2565.758
43.35000 2599.182
43.36000 2629.144
43.37000 2655.770
43.38000 2671.866
43.39000 2687.189
43.40000 2707.850
43.41000 2739.900
43.42000 2772.327
43.43000 2791.471
43.44000 2842.004
43.45000 2877.863
43.46000 2910.531
43.47000 2940.253
43.48000 2969.823
43.49000 2989.080
43.50000 3002.087
43.51000 3014.686
43.52000 3034.139
43.53000 3055.197
43.54000 3077.484
43.55000 3113.262
43.56000 3152.754
43.57000 3193.701
43.58000 3244.104
43.59000 3296.210
43.60000 3339.084
43.61000 3368.580
43.62000 3391.613
43.63000 3420.962
43.64000 3467.982
43.65000 3516.052
43.66000 3564.970
43.67000 3615.493
43.68000 3666.054
43.69000 3694.260
43.70000 3749.820
43.71000 3788.370
43.72000 3841.396
43.73000 3906.112
43.74000 3970.718
43.75000 4030.460
43.76000 4087.594
43.77000 4142.399
43.78000 4182.459
43.79000 4214.893
43.80000 4251.722
43.81000 4329.114
43.82000 4416.356
43.83000 4501.158
43.84000 4572.195
43.85000 4641.078
43.86000 4696.267
43.87000 4740.600
43.88000 4775.656
43.89000 4831.780
43.90000 4940.183
43.91000 5051.039
43.92000 5130.857
43.93000 5158.719
43.94000 5185.766
43.95000 5199.940
43.96000 5407.175
43.97000 5547.479
43.98000 5669.897
43.99000 5779.621
44.00000 5889.687
44.01000 6010.497
44.02000 6136.415
44.03000 6255.856
44.04000 6471.013
44.05000 6697.767
44.06000 6923.747
44.07000 7143.647
44.08000 7362.251
44.09000 7588.685
44.10000 7853.704
44.11000 8123.932
44.12000 8334.258
44.13000 8790.684
44.14000 9169.242
44.15000 9598.434
44.16000 10139.080
44.17000 10683.714
44.18000 11298.836
44.19000 12018.159
44.20000 12738.391
44.21000 13564.993
44.22000 14493.289
44.23000 15425.987
44.24000 16697.264
44.25000 18180.520
44.26000 19688.127
44.27000 21768.475
44.28000 24090.398
44.29000 26265.164
44.30000 29543.941
44.31000 32811.746
44.32000 36159.035
44.33000 40043.059
44.34000 44027.305
44.35000 48085.914
44.36000 52466.047
44.37000 56883.270
44.38000 60214.820
44.39000 65493.480
44.40000 69724.008
44.41000 73750.875
44.42000 77380.227
44.43000 80999.242
44.44000 84135.625
44.45000 86644.055
44.46000 89147.172
44.47000 91085.781
44.48000 92548.289
44.49000 93993.094
44.50000 94573.305
44.51000 94674.750
44.52000 94724.094
44.53000 93817.789
44.54000 92553.930
44.55000 91386.828
44.56000 88558.211
44.57000 85647.320
44.58000 82608.961
44.59000 78824.813
44.60000 74919.484
44.61000 70995.953
44.62000 67003.055
44.63000 63003.395
44.64000 60088.199
44.65000 55106.910
44.66000 51190.422
44.67000 47424.957
44.68000 43920.531
44.69000 40420.707
44.70000 37107.457
44.71000 34006.918
44.72000 30916.895
44.73000 28152.240
44.74000 25646.871
44.75000 23151.418
44.76000 20993.826
44.77000 19002.000
44.78000 17035.824
44.79000 15447.303
44.80000 13984.041
44.81000 12653.914
44.82000 11539.717
44.83000 10596.862
44.84000 9694.207
44.85000 8996.639
44.86000 8327.864
44.87000 7702.670
44.88000 7224.122
44.89000 6757.489
44.90000 6429.791
44.91000 5943.198
44.92000 5570.122
44.93000 5241.322
44.94000 4980.147
44.95000 4719.696
44.96000 4513.204
44.97000 4360.298
44.98000 4208.435
44.99000 4060.128
45.00000 3916.368
45.01000 3773.687
45.02000 3658.221
45.03000 3554.598
45.04000 3453.740
45.05000 3386.280
45.06000 3328.626
45.07000 3277.121
45.08000 3195.382
45.09000 3119.082
45.10000 3050.117
45.11000 3013.950
45.12000 2981.729
45.13000 2949.349
45.14000 2916.495
45.15000 2883.609
45.16000 2861.430
45.17000 2823.982
45.18000 2795.798
45.19000 2761.888
45.20000 2720.273
45.21000 2678.634
45.22000 2649.650
45.23000 2631.621
45.24000 2613.801
45.25000 2595.209
45.26000 2576.638
45.27000 2558.688
45.28000 2552.877
45.29000 2551.753
45.30000 2549.481
45.31000 2535.650
45.32000 2518.820
45.33000 2504.069
45.34000 2507.265
45.35000 2512.603
45.36000 2511.026
45.37000 2482.233
45.38000 2450.663
45.39000 2431.314
45.40000 2444.244
45.41000 2458.893
45.42000 2468.346
45.43000 2479.141
45.44000 2487.047
45.45000 2476.716
45.46000 2444.852
45.47000 2413.034
45.48000 2398.884
45.49000 2398.142
45.50000 2397.413
45.51000 2396.060
45.52000 2394.449
45.53000 2393.313
45.54000 2399.565
45.55000 2408.346
45.56000 2416.695
45.57000 2421.352
45.58000 2425.165
45.59000 2428.438
45.60000 2438.733
45.61000 2448.302
45.62000 2457.667
45.63000 2466.322
45.64000 2474.917
45.65000 2478.125
45.66000 2468.714
45.67000 2458.781
45.68000 2452.672
45.69000 2450.321
45.70000 2448.668
45.71000 2460.641
45.72000 2486.652
45.73000 2512.456
45.74000 2516.912
45.75000 2507.104
45.76000 2497.540
45.77000 2517.434
45.78000 2549.065
45.79000 2578.499
45.80000 2580.026
45.81000 2573.093
45.82000 2568.563
45.83000 2581.575
45.84000 2598.102
45.85000 2611.965
45.86000 2640.552
45.87000 2665.882
45.88000 2698.189
45.89000 2751.955
45.90000 2807.227
45.91000 2847.954
45.92000 2858.447
45.93000 2868.005
45.94000 2873.582
45.95000 2928.692
45.96000 2967.668
45.97000 2997.069
45.98000 3017.883
45.99000 3039.328
46.00000 3099.222
46.01000 3181.808
46.02000 3261.648
46.03000 3330.774
46.04000 3391.976
46.05000 3457.544
46.06000 3569.195
46.07000 3693.192
46.08000 3827.305
46.09000 4025.136
46.10000 4234.109
46.11000 4405.092
46.12000 4739.144
46.13000 5027.075
46.14000 5333.520
46.15000 5690.416
46.16000 6050.168
46.17000 6422.385
46.18000 6817.562
46.19000 7213.239
46.20000 7431.095
46.21000 8249.636
46.22000 8815.251
46.23000 9582.318
46.24000 10507.524
46.25000 11467.854
46.26000 13859.373
46.27000 16998.678
46.28000 20003.088
46.29000 28045.607
46.30000 37196.738
46.31000 47160.496
46.32000 64357.836
46.33000 83263.383
46.34000 102837.367
46.35000 126071.328
46.36000 149860.344
46.37000 168803.984
46.38000 191971.859
46.39000 210958.328
46.40000 227958.109
46.41000 240155.344
46.42000 252139.469
46.43000 262744.781
46.44000 271103.188
46.45000 279429.844
46.46000 283730.719
46.47000 295854.688
46.48000 304017.750
46.49000 311013.625
46.50000 317203.625
46.51000 323187.031
46.52000 323111.125
46.53000 320228.406
46.54000 317501.156
46.55000 303069.938
46.56000 286434.750
46.57000 269409.219
46.58000 249419.031
46.59000 228814.078
46.60000 208591.297
46.61000 190198.016
46.62000 172043.563
46.63000 158006.906
46.64000 142277.328
46.65000 129698.086
46.66000 117651.773
46.67000 106748.313
46.68000 95883.172
46.69000 85081.156
46.70000 74369.938
46.71000 63661.297
46.72000 53820.477
46.73000 44790.461
46.74000 35786.895
46.75000 28606.648
46.76000 22537.590
46.77000 16585.217
46.78000 13224.695
46.79000 10929.229
46.80000 8785.593
46.81000 7649.147
46.82000 6871.374
46.83000 6143.204
46.84000 5739.471
46.85000 5394.542
46.86000 5066.677
46.87000 4810.556
46.88000 4562.421
46.89000 4376.619
46.90000 4176.466
46.91000 4019.590
46.92000 3873.660
46.93000 3748.537
46.94000 3623.915
46.95000 3511.173
46.96000 3413.456
46.97000 3315.931
46.98000 3234.450
46.99000 3166.262
47.00000 3098.098
47.01000 3031.011
47.02000 2964.506
47.03000 2897.441
47.04000 2820.624
47.05000 2740.251
47.06000 2666.276
47.07000 2628.169
47.08000 2601.926
47.09000 2574.427
47.10000 2539.798
47.11000 2504.045
47.12000 2465.355
47.13000 2415.774
47.14000 2365.172
47.15000 2328.578
47.16000 2284.715
47.17000 2250.790
47.18000 2212.639
47.19000 2167.375
47.20000 2121.998
47.21000 2091.229
47.22000 2076.628
47.23000 2062.096
47.24000 2031.528
47.25000 1989.918
47.26000 1948.549
47.27000 1914.835
47.28000 1884.778
47.29000 1855.143
47.30000 1831.436
47.31000 1809.644
47.32000 1789.907
47.33000 1773.310
47.34000 1759.278
47.35000 1740.737
47.36000 1699.852
47.37000 1655.930
47.38000 1620.177
47.39000 1611.184
47.40000 1604.277
47.41000 1599.468
47.42000 1582.199
47.43000 1568.831
47.44000 1547.696
47.45000 1515.014
47.46000 1482.224
47.47000 1458.873
47.48000 1444.615
47.49000 1430.467
47.50000 1416.852
47.51000 1403.802
47.52000 1390.431
47.53000 1369.434
47.54000 1345.204
47.55000 1321.438
47.56000 1303.056
47.57000 1286.213
47.58000 1271.227
47.59000 1254.998
47.60000 1240.703
47.61000 1224.354
47.62000 1199.072
47.63000 1172.751
47.64000 1152.231
47.65000 1148.539
47.66000 1145.917
47.67000 1144.164
47.68000 1111.590
47.69000 1086.847
47.70000 1073.159
47.71000 1073.937
47.72000 1074.757
47.73000 1064.303
47.74000 1044.371
47.75000 1024.693
47.76000 1019.325
47.77000 1021.855
47.78000 1023.672
47.79000 1012.290
47.80000 995.944
47.81000 980.677
47.82000 975.899
47.83000 973.768
47.84000 971.908
47.85000 976.680
47.86000 981.688
47.87000 980.652
47.88000 956.466
47.89000 930.006
47.90000 906.871
47.91000 892.290
47.92000 878.141
47.93000 869.102
47.94000 854.830
47.95000 844.376
47.96000 838.760
47.97000 838.693
47.98000 838.587
47.99000 830.338
48.00000 816.079
48.01000 802.091
48.02000 793.504
48.03000 787.794
48.04000 781.840
48.05000 772.253
48.06000 761.453
48.07000 751.695
48.08000 750.514
48.09000 751.237
48.10000 751.854
48.11000 743.904
48.12000 736.188
48.13000 727.898
48.14000 717.671
48.15000 707.286
48.16000 699.472
48.17000 697.526
48.18000 695.810
48.19000 694.766
48.20000 690.948
48.21000 688.201
48.22000 682.648
48.23000 674.293
48.24000 666.001
48.25000 663.499
48.26000 664.760
48.27000 665.987
48.28000 654.968
48.29000 639.368
48.30000 623.866
48.31000 609.560
48.32000 595.607
48.33000 584.025
48.34000 589.191
48.35000 597.616
48.36000 604.646
48.37000 597.722
48.38000 590.578
48.39000 586.112
48.40000 589.664
48.41000 593.755
48.42000 593.689
48.43000 585.208
48.44000 576.485
48.45000 571.458
48.46000 575.806
48.47000 578.878
48.48000 574.725
48.49000 564.280
48.50000 553.976
48.51000 551.514
48.52000 553.557
48.53000 555.528
48.54000 555.783
48.55000 555.395
48.56000 554.570
48.57000 549.302
48.58000 542.874
48.59000 535.645
48.60000 523.519
48.61000 510.563
48.62000 500.023
48.63000 501.547
48.64000 503.804
48.65000 506.387
48.66000 509.838
48.67000 513.335
48.68000 515.538
48.69000 515.419
48.70000 515.254
48.71000 515.164
48.72000 492.862
48.73000 477.605
48.74000 476.337
48.75000 485.745
48.76000 494.827
48.77000 491.605
48.78000 482.121
48.79000 473.066
48.80000 467.617
48.81000 463.708
48.82000 460.386
48.83000 462.112
48.84000 464.997
48.85000 466.630
48.86000 461.608
48.87000 455.607
48.88000 450.859
48.89000 451.330
48.90000 452.070
48.91000 453.260
48.92000 455.509
48.93000 457.803
48.94000 456.680
48.95000 450.135
48.96000 443.522
48.97000 440.157
48.98000 443.515
48.99000 445.751
49.00000 446.149
49.01000 445.314
49.02000 444.212
49.03000 435.741
49.04000 423.945
49.05000 412.816
49.06000 414.885
49.07000 420.469
49.08000 425.104
49.09000 422.770
49.10000 419.031
49.11000 416.147
49.12000 417.242
49.13000 418.839
49.14000 420.065
49.15000 414.281
49.16000 409.315
49.17000 403.205
49.18000 394.705
49.19000 386.130
49.20000 381.288
49.21000 381.668
49.22000 382.082
49.23000 384.778
49.24000 389.526
49.25000 394.193
49.26000 393.854
49.27000 390.546
49.28000 387.284
49.29000 384.997
49.30000 383.102
49.31000 381.337
49.32000 378.587
49.33000 375.860
49.34000 374.223
49.35000 379.490
49.36000 385.971
49.37000 389.918
49.38000 383.499
49.39000 375.967
49.40000 370.368
49.41000 365.508
49.42000 361.761
49.43000 360.972
49.44000 365.659
49.45000 370.468
49.46000 372.257
49.47000 370.334
49.48000 368.405
49.49000 365.889
49.50000 362.922
49.51000 359.968
49.52000 357.491
49.53000 355.265
49.54000 353.104
49.55000 352.034
49.56000 351.351
49.57000 350.724
49.58000 348.849
49.59000 346.913
49.60000 345.505
49.61000 347.000
49.62000 348.939
49.63000 349.986
49.64000 347.815
49.65000 345.353
49.66000 343.587
49.67000 347.759
49.68000 351.151
49.69000 353.286
49.70000 353.361
49.71000 353.405
49.72000 350.810
49.73000 345.380
49.74000 339.974
49.75000 336.256
49.76000 333.738
49.77000 331.322
49.78000 331.905
49.79000 333.885
49.80000 335.775
49.81000 336.439
49.82000 336.717
49.83000 336.969
49.84000 333.904
49.85000 330.604
49.86000 327.171
49.87000 323.095
49.88000 318.934
49.89000 316.894
49.90000 321.621
49.91000 326.853
49.92000 330.465
49.93000 327.827
49.94000 325.685
49.95000 324.422
49.96000 324.428
49.97000 324.445
49.98000 322.525
49.99000 318.795
50.00000 315.098
50.01000 314.877
50.02000 316.750
50.03000 318.706
50.04000 322.532
50.05000 327.130
50.06000 331.149
50.07000 328.701
50.08000 324.454
50.09000 320.691
50.10000 315.597
50.11000 310.979
50.12000 307.861
50.13000 311.088
50.14000 315.027
50.15000 317.545
50.16000 316.048
50.17000 314.308
50.18000 313.156
50.19000 311.376
50.20000 310.050
50.21000 311.050
50.22000 315.008
50.23000 318.958
50.24000 315.458
50.25000 305.873
50.26000 296.422
50.27000 293.007
50.28000 292.869
50.29000 292.887
50.30000 295.656
50.31000 299.433
50.32000 303.027
50.33000 304.906
50.34000 306.365
50.35000 307.632
50.36000 301.214
50.37000 294.703
50.38000 289.976
50.39000 291.897
50.40000 294.447
50.41000 297.707
50.42000 302.748
50.43000 307.874
50.44000 311.115
50.45000 300.850
50.46000 293.250
50.47000 290.677
50.48000 293.702
50.49000 296.685
50.50000 292.807
50.51000 284.005
50.52000 275.384
50.53000 273.398
50.54000 274.552
50.55000 275.626
50.56000 275.559
50.57000 275.121
50.58000 275.069
50.59000 278.094
50.60000 281.782
50.61000 284.916
50.62000 287.406
50.63000 289.423
50.64000 289.602
50.65000 283.733
50.66000 277.389
50.67000 274.053
50.68000 277.405
50.69000 281.002
50.70000 283.166
50.71000 282.374
50.72000 281.791
50.73000 280.837
50.74000 279.524
50.75000 278.281
50.76000 282.735
50.77000 290.794
50.78000 298.624
50.79000 294.626
50.80000 286.038
50.81000 277.802
50.82000 273.674
50.83000 270.727
50.84000 268.744
50.85000 273.355
50.86000 279.212
50.87000 284.074
50.88000 289.453
50.89000 293.949
50.90000 295.463
50.91000 288.276
50.92000 280.531
50.93000 277.165
50.94000 282.435
50.95000 287.936
50.96000 291.067
50.97000 295.325
50.98000 298.287
50.99000 295.927
51.00000 289.066
51.01000 282.306
51.02000 280.674
51.03000 281.913
51.04000 283.105
51.05000 282.489
51.06000 281.270
51.07000 279.731
51.08000 275.060
51.09000 269.595
51.10000 264.641
51.11000 262.723
51.12000 261.303
51.13000 260.155
51.14000 256.720
51.15000 253.741
51.16000 252.490
51.17000 255.708
51.18000 259.155
51.19000 262.244
51.20000 264.706
51.21000 267.158
51.22000 268.471
51.23000 263.293
51.24000 259.760
51.25000 257.452
51.26000 256.052
51.27000 254.649
51.28000 253.126
51.29000 251.543
51.30000 250.035
51.31000 248.635
51.32000 247.372
51.33000 246.642
51.34000 250.337
51.35000 255.018
51.36000 258.697
51.37000 257.199
51.38000 254.965
51.39000 253.208
51.40000 243.947
51.41000 236.036
51.42000 232.819
51.43000 240.372
51.44000 248.351
51.45000 254.062
51.46000 256.271
51.47000 258.441
51.48000 259.529
51.49000 257.577
51.50000 256.241
51.51000 251.772
51.52000 245.256
51.53000 238.974
51.54000 238.753
51.55000 241.196
51.56000 243.495
51.57000 245.473
51.58000 247.194
51.59000 248.870
51.60000 250.227
51.61000 251.522
51.62000 252.660
51.63000 253.087
51.64000 253.429
51.65000 253.689
51.66000 247.542
51.67000 242.357
51.68000 239.472
51.69000 241.263
51.70000 243.192
51.71000 245.721
51.72000 249.069
51.73000 252.419
51.74000 249.094
51.75000 239.940
51.76000 230.917
51.77000 229.274
51.78000 231.895
51.79000 234.565
51.80000 238.206
51.81000 242.225
51.82000 245.956
51.83000 244.243
51.84000 241.412
51.85000 238.605
51.86000 235.944
51.87000 233.307
51.88000 230.748
51.89000 228.494
51.90000 226.273
51.91000 224.634
51.92000 227.459
51.93000 229.836
51.94000 232.242
51.95000 234.702
51.96000 237.163
51.97000 237.859
51.98000 236.449
51.99000 235.038
52.00000 234.720
52.01000 235.238
52.02000 235.748
52.03000 235.924
52.04000 235.930
52.05000 236.195
52.06000 240.551
52.07000 246.324
52.08000 251.600
52.09000 244.122
52.10000 234.860
52.11000 227.403
52.12000 229.593
52.13000 233.208
52.14000 235.782
52.15000 234.697
52.16000 233.294
52.17000 232.296
52.18000 229.771
52.19000 227.798
52.20000 224.583
52.21000 219.386
52.22000 214.164
52.23000 211.326
52.24000 210.974
52.25000 210.623
52.26000 212.769
52.27000 216.552
52.28000 220.357
52.29000 224.797
52.30000 229.523
52.31000 233.876
52.32000 233.395
52.33000 231.433
52.34000 229.670
52.35000 231.959
52.36000 234.682
52.37000 236.334
52.38000 232.978
52.39000 228.985
52.40000 224.625
52.41000 219.125
52.42000 213.544
52.43000 209.725
52.44000 210.187
52.45000 210.634
52.46000 211.298
52.47000 212.266
52.48000 213.238
52.49000 217.302
52.50000 224.172
52.51000 230.975
52.52000 231.854
52.53000 229.256
52.54000 226.609
52.55000 222.909
52.56000 218.786
52.57000 214.847
52.58000 212.880
52.59000 211.446
52.60000 210.181
52.61000 215.109
52.62000 220.305
52.63000 224.008
52.64000 221.573
52.65000 218.475
52.66000 213.995
52.67000 205.713
52.68000 197.211
52.69000 191.637
52.70000 204.188
52.71000 213.716
52.72000 219.749
52.73000 221.461
52.74000 223.152
52.75000 222.034
52.76000 218.687
52.77000 215.391
52.78000 213.549
52.79000 212.508
52.80000 211.456
52.81000 210.220
52.82000 208.918
52.83000 207.772
52.84000 208.035
52.85000 208.634
52.86000 209.152
52.87000 214.911
52.88000 220.488
52.89000 224.011
52.90000 220.081
52.91000 215.474
52.92000 212.016
52.93000 211.366
52.94000 210.844
52.95000 210.517
52.96000 208.627
52.97000 207.246
52.98000 206.721
52.99000 207.119
53.00000 207.524
53.01000 208.734
53.02000 210.505
53.03000 212.236
53.04000 214.363
53.05000 216.581
53.06000 218.476
53.07000 215.992
53.08000 212.124
53.09000 208.940
53.10000 211.025
53.11000 214.215
53.12000 216.912
53.13000 212.350
53.14000 207.729
53.15000 204.576
53.16000 206.131
53.17000 208.041
53.18000 208.556
53.19000 206.048
53.20000 203.437
53.21000 201.884
53.22000 204.463
53.23000 206.313
53.24000 206.956
53.25000 206.463
53.26000 205.985
53.27000 206.483
53.28000 207.583
53.29000 208.650
53.30000 210.474
53.31000 212.501
53.32000 214.102
53.33000 210.921
53.34000 206.403
53.35000 202.445
53.36000 202.198
53.37000 202.632
53.38000 202.990
53.39000 207.950
53.40000 212.463
53.41000 215.324
53.42000 213.489
53.43000 211.366
53.44000 210.076
53.45000 210.383
53.46000 210.730
53.47000 210.925
53.48000 208.773
53.49000 207.274
53.50000 205.870
53.51000 204.544
53.52000 203.231
53.53000 202.486
53.54000 202.050
53.55000 201.632
53.56000 202.167
53.57000 202.997
53.58000 203.591
53.59000 201.957
53.60000 199.772
53.61000 198.083
53.62000 199.240
53.63000 200.851
53.64000 202.147
53.65000 201.136
53.66000 200.138
53.67000 198.982
53.68000 197.429
53.69000 195.856
53.70000 195.708
53.71000 197.982
53.72000 200.297
53.73000 201.521
53.74000 201.028
53.75000 200.684
53.76000 199.066
53.77000 196.529
53.78000 194.046
53.79000 193.335
53.80000 193.479
53.81000 193.615
53.82000 193.711
53.83000 193.788
53.84000 194.108
53.85000 196.372
53.86000 199.059
53.87000 201.016
53.88000 199.312
53.89000 197.105
53.90000 195.380
53.91000 201.116
53.92000 206.164
53.93000 207.242
53.94000 199.444
53.95000 191.317
53.96000 188.145
53.97000 192.417
53.98000 196.761
53.99000 199.407
54.00000 200.397
54.01000 201.369
54.02000 200.959
54.03000 199.670
54.04000 198.352
54.05000 196.328
54.06000 194.002
54.07000 191.821
54.08000 194.820
54.09000 198.917
54.10000 202.328
54.11000 201.026
54.12000 198.827
54.13000 197.309
54.14000 198.776
54.15000 200.595
54.16000 201.972
54.17000 197.210
54.18000 193.160
54.19000 190.395
54.20000 190.176
54.21000 190.027
54.22000 191.227
54.23000 194.214
54.24000 197.207
54.25000 200.280
54.26000 203.416
54.27000 206.435
54.28000 203.480
54.29000 197.165
54.30000 191.144
54.31000 190.687
54.32000 192.344
54.33000 193.878
54.34000 192.490
54.35000 190.574
54.36000 189.346
54.37000 192.217
54.38000 195.766
54.39000 198.074
54.40000 195.579
54.41000 192.605
54.42000 190.428
54.43000 192.777
54.44000 194.770
54.45000 195.185
54.46000 192.826
54.47000 190.415
54.48000 191.091
54.49000 195.348
54.50000 199.596
54.51000 196.656
54.52000 188.414
54.53000 180.429
54.54000 181.579
54.55000 187.281
54.56000 192.678
54.57000 193.461
54.58000 192.690
54.59000 191.987
54.60000 194.850
54.61000 198.095
54.62000 200.125
54.63000 195.845
54.64000 190.663
54.65000 186.285
54.66000 184.658
54.67000 183.260
54.68000 182.273
54.69000 188.430
54.70000 193.319
54.71000 194.858
54.72000 191.199
54.73000 187.480
54.74000 187.336
54.75000 190.807
54.76000 194.257
54.77000 194.970
54.78000 193.902
54.79000 192.837
54.80000 191.846
54.81000 190.888
54.82000 189.803
54.83000 187.143
54.84000 184.015
54.85000 181.213
54.86000 184.710
54.87000 188.844
54.88000 191.701
54.89000 188.747
54.90000 185.080
54.91000 183.238
54.92000 186.917
54.93000 190.974
54.94000 193.725
54.95000 190.072
54.96000 187.206
54.97000 185.422
54.98000 185.118
54.99000 184.825
55.00000 185.824
55.01000 187.963
55.02000 190.079
55.03000 188.003
55.04000 183.596
55.05000 179.433
55.06000 180.185
55.07000 182.864
55.08000 185.439
55.09000 186.939
55.10000 188.155
55.11000 189.224
55.12000 190.112
55.13000 190.850
55.14000 191.022
55.15000 188.933
55.16000 186.608
55.17000 185.462
55.18000 187.478
55.19000 189.667
55.20000 191.087
55.21000 189.391
55.22000 188.101
55.23000 187.977
55.24000 189.253
55.25000 190.535
55.26000 192.756
55.27000 195.700
55.28000 198.596
55.29000 193.567
55.30000 184.761
55.31000 176.326
55.32000 173.809
55.33000 173.350
55.34000 173.120
55.35000 174.894
55.36000 177.132
55.37000 179.058
55.38000 181.253
55.39000 183.145
55.40000 185.188
55.41000 187.765
55.42000 190.387
55.43000 190.815
55.44000 186.018
55.45000 180.998
55.46000 177.891
55.47000 178.508
55.48000 178.986
55.49000 180.973
55.50000 184.540
55.51000 188.071
55.52000 187.482
55.53000 184.096
55.54000 180.790
55.55000 177.927
55.56000 175.381
55.57000 173.101
55.58000 174.278
55.59000 176.519
55.60000 177.818
55.61000 172.107
55.62000 164.967
55.63000 158.960
55.64000 168.980
55.65000 179.046
55.66000 185.612
55.67000 181.251
55.68000 176.102
55.69000 173.685
55.70000 177.032
55.71000 180.565
55.72000 182.640
55.73000 183.025
55.74000 183.286
55.75000 182.807
55.76000 181.651
55.77000 180.484
55.78000 178.602
55.79000 176.290
55.80000 174.053
55.81000 176.854
55.82000 181.426
55.83000 185.305
55.84000 181.693
55.85000 176.042
55.86000 171.452
55.87000 173.675
55.88000 177.110
55.89000 179.929
55.90000 179.873
55.91000 179.569
55.92000 178.702
55.93000 176.273
55.94000 173.753
55.95000 171.411
55.96000 169.402
55.97000 167.400
55.98000 166.289
55.99000 167.033
56.00000 167.559
56.01000 170.694
56.02000 175.913
56.03000 181.035
56.04000 182.073
56.05000 180.942
56.06000 179.859
56.07000 178.863
56.08000 177.963
56.09000 177.123
56.10000 176.826
56.11000 176.660
56.12000 176.251
56.13000 174.487
56.14000 172.514
56.15000 170.937
56.16000 175.611
56.17000 179.850
56.18000 182.871
56.19000 182.902
56.20000 182.796
56.21000 182.713
56.22000 182.669
56.23000 182.626
56.24000 182.604
56.25000 171.643
56.26000 164.301
56.27000 166.282
56.28000 174.806
56.29000 183.112
56.30000 184.755
56.31000 183.265
56.32000 181.853
56.33000 183.052
56.34000 184.921
56.35000 186.201
56.36000 182.917
56.37000 178.670
56.38000 175.694
56.39000 178.898
56.40000 182.926
56.41000 186.052
56.42000 186.338
56.43000 186.394
56.44000 184.676
56.45000 179.096
56.46000 173.381
56.47000 167.646
56.48000 161.883
56.49000 156.120
56.50000 154.822
56.51000 157.747
56.52000 160.682
56.53000 164.367
56.54000 168.518
56.55000 172.620
56.56000 175.616
56.57000 178.152
56.58000 180.523
56.59000 178.243
56.60000 174.983
56.61000 172.127
56.62000 171.961
56.63000 172.292
56.64000 171.561
56.65000 166.297
56.66000 160.517
56.67000 156.171
56.68000 158.617
56.69000 160.858
56.70000 163.819
56.71000 168.172
56.72000 172.560
56.73000 174.232
56.74000 172.412
56.75000 170.580
56.76000 167.639
56.77000 163.794
56.78000 160.035
56.79000 160.358
56.80000 162.915
56.81000 165.369
56.82000 165.960
56.83000 165.861
56.84000 165.771
56.85000 168.710
56.86000 172.017
56.87000 174.948
56.88000 175.715
56.89000 176.135
56.90000 176.005
56.91000 173.805
56.92000 171.406
56.93000 169.664
56.94000 172.980
56.95000 175.722
56.96000 175.966
56.97000 171.939
56.98000 167.841
56.99000 165.737
57.00000 165.880
57.01000 166.024
57.02000 166.076
57.03000 166.061
57.04000 166.111
57.05000 168.307
57.06000 171.545
57.07000 174.352
57.08000 170.925
57.09000 165.454
57.10000 160.488
57.11000 161.231
57.12000 162.988
57.13000 165.078
57.14000 168.854
57.15000 172.863
57.16000 174.296
57.17000 167.156
57.18000 159.332
57.19000 153.856
57.20000 161.637
57.21000 167.896
57.22000 172.014
57.23000 172.899
57.24000 173.751
57.25000 171.471
57.26000 166.119
57.27000 160.806
57.28000 158.381
57.29000 157.812
57.30000 157.449
57.31000 162.151
57.32000 169.033
57.33000 175.305
57.34000 174.320
57.35000 171.228
57.36000 168.470
57.37000 168.685
57.38000 169.367
57.39000 169.672
57.40000 168.317
57.41000 166.764
57.42000 166.317
57.43000 169.130
57.44000 172.155
57.45000 174.187
57.46000 166.848
57.47000 161.204
57.48000 158.192
57.49000 158.682
57.50000 159.190
57.51000 160.460
57.52000 162.383
57.53000 164.283
57.54000 167.389
57.55000 171.081
57.56000 174.464
57.57000 171.940
57.58000 167.160
57.59000 162.681
57.60000 161.193
57.61000 160.473
57.62000 159.842
57.63000 167.676
57.64000 175.598
57.65000 181.216
57.66000 177.868
57.67000 173.619
57.68000 169.831
57.69000 167.245
57.70000 164.723
57.71000 163.101
57.72000 166.813
57.73000 169.595
57.74000 170.099
57.75000 167.949
57.76000 165.803
57.77000 165.467
57.78000 166.488
57.79000 167.491
57.80000 167.913
57.81000 168.040
57.82000 168.203
57.83000 168.917
57.84000 169.818
57.85000 170.491
57.86000 169.245
57.87000 167.565
57.88000 166.127
57.89000 164.805
57.90000 163.704
57.91000 163.024
57.92000 163.793
57.93000 164.684
57.94000 164.802
57.95000 163.128
57.96000 161.381
57.97000 160.312
57.98000 161.736
57.99000 162.776
58.00000 162.722
58.01000 161.554
58.02000 160.398
58.03000 160.376
58.04000 161.103
58.05000 161.811
58.06000 165.754
58.07000 170.887
58.08000 175.329
58.09000 171.144
58.10000 164.373
58.11000 158.578
58.12000 159.814
58.13000 162.441
58.14000 164.641
58.15000 163.370
58.16000 161.958
58.17000 160.635
58.18000 159.584
58.19000 158.550
58.20000 158.714
58.21000 161.337
58.22000 164.034
58.23000 165.599
58.24000 166.101
58.25000 166.447
58.26000 164.866
58.27000 161.577
58.28000 158.391
58.29000 161.171
58.30000 167.435
58.31000 173.485
58.32000 173.064
58.33000 170.263
58.34000 167.302
58.35000 162.676
58.36000 157.609
58.37000 153.537
58.38000 155.660
58.39000 158.851
58.40000 161.457
58.41000 162.065
58.42000 162.390
58.43000 162.114
58.44000 160.214
58.45000 158.224
58.46000 157.620
58.47000 159.538
58.48000 161.510
58.49000 162.589
58.50000 165.761
58.51000 167.937
58.52000 168.100
58.53000 166.702
58.54000 165.313
58.55000 164.284
58.56000 163.441
58.57000 162.635
58.58000 159.585
58.59000 156.018
58.60000 153.174
58.61000 156.677
58.62000 161.662
58.63000 166.515
58.64000 170.658
58.65000 174.694
58.66000 177.900
58.67000 171.526
58.68000 165.714
58.69000 161.270
58.70000 160.098
58.71000 159.068
58.72000 159.387
58.73000 161.880
58.74000 164.402
58.75000 165.697
58.76000 170.560
58.77000 173.792
58.78000 172.539
58.79000 168.224
58.80000 163.866
58.81000 158.249
58.82000 152.056
58.83000 146.204
58.84000 150.361
58.85000 157.022
58.86000 163.002
58.87000 163.869
58.88000 163.688
58.89000 163.579
58.90000 163.808
58.91000 164.080
58.92000 164.291
58.93000 165.437
58.94000 166.399
58.95000 165.295
58.96000 159.807
58.97000 154.175
58.98000 154.158
58.99000 162.121
59.00000 170.142
59.01000 174.839
59.02000 176.483
59.03000 178.004
59.04000 171.328
59.05000 159.712
59.06000 148.488
59.07000 145.781
59.08000 146.537
59.09000 147.242
59.10000 146.443
59.11000 145.347
59.12000 144.530
59.13000 145.509
59.14000 146.809
59.15000 148.140
59.16000 149.597
59.17000 151.068
59.18000 152.166
59.19000 154.748
59.20000 156.827
59.21000 159.757
59.22000 164.286
59.23000 168.853
59.24000 170.779
59.25000 169.406
59.26000 168.025
59.27000 166.767
59.28000 165.612
59.29000 164.461
59.30000 163.509
59.31000 162.663
59.32000 161.737
59.33000 159.446
59.34000 156.662
59.35000 154.103
59.36000 151.393
59.37000 148.941
59.38000 147.308
59.39000 150.266
59.40000 153.939
59.41000 156.632
59.42000 155.734
59.43000 154.504
59.44000 153.617
59.45000 155.212
59.46000 156.522
59.47000 157.107
59.48000 156.485
59.49000 155.845
59.50000 158.612
59.51000 165.105
59.52000 171.572
59.53000 170.798
59.54000 164.976
59.55000 159.286
59.56000 157.668
59.57000 157.975
59.58000 158.195
59.59000 157.212
59.60000 155.844
59.61000 154.607
59.62000 155.127
59.63000 155.914
59.64000 156.373
59.65000 155.230
59.66000 153.871
59.67000 152.613
59.68000 151.678
59.69000 150.767
59.70000 150.136
59.71000 151.736
59.72000 153.001
59.73000 154.795
59.74000 157.367
59.75000 159.945
59.76000 158.453
59.77000 153.089
59.78000 147.768
59.79000 147.133
59.80000 149.372
59.81000 151.488
59.82000 150.729
59.83000 148.763
59.84000 147.448
59.85000 153.568
59.86000 161.788
59.87000 169.090
59.88000 168.860
59.89000 167.449
59.90000 165.270
59.91000 159.791
59.92000 153.935
59.93000 149.296
59.94000 148.149
59.95000 147.221
59.96000 146.603
59.97000 145.427
59.98000 144.547
59.99000 146.364
60.00000 151.670
60.01000 156.979
60.02000 156.938
60.03000 152.451
60.04000 148.025
60.05000 147.479
60.06000 149.026
60.07000 150.393
60.08000 148.490
60.09000 145.370
60.10000 143.005
60.11000 147.856
60.12000 154.508
60.13000 160.301
60.14000 157.974
60.15000 154.867
60.16000 152.530
60.17000 153.111
60.18000 153.974
60.19000 154.552
60.20000 154.405
60.21000 154.222
60.22000 154.106
60.23000 153.465
60.24000 152.992
60.25000 152.148
60.26000 150.883
60.27000 149.607
60.28000 146.598
60.29000 142.325
60.30000 138.136
60.31000 140.154
60.32000 145.012
60.33000 149.400
60.34000 146.953
60.35000 142.251
60.36000 138.600
60.37000 143.476
60.38000 150.224
60.39000 155.976
60.40000 158.648
60.41000 160.534
60.42000 161.141
60.43000 157.471
60.44000 153.456
60.45000 150.898
60.46000 151.630
60.47000 152.487
60.48000 153.006
60.49000 143.418
60.50000 136.507
60.51000 137.258
60.52000 145.565
60.53000 153.791
60.54000 155.051
60.55000 151.831
60.56000 148.699
60.57000 151.067
60.58000 155.585
60.59000 159.287
60.60000 153.228
60.61000 144.319
60.62000 137.066
60.63000 141.356
60.64000 147.865
60.65000 153.284
60.66000 155.756
60.67000 157.512
60.68000 157.874
60.69000 154.109
60.70000 150.071
60.71000 148.665
60.72000 152.527
60.73000 156.537
60.74000 158.836
60.75000 151.515
60.76000 146.371
60.77000 146.051
60.78000 149.880
60.79000 153.678
60.80000 155.852
60.81000 157.102
60.82000 158.308
60.83000 155.968
60.84000 152.490
60.85000 149.267
60.86000 148.595
60.87000 148.579
60.88000 148.549
60.89000 148.428
60.90000 148.291
60.91000 148.181
60.92000 142.453
60.93000 137.320
60.94000 134.419
60.95000 137.382
60.96000 140.654
60.97000 143.682
60.98000 146.278
60.99000 148.865
61.00000 150.262
61.01000 154.819
61.02000 157.936
61.03000 160.186
61.04000 161.783
61.05000 163.173
61.06000 157.023
61.07000 147.079
61.08000 137.593
61.09000 142.181
61.10000 150.883
61.11000 158.603
61.12000 157.999
61.13000 155.505
61.14000 153.060
61.15000 150.870
61.16000 148.716
61.17000 147.016
61.18000 144.777
61.19000 142.944
61.20000 140.954
61.21000 138.600
61.22000 136.231
61.23000 137.414
61.24000 144.167
61.25000 150.987
61.26000 154.437
61.27000 153.436
61.28000 152.773
61.29000 152.805
61.30000 153.299
61.31000 153.756
61.32000 153.223
61.33000 152.249
61.34000 151.330
61.35000 147.551
61.36000 143.302
61.37000 139.496
61.38000 138.899
61.39000 138.942
61.40000 139.853
61.41000 144.757
61.42000 150.158
61.43000 154.294
61.44000 151.186
61.45000 148.335
61.46000 146.241
61.47000 145.710
61.48000 145.227
61.49000 143.911
61.50000 141.441
61.51000 138.966
61.52000 138.510
61.53000 139.851
61.54000 141.206
61.55000 143.354
61.56000 145.967
61.57000 148.464
61.58000 148.566
61.59000 147.720
61.60000 146.933
61.61000 146.012
61.62000 145.148
61.63000 144.664
61.64000 146.557
61.65000 148.862
61.66000 150.359
61.67000 148.588
61.68000 146.471
61.69000 144.902
61.70000 152.236
61.71000 158.318
61.72000 159.685
61.73000 152.417
61.74000 144.963
61.75000 142.009
61.76000 144.519
61.77000 147.037
61.78000 148.458
61.79000 149.022
61.80000 149.572
61.81000 149.582
61.82000 149.310
61.83000 148.904
61.84000 146.301
61.85000 142.927
61.86000 139.837
61.87000 138.413
61.88000 137.494
61.89000 136.698
61.90000 136.567
61.91000 136.536
61.92000 137.279
61.93000 140.781
61.94000 144.527
61.95000 147.205
61.96000 144.869
61.97000 142.918
61.98000 141.986
61.99000 142.706
62.00000 143.448
62.01000 143.153
62.02000 141.758
62.03000 140.369
62.04000 140.466
62.05000 141.569
62.06000 142.638
62.07000 142.694
62.08000 142.285
62.09000 142.169
62.10000 145.935
62.11000 150.910
62.12000 155.392
62.13000 154.508
62.14000 152.763
62.15000 150.902
62.16000 148.494
62.17000 146.014
62.18000 143.574
62.19000 141.255
62.20000 138.945
62.21000 137.357
62.22000 141.152
62.23000 144.134
62.24000 145.156
62.25000 143.379
62.26000 141.581
62.27000 139.674
62.28000 137.666
62.29000 135.676
62.30000 135.674
62.31000 136.853
62.32000 138.097
62.33000 140.785
62.34000 144.063
62.35000 146.750
62.36000 142.964
62.37000 137.397
62.38000 132.472
62.39000 137.329
62.40000 143.049
62.41000 147.663
62.42000 147.651
62.43000 147.129
62.44000 146.705
62.45000 146.555
62.46000 146.422
62.47000 146.334
62.48000 142.484
62.49000 139.582
62.50000 138.227
62.51000 138.817
62.52000 139.421
62.53000 142.842
62.54000 148.537
62.55000 154.148
62.56000 156.734
62.57000 157.668
62.58000 158.393
62.59000 155.512
62.60000 151.323
62.61000 147.350
62.62000 145.367
62.63000 143.867
62.64000 142.567
62.65000 146.786
62.66000 151.112
62.67000 153.758
62.68000 150.209
62.69000 146.083
62.70000 143.597
62.71000 145.176
62.72000 146.946
62.73000 148.061
62.74000 147.896
62.75000 147.763
62.76000 148.057
62.77000 148.821
62.78000 149.571
62.79000 148.243
62.80000 145.441
62.81000 142.699
62.82000 140.675
62.83000 139.059
62.84000 137.674
62.85000 139.521
62.86000 142.404
62.87000 145.057
62.88000 145.895
62.89000 146.347
62.90000 146.730
62.91000 145.180
62.92000 143.663
62.93000 141.806
62.94000 138.846
62.95000 135.801
62.96000 134.391
62.97000 136.579
62.98000 138.895
62.99000 140.282
63.00000 137.639
63.01000 135.737
63.02000 135.703
63.03000 137.456
63.04000 139.214
63.05000 141.384
63.06000 143.811
63.07000 146.167
63.08000 148.238
63.09000 150.089
63.10000 151.579
63.11000 148.929
63.12000 145.102
63.13000 141.793
63.14000 141.976
63.15000 142.812
63.16000 143.504
63.17000 142.993
63.18000 142.458
63.19000 141.529
63.20000 139.470
63.21000 137.339
63.22000 136.241
63.23000 137.160
63.24000 138.131
63.25000 138.681
63.26000 138.175
63.27000 137.824
63.28000 139.082
63.29000 141.686
63.30000 144.273
63.31000 146.058
63.32000 147.398
63.33000 148.687
63.34000 147.225
63.35000 144.890
63.36000 142.828
63.37000 143.394
63.38000 144.621
63.39000 146.041
63.40000 148.599
63.41000 151.340
63.42000 153.552
63.43000 148.904
63.44000 144.583
63.45000 140.821
63.46000 138.486
63.47000 136.223
63.48000 135.023
63.49000 135.661
63.50000 136.331
63.51000 136.688
63.52000 135.504
63.53000 134.706
63.54000 135.641
63.55000 137.847
63.56000 140.017
63.57000 141.015
63.58000 141.438
63.59000 141.840
63.60000 142.796
63.61000 143.852
63.62000 144.691
63.63000 143.766
63.64000 142.452
63.65000 141.110
63.66000 139.632
63.67000 138.135
63.68000 136.960
63.69000 136.766
63.70000 136.675
63.71000 136.493
63.72000 136.107
63.73000 135.712
63.74000 137.071
63.75000 141.106
63.76000 145.169
63.77000 149.469
63.78000 154.003
63.79000 158.447
63.80000 155.024
63.81000 146.516
63.82000 138.203
63.83000 134.807
63.84000 133.550
63.85000 132.368
63.86000 135.103
63.87000 138.649
63.88000 141.660
63.89000 140.920
63.90000 139.455
63.91000 138.068
63.92000 137.030
63.93000 136.035
63.94000 135.278
63.95000 135.228
63.96000 135.226
63.97000 135.796
63.98000 137.519
63.99000 139.275
64.00000 139.602
64.01000 138.009
64.02000 136.406
64.03000 138.059
64.04000 142.520
64.05000 146.867
64.06000 145.009
64.07000 139.605
64.08000 134.538
64.09000 136.030
64.10000 140.054
64.11000 143.783
64.12000 143.090
64.13000 141.435
64.14000 139.710
64.15000 137.559
64.16000 135.337
64.17000 134.031
64.18000 136.328
64.19000 138.992
64.20000 140.951
64.21000 137.243
64.22000 134.141
64.23000 133.466
64.24000 137.120
64.25000 140.860
64.26000 141.336
64.27000 137.964
64.28000 134.594
64.29000 134.246
64.30000 136.176
64.31000 138.029
64.32000 137.041
64.33000 134.615
64.34000 132.390
64.35000 133.276
64.36000 135.228
64.37000 137.009
64.38000 138.784
64.39000 140.358
64.40000 141.484
64.41000 140.247
64.42000 138.666
64.43000 137.836
64.44000 139.618
64.45000 141.623
64.46000 143.045
64.47000 147.132
64.48000 150.323
64.49000 151.526
64.50000 149.590
64.51000 147.616
64.52000 146.399
64.53000 145.962
64.54000 145.528
64.55000 146.692
64.56000 148.895
64.57000 151.127
64.58000 154.182
64.59000 157.606
64.60000 160.841
64.61000 161.681
64.62000 161.794
64.63000 161.896
64.64000 163.259
64.65000 164.671
64.66000 164.581
64.67000 157.545
64.68000 149.639
64.69000 145.519
64.70000 153.035
64.71000 161.367
64.72000 167.047
64.73000 163.347
64.74000 160.365
64.75000 158.522
64.76000 158.263
64.77000 158.013
64.78000 155.420
64.79000 150.728
64.80000 146.084
64.81000 141.998
64.82000 138.323
64.83000 134.780
64.84000 133.958
64.85000 134.221
64.86000 134.519
64.87000 135.186
64.88000 135.952
64.89000 136.627
64.90000 135.936
64.91000 135.136
64.92000 135.157
64.93000 138.516
64.94000 142.230
64.95000 144.925
64.96000 144.844
64.97000 144.607
64.98000 144.452
64.99000 146.726
65.00000 148.434
65.01000 149.357
65.02000 149.319
65.03000 149.281
65.04000 149.820
65.05000 150.811
65.06000 151.787
65.07000 148.317
65.08000 142.708
65.09000 137.289
65.10000 134.991
65.11000 133.795
65.12000 132.964
65.13000 135.375
65.14000 138.552
65.15000 141.294
65.16000 142.750
65.17000 143.819
65.18000 144.576
65.19000 144.208
65.20000 143.741
65.21000 143.725
65.22000 144.801
65.23000 145.926
65.24000 146.627
65.25000 140.487
65.26000 135.992
65.27000 134.207
65.28000 135.314
65.29000 136.440
65.30000 139.841
65.31000 144.811
65.32000 149.668
65.33000 149.728
65.34000 147.657
65.35000 145.708
65.36000 145.379
65.37000 145.558
65.38000 145.898
65.39000 147.467
65.40000 149.290
65.41000 150.828
65.42000 148.109
65.43000 145.374
65.44000 143.975
65.45000 146.819
65.46000 149.977
65.47000 151.090
65.48000 147.817
65.49000 144.398
65.50000 142.375
65.51000 142.122
65.52000 141.953
65.53000 142.247
65.54000 142.971
65.55000 143.687
65.56000 143.788
65.57000 143.516
65.58000 143.251
65.59000 144.779
65.60000 146.921
65.61000 148.824
65.62000 148.082
65.63000 146.608
65.64000 146.225
65.65000 152.966
65.66000 160.999
65.67000 167.614
65.68000 159.201
65.69000 150.905
65.70000 145.791
65.71000 149.620
65.72000 153.986
65.73000 156.885
65.74000 156.998
65.75000 157.044
65.76000 157.070
65.77000 151.655
65.78000 147.910
65.79000 150.907
65.80000 159.377
65.81000 167.691
65.82000 169.011
65.83000 166.560
65.84000 164.208
65.85000 163.999
65.86000 164.534
65.87000 164.894
65.88000 163.635
65.89000 161.980
65.90000 160.802
65.91000 162.328
65.92000 164.278
65.93000 165.843
65.94000 164.361
65.95000 162.929
65.96000 161.114
65.97000 158.342
65.98000 155.524
65.99000 154.166
66.00000 155.263
66.01000 156.398
66.02000 156.994
66.03000 163.482
66.04000 167.827
66.05000 164.286
66.06000 155.120
66.07000 146.204
66.08000 145.212
66.09000 148.007
66.10000 150.659
66.11000 152.056
66.12000 152.970
66.13000 153.563
66.14000 151.620
66.15000 149.133
66.16000 147.729
66.17000 151.686
66.18000 156.371
66.19000 160.022
66.20000 157.024
66.21000 154.222
66.22000 152.542
66.23000 153.340
66.24000 154.228
66.25000 153.366
66.26000 149.903
66.27000 146.417
66.28000 145.391
66.29000 146.734
66.30000 148.078
66.31000 149.579
66.32000 151.177
66.33000 152.791
66.34000 154.767
66.35000 156.898
66.36000 158.894
66.37000 156.002
66.38000 152.099
66.39000 148.988
66.40000 151.258
66.41000 154.537
66.42000 156.953
66.43000 155.615
66.44000 153.843
66.45000 152.504
66.46000 153.559
66.47000 154.505
66.48000 154.992
66.49000 154.579
66.50000 154.142
66.51000 156.215
66.52000 161.571
66.53000 166.937
66.54000 167.748
66.55000 164.740
66.56000 161.736
66.57000 158.903
66.58000 156.166
66.59000 153.505
66.60000 152.257
66.61000 151.541
66.62000 150.879
66.63000 155.703
66.64000 161.275
66.65000 165.751
66.66000 163.791
66.67000 160.779
66.68000 158.805
66.69000 160.809
66.70000 163.203
66.71000 164.950
66.72000 157.568
66.73000 151.522
66.74000 149.552
66.75000 154.657
66.76000 159.889
66.77000 162.960
66.78000 163.554
66.79000 164.143
66.80000 165.170
66.81000 166.510
66.82000 167.747
66.83000 165.440
66.84000 161.386
66.85000 157.476
66.86000 155.709
66.87000 154.655
66.88000 153.697
66.89000 159.333
66.90000 165.612
66.91000 170.209
66.92000 166.180
66.93000 160.933
66.94000 157.925
66.95000 162.487
66.96000 167.668
66.97000 171.312
66.98000 166.707
66.99000 162.974
67.00000 161.060
67.01000 161.935
67.02000 162.840
67.03000 162.385
67.04000 160.570
67.05000 158.768
67.06000 157.208
67.07000 155.827
67.08000 154.528
67.09000 155.345
67.10000 157.086
67.11000 158.736
67.12000 159.283
67.13000 159.504
67.14000 159.701
67.15000 164.605
67.16000 169.677
67.17000 173.870
67.18000 174.111
67.19000 173.873
67.20000 172.252
67.21000 166.492
67.22000 160.454
67.23000 156.376
67.24000 158.820
67.25000 160.779
67.26000 161.911
67.27000 161.924
67.28000 161.932
67.29000 162.749
67.30000 164.268
67.31000 165.770
67.32000 165.384
67.33000 163.949
67.34000 162.610
67.35000 163.154
67.36000 164.429
67.37000 165.743
67.38000 167.453
67.39000 169.266
67.40000 170.857
67.41000 173.107
67.42000 175.136
67.43000 176.076
67.44000 172.715
67.45000 168.911
67.46000 167.202
67.47000 171.048
67.48000 175.194
67.49000 177.873
67.50000 178.507
67.51000 178.940
67.52000 176.361
67.53000 170.207
67.54000 164.083
67.55000 166.027
67.56000 174.124
67.57000 182.081
67.58000 182.968
67.59000 180.350
67.60000 178.190
67.61000 183.212
67.62000 190.703
67.63000 196.828
67.64000 191.227
67.65000 182.934
67.66000 175.810
67.67000 171.763
67.68000 168.723
67.69000 167.508
67.70000 172.667
67.71000 178.373
67.72000 182.182
67.73000 181.525
67.74000 180.681
67.75000 180.161
67.76000 185.548
67.77000 189.468
67.78000 190.906
67.79000 189.774
67.80000 188.631
67.81000 186.276
67.82000 183.108
67.83000 180.017
67.84000 182.315
67.85000 186.833
67.86000 190.897
67.87000 189.164
67.88000 185.664
67.89000 182.444
67.90000 181.266
67.91000 180.500
67.92000 179.857
67.93000 181.565
67.94000 183.235
67.95000 184.443
67.96000 184.226
67.97000 183.908
67.98000 183.968
67.99000 184.817
68.00000 185.691
68.01000 186.202
68.02000 186.979
68.03000 187.528
68.04000 188.211
68.05000 189.015
68.06000 189.847
68.07000 192.353
68.08000 195.852
68.09000 199.236
68.10000 200.975
68.11000 201.995
68.12000 202.828
68.13000 201.665
68.14000 199.965
68.15000 198.665
68.16000 199.896
68.17000 201.572
68.18000 202.945
68.19000 205.051
68.20000 206.842
68.21000 207.691
68.22000 205.962
68.23000 204.086
68.24000 201.349
68.25000 197.020
68.26000 192.656
68.27000 190.247
68.28000 197.848
68.29000 203.096
68.30000 205.328
68.31000 205.179
68.32000 205.044
68.33000 205.477
68.34000 206.209
68.35000 206.910
68.36000 210.067
68.37000 213.823
68.38000 217.339
68.39000 218.708
68.40000 219.568
68.41000 220.371
68.42000 220.859
68.43000 221.299
68.44000 221.649
68.45000 226.369
68.46000 230.494
68.47000 231.916
68.48000 226.773
68.49000 221.335
68.50000 221.522
68.51000 230.920
68.52000 240.450
68.53000 245.385
68.54000 240.212
68.55000 236.762
68.56000 238.478
68.57000 243.777
68.58000 249.097
68.59000 255.064
68.60000 261.331
68.61000 267.263
68.62000 267.843
68.63000 266.829
68.64000 266.168
68.65000 268.213
68.66000 270.821
68.67000 273.182
68.68000 274.351
68.69000 275.365
68.70000 276.149
68.71000 290.493
68.72000 302.683
68.73000 314.054
68.74000 323.660
68.75000 333.206
68.76000 340.054
68.77000 343.003
68.78000 345.919
68.79000 352.096
68.80000 361.313
68.81000 370.598
68.82000 384.651
68.83000 401.624
68.84000 418.338
68.85000 429.251
68.86000 437.768
68.87000 445.726
68.88000 466.773
68.89000 489.172
68.90000 513.301
68.91000 548.815
68.92000 586.404
68.93000 622.136
68.94000 650.028
68.95000 677.041
68.96000 697.294
68.97000 747.924
68.98000 788.898
68.99000 831.912
69.00000 878.823
69.01000 925.829
69.02000 973.887
69.03000 1023.281
69.04000 1072.613
69.05000 1130.141
69.06000 1194.130
69.07000 1257.883
69.08000 1310.921
69.09000 1358.154
69.10000 1405.072
69.11000 1446.450
69.12000 1485.800
69.13000 1522.039
69.14000 1549.107
69.15000 1571.309
69.16000 1591.701
69.17000 1601.765
69.18000 1610.193
69.19000 1617.097
69.20000 1618.324
69.21000 1619.014
69.22000 1619.513
69.23000 1619.192
69.24000 1618.915
69.25000 1608.799
69.26000 1582.047
69.27000 1555.024
69.28000 1530.639
69.29000 1509.187
69.30000 1487.821
69.31000 1463.261
69.32000 1436.661
69.33000 1409.873
69.34000 1377.044
69.35000 1341.314
69.36000 1305.012
69.37000 1260.596
69.38000 1213.547
69.39000 1170.907
69.40000 1121.870
69.41000 1077.415
69.42000 1034.279
69.43000 997.708
69.44000 962.036
69.45000 924.881
69.46000 882.846
69.47000 840.429
69.48000 810.849
69.49000 781.440
69.50000 759.245
69.51000 732.709
69.52000 699.687
69.53000 666.602
69.54000 638.663
69.55000 615.707
69.56000 592.924
69.57000 567.043
69.58000 539.672
69.59000 512.264
69.60000 483.937
69.61000 455.220
69.62000 427.814
69.63000 415.721
69.64000 408.026
69.65000 401.174
69.66000 385.744
69.67000 370.931
69.68000 357.189
69.69000 348.125
69.70000 339.607
69.71000 329.710
69.72000 315.792
69.73000 301.615
69.74000 292.127
69.75000 294.646
69.76000 296.752
69.77000 292.702
69.78000 280.555
69.79000 268.381
69.80000 261.116
69.81000 257.999
69.82000 254.922
69.83000 249.022
69.84000 241.736
69.85000 234.574
69.86000 229.707
69.87000 225.707
69.88000 222.380
69.89000 225.622
69.90000 230.530
69.91000 234.815
69.92000 227.056
69.93000 218.720
69.94000 212.424
69.95000 213.975
69.96000 216.301
69.97000 217.996
69.98000 218.055
69.99000 218.031
70.00000 218.015
