20.00000 573.569
20.01000 574.551
20.02000 575.672
20.03000 575.646
20.04000 571.162
20.05000 566.233
20.06000 562.623
20.07000 560.900
20.08000 559.646
20.09000 559.614
20.10000 561.725
20.11000 563.874
20.12000 560.452
20.13000 550.610
20.14000 540.792
20.15000 544.805
20.16000 558.927
20.17000 572.671
20.18000 573.418
20.19000 567.764
20.20000 562.158
20.21000 557.236
20.22000 552.541
20.23000 548.275
20.24000 554.226
20.25000 561.474
20.26000 567.128
20.27000 564.700
20.28000 561.145
20.29000 559.544
20.30000 564.463
20.31000 569.905
20.32000 573.712
20.33000 553.991
20.34000 538.417
20.35000 532.638
20.36000 541.593
20.37000 550.694
20.38000 558.268
20.39000 564.355
20.40000 570.397
20.41000 566.506
20.42000 556.499
20.43000 546.796
20.44000 544.388
20.45000 545.081
20.46000 546.024
20.47000 549.861
20.48000 554.525
20.49000 558.672
20.50000 559.908
20.51000 560.508
20.52000 559.323
20.53000 550.432
20.54000 540.654
20.55000 535.989
20.56000 546.018
20.57000 556.966
20.58000 564.247
20.59000 559.633
20.60000 555.996
20.61000 556.478
20.62000 562.258
20.63000 568.053
20.64000 571.659
20.65000 573.463
20.66000 575.242
20.67000 573.024
20.68000 568.752
20.69000 564.493
20.70000 560.449
20.71000 556.485
20.72000 552.773
20.73000 551.424
20.74000 550.655
20.75000 549.987
20.76000 555.398
20.77000 560.826
20.78000 566.121
20.79000 570.926
20.80000 575.686
20.81000 575.962
20.82000 565.116
20.83000 553.748
20.84000 546.600
20.85000 541.249
20.86000 537.400
20.87000 542.091
20.88000 556.115
20.89000 570.007
20.90000 565.649
20.91000 548.463
20.92000 531.654
20.93000 534.843
20.94000 546.912
20.95000 558.085
20.96000 557.080
20.97000 552.221
20.98000 548.284
20.99000 551.425
21.00000 556.046
21.01000 559.950
21.02000 555.993
21.03000 551.820
21.04000 547.942
21.05000 544.999
21.06000 542.126
21.07000 539.610
21.08000 537.860
21.09000 536.135
21.10000 535.117
21.11000 551.646
21.12000 563.417
21.13000 571.076
21.14000 574.948
21.15000 578.706
21.16000 574.916
21.17000 566.574
21.18000 558.498
21.19000 561.801
21.20000 569.286
21.21000 575.410
21.22000 566.857
21.23000 554.310
21.24000 543.807
21.25000 546.364
21.26000 551.236
21.27000 555.230
21.28000 556.276
21.29000 556.872
21.30000 559.914
21.31000 569.658
21.32000 579.787
21.33000 584.607
21.34000 579.619
21.35000 574.416
21.36000 571.551
21.37000 574.651
21.38000 576.789
21.39000 576.662
21.40000 574.762
21.41000 572.869
21.42000 571.236
21.43000 569.736
21.44000 568.303
21.45000 562.631
21.46000 555.971
21.47000 550.711
21.48000 557.701
21.49000 567.546
21.50000 575.820
21.51000 575.639
21.52000 574.199
21.53000 573.057
21.54000 575.098
21.55000 576.964
21.56000 582.161
21.57000 595.245
21.58000 608.664
21.59000 613.754
21.60000 605.605
21.61000 597.288
21.62000 593.057
21.63000 611.922
21.64000 624.470
21.65000 626.567
21.66000 621.671
21.67000 617.467
21.68000 631.938
21.69000 654.777
21.70000 676.303
21.71000 684.293
21.72000 687.871
21.73000 693.465
21.74000 713.636
21.75000 736.700
21.76000 758.656
21.77000 775.545
21.78000 791.808
21.79000 804.236
21.80000 827.107
21.81000 845.706
21.82000 867.678
21.83000 896.543
21.84000 925.611
21.85000 943.779
21.86000 947.101
21.87000 950.335
21.88000 966.817
21.89000 994.828
21.90000 1022.672
21.91000 1041.242
21.92000 1054.482
21.93000 1067.473
21.94000 1075.565
21.95000 1081.762
21.96000 1087.507
21.97000 1086.144
21.98000 1083.260
21.99000 1079.057
22.00000 1066.881
22.01000 1053.368
22.02000 1039.192
22.03000 1022.426
22.04000 1005.400
22.05000 992.911
22.06000 961.557
22.07000 936.572
22.08000 914.080
22.09000 895.978
22.10000 877.959
22.11000 863.553
22.12000 853.338
22.13000 843.160
22.14000 823.709
22.15000 797.560
22.16000 771.673
22.17000 754.959
22.18000 742.790
22.19000 729.884
22.20000 706.026
22.21000 678.511
22.22000 653.487
22.23000 644.603
22.24000 639.909
22.25000 634.551
22.26000 625.807
22.27000 616.587
22.28000 607.405
22.29000 598.350
22.30000 589.306
22.31000 582.966
22.32000 589.456
22.33000 594.735
22.34000 594.035
22.35000 584.285
22.36000 574.443
22.37000 569.943
22.38000 570.678
22.39000 571.407
22.40000 570.379
22.41000 568.266
22.42000 565.938
22.43000 558.409
22.44000 548.656
22.45000 540.131
22.46000 545.957
22.47000 555.909
22.48000 564.767
22.49000 558.078
22.50000 549.724
22.51000 542.464
22.52000 539.957
22.53000 538.001
22.54000 537.141
22.55000 539.451
22.56000 541.961
22.57000 543.634
22.58000 529.785
22.59000 519.235
22.60000 516.667
22.61000 524.434
22.62000 532.236
22.63000 536.812
22.64000 538.713
22.65000 540.589
22.66000 537.257
22.67000 531.243
22.68000 525.495
22.69000 524.514
22.70000 525.292
22.71000 525.878
22.72000 524.649
22.73000 522.973
22.74000 521.517
22.75000 523.787
22.76000 526.226
22.77000 528.987
22.78000 532.942
22.79000 537.010
22.80000 536.793
22.81000 525.884
22.82000 514.467
22.83000 507.270
22.84000 511.099
22.85000 513.997
22.86000 518.930
22.87000 526.099
22.88000 533.224
22.89000 533.810
22.90000 529.773
22.91000 525.823
22.92000 524.927
22.93000 525.451
22.94000 525.863
22.95000 524.728
22.96000 523.100
22.97000 521.464
22.98000 519.774
22.99000 518.071
23.00000 516.631
23.01000 514.766
23.02000 513.158
23.03000 512.812
23.04000 516.502
23.05000 520.495
23.06000 522.757
23.07000 521.290
23.08000 519.695
23.09000 518.751
23.10000 516.777
23.11000 515.375
23.12000 515.019
23.13000 515.633
23.14000 516.265
23.15000 518.107
23.16000 520.683
23.17000 523.179
23.18000 521.345
23.19000 517.939
23.20000 514.058
23.21000 504.992
23.22000 494.507
23.23000 485.827
23.24000 488.771
23.25000 493.788
23.26000 497.907
23.27000 507.953
23.28000 516.729
23.29000 524.245
23.30000 528.285
23.31000 532.124
23.32000 530.328
23.33000 518.060
23.34000 505.557
23.35000 498.652
23.36000 504.797
23.37000 509.051
23.38000 511.421
23.39000 512.307
23.40000 513.081
23.41000 509.257
23.42000 503.033
23.43000 497.078
23.44000 501.253
23.45000 508.463
23.46000 515.172
23.47000 517.457
23.48000 518.705
23.49000 519.518
23.50000 517.974
23.51000 516.076
23.52000 514.570
23.53000 508.540
23.54000 503.365
23.55000 502.821
23.56000 513.302
23.57000 524.256
23.58000 528.463
23.59000 521.877
23.60000 515.151
23.61000 511.718
23.62000 507.844
23.63000 505.290
23.64000 507.689
23.65000 513.423
23.66000 518.892
23.67000 517.108
23.68000 512.055
23.69000 507.289
23.70000 510.492
23.71000 515.641
23.72000 519.543
23.73000 514.359
23.74000 507.358
23.75000 502.434
23.76000 507.061
23.77000 512.878
23.78000 517.329
23.79000 513.653
23.80000 510.308
23.81000 510.444
23.82000 517.735
23.83000 525.240
23.84000 525.080
23.85000 514.414
23.86000 503.690
23.87000 498.463
23.88000 498.072
23.89000 497.687
23.90000 497.671
23.91000 497.867
23.92000 498.242
23.93000 502.153
23.94000 507.442
23.95000 512.347
23.96000 516.520
23.97000 520.107
23.98000 521.585
23.99000 510.230
24.00000 496.705
24.01000 486.568
24.02000 489.746
24.03000 494.280
24.04000 497.611
24.05000 494.100
24.06000 491.106
24.07000 490.612
24.08000 494.549
24.09000 498.572
24.10000 501.807
24.11000 504.123
24.12000 506.431
24.13000 505.836
24.14000 503.088
24.15000 500.300
24.16000 496.075
24.17000 491.135
24.18000 486.880
24.19000 492.955
24.20000 502.497
24.21000 511.183
24.22000 510.973
24.23000 509.031
24.24000 507.426
24.25000 507.559
24.26000 507.937
24.27000 508.058
24.28000 507.310
24.29000 506.490
24.30000 505.914
24.31000 494.564
24.32000 485.655
24.33000 482.419
24.34000 487.821
24.35000 493.315
24.36000 493.834
24.37000 489.446
24.38000 485.090
24.39000 487.782
24.40000 494.876
24.41000 501.767
24.42000 503.655
24.43000 503.392
24.44000 503.425
24.45000 506.949
24.46000 511.483
24.47000 515.523
24.48000 506.346
24.49000 496.191
24.50000 488.644
24.51000 492.501
24.52000 497.693
24.53000 500.933
24.54000 498.501
24.55000 495.707
24.56000 493.841
24.57000 499.765
24.58000 504.307
24.59000 506.067
24.60000 504.202
24.61000 502.321
24.62000 500.154
24.63000 497.750
24.64000 495.377
24.65000 494.335
24.66000 494.036
24.67000 493.758
24.68000 493.863
24.69000 494.110
24.70000 494.455
24.71000 495.729
24.72000 497.233
24.73000 498.541
24.74000 491.018
24.75000 483.393
24.76000 477.230
24.77000 476.536
24.78000 476.363
24.79000 477.713
24.80000 482.884
24.81000 488.240
24.82000 491.623
24.83000 492.992
24.84000 493.960
24.85000 487.899
24.86000 474.055
24.87000 460.296
24.88000 459.565
24.89000 468.108
24.90000 476.469
24.91000 480.674
24.92000 482.816
24.93000 485.003
24.94000 487.822
24.95000 490.843
24.96000 492.751
24.97000 485.993
24.98000 477.397
24.99000 470.119
25.00000 470.941
25.01000 472.533
25.02000 473.537
25.03000 472.647
25.04000 471.613
25.05000 471.956
25.06000 475.285
25.07000 478.718
25.08000 480.756
25.09000 473.804
25.10000 468.832
25.11000 468.506
25.12000 472.519
25.13000 476.509
25.14000 478.965
25.15000 480.484
25.16000 481.955
25.17000 479.783
25.18000 476.313
25.19000 473.547
25.20000 478.522
25.21000 485.630
25.22000 492.050
25.23000 494.013
25.24000 495.176
25.25000 496.132
25.26000 490.005
25.27000 484.334
25.28000 481.799
25.29000 487.967
25.30000 494.644
25.31000 496.214
25.32000 488.238
25.33000 480.042
25.34000 475.504
25.35000 481.862
25.36000 486.266
25.37000 488.636
25.38000 489.394
25.39000 490.234
25.40000 494.437
25.41000 500.408
25.42000 506.125
25.43000 495.922
25.44000 481.159
25.45000 468.393
25.46000 473.400
25.47000 482.603
25.48000 490.808
25.49000 493.566
25.50000 495.501
25.51000 497.039
25.52000 486.998
25.53000 478.081
25.54000 471.500
25.55000 470.511
25.56000 469.766
25.57000 470.767
25.58000 474.580
25.59000 478.431
25.60000 480.402
25.61000 481.118
25.62000 481.575
25.63000 479.420
25.64000 475.496
25.65000 471.624
25.66000 469.196
25.67000 467.424
25.68000 465.751
25.69000 464.204
25.70000 462.820
25.71000 462.482
25.72000 469.816
25.73000 478.694
25.74000 485.005
25.75000 479.432
25.76000 472.366
25.77000 466.951
25.78000 478.092
25.79000 487.806
25.80000 492.844
25.81000 488.211
25.82000 483.283
25.83000 481.062
25.84000 482.575
25.85000 484.110
25.86000 486.381
25.87000 489.300
25.88000 492.091
25.89000 487.440
25.90000 478.459
25.91000 469.905
25.92000 469.921
25.93000 473.292
25.94000 476.422
25.95000 482.155
25.96000 487.939
25.97000 492.769
25.98000 491.754
25.99000 489.744
26.00000 487.639
26.01000 485.158
26.02000 482.639
26.03000 480.785
26.04000 474.524
26.05000 469.496
26.06000 465.605
26.07000 463.740
26.08000 461.915
26.09000 460.956
26.10000 461.016
26.11000 461.077
26.12000 467.736
26.13000 479.284
26.14000 490.500
26.15000 489.739
26.16000 482.975
26.17000 476.291
26.18000 470.825
26.19000 465.769
26.20000 461.163
26.21000 454.701
26.22000 448.608
26.23000 445.161
26.24000 455.404
26.25000 467.598
26.26000 475.442
26.27000 468.510
26.28000 460.361
26.29000 454.626
26.30000 453.765
26.31000 453.256
26.32000 452.370
26.33000 450.906
26.34000 449.435
26.35000 452.501
26.36000 460.072
26.37000 467.591
26.38000 467.605
26.39000 462.855
26.40000 458.159
26.41000 454.788
26.42000 451.992
26.43000 449.350
26.44000 448.554
26.45000 448.294
26.46000 448.062
26.47000 452.701
26.48000 457.544
26.49000 462.644
26.50000 468.871
26.51000 475.231
26.52000 477.081
26.53000 465.737
26.54000 453.543
26.55000 445.379
26.56000 458.321
26.57000 468.339
26.58000 471.317
26.59000 465.063
26.60000 458.776
26.61000 457.210
26.62000 459.609
26.63000 461.978
26.64000 461.902
26.65000 460.509
26.66000 459.074
26.67000 456.852
26.68000 454.336
26.69000 452.306
26.70000 454.931
26.71000 458.718
26.72000 462.015
26.73000 449.687
26.74000 437.011
26.75000 428.875
26.76000 437.841
26.77000 448.447
26.78000 455.589
26.79000 453.979
26.80000 451.944
26.81000 450.655
26.82000 454.263
26.83000 456.938
26.84000 460.899
26.85000 466.294
26.86000 471.632
26.87000 468.408
26.88000 459.051
26.89000 449.889
26.90000 445.995
26.91000 444.674
26.92000 443.389
26.93000 442.611
26.94000 441.995
26.95000 441.846
26.96000 445.351
26.97000 449.636
26.98000 453.268
26.99000 464.060
27.00000 473.910
27.01000 479.861
27.02000 473.188
27.03000 465.550
27.04000 459.485
27.05000 456.850
27.06000 454.335
27.07000 452.838
27.08000 459.583
27.09000 464.411
27.10000 466.642
27.11000 466.430
27.12000 466.212
27.13000 465.512
27.14000 464.516
27.15000 463.550
27.16000 463.931
27.17000 464.818
27.18000 465.061
27.19000 458.154
27.20000 449.265
27.21000 441.948
27.22000 444.894
27.23000 449.697
27.24000 453.650
27.25000 453.152
27.26000 452.338
27.27000 451.928
27.28000 452.645
27.29000 453.429
27.30000 454.341
27.31000 455.496
27.32000 456.656
27.33000 457.301
27.34000 459.855
27.35000 461.611
27.36000 459.335
27.37000 453.844
27.38000 448.483
27.39000 448.640
27.40000 451.716
27.41000 454.661
27.42000 451.975
27.43000 447.598
27.44000 443.555
27.45000 442.508
27.46000 442.172
27.47000 443.031
27.48000 450.444
27.49000 458.855
27.50000 465.553
27.51000 463.411
27.52000 461.047
27.53000 459.732
27.54000 460.944
27.55000 462.267
27.56000 461.441
27.57000 457.138
27.58000 452.787
27.59000 450.552
27.60000 455.471
27.61000 458.731
27.62000 456.184
27.63000 449.680
27.64000 443.511
27.65000 446.799
27.66000 454.400
27.67000 461.578
27.68000 461.076
27.69000 458.451
27.70000 456.067
27.71000 455.460
27.72000 455.213
27.73000 455.466
27.74000 458.050
27.75000 460.929
27.76000 463.139
27.77000 452.320
27.78000 443.040
27.79000 436.603
27.80000 436.077
27.81000 435.735
27.82000 437.232
27.83000 441.283
27.84000 445.349
27.85000 448.133
27.86000 449.771
27.87000 451.289
27.88000 445.633
27.89000 435.779
27.90000 426.632
27.91000 431.855
27.92000 442.737
27.93000 452.845
27.94000 444.265
27.95000 432.077
27.96000 423.219
27.97000 434.916
27.98000 450.135
27.99000 461.849
28.00000 459.613
28.01000 455.930
28.02000 453.216
28.03000 454.530
28.04000 455.717
28.05000 455.248
28.06000 451.808
28.07000 448.309
28.08000 449.099
28.09000 454.964
28.10000 460.822
28.11000 462.441
28.12000 460.857
28.13000 459.274
28.14000 457.734
28.15000 456.216
28.16000 454.703
28.17000 453.259
28.18000 451.840
28.19000 450.545
28.20000 451.037
28.21000 451.830
28.22000 452.752
28.23000 454.346
28.24000 456.037
28.25000 458.278
28.26000 462.398
28.27000 466.674
28.28000 469.689
28.29000 459.897
28.30000 452.085
28.31000 446.905
28.32000 445.785
28.33000 444.710
28.34000 446.760
28.35000 451.936
28.36000 457.077
28.37000 456.723
28.38000 452.864
28.39000 449.053
28.40000 446.474
28.41000 444.431
28.42000 442.545
28.43000 442.561
28.44000 443.132
28.45000 443.643
28.46000 440.052
28.47000 436.241
28.48000 431.863
28.49000 424.979
28.50000 417.796
28.51000 413.522
28.52000 417.806
28.53000 422.649
28.54000 425.898
28.55000 434.990
28.56000 441.858
28.57000 439.638
28.58000 425.424
28.59000 411.184
28.60000 415.065
28.61000 434.266
28.62000 453.225
28.63000 455.084
28.64000 447.605
28.65000 440.389
28.66000 438.023
28.67000 437.479
28.68000 437.470
28.69000 442.619
28.70000 449.065
28.71000 454.682
28.72000 449.609
28.73000 443.793
28.74000 438.758
28.75000 436.685
28.76000 434.899
28.77000 433.572
28.78000 433.409
28.79000 433.303
28.80000 433.236
28.81000 436.355
28.82000 438.659
28.83000 440.526
28.84000 441.904
28.85000 443.267
28.86000 442.562
28.87000 440.365
28.88000 438.214
28.89000 430.023
28.90000 419.357
28.91000 410.083
28.92000 420.514
28.93000 437.333
28.94000 451.611
28.95000 445.799
28.96000 435.674
28.97000 427.081
28.98000 434.490
28.99000 442.521
29.00000 447.500
29.01000 442.538
29.02000 436.808
29.03000 433.474
29.04000 435.394
29.05000 437.500
29.06000 438.757
29.07000 431.787
29.08000 426.793
29.09000 424.205
29.10000 423.896
29.11000 423.617
29.12000 425.626
29.13000 429.049
29.14000 432.367
29.15000 430.092
29.16000 425.734
29.17000 422.131
29.18000 426.967
29.19000 434.156
29.20000 439.977
29.21000 436.806
29.22000 431.997
29.23000 428.034
29.24000 435.083
29.25000 441.893
29.26000 446.279
29.27000 443.856
29.28000 441.025
29.29000 438.079
29.30000 434.915
29.31000 431.745
29.32000 429.979
29.33000 430.236
29.34000 430.427
29.35000 433.578
29.36000 439.105
29.37000 444.530
29.38000 445.529
29.39000 444.174
29.40000 442.875
29.41000 439.500
29.42000 435.657
29.43000 432.218
29.44000 432.440
29.45000 433.536
29.46000 434.239
29.47000 432.767
29.48000 430.961
29.49000 429.521
29.50000 431.996
29.51000 434.279
29.52000 435.418
29.53000 433.786
29.54000 432.030
29.55000 432.476
29.56000 436.510
29.57000 440.594
29.58000 442.699
29.59000 434.282
29.60000 428.635
29.61000 425.773
29.62000 424.821
29.63000 424.073
29.64000 429.159
29.65000 436.923
29.66000 444.258
29.67000 444.894
29.68000 443.578
29.69000 442.368
29.70000 441.944
29.71000 441.681
29.72000 444.090
29.73000 459.036
29.74000 475.580
29.75000 488.300
29.76000 474.055
29.77000 461.263
29.78000 450.807
29.79000 445.241
29.80000 439.830
29.81000 439.689
29.82000 446.913
29.83000 454.182
29.84000 457.688
29.85000 457.815
29.86000 457.880
29.87000 454.161
29.88000 448.214
29.89000 442.942
29.90000 451.545
29.91000 465.644
29.92000 478.750
29.93000 483.684
29.94000 486.179
29.95000 487.380
29.96000 480.543
29.97000 472.318
29.98000 466.738
29.99000 471.750
30.00000 477.870
30.01000 482.389
30.02000 482.271
30.03000 481.983
30.04000 479.039
30.05000 471.304
30.06000 463.472
30.07000 456.709
30.08000 451.220
30.09000 445.748
30.10000 447.784
30.11000 455.499
30.12000 462.957
30.13000 460.814
30.14000 453.801
30.15000 447.215
30.16000 447.263
30.17000 449.580
30.18000 451.693
30.19000 448.849
30.20000 445.327
30.21000 442.911
30.22000 446.288
30.23000 450.504
30.24000 452.968
30.25000 449.409
30.26000 445.344
30.27000 442.473
30.28000 452.656
30.29000 460.785
30.30000 460.986
30.31000 448.888
30.32000 436.648
30.33000 435.512
30.34000 445.559
30.35000 455.540
30.36000 456.746
30.37000 452.290
30.38000 447.729
30.39000 440.493
30.40000 432.086
30.41000 424.755
30.42000 430.484
30.43000 440.059
30.44000 448.612
30.45000 450.662
30.46000 451.352
30.47000 451.557
30.48000 449.602
30.49000 447.388
30.50000 447.081
30.51000 452.424
30.52000 458.139
30.53000 461.981
30.54000 463.482
30.55000 464.549
30.56000 464.075
30.57000 461.553
30.58000 459.019
30.59000 455.393
30.60000 450.837
30.61000 446.338
30.62000 452.584
30.63000 464.545
30.64000 476.164
30.65000 481.380
30.66000 484.177
30.67000 486.797
30.68000 487.701
30.69000 488.171
30.70000 488.581
30.71000 486.482
30.72000 484.335
30.73000 483.655
30.74000 488.564
30.75000 494.020
30.76000 499.084
30.77000 503.149
30.78000 507.164
30.79000 509.719
30.80000 516.732
30.81000 521.884
30.82000 530.020
30.83000 541.528
30.84000 553.004
30.85000 558.930
30.86000 560.832
30.87000 562.696
30.88000 576.788
30.89000 596.034
30.90000 615.173
30.91000 632.776
30.92000 649.878
30.93000 667.801
30.94000 692.271
30.95000 718.157
30.96000 740.150
30.97000 785.501
30.98000 826.241
30.99000 872.793
31.00000 938.393
31.01000 1005.477
31.02000 1080.339
31.03000 1172.360
31.04000 1264.999
31.05000 1320.442
31.06000 1464.456
31.07000 1567.251
31.08000 1674.686
31.09000 1786.543
31.10000 1898.990
31.11000 2055.581
31.12000 2239.617
31.13000 2418.181
31.14000 2582.060
31.15000 2731.640
31.16000 2880.186
31.17000 3017.053
31.18000 3150.643
31.19000 3280.478
31.20000 3385.444
31.21000 3485.849
31.22000 3568.682
31.23000 3654.336
31.24000 3725.130
31.25000 3779.506
31.26000 3787.510
31.27000 3792.709
31.28000 3795.570
31.29000 3793.980
31.30000 3792.283
31.31000 3791.335
31.32000 3619.745
31.33000 3500.510
31.34000 3372.282
31.35000 3236.787
31.36000 3101.226
31.37000 2962.806
31.38000 2822.856
31.39000 2688.675
31.40000 2542.603
31.41000 2402.205
31.42000 2261.200
31.43000 2114.669
31.44000 1966.808
31.45000 1821.814
31.46000 1692.784
31.47000 1566.218
31.48000 1465.158
31.49000 1358.177
31.50000 1271.344
31.51000 1184.345
31.52000 1096.942
31.53000 1009.521
31.54000 943.779
31.55000 913.564
31.56000 883.862
31.57000 868.500
31.58000 798.942
31.59000 752.148
31.60000 719.690
31.61000 697.124
31.62000 674.510
31.63000 650.488
31.64000 625.815
31.65000 602.489
31.66000 592.789
31.67000 587.770
31.68000 581.495
31.69000 565.794
31.70000 548.159
31.71000 532.392
31.72000 525.441
31.73000 519.623
31.74000 515.143
31.75000 510.393
31.76000 506.617
31.77000 500.313
31.78000 488.687
31.79000 476.890
31.80000 468.127
31.81000 463.628
31.82000 459.160
31.83000 456.566
31.84000 455.666
31.85000 454.790
31.86000 455.397
31.87000 456.884
31.88000 458.323
31.89000 458.772
31.90000 458.826
31.91000 458.876
31.92000 456.172
31.93000 453.065
31.94000 449.155
31.95000 440.217
31.96000 430.406
31.97000 423.653
31.98000 429.226
31.99000 436.098
32.00000 441.181
32.01000 430.439
32.02000 421.426
32.03000 416.757
32.04000 419.972
32.05000 423.351
32.06000 425.989
32.07000 427.739
32.08000 429.482
32.09000 426.425
32.10000 419.724
32.11000 413.208
32.12000 413.754
32.13000 417.903
32.14000 421.572
32.15000 417.704
32.16000 411.243
32.17000 405.343
32.18000 409.219
32.19000 414.644
32.20000 418.548
32.21000 414.430
32.22000 409.142
32.23000 406.188
32.24000 411.309
32.25000 417.115
32.26000 421.223
32.27000 414.946
32.28000 409.856
32.29000 409.535
32.30000 416.660
32.31000 423.873
32.32000 424.371
32.33000 418.056
32.34000 411.782
32.35000 408.370
32.36000 406.860
32.37000 405.311
32.38000 402.718
32.39000 399.666
32.40000 396.918
32.41000 397.903
32.42000 399.994
32.43000 401.863
32.44000 401.797
32.45000 401.411
32.46000 401.631
32.47000 404.573
32.48000 407.842
32.49000 409.720
32.50000 407.448
32.51000 404.901
32.52000 403.185
32.53000 400.183
32.54000 397.924
32.55000 396.884
32.56000 397.473
32.57000 398.068
32.58000 396.728
32.59000 393.731
32.60000 390.770
32.61000 390.665
32.62000 392.134
32.63000 393.555
32.64000 394.063
32.65000 394.224
32.66000 393.409
32.67000 383.002
32.68000 370.155
32.69000 358.936
32.70000 365.272
32.71000 373.166
32.72000 378.834
32.73000 375.962
32.74000 372.249
32.75000 371.059
32.76000 376.358
32.77000 381.984
32.78000 385.573
32.79000 375.825
32.80000 368.564
32.81000 367.972
32.82000 374.966
32.83000 381.925
32.84000 381.661
32.85000 376.125
32.86000 370.698
32.87000 365.521
32.88000 360.654
32.89000 356.547
32.90000 363.411
32.91000 373.873
32.92000 383.083
32.93000 382.234
32.94000 379.198
32.95000 376.616
32.96000 377.020
32.97000 377.705
32.98000 377.020
32.99000 371.820
33.00000 366.265
33.01000 363.396
33.02000 366.487
33.03000 369.795
33.04000 371.780
33.05000 362.619
33.06000 356.037
33.07000 356.293
33.08000 363.114
33.09000 369.831
33.10000 368.543
33.11000 362.248
33.12000 356.138
33.13000 348.293
33.14000 340.159
33.15000 333.233
33.16000 340.076
33.17000 350.806
33.18000 360.115
33.19000 359.941
33.20000 358.016
33.21000 356.426
33.22000 360.845
33.23000 365.048
33.24000 367.435
33.25000 364.665
33.26000 361.580
33.27000 357.192
33.28000 350.309
33.29000 343.365
33.30000 339.473
33.31000 357.088
33.32000 369.322
33.33000 370.562
33.34000 362.860
33.35000 355.326
33.36000 355.253
33.37000 359.196
33.38000 362.979
33.39000 367.984
33.40000 373.074
33.41000 376.832
33.42000 368.330
33.43000 356.861
33.44000 348.451
33.45000 357.189
33.46000 368.593
33.47000 377.712
33.48000 367.642
33.49000 358.077
33.50000 349.850
33.51000 344.903
33.52000 340.106
33.53000 337.353
33.54000 337.972
33.55000 338.640
33.56000 338.986
33.57000 353.527
33.58000 363.287
33.59000 365.722
33.60000 363.070
33.61000 360.346
33.62000 355.491
33.63000 349.645
33.64000 344.116
33.65000 348.531
33.66000 355.450
33.67000 361.230
33.68000 358.406
33.69000 353.805
33.70000 349.516
33.71000 346.709
33.72000 344.094
33.73000 342.077
33.74000 342.927
33.75000 343.765
33.76000 344.168
33.77000 343.648
33.78000 343.099
33.79000 342.432
33.80000 341.601
33.81000 340.769
33.82000 343.001
33.83000 348.015
33.84000 352.932
33.85000 351.662
33.86000 346.706
33.87000 342.080
33.88000 344.440
33.89000 349.601
33.90000 354.405
33.91000 355.378
33.92000 355.328
33.93000 354.999
33.94000 352.915
33.95000 350.525
33.96000 348.145
33.97000 345.807
33.98000 343.474
33.99000 341.745
34.00000 341.796
34.01000 341.912
34.02000 340.868
34.03000 337.707
34.04000 334.501
34.05000 330.416
34.06000 325.271
34.07000 320.135
34.08000 320.711
34.09000 325.672
34.10000 330.562
34.11000 332.669
34.12000 333.347
34.13000 333.938
34.14000 333.135
34.15000 331.851
34.16000 330.677
34.17000 335.055
34.18000 340.078
34.19000 344.579
34.20000 346.304
34.21000 347.622
34.22000 348.451
34.23000 347.581
34.24000 346.566
34.25000 345.846
34.26000 339.795
34.27000 335.025
34.28000 334.340
34.29000 340.069
34.30000 345.877
34.31000 346.164
34.32000 340.815
34.33000 335.499
34.34000 332.532
34.35000 331.139
34.36000 329.887
34.37000 332.357
34.38000 336.475
34.39000 340.534
34.40000 343.851
34.41000 346.947
34.42000 349.717
34.43000 349.150
34.44000 348.085
34.45000 345.463
34.46000 335.814
34.47000 325.309
34.48000 318.181
34.49000 321.168
34.50000 324.836
34.51000 327.312
34.52000 329.029
34.53000 330.291
34.54000 332.192
34.55000 334.953
34.56000 337.711
34.57000 335.906
34.58000 330.163
34.59000 324.489
34.60000 318.901
34.61000 313.499
34.62000 308.603
34.63000 313.406
34.64000 321.918
34.65000 329.976
34.66000 333.531
34.67000 335.932
34.68000 338.032
34.69000 334.427
34.70000 330.530
34.71000 327.544
34.72000 328.075
34.73000 328.956
34.74000 329.269
34.75000 328.112
34.76000 326.880
34.77000 326.092
34.78000 317.876
34.79000 311.797
34.80000 311.398
34.81000 317.501
34.82000 323.604
34.83000 328.189
34.84000 331.659
34.85000 335.063
34.86000 334.796
34.87000 332.809
34.88000 330.550
34.89000 324.330
34.90000 316.802
34.91000 310.894
34.92000 318.104
34.93000 328.185
34.94000 336.770
34.95000 332.333
34.96000 327.086
34.97000 323.009
34.98000 322.809
34.99000 322.916
35.00000 321.266
35.01000 315.694
35.02000 309.976
35.03000 306.537
35.04000 304.482
35.05000 303.030
35.06000 305.538
35.07000 311.873
35.08000 318.092
35.09000 315.085
35.10000 306.272
35.11000 297.713
35.12000 304.141
35.13000 316.257
35.14000 327.087
35.15000 323.140
35.16000 314.996
35.17000 308.446
35.18000 312.608
35.19000 318.763
35.20000 323.853
35.21000 328.447
35.22000 332.190
35.23000 333.811
35.24000 329.368
35.25000 324.551
35.26000 319.234
35.27000 312.954
35.28000 306.649
35.29000 303.106
35.30000 312.541
35.31000 319.116
35.32000 323.264
35.33000 325.426
35.34000 327.625
35.35000 331.513
35.36000 336.314
35.37000 340.923
35.38000 340.367
35.39000 338.086
35.40000 335.281
35.41000 327.618
35.42000 318.772
35.43000 311.155
35.44000 310.468
35.45000 310.867
35.46000 311.186
35.47000 308.812
35.48000 306.691
35.49000 305.988
35.50000 308.787
35.51000 311.749
35.52000 314.843
35.53000 318.156
35.54000 321.474
35.55000 323.201
35.56000 316.803
35.57000 312.511
35.58000 312.634
35.59000 315.842
35.60000 319.037
35.61000 321.812
35.62000 324.391
35.63000 326.833
35.64000 318.424
35.65000 307.547
35.66000 297.967
35.67000 298.264
35.68000 300.614
35.69000 302.637
35.70000 303.098
35.71000 303.355
35.72000 303.554
35.73000 302.323
35.74000 301.263
35.75000 299.496
35.76000 296.221
35.77000 292.896
35.78000 292.191
35.79000 295.216
35.80000 298.267
35.81000 302.361
35.82000 307.406
35.83000 312.354
35.84000 311.073
35.85000 306.055
35.86000 301.536
35.87000 307.642
35.88000 318.034
35.89000 327.714
35.90000 320.068
35.91000 308.911
35.92000 300.196
35.93000 306.983
35.94000 316.500
35.95000 322.329
35.96000 313.106
35.97000 302.271
35.98000 294.227
35.99000 298.766
36.00000 302.847
36.01000 306.153
36.02000 308.034
36.03000 309.884
36.04000 309.296
36.05000 305.746
36.06000 302.196
36.07000 302.345
36.08000 305.353
36.09000 308.326
36.10000 309.912
36.11000 310.783
36.12000 311.906
36.13000 317.071
36.14000 323.644
36.15000 329.655
36.16000 323.103
36.17000 314.691
36.18000 307.266
36.19000 305.123
36.20000 303.760
36.21000 302.770
36.22000 303.085
36.23000 303.514
36.24000 303.818
36.25000 302.392
36.26000 301.252
36.27000 304.183
36.28000 313.548
36.29000 322.993
36.30000 323.979
36.31000 316.268
36.32000 308.601
36.33000 306.111
36.34000 307.050
36.35000 307.946
36.36000 307.678
36.37000 306.892
36.38000 305.980
36.39000 303.491
36.40000 300.528
36.41000 297.874
36.42000 302.144
36.43000 307.065
36.44000 312.109
36.45000 317.708
36.46000 323.375
36.47000 325.722
36.48000 318.059
36.49000 309.716
36.50000 304.072
36.51000 301.901
36.52000 300.359
36.53000 300.718
36.54000 303.653
36.55000 306.599
36.56000 307.505
36.57000 306.639
36.58000 305.783
36.59000 302.247
36.60000 297.301
36.61000 292.634
36.62000 293.393
36.63000 296.240
36.64000 298.481
36.65000 294.678
36.66000 289.317
36.67000 284.626
36.68000 288.506
36.69000 293.056
36.70000 296.913
36.71000 298.078
36.72000 298.972
36.73000 299.608
36.74000 299.569
36.75000 299.496
36.76000 299.449
36.77000 302.450
36.78000 304.677
36.79000 307.442
36.80000 310.825
36.81000 314.189
36.82000 313.799
36.83000 310.634
36.84000 307.529
36.85000 305.121
36.86000 303.132
36.87000 301.184
36.88000 299.836
36.89000 298.687
36.90000 297.784
36.91000 298.879
36.92000 300.415
36.93000 301.724
36.94000 306.953
36.95000 311.813
36.96000 313.860
36.97000 306.521
36.98000 298.428
36.99000 294.377
37.00000 299.404
37.01000 304.770
37.02000 308.008
37.03000 310.305
37.04000 311.934
37.05000 311.880
37.06000 310.188
37.07000 308.529
37.08000 309.496
37.09000 312.127
37.10000 314.683
37.11000 311.580
37.12000 306.347
37.13000 301.532
37.14000 301.567
37.15000 302.988
37.16000 304.885
37.17000 310.003
37.18000 315.724
37.19000 320.461
37.20000 321.738
37.21000 322.464
37.22000 321.736
37.23000 316.830
37.24000 311.662
37.25000 307.124
37.26000 303.806
37.27000 300.520
37.28000 298.667
37.29000 302.630
37.30000 305.389
37.31000 303.794
37.32000 298.612
37.33000 293.508
37.34000 292.087
37.35000 292.671
37.36000 293.232
37.37000 288.852
37.38000 283.057
37.39000 278.630
37.40000 286.988
37.41000 298.482
37.42000 307.865
37.43000 305.254
37.44000 300.751
37.45000 297.141
37.46000 292.114
37.47000 287.937
37.48000 288.019
37.49000 298.669
37.50000 309.816
37.51000 314.361
37.52000 307.886
37.53000 301.240
37.54000 297.769
37.55000 293.914
37.56000 291.316
37.57000 290.178
37.58000 290.066
37.59000 290.076
37.60000 293.780
37.61000 299.221
37.62000 304.375
37.63000 306.835
37.64000 308.315
37.65000 308.814
37.66000 301.777
37.67000 293.164
37.68000 286.809
37.69000 291.327
37.70000 297.274
37.71000 301.875
37.72000 289.037
37.73000 277.819
37.74000 272.423
37.75000 279.498
37.76000 286.990
37.77000 293.208
37.78000 297.601
37.79000 301.979
37.80000 302.327
37.81000 298.963
37.82000 295.616
37.83000 293.460
37.84000 292.021
37.85000 290.807
37.86000 294.447
37.87000 300.055
37.88000 305.283
37.89000 299.751
37.90000 292.093
37.91000 285.835
37.92000 288.525
37.93000 292.803
37.94000 296.187
37.95000 295.896
37.96000 295.209
37.97000 294.698
37.98000 304.890
37.99000 313.293
38.00000 316.963
38.01000 311.886
38.02000 306.616
38.03000 304.761
38.04000 307.081
38.05000 309.406
38.06000 308.722
38.07000 305.699
38.08000 302.865
38.09000 307.618
38.10000 316.312
38.11000 324.354
38.12000 321.848
38.13000 315.648
38.14000 309.974
38.15000 317.319
38.16000 326.555
38.17000 334.386
38.18000 334.660
38.19000 333.808
38.20000 333.548
38.21000 335.369
38.22000 337.371
38.23000 338.796
38.24000 331.734
38.25000 326.081
38.26000 324.614
38.27000 329.802
38.28000 335.074
38.29000 339.756
38.30000 343.826
38.31000 347.872
38.32000 352.823
38.33000 358.304
38.34000 363.829
38.35000 370.522
38.36000 377.737
38.37000 384.551
38.38000 386.303
38.39000 386.528
38.40000 386.730
38.41000 400.434
38.42000 414.750
38.43000 427.528
38.44000 433.271
38.45000 438.144
38.46000 444.534
38.47000 455.526
38.48000 466.834
38.49000 474.499
38.50000 479.150
38.51000 482.551
38.52000 483.727
38.53000 481.873
38.54000 480.005
38.55000 482.671
38.56000 489.299
38.57000 495.851
38.58000 494.556
38.59000 488.886
38.60000 483.412
38.61000 481.760
38.62000 481.589
38.63000 480.684
38.64000 472.387
38.65000 462.173
38.66000 453.227
38.67000 447.124
38.68000 442.299
38.69000 436.821
38.70000 428.792
38.71000 420.506
38.72000 414.070
38.73000 412.477
38.74000 411.137
38.75000 410.277
38.76000 401.929
38.77000 395.738
38.78000 391.660
38.79000 390.032
38.80000 388.394
38.81000 384.116
38.82000 377.872
38.83000 371.746
38.84000 361.341
38.85000 349.266
38.86000 337.684
38.87000 333.441
38.88000 331.649
38.89000 329.446
38.90000 323.862
38.91000 317.529
38.92000 312.124
38.93000 306.855
38.94000 302.435
38.95000 298.900
38.96000 298.333
38.97000 298.006
38.98000 298.179
38.99000 299.481
39.00000 300.826
39.01000 301.640
39.02000 302.606
39.03000 303.296
39.04000 303.678
39.05000 303.759
39.06000 303.749
39.07000 296.211
39.08000 283.878
39.09000 271.891
39.10000 272.358
39.11000 277.865
39.12000 283.310
39.13000 288.035
39.14000 292.552
39.15000 296.304
39.16000 294.828
39.17000 292.368
39.18000 290.328
39.19000 290.995
39.20000 291.806
39.21000 290.967
39.22000 285.353
39.23000 279.437
39.24000 275.509
39.25000 275.454
39.26000 275.500
39.27000 275.526
39.28000 270.053
39.29000 266.246
39.30000 268.799
39.31000 276.625
39.32000 284.348
39.33000 287.173
39.34000 287.313
39.35000 287.448
39.36000 282.682
39.37000 276.526
39.38000 271.117
39.39000 272.754
39.40000 276.128
39.41000 278.691
39.42000 276.610
39.43000 273.791
39.44000 271.528
39.45000 275.039
39.46000 278.324
39.47000 279.387
39.48000 274.901
39.49000 270.152
39.50000 264.819
39.51000 258.505
39.52000 252.175
39.53000 248.858
39.54000 253.315
39.55000 256.359
39.56000 262.439
39.57000 270.668
39.58000 278.680
39.59000 280.005
39.60000 278.168
39.61000 276.427
39.62000 276.663
39.63000 277.460
39.64000 277.782
39.65000 274.436
39.66000 270.317
39.67000 267.391
39.68000 270.246
39.69000 273.865
39.70000 276.670
39.71000 270.289
39.72000 264.674
39.73000 261.667
39.74000 264.284
39.75000 267.092
39.76000 269.262
39.77000 270.514
39.78000 271.758
39.79000 270.181
39.80000 265.988
39.81000 261.940
39.82000 267.668
39.83000 279.330
39.84000 290.357
39.85000 287.491
39.86000 278.956
39.87000 270.994
39.88000 265.242
39.89000 260.579
39.90000 256.216
39.91000 253.784
39.92000 251.698
39.93000 250.907
39.94000 255.472
39.95000 260.620
39.96000 264.454
39.97000 267.027
39.98000 268.973
39.99000 270.460
40.00000 271.093
40.01000 271.708
40.02000 270.792
40.03000 267.994
40.04000 265.196
40.05000 264.444
40.06000 265.300
40.07000 266.132
40.08000 265.997
40.09000 265.357
40.10000 264.658
40.11000 263.005
40.12000 261.016
40.13000 259.194
40.14000 263.610
40.15000 268.844
40.16000 273.773
40.17000 277.053
40.18000 280.085
40.19000 280.882
40.20000 273.758
40.21000 265.936
40.22000 260.360
40.23000 257.217
40.24000 254.901
40.25000 253.871
40.26000 254.900
40.27000 255.955
40.28000 255.971
40.29000 254.903
40.30000 253.840
40.31000 255.985
40.32000 260.235
40.33000 264.498
40.34000 269.140
40.35000 273.952
40.36000 278.057
40.37000 273.156
40.38000 265.521
40.39000 258.669
40.40000 259.521
40.41000 261.612
40.42000 262.593
40.43000 258.464
40.44000 253.698
40.45000 251.139
40.46000 255.314
40.47000 259.956
40.48000 263.110
40.49000 258.336
40.50000 254.595
40.51000 251.699
40.52000 249.961
40.53000 248.232
40.54000 248.953
40.55000 251.831
40.56000 254.677
40.57000 254.420
40.58000 252.418
40.59000 250.577
40.60000 251.943
40.61000 254.557
40.62000 256.719
40.63000 254.273
40.64000 250.625
40.65000 247.426
40.66000 248.616
40.67000 250.274
40.68000 253.193
40.69000 261.067
40.70000 269.446
40.71000 274.743
40.72000 271.925
40.73000 268.678
40.74000 266.588
40.75000 260.043
40.76000 255.202
40.77000 254.163
40.78000 257.563
40.79000 260.946
40.80000 259.536
40.81000 254.539
40.82000 249.633
40.83000 247.912
40.84000 247.784
40.85000 247.763
40.86000 249.368
40.87000 251.519
40.88000 253.499
40.89000 254.061
40.90000 254.307
40.91000 254.517
40.92000 255.176
40.93000 255.784
40.94000 257.497
40.95000 262.939
40.96000 268.686
40.97000 270.124
40.98000 261.771
40.99000 253.039
41.00000 247.745
41.01000 251.808
41.02000 254.777
41.03000 256.287
41.04000 256.358
41.05000 256.386
41.06000 252.800
41.07000 246.896
41.08000 241.155
41.09000 243.646
41.10000 249.384
41.11000 254.707
41.12000 255.136
41.13000 254.149
41.14000 253.236
41.15000 252.831
41.16000 252.523
41.17000 252.268
41.18000 252.382
41.19000 252.512
41.20000 253.220
41.21000 255.612
41.22000 258.112
41.23000 259.048
41.24000 256.919
41.25000 254.709
41.26000 253.456
41.27000 256.798
41.28000 259.128
41.29000 256.664
41.30000 250.197
41.31000 243.835
41.32000 242.479
41.33000 243.884
41.34000 245.234
41.35000 250.160
41.36000 256.018
41.37000 260.702
41.38000 254.217
41.39000 244.959
41.40000 237.629
41.41000 241.404
41.42000 246.956
41.43000 251.419
41.44000 248.993
41.45000 246.494
41.46000 246.624
41.47000 253.357
41.48000 260.407
41.49000 261.648
41.50000 253.074
41.51000 244.341
41.52000 239.750
41.53000 245.129
41.54000 248.760
41.55000 249.434
41.56000 248.003
41.57000 246.658
41.58000 247.984
41.59000 250.580
41.60000 253.042
41.61000 246.220
41.62000 237.191
41.63000 229.193
41.64000 229.229
41.65000 230.968
41.66000 233.546
41.67000 240.209
41.68000 247.418
41.69000 253.011
41.70000 249.807
41.71000 246.731
41.72000 245.656
41.73000 248.920
41.74000 252.335
41.75000 253.014
41.76000 249.726
41.77000 246.406
41.78000 246.408
41.79000 249.515
41.80000 252.517
41.81000 248.207
41.82000 239.433
41.83000 231.111
41.84000 232.814
41.85000 238.632
41.86000 244.064
41.87000 245.269
41.88000 245.306
41.89000 245.799
41.90000 249.249
41.91000 253.231
41.92000 255.441
41.93000 250.279
41.94000 244.306
41.95000 239.851
41.96000 239.713
41.97000 239.802
41.98000 239.821
41.99000 239.708
42.00000 239.592
42.01000 239.953
42.02000 240.907
42.03000 241.860
42.04000 244.971
42.05000 249.769
42.06000 254.372
42.07000 250.834
42.08000 243.016
42.09000 235.479
42.10000 232.595
42.11000 231.360
42.12000 230.227
42.13000 233.599
42.14000 237.550
42.15000 240.967
42.16000 241.465
42.17000 241.521
42.18000 241.022
42.19000 238.538
42.20000 235.879
42.21000 233.979
42.22000 229.936
42.23000 226.780
42.24000 229.469
42.25000 241.568
42.26000 253.793
42.27000 254.652
42.28000 243.577
42.29000 232.559
42.30000 230.073
42.31000 233.325
42.32000 236.607
42.33000 240.725
42.34000 245.222
42.35000 248.901
42.36000 242.056
42.37000 231.998
42.38000 222.965
42.39000 226.214
42.40000 231.220
42.41000 236.345
42.42000 242.026
42.43000 247.775
42.44000 250.280
42.45000 242.824
42.46000 234.670
42.47000 229.120
42.48000 231.122
42.49000 232.789
42.50000 234.298
42.51000 235.589
42.52000 236.878
42.53000 236.958
42.54000 235.966
42.55000 234.985
42.56000 234.527
42.57000 234.376
42.58000 234.485
42.59000 239.808
42.60000 247.173
42.61000 253.420
42.62000 248.204
42.63000 239.979
42.64000 232.760
42.65000 236.243
42.66000 240.801
42.67000 244.042
42.68000 242.072
42.69000 239.567
42.70000 237.663
42.71000 237.351
42.72000 237.124
42.73000 236.978
42.74000 237.116
42.75000 237.222
42.76000 238.719
42.77000 241.854
42.78000 244.978
42.79000 245.446
42.80000 243.912
42.81000 242.406
42.82000 241.299
42.83000 240.424
42.84000 239.605
42.85000 239.639
42.86000 239.961
42.87000 240.266
42.88000 240.429
42.89000 240.561
42.90000 240.674
42.91000 237.878
42.92000 235.171
42.93000 234.195
42.94000 239.102
42.95000 244.494
42.96000 246.648
42.97000 241.399
42.98000 235.860
42.99000 232.493
43.00000 232.716
43.01000 232.903
43.02000 234.257
43.03000 236.772
43.04000 239.281
43.05000 241.277
43.06000 242.943
43.07000 244.563
43.08000 239.807
43.09000 232.655
43.10000 226.138
43.11000 227.187
43.12000 230.438
43.13000 233.528
43.14000 235.504
43.15000 237.267
43.16000 238.733
43.17000 236.893
43.18000 235.049
43.19000 234.436
43.20000 237.424
43.21000 240.645
43.22000 241.031
43.23000 235.823
43.24000 230.465
43.25000 227.419
43.26000 231.985
43.27000 235.187
43.28000 236.664
43.29000 236.691
43.30000 236.756
43.31000 238.680
43.32000 241.636
43.33000 244.479
43.34000 243.253
43.35000 240.679
43.36000 238.134
43.37000 235.866
43.38000 233.667
43.39000 231.989
43.40000 233.330
43.41000 235.156
43.42000 236.627
43.43000 241.967
43.44000 246.602
43.45000 247.799
43.46000 240.311
43.47000 232.401
43.48000 227.480
43.49000 227.641
43.50000 227.886
43.51000 228.016
43.52000 236.557
43.53000 242.281
43.54000 236.464
43.55000 222.375
43.56000 208.816
43.57000 212.120
43.58000 223.490
43.59000 234.278
43.60000 234.400
43.61000 231.341
43.62000 227.945
43.63000 221.906
43.64000 215.304
43.65000 211.067
43.66000 218.448
43.67000 227.391
43.68000 234.340
43.69000 238.350
43.70000 241.361
43.71000 242.043
43.72000 237.646
43.73000 233.072
43.74000 229.818
43.75000 228.494
43.76000 227.186
43.77000 228.349
43.78000 231.837
43.79000 235.238
43.80000 232.399
43.81000 225.726
43.82000 219.474
43.83000 222.660
43.84000 229.744
43.85000 236.361
43.86000 237.466
43.87000 237.081
43.88000 236.849
43.89000 237.623
43.90000 238.578
43.91000 238.919
43.92000 236.683
43.93000 234.163
43.94000 232.279
43.95000 234.016
43.96000 235.537
43.97000 236.407
43.98000 236.054
43.99000 235.673
44.00000 236.829
44.01000 239.904
44.02000 242.978
44.03000 241.872
44.04000 237.448
44.05000 233.139
44.06000 233.684
44.07000 236.797
44.08000 239.825
44.09000 241.429
44.10000 242.527
44.11000 243.533
44.12000 239.404
44.13000 234.635
44.14000 231.729
44.15000 239.063
44.16000 247.956
44.17000 254.324
44.18000 251.635
44.19000 248.135
44.20000 245.630
44.21000 241.811
44.22000 238.851
44.23000 238.016
44.24000 240.626
44.25000 243.283
44.26000 245.735
44.27000 247.969
44.28000 250.192
44.29000 250.997
44.30000 250.837
44.31000 250.810
44.32000 254.536
44.33000 259.975
44.34000 265.014
44.35000 264.872
44.36000 263.139
44.37000 261.580
44.38000 260.647
44.39000 259.941
44.40000 259.529
44.41000 260.485
44.42000 261.614
44.43000 264.083
44.44000 270.693
44.45000 277.596
44.46000 282.305
44.47000 297.397
44.48000 308.920
44.49000 315.725
44.50000 315.977
44.51000 316.190
44.52000 321.733
44.53000 332.029
44.54000 342.217
44.55000 347.026
44.56000 348.649
44.57000 350.622
44.58000 359.704
44.59000 371.586
44.60000 383.341
44.61000 393.771
44.62000 403.852
44.63000 412.708
44.64000 431.689
44.65000 449.501
44.66000 466.133
44.67000 478.068
44.68000 489.516
44.69000 500.392
44.70000 509.740
44.71000 519.006
44.72000 524.998
44.73000 546.590
44.74000 562.608
44.75000 577.994
44.76000 592.633
44.77000 607.246
44.78000 616.766
44.79000 622.423
44.80000 627.979
44.81000 641.299
44.82000 657.940
44.83000 673.969
44.84000 680.581
44.85000 683.990
44.86000 687.831
44.87000 695.305
44.88000 703.599
44.89000 710.702
44.90000 706.722
44.91000 702.021
44.92000 698.479
44.93000 698.899
44.94000 699.649
44.95000 697.073
44.96000 686.845
44.97000 676.314
44.98000 669.896
44.99000 651.716
45.00000 638.630
45.01000 627.343
45.02000 617.858
45.03000 608.343
45.04000 596.229
45.05000 582.428
45.06000 568.997
45.07000 558.452
45.08000 549.609
45.09000 540.314
45.10000 525.594
45.11000 509.285
45.12000 492.502
45.13000 472.409
45.14000 451.681
45.15000 434.432
45.16000 427.328
45.17000 422.446
45.18000 415.808
45.19000 404.003
45.20000 391.861
45.21000 382.150
45.22000 377.263
45.23000 372.507
45.24000 369.796
45.25000 357.213
45.26000 348.405
45.27000 339.611
45.28000 330.830
45.29000 322.167
45.30000 319.413
45.31000 319.957
45.32000 320.479
45.33000 312.011
45.34000 300.899
45.35000 290.712
45.36000 289.475
45.37000 290.489
45.38000 290.147
45.39000 281.892
45.40000 272.354
45.41000 264.665
45.42000 261.449
45.43000 259.190
45.44000 257.772
45.45000 258.492
45.46000 259.318
45.47000 257.801
45.48000 252.277
45.49000 246.684
45.50000 243.725
45.51000 244.560
45.52000 245.114
45.53000 243.180
45.54000 239.454
45.55000 235.832
45.56000 235.580
45.57000 236.949
45.58000 238.250
45.59000 237.232
45.60000 235.598
45.61000 233.817
45.62000 230.864
45.63000 227.658
45.64000 225.302
45.65000 227.145
45.66000 229.556
45.67000 231.432
45.68000 229.625
45.69000 227.960
45.70000 226.446
45.71000 225.266
45.72000 224.097
45.73000 224.368
45.74000 226.753
45.75000 229.157
45.76000 228.818
45.77000 225.880
45.78000 222.948
45.79000 220.445
45.80000 218.209
45.81000 216.133
45.82000 217.717
45.83000 220.820
45.84000 223.721
45.85000 220.754
45.86000 216.575
45.87000 213.634
45.88000 218.839
45.89000 225.528
45.90000 229.586
45.91000 222.556
45.92000 214.289
45.93000 208.101
45.94000 215.915
45.95000 222.667
45.96000 225.159
45.97000 219.585
45.98000 213.820
45.99000 209.925
46.00000 208.377
46.01000 206.838
46.02000 206.275
46.03000 206.495
46.04000 206.713
46.05000 206.834
46.06000 206.902
46.07000 207.040
46.08000 208.356
46.09000 210.095
46.10000 211.691
46.11000 213.911
46.12000 216.025
46.13000 217.925
46.14000 218.639
46.15000 219.172
46.16000 219.644
46.17000 219.901
46.18000 220.138
46.19000 220.308
46.20000 222.741
46.21000 224.677
46.22000 224.299
46.23000 220.150
46.24000 215.948
46.25000 213.951
46.26000 214.302
46.27000 214.652
46.28000 215.884
46.29000 217.699
46.30000 219.340
46.31000 215.980
46.32000 210.323
46.33000 205.258
46.34000 207.944
46.35000 213.025
46.36000 217.596
46.37000 219.168
46.38000 220.009
46.39000 219.396
46.40000 211.958
46.41000 203.649
46.42000 198.652
46.43000 203.944
46.44000 209.971
46.45000 214.090
46.46000 214.957
46.47000 215.529
46.48000 215.928
46.49000 216.086
46.50000 216.242
46.51000 215.804
46.52000 214.831
46.53000 213.869
46.54000 213.408
46.55000 213.247
46.56000 213.111
46.57000 213.502
46.58000 214.101
46.59000 214.396
46.60000 211.519
46.61000 207.800
46.62000 204.529
46.63000 203.029
46.64000 202.001
46.65000 201.047
46.66000 200.389
46.67000 199.761
46.68000 200.575
46.69000 205.252
46.70000 210.141
46.71000 213.309
46.72000 201.433
46.73000 192.515
46.74000 190.423
46.75000 196.463
46.76000 202.512
46.77000 206.885
46.78000 209.979
46.79000 213.018
46.80000 210.039
46.81000 204.208
46.82000 198.685
46.83000 197.917
46.84000 198.776
46.85000 199.865
46.86000 202.906
46.87000 206.391
46.88000 209.379
46.89000 208.385
46.90000 207.059
46.91000 206.349
46.92000 207.756
46.93000 209.341
46.94000 209.288
46.95000 205.443
46.96000 201.446
46.97000 199.004
46.98000 207.409
46.99000 213.509
47.00000 216.042
47.01000 214.979
47.02000 213.912
47.03000 212.469
47.04000 210.781
47.05000 209.137
47.06000 206.489
47.07000 203.548
47.08000 200.556
47.09000 196.942
47.10000 193.144
47.11000 190.094
47.12000 192.297
47.13000 195.517
47.14000 198.200
47.15000 195.155
47.16000 192.062
47.17000 191.577
47.18000 198.815
47.19000 206.561
47.20000 210.823
47.21000 208.127
47.22000 205.238
47.23000 203.586
47.24000 197.416
47.25000 193.101
47.26000 194.342
47.27000 200.313
47.28000 206.182
47.29000 206.768
47.30000 204.389
47.31000 202.099
47.32000 201.418
47.33000 201.351
47.34000 200.879
47.35000 196.458
47.36000 191.038
47.37000 186.641
47.38000 188.264
47.39000 190.870
47.40000 192.974
47.41000 192.070
47.42000 191.096
47.43000 190.805
47.44000 192.259
47.45000 193.800
47.46000 193.735
47.47000 190.905
47.48000 188.028
47.49000 186.500
47.50000 191.028
47.51000 194.096
47.52000 194.597
47.53000 193.235
47.54000 191.901
47.55000 191.505
47.56000 191.562
47.57000 191.617
47.58000 187.595
47.59000 182.653
47.60000 178.776
47.61000 183.401
47.62000 189.862
47.63000 195.287
47.64000 195.553
47.65000 195.115
47.66000 194.774
47.67000 187.617
47.68000 181.491
47.69000 178.772
47.70000 183.572
47.71000 188.643
47.72000 191.757
47.73000 191.981
47.74000 192.179
47.75000 192.355
47.76000 192.510
47.77000 192.620
47.78000 189.336
47.79000 183.941
47.80000 178.891
47.81000 181.787
47.82000 188.002
47.83000 193.815
47.84000 194.590
47.85000 194.010
47.86000 193.062
47.87000 189.674
47.88000 185.838
47.89000 183.855
47.90000 189.728
47.91000 196.486
47.92000 201.552
47.93000 196.539
47.94000 192.148
47.95000 190.042
47.96000 192.289
47.97000 194.641
47.98000 193.814
47.99000 188.972
48.00000 184.125
48.01000 183.427
48.02000 186.072
48.03000 188.696
48.04000 190.388
48.05000 191.581
48.06000 192.785
48.07000 194.161
48.08000 195.599
48.09000 196.921
48.10000 197.745
48.11000 198.375
48.12000 198.282
48.13000 194.164
48.14000 189.425
48.15000 186.434
48.16000 189.792
48.17000 193.729
48.18000 196.557
48.19000 197.435
48.20000 198.039
48.21000 197.978
48.22000 196.827
48.23000 195.660
48.24000 192.691
48.25000 187.790
48.26000 182.911
48.27000 181.886
48.28000 183.501
48.29000 185.188
48.30000 188.967
48.31000 193.711
48.32000 197.787
48.33000 193.014
48.34000 185.489
48.35000 178.714
48.36000 185.537
48.37000 193.969
48.38000 200.520
48.39000 198.189
48.40000 194.716
48.41000 192.040
48.42000 191.852
48.43000 191.843
48.44000 191.838
48.45000 196.081
48.46000 199.360
48.47000 199.462
48.48000 195.096
48.49000 190.700
48.50000 188.221
48.51000 187.476
48.52000 186.738
48.53000 184.555
48.54000 181.581
48.55000 178.858
48.56000 181.360
48.57000 185.946
48.58000 189.978
48.59000 188.179
48.60000 184.820
48.61000 181.863
48.62000 187.129
48.63000 192.894
48.64000 196.693
48.65000 192.565
48.66000 187.602
48.67000 183.639
48.68000 182.371
48.69000 181.254
48.70000 180.528
48.71000 177.590
48.72000 175.404
48.73000 177.595
48.74000 185.033
48.75000 192.458
48.76000 194.024
48.77000 191.091
48.78000 188.208
48.79000 185.077
48.80000 181.928
48.81000 179.176
48.82000 182.646
48.83000 188.256
48.84000 192.888
48.85000 189.144
48.86000 183.483
48.87000 178.624
48.88000 183.174
48.89000 188.178
48.90000 192.476
48.91000 194.333
48.92000 195.983
48.93000 194.866
48.94000 187.311
48.95000 179.493
48.96000 174.705
48.97000 178.151
48.98000 180.687
48.99000 183.185
49.00000 185.643
49.01000 188.111
49.02000 191.565
49.03000 195.666
49.04000 199.661
49.05000 195.068
49.06000 187.083
49.07000 179.878
49.08000 182.227
49.09000 187.409
49.10000 190.949
49.11000 182.874
49.12000 172.538
49.13000 163.915
49.14000 169.813
49.15000 176.158
49.16000 182.089
49.17000 186.783
49.18000 191.394
49.19000 193.443
49.20000 190.343
49.21000 187.098
49.22000 185.237
49.23000 188.015
49.24000 189.970
49.25000 190.064
49.26000 188.563
49.27000 187.085
49.28000 186.838
49.29000 187.286
49.30000 187.718
49.31000 187.292
49.32000 186.586
49.33000 185.676
49.34000 182.766
49.35000 179.346
49.36000 176.588
49.37000 177.745
49.38000 179.545
49.39000 181.001
49.40000 176.458
49.41000 172.283
49.42000 170.091
49.43000 173.001
49.44000 176.168
49.45000 178.281
49.46000 178.569
49.47000 178.825
49.48000 178.961
49.49000 181.334
49.50000 182.936
49.51000 181.858
49.52000 178.823
49.53000 175.875
49.54000 175.848
49.55000 177.243
49.56000 178.569
49.57000 181.206
49.58000 184.042
49.59000 186.826
49.60000 189.196
49.61000 191.476
49.62000 191.808
49.63000 182.387
49.64000 171.624
49.65000 163.223
49.66000 167.578
49.67000 171.852
49.68000 175.844
49.69000 179.212
49.70000 182.558
49.71000 185.617
49.72000 188.252
49.73000 190.883
49.74000 189.816
49.75000 185.199
49.76000 180.613
49.77000 178.348
49.78000 177.536
49.79000 176.826
49.80000 178.473
49.81000 181.111
49.82000 183.580
49.83000 186.191
49.84000 188.600
49.85000 189.923
49.86000 183.995
49.87000 176.729
49.88000 171.435
49.89000 174.556
49.90000 178.631
49.91000 181.692
49.92000 180.273
49.93000 178.949
49.94000 178.498
49.95000 179.720
49.96000 180.984
49.97000 181.576
49.98000 181.315
49.99000 181.052
50.00000 184.482
50.01000 190.893
50.02000 197.160
50.03000 197.011
50.04000 193.406
50.05000 189.650
50.06000 183.259
50.07000 175.913
50.08000 169.158
50.09000 171.790
50.10000 176.172
50.11000 180.969
50.12000 188.097
50.13000 195.586
50.14000 202.637
50.15000 208.085
50.16000 213.386
50.17000 217.200
50.18000 216.958
50.19000 216.631
50.20000 217.073
50.21000 218.784
50.22000 220.513
50.23000 222.280
50.24000 224.086
50.25000 225.883
50.26000 224.033
50.27000 219.697
50.28000 215.698
50.29000 221.678
50.30000 232.293
50.31000 242.541
50.32000 247.881
50.33000 251.684
50.34000 255.112
50.35000 254.511
50.36000 253.252
50.37000 253.516
50.38000 261.014
50.39000 269.450
50.40000 277.648
50.41000 285.100
50.42000 292.497
50.43000 297.574
50.44000 291.557
50.45000 286.777
50.46000 285.169
50.47000 288.048
50.48000 290.958
50.49000 290.903
50.50000 288.152
50.51000 285.427
50.52000 285.305
50.53000 286.705
50.54000 288.103
50.55000 289.466
50.56000 290.815
50.57000 291.975
50.58000 291.138
50.59000 289.763
50.60000 288.552
50.61000 281.325
50.62000 274.191
50.63000 268.260
50.64000 267.212
50.65000 266.683
50.66000 266.735
50.67000 268.362
50.68000 270.078
50.69000 271.195
50.70000 265.189
50.71000 260.674
50.72000 256.057
50.73000 251.316
50.74000 246.591
50.75000 245.632
50.76000 247.587
50.77000 249.508
50.78000 242.709
50.79000 231.801
50.80000 221.210
50.81000 215.643
50.82000 211.815
50.83000 208.191
50.84000 206.323
50.85000 204.860
50.86000 203.603
50.87000 202.940
50.88000 202.454
50.89000 201.223
50.90000 197.396
50.91000 193.347
50.92000 190.460
50.93000 190.294
50.94000 190.240
50.95000 190.207
50.96000 189.627
50.97000 189.206
50.98000 187.270
50.99000 183.788
51.00000 180.359
51.01000 182.242
51.02000 187.637
51.03000 192.894
51.04000 194.102
51.05000 193.541
51.06000 193.255
51.07000 196.358
51.08000 200.471
51.09000 203.450
51.10000 198.339
51.11000 191.643
51.12000 186.050
51.13000 182.850
51.14000 180.437
51.15000 179.245
51.16000 181.715
51.17000 184.431
51.18000 185.052
51.19000 181.439
51.20000 177.703
51.21000 175.556
51.22000 175.407
51.23000 175.311
51.24000 175.983
51.25000 177.318
51.26000 178.621
51.27000 178.210
51.28000 176.825
51.29000 175.491
51.30000 173.123
51.31000 170.526
51.32000 168.256
51.33000 169.226
51.34000 171.026
51.35000 172.462
51.36000 171.735
51.37000 170.650
51.38000 169.772
51.39000 177.105
51.40000 183.739
51.41000 187.860
51.42000 185.481
51.43000 182.770
51.44000 180.487
51.45000 178.947
51.46000 177.422
51.47000 176.606
51.48000 175.842
51.49000 175.311
51.50000 172.977
51.51000 169.318
51.52000 165.694
51.53000 163.272
51.54000 161.439
51.55000 159.695
51.56000 161.444
51.57000 164.127
51.58000 166.695
51.59000 168.332
51.60000 169.764
51.61000 170.123
51.62000 165.068
51.63000 159.263
51.64000 154.725
51.65000 164.377
51.66000 172.980
51.67000 178.532
51.68000 177.266
51.69000 175.748
51.70000 173.405
51.71000 169.828
51.72000 166.238
51.73000 165.870
51.74000 168.617
51.75000 171.298
51.76000 168.874
51.77000 163.234
51.78000 157.880
51.79000 159.269
51.80000 163.509
51.81000 167.481
51.82000 168.850
51.83000 169.422
51.84000 170.163
51.85000 172.039
51.86000 174.125
51.87000 175.407
51.88000 173.230
51.89000 170.658
51.90000 168.723
51.91000 162.370
51.92000 157.186
51.93000 155.163
51.94000 159.232
51.95000 163.454
51.96000 165.275
51.97000 164.026
51.98000 162.768
51.99000 164.934
52.00000 169.888
52.01000 174.703
52.02000 173.178
52.03000 168.219
52.04000 163.429
52.05000 161.608
52.06000 160.870
52.07000 160.191
52.08000 164.183
52.09000 168.769
52.10000 173.020
52.11000 175.378
52.12000 177.439
52.13000 177.743
52.14000 171.586
52.15000 164.829
52.16000 159.959
52.17000 157.449
52.18000 155.609
52.19000 154.809
52.20000 155.733
52.21000 156.683
52.22000 157.144
52.23000 157.074
52.24000 157.003
52.25000 158.713
52.26000 161.637
52.27000 164.571
52.28000 167.839
52.29000 171.262
52.30000 174.400
52.31000 173.692
52.32000 171.773
52.33000 170.042
52.34000 164.682
52.35000 159.312
52.36000 155.264
52.37000 157.541
52.38000 160.644
52.39000 162.903
52.40000 162.495
52.41000 161.891
52.42000 161.475
52.43000 165.643
52.44000 168.883
52.45000 170.997
52.46000 171.509
52.47000 172.009
52.48000 171.507
52.49000 170.089
52.50000 168.685
52.51000 169.572
52.52000 171.789
52.53000 173.793
52.54000 171.265
52.55000 166.908
52.56000 162.809
52.57000 161.470
52.58000 160.878
52.59000 160.355
52.60000 158.367
52.61000 156.431
52.62000 155.180
52.63000 156.728
52.64000 158.577
52.65000 160.842
52.66000 164.241
52.67000 167.704
52.68000 169.964
52.69000 169.689
52.70000 169.446
52.71000 168.808
52.72000 167.689
52.73000 166.568
52.74000 165.114
52.75000 163.401
52.76000 161.716
52.77000 162.487
52.78000 164.460
52.79000 166.389
52.80000 167.624
52.81000 168.616
52.82000 169.805
52.83000 172.700
52.84000 175.991
52.85000 178.821
52.86000 172.724
52.87000 166.446
52.88000 161.770
52.89000 162.710
52.90000 164.135
52.91000 165.956
52.92000 168.711
52.93000 171.504
52.94000 173.224
52.95000 167.915
52.96000 164.044
52.97000 159.538
52.98000 154.378
52.99000 149.295
53.00000 151.993
53.01000 159.868
53.02000 167.544
53.03000 173.089
53.04000 177.474
53.05000 181.190
53.06000 176.547
53.07000 169.395
53.08000 162.352
53.09000 156.085
53.10000 149.972
53.11000 144.860
53.12000 149.189
53.13000 153.747
53.14000 158.936
53.15000 166.032
53.16000 173.257
53.17000 175.998
53.18000 169.626
53.19000 162.989
53.20000 159.162
53.21000 163.375
53.22000 166.356
53.23000 167.870
53.24000 168.110
53.25000 168.350
53.26000 168.504
53.27000 168.611
53.28000 168.713
53.29000 168.747
53.30000 168.754
53.31000 168.809
53.32000 169.333
53.33000 169.980
53.34000 170.624
53.35000 171.259
53.36000 171.891
53.37000 172.404
53.38000 171.666
53.39000 170.962
53.40000 169.075
53.41000 164.108
53.42000 158.982
53.43000 156.348
53.44000 158.080
53.45000 159.892
53.46000 160.864
53.47000 161.003
53.48000 161.101
53.49000 161.930
53.50000 163.300
53.51000 164.634
53.52000 164.743
53.53000 164.248
53.54000 163.778
53.55000 161.479
53.56000 158.790
53.57000 156.358
53.58000 156.025
53.59000 156.154
53.60000 157.596
53.61000 165.696
53.62000 174.726
53.63000 181.796
53.64000 174.800
53.65000 168.310
53.66000 163.373
53.67000 161.924
53.68000 160.607
53.69000 160.099
53.70000 160.811
53.71000 161.535
53.72000 163.239
53.73000 165.897
53.74000 168.514
53.75000 167.859
53.76000 165.132
53.77000 162.348
53.78000 158.222
53.79000 153.525
53.80000 149.122
53.81000 155.173
53.82000 163.400
53.83000 170.696
53.84000 171.689
53.85000 171.502
53.86000 170.764
53.87000 167.645
53.88000 164.251
53.89000 161.695
53.90000 161.092
53.91000 160.716
53.92000 160.550
53.93000 160.792
53.94000 161.043
53.95000 159.362
53.96000 155.191
53.97000 151.016
53.98000 150.523
53.99000 153.058
54.00000 155.571
54.01000 157.098
54.02000 158.086
54.03000 159.095
54.04000 160.452
54.05000 161.938
54.06000 163.306
54.07000 163.622
54.08000 163.672
54.09000 162.651
54.10000 155.535
54.11000 147.457
54.12000 143.270
54.13000 153.482
54.14000 165.041
54.15000 173.388
54.16000 164.101
54.17000 156.344
54.18000 151.265
54.19000 150.658
54.20000 150.120
54.21000 150.930
54.22000 153.215
54.23000 155.491
54.24000 157.431
54.25000 159.117
54.26000 160.756
54.27000 160.951
54.28000 160.468
54.29000 160.304
54.30000 164.478
54.31000 170.026
54.32000 175.034
54.33000 167.242
54.34000 158.039
54.35000 150.804
54.36000 153.049
54.37000 156.541
54.38000 159.324
54.39000 159.854
54.40000 160.216
54.41000 160.466
54.42000 165.825
54.43000 169.977
54.44000 170.591
54.45000 166.135
54.46000 161.640
54.47000 160.297
54.48000 161.859
54.49000 163.407
54.50000 164.221
54.51000 164.584
54.52000 164.838
54.53000 162.701
54.54000 159.595
54.55000 156.863
54.56000 158.176
54.57000 160.592
54.58000 162.724
54.59000 161.002
54.60000 158.927
54.61000 156.876
54.62000 154.929
54.63000 152.994
54.64000 152.616
54.65000 156.514
54.66000 160.656
54.67000 163.365
54.68000 160.709
54.69000 158.672
54.70000 158.700
54.71000 161.254
54.72000 163.811
54.73000 165.438
54.74000 166.337
54.75000 167.222
54.76000 162.919
54.77000 156.143
54.78000 150.004
54.79000 154.206
54.80000 162.030
54.81000 169.083
54.82000 169.379
54.83000 168.099
54.84000 166.997
54.85000 162.736
54.86000 158.728
54.87000 156.463
54.88000 160.341
54.89000 164.755
54.90000 166.980
54.91000 164.023
54.92000 160.846
54.93000 158.886
54.94000 158.002
54.95000 157.377
54.96000 157.787
54.97000 159.269
54.98000 160.737
54.99000 160.821
55.00000 159.978
55.01000 159.155
55.02000 163.387
55.03000 169.592
55.04000 175.518
55.05000 177.919
55.06000 179.256
55.07000 180.181
55.08000 178.122
55.09000 175.469
55.10000 173.249
55.11000 175.195
55.12000 177.242
55.13000 178.728
55.14000 178.516
55.15000 178.188
55.16000 179.734
55.17000 185.113
55.18000 190.605
55.19000 193.781
55.20000 191.403
55.21000 189.717
55.22000 190.659
55.23000 193.899
55.24000 197.148
55.25000 200.884
55.26000 204.900
55.27000 208.774
55.28000 210.028
55.29000 210.254
55.30000 210.760
55.31000 214.095
55.32000 218.165
55.33000 221.959
55.34000 224.080
55.35000 225.921
55.36000 227.414
55.37000 230.390
55.38000 232.938
55.39000 240.627
55.40000 261.774
55.41000 283.625
55.42000 297.593
55.43000 297.668
55.44000 297.480
55.45000 297.379
55.46000 307.315
55.47000 314.119
55.48000 322.156
55.49000 331.109
55.50000 340.135
55.51000 351.718
55.52000 364.568
55.53000 376.803
55.54000 394.960
55.55000 413.606
55.56000 430.767
55.57000 435.713
55.58000 437.949
55.59000 441.639
55.60000 452.757
55.61000 464.919
55.62000 474.455
55.63000 484.420
55.64000 492.415
55.65000 499.605
55.66000 504.978
55.67000 510.281
55.68000 514.996
55.69000 518.817
55.70000 522.630
55.71000 525.630
55.72000 527.832
55.73000 530.027
55.74000 531.648
55.75000 532.903
55.76000 534.127
55.77000 534.601
55.78000 534.755
55.79000 534.899
55.80000 526.888
55.81000 517.456
55.82000 508.367
55.83000 501.623
55.84000 495.321
55.85000 487.288
55.86000 471.732
55.87000 455.302
55.88000 442.902
55.89000 448.428
55.90000 453.645
55.91000 447.976
55.92000 421.075
55.93000 393.623
55.94000 374.618
55.95000 366.561
55.96000 358.559
55.97000 351.678
55.98000 345.747
55.99000 339.748
56.00000 330.536
56.01000 319.564
56.02000 308.620
56.03000 298.172
56.04000 287.909
56.05000 278.449
56.06000 274.664
56.07000 272.528
56.08000 269.737
56.09000 263.188
56.10000 256.043
56.11000 250.025
56.12000 248.204
56.13000 246.780
56.14000 245.749
56.15000 235.188
56.16000 226.733
56.17000 220.609
56.18000 218.399
56.19000 216.250
56.20000 214.257
56.21000 212.433
56.22000 210.617
56.23000 205.490
56.24000 198.095
56.25000 190.814
56.26000 187.051
56.27000 184.951
56.28000 183.263
56.29000 187.226
56.30000 192.990
56.31000 198.198
56.32000 187.878
56.33000 175.924
56.34000 166.306
56.35000 168.009
56.36000 171.213
56.37000 171.723
56.38000 163.607
56.39000 154.843
56.40000 148.793
56.41000 154.576
56.42000 159.224
56.43000 164.077
56.44000 169.223
56.45000 174.371
56.46000 176.474
56.47000 175.750
56.48000 175.033
56.49000 171.495
56.50000 166.346
56.51000 161.285
56.52000 158.141
56.53000 155.779
56.54000 153.815
56.55000 156.202
56.56000 159.780
56.57000 162.942
56.58000 156.454
56.59000 149.363
56.60000 144.665
56.61000 149.865
56.62000 156.144
56.63000 160.698
56.64000 160.495
56.65000 160.016
56.66000 159.702
56.67000 160.957
56.68000 161.905
56.69000 160.692
56.70000 156.819
56.71000 152.949
56.72000 152.202
56.73000 153.916
56.74000 155.603
56.75000 155.931
56.76000 155.561
56.77000 155.303
56.78000 156.888
56.79000 159.124
56.80000 160.651
56.81000 155.918
56.82000 149.716
56.83000 144.371
56.84000 149.941
56.85000 156.051
56.86000 159.816
56.87000 155.262
56.88000 149.975
56.89000 146.232
56.90000 146.165
56.91000 146.257
56.92000 146.313
56.93000 150.200
56.94000 153.030
56.95000 156.537
56.96000 160.753
56.97000 164.908
56.98000 162.650
56.99000 156.072
57.00000 149.655
57.01000 146.340
57.02000 144.509
57.03000 142.801
57.04000 142.658
57.05000 142.989
57.06000 143.874
57.07000 148.793
57.08000 154.518
57.09000 159.317
57.10000 160.107
57.11000 160.348
57.12000 159.691
57.13000 156.291
57.14000 152.701
57.15000 148.929
57.16000 144.783
57.17000 140.625
57.18000 138.214
57.19000 143.169
57.20000 146.675
57.21000 149.108
57.22000 150.597
57.23000 152.007
57.24000 148.978
57.25000 143.380
57.26000 137.977
57.27000 139.863
57.28000 144.310
57.29000 148.299
57.30000 147.625
57.31000 145.733
57.32000 144.251
57.33000 145.263
57.34000 146.696
57.35000 147.861
57.36000 147.705
57.37000 147.468
57.38000 146.333
57.39000 142.834
57.40000 139.208
57.41000 138.675
57.42000 143.625
57.43000 148.681
57.44000 151.408
57.45000 150.812
57.46000 150.414
57.47000 152.521
57.48000 156.504
57.49000 160.388
57.50000 160.751
57.51000 159.358
57.52000 158.031
57.53000 153.482
57.54000 148.263
57.55000 143.721
57.56000 144.793
57.57000 147.119
57.58000 149.619
57.59000 153.017
57.60000 156.542
57.61000 159.310
57.62000 152.099
57.63000 145.677
57.64000 141.829
57.65000 143.834
57.66000 146.066
57.67000 146.875
57.68000 145.515
57.69000 144.133
57.70000 144.286
57.71000 145.955
57.72000 147.598
57.73000 147.040
57.74000 145.069
57.75000 143.144
57.76000 142.321
57.77000 141.972
57.78000 141.646
57.79000 144.850
57.80000 148.703
57.81000 151.582
57.82000 147.780
57.83000 142.710
57.84000 139.233
57.85000 142.726
57.86000 147.036
57.87000 150.294
57.88000 145.334
57.89000 141.032
57.90000 139.249
57.91000 142.407
57.92000 145.695
57.93000 146.008
57.94000 142.440
57.95000 138.860
57.96000 138.866
57.97000 141.860
57.98000 144.811
57.99000 145.715
58.00000 145.489
58.01000 145.180
58.02000 143.352
58.03000 140.961
58.04000 138.755
58.05000 140.417
58.06000 142.767
58.07000 144.798
58.08000 144.999
58.09000 144.906
58.10000 145.104
58.11000 146.389
58.12000 147.779
58.13000 148.785
58.14000 146.765
58.15000 145.100
58.16000 142.281
58.17000 137.508
58.18000 132.703
58.19000 133.238
58.20000 139.693
58.21000 146.126
58.22000 146.405
58.23000 142.340
58.24000 138.409
58.25000 138.662
58.26000 140.905
58.27000 142.872
58.28000 141.016
58.29000 137.933
58.30000 135.146
58.31000 135.808
58.32000 137.035
58.33000 138.239
58.34000 139.331
58.35000 140.409
58.36000 141.735
58.37000 143.861
58.38000 146.047
58.39000 147.560
58.40000 144.748
58.41000 142.521
58.42000 141.841
58.43000 143.404
58.44000 144.986
58.45000 145.207
58.46000 144.154
58.47000 143.111
58.48000 141.532
58.49000 139.663
58.50000 137.847
58.51000 137.202
58.52000 137.039
58.53000 137.037
58.54000 138.805
58.55000 141.062
58.56000 143.057
58.57000 145.197
58.58000 147.068
58.59000 148.123
58.60000 145.780
58.61000 143.064
58.62000 140.862
58.63000 140.088
58.64000 139.398
58.65000 138.945
58.66000 136.418
58.67000 134.523
58.68000 134.330
58.69000 136.246
58.70000 138.168
58.71000 140.505
58.72000 143.171
58.73000 145.795
58.74000 143.387
58.75000 138.489
58.76000 133.879
58.77000 134.050
58.78000 135.917
58.79000 137.369
58.80000 135.133
58.81000 132.025
58.82000 129.344
58.83000 133.896
58.84000 138.686
58.85000 141.749
58.86000 138.648
58.87000 135.001
58.88000 133.367
58.89000 136.561
58.90000 139.966
58.91000 142.077
58.92000 141.189
58.93000 140.521
58.94000 140.529
58.95000 141.245
58.96000 141.956
58.97000 142.013
58.98000 141.628
58.99000 141.252
59.00000 136.982
59.01000 131.209
59.02000 125.859
59.03000 125.953
59.04000 127.709
59.05000 129.582
59.06000 132.309
59.07000 135.208
59.08000 137.641
59.09000 141.961
59.10000 145.754
59.11000 147.597
59.12000 143.451
59.13000 138.886
59.14000 136.408
59.15000 138.247
59.16000 140.218
59.17000 141.365
59.18000 142.605
59.19000 143.477
59.20000 144.881
59.21000 146.756
59.22000 148.563
59.23000 146.406
59.24000 141.940
59.25000 137.628
59.26000 136.375
59.27000 136.324
59.28000 135.933
59.29000 132.056
59.30000 127.263
59.31000 123.811
59.32000 128.576
59.33000 134.741
59.34000 139.758
59.35000 139.153
59.36000 138.188
59.37000 136.483
59.38000 132.820
59.39000 129.052
59.40000 128.059
59.41000 132.019
59.42000 136.076
59.43000 138.270
59.44000 135.089
59.45000 132.907
59.46000 130.939
59.47000 129.133
59.48000 127.400
59.49000 128.269
59.50000 130.444
59.51000 132.517
59.52000 132.281
59.53000 131.339
59.54000 130.421
59.55000 129.713
59.56000 129.052
59.57000 128.388
59.58000 127.710
59.59000 127.030
59.60000 126.494
59.61000 133.130
59.62000 138.916
59.63000 141.170
59.64000 135.345
59.65000 129.204
59.66000 127.288
59.67000 131.854
59.68000 136.492
59.69000 137.101
59.70000 133.707
59.71000 130.352
59.72000 130.465
59.73000 132.816
59.74000 135.092
59.75000 135.487
59.76000 135.068
59.77000 134.675
59.78000 132.268
59.79000 129.538
59.80000 127.041
59.81000 126.161
59.82000 125.589
59.83000 125.535
59.84000 127.764
59.85000 130.262
59.86000 132.153
59.87000 130.477
59.88000 128.981
59.89000 128.284
59.90000 129.164
59.91000 130.086
59.92000 131.087
59.93000 132.188
59.94000 133.290
59.95000 133.100
59.96000 131.828
59.97000 130.582
59.98000 130.624
59.99000 131.381
60.00000 132.204
60.01000 134.230
60.02000 136.707
60.03000 138.993
60.04000 136.639
60.05000 133.491
60.06000 130.642
60.07000 129.540
60.08000 128.719
60.09000 128.625
60.10000 131.271
60.11000 134.181
60.12000 136.293
60.13000 131.744
60.14000 127.997
60.15000 126.511
60.16000 128.873
60.17000 131.298
60.18000 133.420
60.19000 135.205
60.20000 136.982
60.21000 138.294
60.22000 139.264
60.23000 140.123
60.24000 137.478
60.25000 133.156
60.26000 129.159
60.27000 129.714
60.28000 131.737
60.29000 133.567
60.30000 133.866
60.31000 133.841
60.32000 133.469
60.33000 131.396
60.34000 129.093
60.35000 128.093
60.36000 131.312
60.37000 134.854
60.38000 137.309
60.39000 136.348
60.40000 135.535
60.41000 134.942
60.42000 134.670
60.43000 134.400
60.44000 135.554
60.45000 138.048
60.46000 140.521
60.47000 142.324
60.48000 143.688
60.49000 144.766
60.50000 139.403
60.51000 131.379
60.52000 124.221
60.53000 126.662
60.54000 131.767
60.55000 136.287
60.56000 134.663
60.57000 132.295
60.58000 130.064
60.59000 128.404
60.60000 126.806
60.61000 126.505
60.62000 129.824
60.63000 133.358
60.64000 135.684
60.65000 134.198
60.66000 133.038
60.67000 132.137
60.68000 131.560
60.69000 130.981
60.70000 129.950
60.71000 128.556
60.72000 127.184
60.73000 128.274
60.74000 130.595
60.75000 132.905
60.76000 135.022
60.77000 137.071
60.78000 138.920
60.79000 138.969
60.80000 138.590
60.81000 138.263
60.82000 134.260
60.83000 130.386
60.84000 128.672
60.85000 134.714
60.86000 141.450
60.87000 144.619
60.88000 139.183
60.89000 133.368
60.90000 129.753
60.91000 131.584
60.92000 132.957
60.93000 132.848
60.94000 131.173
60.95000 129.515
60.96000 129.967
60.97000 131.856
60.98000 133.701
60.99000 134.162
61.00000 133.999
61.01000 133.871
61.02000 134.185
61.03000 134.635
61.04000 135.267
61.05000 137.239
61.06000 139.481
61.07000 141.366
61.08000 143.836
61.09000 145.956
61.10000 147.202
61.11000 145.749
61.12000 144.105
61.13000 142.717
61.14000 141.859
61.15000 141.018
61.16000 140.528
61.17000 138.891
61.18000 137.739
61.19000 139.839
61.20000 144.841
61.21000 149.774
61.22000 150.543
61.23000 148.873
61.24000 147.260
61.25000 143.613
61.26000 139.420
61.27000 135.716
61.28000 137.068
61.29000 139.756
61.30000 141.911
61.31000 140.777
61.32000 139.078
61.33000 137.694
61.34000 140.638
61.35000 143.410
61.36000 145.912
61.37000 147.694
61.38000 149.437
61.39000 150.035
61.40000 148.580
61.41000 147.083
61.42000 146.271
61.43000 145.478
61.44000 144.945
61.45000 146.546
61.46000 149.765
61.47000 153.010
61.48000 157.187
61.49000 161.833
61.50000 166.265
61.51000 174.050
61.52000 182.332
61.53000 192.144
61.54000 214.845
61.55000 240.461
61.56000 264.087
61.57000 277.347
61.58000 289.116
61.59000 298.384
61.60000 315.401
61.61000 329.555
61.62000 341.159
61.63000 346.900
61.64000 352.407
61.65000 357.768
61.66000 362.902
61.67000 368.034
61.68000 370.602
61.69000 377.407
61.70000 381.834
61.71000 376.257
61.72000 364.185
61.73000 352.144
61.74000 340.889
61.75000 329.976
61.76000 319.722
61.77000 304.710
61.78000 289.738
61.79000 274.481
61.80000 257.242
61.81000 239.623
61.82000 223.093
61.83000 211.394
61.84000 200.269
61.85000 191.833
61.86000 186.331
61.87000 182.160
61.88000 176.006
61.89000 165.918
61.90000 155.722
61.91000 150.919
61.92000 153.243
61.93000 155.598
61.94000 158.935
61.95000 163.095
61.96000 167.098
61.97000 163.234
61.98000 154.978
61.99000 147.260
62.00000 149.509
62.01000 155.505
62.02000 161.044
62.03000 156.190
62.04000 149.490
62.05000 143.888
62.06000 144.705
62.07000 146.564
62.08000 147.953
62.09000 147.561
62.10000 146.996
62.11000 146.585
62.12000 145.660
62.13000 144.929
62.14000 144.412
62.15000 144.264
62.16000 144.122
62.17000 145.019
62.18000 147.083
62.19000 149.140
62.20000 151.325
62.21000 153.582
62.22000 155.695
62.23000 153.173
62.24000 148.419
62.25000 143.747
62.26000 140.238
62.27000 137.106
62.28000 134.270
62.29000 137.355
62.30000 141.195
62.31000 144.043
62.32000 141.985
62.33000 139.262
62.34000 138.320
62.35000 143.181
62.36000 148.490
62.37000 152.177
62.38000 153.315
62.39000 154.105
62.40000 154.167
62.41000 153.161
62.42000 152.146
62.43000 150.382
62.44000 147.907
62.45000 145.453
62.46000 146.889
62.47000 150.659
62.48000 154.115
62.49000 150.419
62.50000 143.751
62.51000 137.638
62.52000 137.751
62.53000 139.601
62.54000 141.240
62.55000 144.312
62.56000 147.196
62.57000 148.660
62.58000 144.135
62.59000 138.941
62.60000 136.485
62.61000 141.722
62.62000 147.419
62.63000 151.178
62.64000 143.923
62.65000 138.382
62.66000 136.503
62.67000 139.221
62.68000 141.951
62.69000 143.969
62.70000 145.414
62.71000 146.839
62.72000 149.466
62.73000 152.637
62.74000 155.480
62.75000 152.770
62.76000 148.067
62.77000 143.947
62.78000 145.098
62.79000 147.511
62.80000 149.597
62.81000 148.919
62.82000 147.983
62.83000 146.806
62.84000 144.764
62.85000 142.642
62.86000 141.965
62.87000 144.790
62.88000 147.771
62.89000 149.629
62.90000 149.390
62.91000 149.196
62.92000 146.655
62.93000 141.613
62.94000 136.623
62.95000 137.862
62.96000 143.377
62.97000 148.763
62.98000 155.111
62.99000 161.609
63.00000 167.238
63.01000 161.488
63.02000 152.218
63.03000 143.689
63.04000 140.688
63.05000 138.813
63.06000 137.237
63.07000 140.026
63.08000 142.815
63.09000 145.263
63.10000 146.652
63.11000 147.964
63.12000 149.195
63.13000 150.256
63.14000 151.311
63.15000 151.928
63.16000 157.987
63.17000 162.273
63.18000 160.657
63.19000 153.740
63.20000 146.907
63.21000 145.108
63.22000 146.277
63.23000 147.406
63.24000 148.308
63.25000 149.075
63.26000 149.678
63.27000 148.585
63.28000 147.040
63.29000 146.009
63.30000 148.175
63.31000 150.893
63.32000 153.110
63.33000 154.394
63.34000 155.365
63.35000 154.777
63.36000 150.009
63.37000 145.011
63.38000 143.568
63.39000 148.542
63.40000 153.647
63.41000 156.426
63.42000 153.922
63.43000 152.198
63.44000 150.670
63.45000 149.293
63.46000 147.979
63.47000 149.042
63.48000 151.310
63.49000 153.474
63.50000 152.361
63.51000 150.285
63.52000 148.927
63.53000 153.657
63.54000 159.772
63.55000 164.312
63.56000 160.585
63.57000 155.662
63.58000 151.779
63.59000 154.409
63.60000 156.958
63.61000 156.640
63.62000 149.689
63.63000 142.470
63.64000 138.814
63.65000 140.688
63.66000 142.625
63.67000 143.598
63.68000 152.872
63.69000 158.999
63.70000 159.273
63.71000 155.722
63.72000 152.298
63.73000 152.152
63.74000 153.441
63.75000 154.654
63.76000 156.829
63.77000 159.076
63.78000 160.884
63.79000 159.617
63.80000 157.754
63.81000 156.343
63.82000 156.944
63.83000 157.786
63.84000 158.426
63.85000 154.612
63.86000 151.383
63.87000 151.251
63.88000 157.305
63.89000 163.531
63.90000 165.747
63.91000 162.633
63.92000 159.495
63.93000 159.046
63.94000 160.884
63.95000 162.695
63.96000 163.105
63.97000 162.729
63.98000 162.322
63.99000 161.343
64.00000 160.148
64.01000 159.043
64.02000 157.163
64.03000 155.300
64.04000 153.469
64.05000 151.832
64.06000 150.227
64.07000 149.641
64.08000 152.940
64.09000 156.619
64.10000 159.300
64.11000 161.937
64.12000 163.966
64.13000 166.345
64.14000 169.329
64.15000 172.322
64.16000 172.412
64.17000 169.217
64.18000 166.031
64.19000 163.800
64.20000 162.276
64.21000 160.889
64.22000 164.006
64.23000 169.304
64.24000 174.100
64.25000 171.709
64.26000 166.973
64.27000 162.679
64.28000 162.229
64.29000 162.565
64.30000 162.749
64.31000 162.176
64.32000 161.499
64.33000 161.711
64.34000 164.837
64.35000 168.191
64.36000 170.525
64.37000 174.300
64.38000 177.187
64.39000 176.261
64.40000 169.699
64.41000 163.087
64.42000 162.644
64.43000 168.089
64.44000 173.489
64.45000 176.917
64.46000 179.079
64.47000 181.098
64.48000 179.827
64.49000 177.181
64.50000 174.625
64.51000 173.103
64.52000 171.871
64.53000 170.777
64.54000 167.422
64.55000 164.157
64.56000 161.806
64.57000 163.337
64.58000 165.304
64.59000 167.312
64.60000 169.434
64.61000 171.563
64.62000 172.971
64.63000 175.352
64.64000 177.127
64.65000 178.016
64.66000 177.786
64.67000 177.562
64.68000 180.860
64.69000 187.007
64.70000 193.063
64.71000 194.165
64.72000 192.659
64.73000 191.230
64.74000 191.114
64.75000 191.474
64.76000 191.855
64.77000 192.435
64.78000 193.064
64.79000 193.609
64.80000 197.050
64.81000 200.357
64.82000 202.871
64.83000 202.508
64.84000 201.882
64.85000 203.659
64.86000 211.298
64.87000 219.203
64.88000 224.140
64.89000 221.333
64.90000 219.226
64.91000 217.340
64.92000 215.691
64.93000 214.122
64.94000 222.317
64.95000 237.257
64.96000 251.854
64.97000 257.016
64.98000 257.787
64.99000 258.890
65.00000 264.404
65.01000 271.289
65.02000 278.052
65.03000 283.903
65.04000 289.566
65.05000 294.335
65.06000 298.992
65.07000 302.865
65.08000 307.525
65.09000 314.645
65.10000 321.943
65.11000 330.254
65.12000 340.701
65.13000 351.217
65.14000 357.381
65.15000 372.125
65.16000 382.550
65.17000 388.161
65.18000 389.418
65.19000 390.713
65.20000 394.345
65.21000 399.364
65.22000 404.216
65.23000 410.367
65.24000 416.662
65.25000 422.170
65.26000 419.398
65.27000 414.412
65.28000 410.131
65.29000 410.267
65.30000 411.171
65.31000 411.909
65.32000 427.125
65.33000 440.829
65.34000 448.242
65.35000 438.694
65.36000 428.204
65.37000 417.524
65.38000 406.500
65.39000 395.468
65.40000 389.446
65.41000 401.812
65.42000 410.297
65.43000 410.552
65.44000 404.483
65.45000 398.459
65.46000 394.134
65.47000 390.678
65.48000 387.379
65.49000 381.889
65.50000 376.088
65.51000 370.902
65.52000 370.987
65.53000 372.278
65.54000 373.501
65.55000 374.362
65.56000 375.171
65.57000 375.809
65.58000 373.640
65.59000 371.707
65.60000 374.385
65.61000 387.793
65.62000 401.639
65.63000 412.408
65.64000 418.370
65.65000 424.275
65.66000 427.250
65.67000 485.989
65.68000 525.329
65.69000 572.444
65.70000 624.670
65.71000 677.469
65.72000 745.165
65.73000 819.428
65.74000 889.297
65.75000 968.801
65.76000 1044.068
65.77000 1117.191
65.78000 1175.142
65.79000 1230.135
65.80000 1284.682
65.81000 1337.224
65.82000 1389.523
65.83000 1429.311
65.84000 1447.117
65.85000 1459.973
65.86000 1466.812
65.87000 1461.560
65.88000 1455.968
65.89000 1442.690
65.90000 1419.129
65.91000 1395.534
65.92000 1358.889
65.93000 1311.153
65.94000 1263.051
65.95000 1195.837
65.96000 1117.822
65.97000 1039.666
65.98000 958.828
65.99000 876.969
66.00000 801.247
66.01000 726.221
66.02000 658.980
66.03000 593.293
66.04000 536.807
66.05000 481.837
66.06000 434.681
66.07000 417.534
66.08000 403.346
66.09000 392.991
66.10000 370.740
66.11000 353.127
66.12000 342.673
66.13000 344.621
66.14000 346.788
66.15000 342.597
66.16000 331.168
66.17000 319.771
66.18000 322.359
66.19000 335.058
66.20000 347.412
66.21000 348.256
66.22000 343.494
66.23000 339.731
66.24000 350.434
66.25000 365.886
66.26000 379.907
66.27000 390.113
66.28000 398.390
66.29000 408.549
66.30000 428.142
66.31000 449.034
66.32000 467.579
66.33000 478.385
66.34000 488.582
66.35000 495.691
66.36000 516.909
66.37000 533.312
66.38000 540.734
66.39000 534.793
66.40000 528.726
66.41000 529.129
66.42000 535.748
66.43000 542.315
66.44000 543.551
66.45000 541.486
66.46000 539.174
66.47000 531.065
66.48000 520.518
66.49000 510.251
66.50000 503.173
66.51000 496.996
66.52000 491.512
66.53000 467.640
66.54000 444.003
66.55000 422.488
66.56000 410.030
66.57000 398.599
66.58000 388.144
66.59000 380.461
66.60000 372.947
66.61000 367.969
66.62000 368.894
66.63000 369.684
66.64000 366.063
66.65000 356.832
66.66000 347.590
66.67000 341.645
66.68000 338.384
66.69000 335.170
66.70000 337.295
66.71000 342.153
66.72000 346.782
66.73000 347.453
66.74000 346.688
66.75000 345.896
66.76000 344.854
66.77000 343.751
66.78000 342.796
66.79000 350.397
66.80000 357.999
66.81000 364.693
66.82000 368.072
66.83000 371.145
66.84000 371.743
66.85000 366.265
66.86000 360.508
66.87000 356.903
66.88000 363.705
66.89000 368.727
66.90000 369.607
66.91000 366.014
66.92000 362.499
66.93000 368.924
66.94000 382.258
66.95000 395.290
66.96000 397.005
66.97000 393.608
66.98000 390.261
66.99000 387.587
67.00000 385.123
67.01000 383.399
67.02000 387.276
67.03000 392.310
67.04000 396.555
67.05000 394.786
67.06000 392.658
67.07000 389.771
67.08000 384.493
67.09000 379.042
67.10000 379.977
67.11000 394.445
67.12000 409.353
67.13000 418.116
67.14000 414.502
67.15000 411.894
67.16000 416.497
67.17000 427.665
67.18000 438.689
67.19000 440.498
67.20000 436.813
67.21000 433.247
67.22000 434.519
67.23000 437.553
67.24000 439.970
67.25000 435.828
67.26000 429.922
67.27000 425.458
67.28000 430.096
67.29000 436.328
67.30000 441.425
67.31000 446.496
67.32000 450.648
67.33000 453.113
67.34000 451.003
67.35000 448.638
67.36000 447.132
67.37000 447.200
67.38000 447.300
67.39000 447.355
67.40000 450.852
67.41000 453.249
67.42000 452.761
67.43000 450.042
67.44000 447.483
67.45000 451.096
67.46000 457.880
67.47000 464.361
67.48000 469.308
67.49000 473.412
67.50000 477.053
67.51000 476.699
67.52000 475.424
67.53000 475.497
67.54000 482.736
67.55000 491.028
67.56000 497.586
67.57000 495.855
67.58000 493.895
67.59000 491.042
67.60000 486.100
67.61000 481.071
67.62000 481.205
67.63000 489.457
67.64000 497.807
67.65000 502.029
67.66000 517.354
67.67000 527.581
67.68000 535.163
67.69000 540.994
67.70000 546.691
67.71000 548.865
67.72000 549.477
67.73000 550.053
67.74000 543.821
67.75000 536.263
67.76000 530.912
67.77000 541.289
67.78000 554.752
67.79000 566.948
67.80000 573.416
67.81000 579.187
67.82000 583.584
67.83000 572.543
67.84000 563.032
67.85000 557.723
67.86000 560.907
67.87000 564.336
67.88000 568.637
67.89000 574.113
67.90000 579.592
67.91000 584.595
67.92000 589.179
67.93000 593.694
67.94000 594.578
67.95000 593.396
67.96000 592.537
67.97000 597.859
67.98000 605.547
67.99000 612.663
68.00000 617.859
68.01000 622.087
68.02000 626.072
68.03000 628.605
68.04000 630.897
68.05000 634.047
68.06000 640.510
68.07000 647.303
68.08000 652.270
68.09000 656.426
68.10000 659.600
68.11000 661.281
68.12000 660.363
68.13000 659.397
68.14000 665.006
68.15000 678.152
68.16000 691.263
68.17000 694.920
68.18000 691.652
68.19000 688.585
68.20000 692.356
68.21000 699.478
68.22000 706.845
68.23000 717.787
68.24000 729.911
68.25000 740.921
68.26000 740.819
68.27000 738.578
68.28000 735.218
68.29000 726.210
68.30000 716.418
68.31000 712.668
68.32000 728.973
68.33000 746.874
68.34000 759.379
68.35000 771.628
68.36000 780.874
68.37000 789.560
68.38000 797.409
68.39000 805.250
68.40000 817.237
68.41000 833.238
68.42000 849.115
68.43000 864.287
68.44000 878.763
68.45000 893.098
68.46000 904.110
68.47000 913.716
68.48000 924.079
68.49000 943.143
68.50000 964.681
68.51000 983.820
68.52000 1003.382
68.53000 1020.419
68.54000 1038.411
68.55000 1060.506
68.56000 1083.071
68.57000 1108.179
68.58000 1140.562
68.59000 1173.396
68.60000 1195.198
68.61000 1290.800
68.62000 1362.836
68.63000 1436.198
68.64000 1511.255
68.65000 1586.316
68.66000 1660.035
68.67000 1732.654
68.68000 1804.255
68.69000 1883.012
68.70000 1963.302
68.71000 2043.530
68.72000 2122.673
68.73000 2201.419
68.74000 2279.141
68.75000 2347.345
68.76000 2413.228
68.77000 2470.367
68.78000 2577.000
68.79000 2674.408
68.80000 2783.267
68.81000 2934.253
68.82000 3089.151
68.83000 3268.667
68.84000 3508.965
68.85000 3752.085
68.86000 3904.677
68.87000 4579.322
68.88000 5072.628
68.89000 5882.186
68.90000 7035.422
68.91000 8195.299
68.92000 10201.519
68.93000 12799.624
68.94000 15340.046
68.95000 19716.619
68.96000 24735.900
68.97000 29857.371
68.98000 36357.922
68.99000 43292.738
69.00000 50236.727
69.01000 57250.648
69.02000 64279.121
69.03000 70211.531
69.04000 75712.148
69.05000 80261.656
69.06000 84249.797
69.07000 86461.547
69.08000 88542.438
69.09000 90124.594
69.10000 90643.594
69.11000 91127.477
69.12000 91412.664
69.13000 92343.016
69.14000 93003.055
69.15000 93568.602
69.16000 94047.539
69.17000 94509.109
69.18000 93842.031
69.19000 92497.641
69.20000 91196.609
69.21000 88522.656
69.22000 85472.375
69.23000 82315.375
69.24000 78014.836
69.25000 73404.625
69.26000 68856.570
69.27000 64703.523
69.28000 60620.117
69.29000 57275.953
69.30000 54290.332
69.31000 51874.336
69.32000 49658.059
69.33000 47986.738
69.34000 46346.336
69.35000 44705.199
69.36000 43062.707
69.37000 41420.188
69.38000 40518.035
69.39000 36581.637
69.40000 33866.309
69.41000 30881.471
69.42000 27686.854
69.43000 24492.186
69.44000 21295.465
69.45000 18097.688
69.46000 15041.158
69.47000 12458.469
69.48000 10209.406
69.49000 8054.136
69.50000 6714.833
69.51000 5564.782
69.52000 4502.589
69.53000 3910.694
69.54000 3388.415
69.55000 2974.767
69.56000 2668.491
69.57000 2429.743
69.58000 2228.730
69.59000 2116.612
69.60000 2008.220
69.61000 1907.590
69.62000 1819.238
69.63000 1731.039
69.64000 1686.300
69.65000 1604.464
69.66000 1549.649
69.67000 1495.475
69.68000 1441.727
69.69000 1388.300
69.70000 1343.461
69.71000 1302.453
69.72000 1263.822
69.73000 1240.075
69.74000 1222.433
69.75000 1202.770
69.76000 1168.590
69.77000 1131.543
69.78000 1097.505
69.79000 1077.151
69.80000 1058.477
69.81000 1044.225
69.82000 1022.089
69.83000 1004.224
69.84000 988.351
69.85000 976.532
69.86000 964.831
69.87000 953.921
69.88000 944.085
69.89000 934.261
69.90000 921.820
69.91000 907.132
69.92000 892.536
69.93000 882.983
69.94000 876.313
69.95000 869.234
69.96000 854.225
69.97000 836.162
69.98000 819.429
69.99000 810.262
70.00000 803.770
