20.00000 530.036
20.01000 540.921
20.02000 553.361
20.03000 564.781
20.04000 572.241
20.05000 579.305
20.06000 584.477
20.07000 575.679
20.08000 568.331
20.09000 562.975
20.10000 561.107
20.11000 559.302
20.12000 555.531
20.13000 549.493
20.14000 543.472
20.15000 546.339
20.16000 555.699
20.17000 564.695
20.18000 561.195
20.19000 551.542
20.20000 542.748
20.21000 546.612
20.22000 554.678
20.23000 562.006
20.24000 557.511
20.25000 551.238
20.26000 545.752
20.27000 544.259
20.28000 543.323
20.29000 543.105
20.30000 545.284
20.31000 547.655
20.32000 549.313
20.33000 543.895
20.34000 539.598
20.35000 540.909
20.36000 550.654
20.37000 560.482
20.38000 563.591
20.39000 560.162
20.40000 556.758
20.41000 553.199
20.42000 549.603
20.43000 546.176
20.44000 546.813
20.45000 549.176
20.46000 551.154
20.47000 548.656
20.48000 544.881
20.49000 541.523
20.50000 549.559
20.51000 558.383
20.52000 565.595
20.53000 565.846
20.54000 565.296
20.55000 561.416
20.56000 547.969
20.57000 533.925
20.58000 524.584
20.59000 535.138
20.60000 543.320
20.61000 548.465
20.62000 549.702
20.63000 550.929
20.64000 554.524
20.65000 560.069
20.66000 565.538
20.67000 561.937
20.68000 553.636
20.69000 545.552
20.70000 541.299
20.71000 538.452
20.72000 536.128
20.73000 538.692
20.74000 542.453
20.75000 545.718
20.76000 554.029
20.77000 561.788
20.78000 567.427
20.79000 565.229
20.80000 562.299
20.81000 558.397
20.82000 552.084
20.83000 545.659
20.84000 541.618
20.85000 539.609
20.86000 538.179
20.87000 540.392
20.88000 546.585
20.89000 552.747
20.90000 554.376
20.91000 552.821
20.92000 551.300
20.93000 547.475
20.94000 542.768
20.95000 538.657
20.96000 542.653
20.97000 549.214
20.98000 555.349
20.99000 558.222
21.00000 560.414
21.01000 562.265
21.02000 550.684
21.03000 539.525
21.04000 533.244
21.05000 542.472
21.06000 552.852
21.07000 559.177
21.08000 556.817
21.09000 554.167
21.10000 552.601
21.11000 556.050
21.12000 558.513
21.13000 560.070
21.14000 560.790
21.15000 561.387
21.16000 553.769
21.17000 541.197
21.18000 529.026
21.19000 531.792
21.20000 540.132
21.21000 548.371
21.22000 555.505
21.23000 562.339
21.24000 566.867
21.25000 556.664
21.26000 543.849
21.27000 533.344
21.28000 532.400
21.29000 532.473
21.30000 531.547
21.31000 527.880
21.32000 524.058
21.33000 526.745
21.34000 541.461
21.35000 556.442
21.36000 564.690
21.37000 561.237
21.38000 558.827
21.39000 553.187
21.40000 545.022
21.41000 537.056
21.42000 537.059
21.43000 541.200
21.44000 545.159
21.45000 549.626
21.46000 553.950
21.47000 557.319
21.48000 552.334
21.49000 545.403
21.50000 539.953
21.51000 542.477
21.52000 546.188
21.53000 549.131
21.54000 546.559
21.55000 544.105
21.56000 542.371
21.57000 542.346
21.58000 542.392
21.59000 542.931
21.60000 544.253
21.61000 545.584
21.62000 546.262
21.63000 542.471
21.64000 539.980
21.65000 542.780
21.66000 549.118
21.67000 555.179
21.68000 553.753
21.69000 548.971
21.70000 544.465
21.71000 548.876
21.72000 555.378
21.73000 561.190
21.74000 562.015
21.75000 561.850
21.76000 562.437
21.77000 566.465
21.78000 570.918
21.79000 574.321
21.80000 568.462
21.81000 563.342
21.82000 562.756
21.83000 571.435
21.84000 580.388
21.85000 585.481
21.86000 585.318
21.87000 585.125
21.88000 586.324
21.89000 588.737
21.90000 591.246
21.91000 599.137
21.92000 610.121
21.93000 620.486
21.94000 618.729
21.95000 612.281
21.96000 606.305
21.97000 616.839
21.98000 630.172
21.99000 641.897
22.00000 643.901
22.01000 644.274
22.02000 645.441
22.03000 649.709
22.04000 654.291
22.05000 657.651
22.06000 661.374
22.07000 664.265
22.08000 666.032
22.09000 665.818
22.10000 665.567
22.11000 660.740
22.12000 650.607
22.13000 640.496
22.14000 638.092
22.15000 641.392
22.16000 644.585
22.17000 643.999
22.18000 641.541
22.19000 639.003
22.20000 635.257
22.21000 631.109
22.22000 627.336
22.23000 627.093
22.24000 627.570
22.25000 625.879
22.26000 613.120
22.27000 598.806
22.28000 585.773
22.29000 577.038
22.30000 568.652
22.31000 562.773
22.32000 567.016
22.33000 570.518
22.34000 569.383
22.35000 561.232
22.36000 553.008
22.37000 549.549
22.38000 550.757
22.39000 551.957
22.40000 548.801
22.41000 542.968
22.42000 537.155
22.43000 531.824
22.44000 526.701
22.45000 522.068
22.46000 523.178
22.47000 525.938
22.48000 528.395
22.49000 525.146
22.50000 521.390
22.51000 518.978
22.52000 522.401
22.53000 526.502
22.54000 529.603
22.55000 529.813
22.56000 529.840
22.57000 529.858
22.58000 532.056
22.59000 533.724
22.60000 533.420
22.61000 530.560
22.62000 527.696
22.63000 527.500
22.64000 529.515
22.65000 531.504
22.66000 530.151
22.67000 527.055
22.68000 523.978
22.69000 521.243
22.70000 518.635
22.71000 515.739
22.72000 510.121
22.73000 503.831
22.74000 498.367
22.75000 501.102
22.76000 504.544
22.77000 507.661
22.78000 509.565
22.79000 511.355
22.80000 513.616
22.81000 517.052
22.82000 520.543
22.83000 522.744
22.84000 511.460
22.85000 503.137
22.86000 499.626
22.87000 501.408
22.88000 503.194
22.89000 504.946
22.90000 506.674
22.91000 508.365
22.92000 508.746
22.93000 508.518
22.94000 508.113
22.95000 505.280
22.96000 501.673
22.97000 498.444
22.98000 498.124
22.99000 498.418
23.00000 498.666
23.01000 500.635
23.02000 502.473
23.03000 504.763
23.04000 508.499
23.05000 512.344
23.06000 516.265
23.07000 520.351
23.08000 524.442
23.09000 526.865
23.10000 520.268
23.11000 515.553
23.12000 514.549
23.13000 516.987
23.14000 519.394
23.15000 519.638
23.16000 518.570
23.17000 517.536
23.18000 515.522
23.19000 513.238
23.20000 510.774
23.21000 506.337
23.22000 501.361
23.23000 496.221
23.24000 490.030
23.25000 483.650
23.26000 478.414
23.27000 486.764
23.28000 494.833
23.29000 501.562
23.30000 504.595
23.31000 507.413
23.32000 508.390
23.33000 505.944
23.34000 503.421
23.35000 502.028
23.36000 499.607
23.37000 497.939
23.38000 497.185
23.39000 497.152
23.40000 497.072
23.41000 495.100
23.42000 492.141
23.43000 489.310
23.44000 489.030
23.45000 489.606
23.46000 490.282
23.47000 491.835
23.48000 493.594
23.49000 495.146
23.50000 495.574
23.51000 495.834
23.52000 496.040
23.53000 505.099
23.54000 513.017
23.55000 516.224
23.56000 508.212
23.57000 499.718
23.58000 495.959
23.59000 499.772
23.60000 503.684
23.61000 505.681
23.62000 499.604
23.63000 495.544
23.64000 493.682
23.65000 493.297
23.66000 492.985
23.67000 494.660
23.68000 497.231
23.69000 499.655
23.70000 497.605
23.71000 494.483
23.72000 491.849
23.73000 492.764
23.74000 494.388
23.75000 495.070
23.76000 491.418
23.77000 487.227
23.78000 484.019
23.79000 485.767
23.80000 487.418
23.81000 488.259
23.82000 487.439
23.83000 486.568
23.84000 486.989
23.85000 489.181
23.86000 491.381
23.87000 493.922
23.88000 496.757
23.89000 499.528
23.90000 498.592
23.91000 495.513
23.92000 492.637
23.93000 493.766
23.94000 496.454
23.95000 498.947
23.96000 488.193
23.97000 475.395
23.98000 465.596
23.99000 474.051
24.00000 485.590
24.01000 495.093
24.02000 496.586
24.03000 497.264
24.04000 497.762
24.05000 497.683
24.06000 497.599
24.07000 496.686
24.08000 494.307
24.09000 491.899
24.10000 489.170
24.11000 486.066
24.12000 482.970
24.13000 478.635
24.14000 473.409
24.15000 468.441
24.16000 472.628
24.17000 481.377
24.18000 489.722
24.19000 492.003
24.20000 492.247
24.21000 492.469
24.22000 488.991
24.23000 485.182
24.24000 480.591
24.25000 471.982
24.26000 462.806
24.27000 459.588
24.28000 476.491
24.29000 495.037
24.30000 508.063
24.31000 496.181
24.32000 486.457
24.33000 482.400
24.34000 486.975
24.35000 491.641
24.36000 491.594
24.37000 486.900
24.38000 482.239
24.39000 480.177
24.40000 479.787
24.41000 479.402
24.42000 479.139
24.43000 478.927
24.44000 478.654
24.45000 477.656
24.46000 476.449
24.47000 475.373
24.48000 474.162
24.49000 473.087
24.50000 473.483
24.51000 480.314
24.52000 487.898
24.53000 493.039
24.54000 491.078
24.55000 488.663
24.56000 487.050
24.57000 487.989
24.58000 488.734
24.59000 487.300
24.60000 483.026
24.61000 478.748
24.62000 478.167
24.63000 480.673
24.64000 483.145
24.65000 483.069
24.66000 481.628
24.67000 480.404
24.68000 483.081
24.69000 487.206
24.70000 490.546
24.71000 486.423
24.72000 480.449
24.73000 475.252
24.74000 475.525
24.75000 476.504
24.76000 477.586
24.77000 479.053
24.78000 480.556
24.79000 479.329
24.80000 471.248
24.81000 462.837
24.82000 457.523
24.83000 462.008
24.84000 465.372
24.85000 466.405
24.86000 464.855
24.87000 463.363
24.88000 470.484
24.89000 483.736
24.90000 496.707
24.91000 489.972
24.92000 474.511
24.93000 460.159
24.94000 461.205
24.95000 467.181
24.96000 472.411
24.97000 471.829
24.98000 470.015
24.99000 468.480
25.00000 470.340
25.01000 472.277
25.02000 472.994
25.03000 469.785
25.04000 466.279
25.05000 463.605
25.06000 462.733
25.07000 461.924
25.08000 461.443
25.09000 464.666
25.10000 466.968
25.11000 469.657
25.12000 472.707
25.13000 475.628
25.14000 469.660
25.15000 458.266
25.16000 447.225
25.17000 449.454
25.18000 456.719
25.19000 463.547
25.20000 465.577
25.21000 466.286
25.22000 467.514
25.23000 472.106
25.24000 477.303
25.25000 481.574
25.26000 469.528
25.27000 458.162
25.28000 453.800
25.29000 468.874
25.30000 485.085
25.31000 490.806
25.32000 476.913
25.33000 462.571
25.34000 454.628
25.35000 446.884
25.36000 441.562
25.37000 443.335
25.38000 450.731
25.39000 457.992
25.40000 459.685
25.41000 458.451
25.42000 457.270
25.43000 458.513
25.44000 460.472
25.45000 461.930
25.46000 458.924
25.47000 454.865
25.48000 451.635
25.49000 452.925
25.50000 454.897
25.51000 456.466
25.52000 460.033
25.53000 463.050
25.54000 463.296
25.55000 456.906
25.56000 450.227
25.57000 447.206
25.58000 450.071
25.59000 453.016
25.60000 454.524
25.61000 458.399
25.62000 461.024
25.63000 465.924
25.64000 472.364
25.65000 478.395
25.66000 473.071
25.67000 462.597
25.68000 452.713
25.69000 454.675
25.70000 459.791
25.71000 463.739
25.72000 459.124
25.73000 452.785
25.74000 446.914
25.75000 443.206
25.76000 439.770
25.77000 437.135
25.78000 435.719
25.79000 434.668
25.80000 435.824
25.81000 441.547
25.82000 447.408
25.83000 451.738
25.84000 453.956
25.85000 456.159
25.86000 456.775
25.87000 455.987
25.88000 455.267
25.89000 458.500
25.90000 464.031
25.91000 469.403
25.92000 471.587
25.93000 472.523
25.94000 473.392
25.95000 469.753
25.96000 465.407
25.97000 461.602
25.98000 461.114
25.99000 461.191
26.00000 460.159
26.01000 454.736
26.02000 448.862
26.03000 444.538
26.04000 450.818
26.05000 456.116
26.06000 459.319
26.07000 458.786
26.08000 458.180
26.09000 459.002
26.10000 461.501
26.11000 463.996
26.12000 465.221
26.13000 465.487
26.14000 465.669
26.15000 462.831
26.16000 458.478
26.17000 454.508
26.18000 456.360
26.19000 460.179
26.20000 463.659
26.21000 453.343
26.22000 441.464
26.23000 432.580
26.24000 439.182
26.25000 447.992
26.26000 453.928
26.27000 450.101
26.28000 445.470
26.29000 442.212
26.30000 441.653
26.31000 441.309
26.32000 440.929
26.33000 440.492
26.34000 440.054
26.35000 442.368
26.36000 447.414
26.37000 452.426
26.38000 452.623
26.39000 449.759
26.40000 447.050
26.41000 448.166
26.42000 450.936
26.43000 453.288
26.44000 450.646
26.45000 446.552
26.46000 442.901
26.47000 440.237
26.48000 438.084
26.49000 436.540
26.50000 437.680
26.51000 439.137
26.52000 441.147
26.53000 444.777
26.54000 448.512
26.55000 451.013
26.56000 446.921
26.57000 443.756
26.58000 442.645
26.59000 444.228
26.60000 445.813
26.61000 442.202
26.62000 434.227
26.63000 426.354
26.64000 426.842
26.65000 431.830
26.66000 436.840
26.67000 442.253
26.68000 447.816
26.69000 452.640
26.70000 450.389
26.71000 446.370
26.72000 442.871
26.73000 436.317
26.74000 430.299
26.75000 426.792
26.76000 432.734
26.77000 439.584
26.78000 444.314
26.79000 443.689
26.80000 442.804
26.81000 442.243
26.82000 442.266
26.83000 442.289
26.84000 443.185
26.85000 445.054
26.86000 446.925
26.87000 448.827
26.88000 450.754
26.89000 452.640
26.90000 449.533
26.91000 444.254
26.92000 439.540
26.93000 442.757
26.94000 448.528
26.95000 452.778
26.96000 445.089
26.97000 434.853
26.98000 426.176
26.99000 426.803
27.00000 428.375
27.01000 430.490
27.02000 434.360
27.03000 438.364
27.04000 443.062
27.05000 449.271
27.06000 455.532
27.07000 459.260
27.08000 456.244
27.09000 454.066
27.10000 449.636
27.11000 443.088
27.12000 436.590
27.13000 433.690
27.14000 432.999
27.15000 432.328
27.16000 435.193
27.17000 439.288
27.18000 443.235
27.19000 445.540
27.20000 447.391
27.21000 448.211
27.22000 442.308
27.23000 435.187
27.24000 429.328
27.25000 428.166
27.26000 427.637
27.27000 428.451
27.28000 433.011
27.29000 437.793
27.30000 438.648
27.31000 432.116
27.32000 425.413
27.33000 421.689
27.34000 430.692
27.35000 436.934
27.36000 441.679
27.37000 445.230
27.38000 448.514
27.39000 440.555
27.40000 426.651
27.41000 413.335
27.42000 415.355
27.43000 422.337
27.44000 428.571
27.45000 428.107
27.46000 426.051
27.47000 424.801
27.48000 427.978
27.49000 431.829
27.50000 434.895
27.51000 434.061
27.52000 433.107
27.53000 431.774
27.54000 429.526
27.55000 427.239
27.56000 428.440
27.57000 435.291
27.58000 442.219
27.59000 445.779
27.60000 445.610
27.61000 445.461
27.62000 441.333
27.63000 434.493
27.64000 428.066
27.65000 433.267
27.66000 443.772
27.67000 453.693
27.68000 446.914
27.69000 435.990
27.70000 427.160
27.71000 433.801
27.72000 443.574
27.73000 449.990
27.74000 440.760
27.75000 429.550
27.76000 420.945
27.77000 419.790
27.78000 419.294
27.79000 420.462
27.80000 425.092
27.81000 429.829
27.82000 431.027
27.83000 427.312
27.84000 423.567
27.85000 421.571
27.86000 421.134
27.87000 420.723
27.88000 421.857
27.89000 423.895
27.90000 426.062
27.91000 430.844
27.92000 436.656
27.93000 442.054
27.94000 443.528
27.95000 443.922
27.96000 443.471
27.97000 437.797
27.98000 431.229
27.99000 425.942
28.00000 425.760
28.01000 426.106
28.02000 426.361
28.03000 428.173
28.04000 429.641
28.05000 429.236
28.06000 425.470
28.07000 421.636
28.08000 420.187
28.09000 421.557
28.10000 422.929
28.11000 426.567
28.12000 431.887
28.13000 437.047
28.14000 436.318
28.15000 432.619
28.16000 429.079
28.17000 427.989
28.18000 427.731
28.19000 427.495
28.20000 422.816
28.21000 417.780
28.22000 413.726
28.23000 414.792
28.24000 416.593
28.25000 418.333
28.26000 419.866
28.27000 421.381
28.28000 422.449
28.29000 421.388
28.30000 420.518
28.31000 420.630
28.32000 422.256
28.33000 423.898
28.34000 425.921
28.35000 428.326
28.36000 430.715
28.37000 429.050
28.38000 424.819
28.39000 420.595
28.40000 416.532
28.41000 412.538
28.42000 409.087
28.43000 412.171
28.44000 417.168
28.45000 421.627
28.46000 428.061
28.47000 433.992
28.48000 437.920
28.49000 432.982
28.50000 426.989
28.51000 423.042
28.52000 425.121
28.53000 427.592
28.54000 429.250
28.55000 424.960
28.56000 421.655
28.57000 419.020
28.58000 417.269
28.59000 415.515
28.60000 409.548
28.61000 400.017
28.62000 390.607
28.63000 400.888
28.64000 421.599
28.65000 440.915
28.66000 434.460
28.67000 418.320
28.68000 403.900
28.69000 406.097
28.70000 412.470
28.71000 418.025
28.72000 416.690
28.73000 414.595
28.74000 412.895
28.75000 412.690
28.76000 412.630
28.77000 412.199
28.78000 410.825
28.79000 409.406
28.80000 408.504
28.81000 413.700
28.82000 417.546
28.83000 416.031
28.84000 408.498
28.85000 401.013
28.86000 401.955
28.87000 408.971
28.88000 415.842
28.89000 420.625
28.90000 424.257
28.91000 427.555
28.92000 426.108
28.93000 423.124
28.94000 420.925
28.95000 424.936
28.96000 430.280
28.97000 434.815
28.98000 421.899
28.99000 409.085
29.00000 400.275
29.01000 404.509
29.02000 409.749
29.03000 413.201
29.04000 412.726
29.05000 412.113
29.06000 411.747
29.07000 398.753
29.08000 389.461
29.09000 384.231
29.10000 382.850
29.11000 381.561
29.12000 387.028
29.13000 396.669
29.14000 406.019
29.15000 406.309
29.16000 403.018
29.17000 399.863
29.18000 398.234
29.19000 397.031
29.20000 396.855
29.21000 403.431
29.22000 411.238
29.23000 417.671
29.24000 413.871
29.25000 409.805
29.26000 407.593
29.27000 410.585
29.28000 413.889
29.29000 415.934
29.30000 415.594
29.31000 415.198
29.32000 414.978
29.33000 415.068
29.34000 415.127
29.35000 413.865
29.36000 411.543
29.37000 409.287
29.38000 409.850
29.39000 411.913
29.40000 413.889
29.41000 412.566
29.42000 410.228
29.43000 408.153
29.44000 408.468
29.45000 409.354
29.46000 409.056
29.47000 402.216
29.48000 394.373
29.49000 388.119
29.50000 398.633
29.51000 408.339
29.52000 414.185
29.53000 410.675
29.54000 406.747
29.55000 405.029
29.56000 406.908
29.57000 408.837
29.58000 409.832
29.59000 409.704
29.60000 409.583
29.61000 405.488
29.62000 398.668
29.63000 391.941
29.64000 387.874
29.65000 385.026
29.66000 382.336
29.67000 390.542
29.68000 401.168
29.69000 409.977
29.70000 405.261
29.71000 397.788
29.72000 392.415
29.73000 396.886
29.74000 402.612
29.75000 407.015
29.76000 419.514
29.77000 429.860
29.78000 432.407
29.79000 418.636
29.80000 404.352
29.81000 397.888
29.82000 402.350
29.83000 406.883
29.84000 405.164
29.85000 397.842
29.86000 390.723
29.87000 395.884
29.88000 408.276
29.89000 420.348
29.90000 425.853
29.91000 428.756
29.92000 431.454
29.93000 428.315
29.94000 424.081
29.95000 421.093
29.96000 425.842
29.97000 431.927
29.98000 436.743
29.99000 436.482
30.00000 435.690
30.01000 435.106
30.02000 438.417
30.03000 441.149
30.04000 441.569
30.05000 437.816
30.06000 433.978
30.07000 434.291
30.08000 439.547
30.09000 444.800
30.10000 451.285
30.11000 458.664
30.12000 465.736
30.13000 461.331
30.14000 451.105
30.15000 440.933
30.16000 431.601
30.17000 422.557
30.18000 414.306
30.19000 417.372
30.20000 422.375
30.21000 426.593
30.22000 426.701
30.23000 426.214
30.24000 424.971
30.25000 421.131
30.26000 417.074
30.27000 414.207
30.28000 413.889
30.29000 413.726
30.30000 413.678
30.31000 413.809
30.32000 413.942
30.33000 413.294
30.34000 411.860
30.35000 410.435
30.36000 408.711
30.37000 406.820
30.38000 405.056
30.39000 406.527
30.40000 409.415
30.41000 412.478
30.42000 417.673
30.43000 423.497
30.44000 428.699
30.45000 431.228
30.46000 432.981
30.47000 433.134
30.48000 426.162
30.49000 418.337
30.50000 412.834
30.51000 414.210
30.52000 416.039
30.53000 417.269
30.54000 421.578
30.55000 424.843
30.56000 425.855
30.57000 423.873
30.58000 421.878
30.59000 420.756
30.60000 420.378
30.61000 420.004
30.62000 419.098
30.63000 417.925
30.64000 416.830
30.65000 417.226
30.66000 418.184
30.67000 419.717
30.68000 426.848
30.69000 435.394
30.70000 442.851
30.71000 432.389
30.72000 420.939
30.73000 413.422
30.74000 420.900
30.75000 429.842
30.76000 435.231
30.77000 431.541
30.78000 427.398
30.79000 424.762
30.80000 437.673
30.81000 447.249
30.82000 451.788
30.83000 450.636
30.84000 449.512
30.85000 453.742
30.86000 461.854
30.87000 469.802
30.88000 472.056
30.89000 471.574
30.90000 470.895
30.91000 467.408
30.92000 463.004
30.93000 460.207
30.94000 470.212
30.95000 482.983
30.96000 493.834
30.97000 503.387
30.98000 511.258
30.99000 518.558
31.00000 523.992
31.01000 529.280
31.02000 539.566
31.03000 560.877
31.04000 582.585
31.05000 595.577
31.06000 639.404
31.07000 670.713
31.08000 703.302
31.09000 737.111
31.10000 770.938
31.11000 806.031
31.12000 841.913
31.13000 876.729
31.14000 936.810
31.15000 1003.790
31.16000 1072.428
31.17000 1159.775
31.18000 1252.372
31.19000 1345.310
31.20000 1440.498
31.21000 1536.099
31.22000 1614.969
31.23000 1760.333
31.24000 1886.194
31.25000 2011.159
31.26000 2133.592
31.27000 2255.872
31.28000 2375.576
31.29000 2490.375
31.30000 2605.057
31.31000 2669.140
31.32000 2858.480
31.33000 2989.783
31.34000 3086.781
31.35000 3156.057
31.36000 3224.543
31.37000 3258.414
31.38000 3273.764
31.39000 3288.481
31.40000 3299.404
31.41000 3308.326
31.42000 3312.497
31.43000 3273.353
31.44000 3223.788
31.45000 3167.662
31.46000 3075.013
31.47000 2976.727
31.48000 2898.248
31.49000 2759.646
31.50000 2643.288
31.51000 2518.900
31.52000 2374.934
31.53000 2230.084
31.54000 2084.491
31.55000 1937.679
31.56000 1790.850
31.57000 1714.905
31.58000 1561.451
31.59000 1457.953
31.60000 1353.077
31.61000 1247.250
31.62000 1142.190
31.63000 1059.394
31.64000 986.874
31.65000 918.312
31.66000 854.519
31.67000 797.274
31.68000 742.667
31.69000 707.845
31.70000 677.084
31.71000 646.323
31.72000 615.565
31.73000 584.806
31.74000 561.120
31.75000 538.987
31.76000 521.553
31.77000 508.042
31.78000 502.785
31.79000 497.792
31.80000 491.975
31.81000 485.001
31.82000 478.022
31.83000 473.584
31.84000 471.445
31.85000 469.355
31.86000 470.294
31.87000 473.026
31.88000 475.300
31.89000 468.041
31.90000 456.982
31.91000 446.696
31.92000 438.095
31.93000 430.733
31.94000 424.045
31.95000 421.583
31.96000 419.854
31.97000 418.207
31.98000 416.892
31.99000 415.611
32.00000 414.663
32.01000 400.932
32.02000 389.730
32.03000 385.076
32.04000 392.307
32.05000 399.786
32.06000 405.733
32.07000 409.845
32.08000 413.943
32.09000 410.650
32.10000 401.736
32.11000 393.031
32.12000 392.228
32.13000 395.458
32.14000 398.398
32.15000 396.790
32.16000 393.618
32.17000 390.721
32.18000 391.887
32.19000 393.746
32.20000 395.789
32.21000 398.799
32.22000 401.950
32.23000 403.079
32.24000 397.208
32.25000 390.744
32.26000 386.170
32.27000 393.723
32.28000 399.836
32.29000 401.586
32.30000 396.522
32.31000 391.378
32.32000 385.670
32.33000 379.390
32.34000 373.151
32.35000 376.082
32.36000 384.908
32.37000 393.415
32.38000 393.629
32.39000 390.191
32.40000 386.624
32.41000 381.481
32.42000 375.871
32.43000 370.855
32.44000 371.410
32.45000 372.839
32.46000 372.824
32.47000 366.330
32.48000 359.054
32.49000 356.855
32.50000 369.782
32.51000 383.716
32.52000 393.102
32.53000 390.670
32.54000 388.614
32.55000 385.744
32.56000 381.786
32.57000 377.824
32.58000 375.063
32.59000 373.332
32.60000 371.622
32.61000 374.220
32.62000 379.123
32.63000 383.811
32.64000 384.430
32.65000 383.501
32.66000 382.336
32.67000 378.846
32.68000 374.765
32.69000 371.200
32.70000 373.899
32.71000 377.091
32.72000 377.654
32.73000 368.131
32.74000 357.615
32.75000 351.969
32.76000 358.843
32.77000 366.347
32.78000 371.134
32.79000 362.951
32.80000 356.833
32.81000 355.445
32.82000 359.436
32.83000 363.393
32.84000 360.660
32.85000 353.043
32.86000 345.576
32.87000 347.270
32.88000 353.192
32.89000 358.556
32.90000 355.871
32.91000 350.546
32.92000 346.031
32.93000 348.023
32.94000 351.431
32.95000 354.330
32.96000 356.217
32.97000 357.686
32.98000 357.785
32.99000 353.369
33.00000 348.598
33.01000 346.321
33.02000 349.578
33.03000 353.037
33.04000 355.113
33.05000 355.608
33.06000 355.948
33.07000 354.481
33.08000 351.279
33.09000 348.090
33.10000 345.936
33.11000 344.430
33.12000 342.968
33.13000 342.348
33.14000 342.096
33.15000 341.908
33.16000 342.438
33.17000 343.171
33.18000 344.147
33.19000 346.741
33.20000 349.634
33.21000 352.023
33.22000 355.408
33.23000 358.291
33.24000 357.627
33.25000 346.889
33.26000 335.534
33.27000 329.202
33.28000 332.491
33.29000 336.015
33.30000 337.991
33.31000 343.088
33.32000 346.622
33.33000 347.689
33.34000 346.749
33.35000 345.795
33.36000 344.247
33.37000 342.380
33.38000 340.589
33.39000 336.053
33.40000 330.883
33.41000 326.550
33.42000 329.905
33.43000 335.122
33.44000 339.955
33.45000 342.634
33.46000 344.978
33.47000 346.852
33.48000 349.900
33.49000 352.451
33.50000 352.979
33.51000 348.546
33.52000 343.886
33.53000 339.206
33.54000 334.494
33.55000 329.782
33.56000 327.336
33.57000 343.754
33.58000 354.733
33.59000 352.226
33.60000 340.355
33.61000 328.864
33.62000 328.599
33.63000 333.546
33.64000 338.227
33.65000 337.289
33.66000 334.813
33.67000 332.841
33.68000 334.687
33.69000 337.321
33.70000 339.148
33.71000 337.137
33.72000 334.629
33.73000 332.696
33.74000 332.374
33.75000 332.211
33.76000 335.077
33.77000 344.352
33.78000 353.835
33.79000 354.390
33.80000 342.317
33.81000 330.157
33.82000 329.576
33.83000 339.518
33.84000 349.277
33.85000 347.399
33.86000 338.584
33.87000 330.262
33.88000 332.297
33.89000 338.485
33.90000 344.245
33.91000 342.308
33.92000 338.686
33.93000 335.082
33.94000 331.587
33.95000 328.112
33.96000 327.017
33.97000 335.581
33.98000 345.172
33.99000 352.279
34.00000 335.057
34.01000 320.627
34.02000 315.292
34.03000 326.566
34.04000 338.192
34.05000 340.305
34.06000 330.940
34.07000 321.571
34.08000 317.204
34.09000 316.707
34.10000 316.283
34.11000 318.738
34.12000 322.669
34.13000 326.682
34.14000 331.998
34.15000 337.765
34.16000 343.036
34.17000 343.899
34.18000 343.765
34.19000 342.419
34.20000 334.637
34.21000 325.909
34.22000 319.269
34.23000 319.894
34.24000 321.141
34.25000 322.026
34.26000 323.349
34.27000 324.369
34.28000 327.922
34.29000 335.454
34.30000 343.034
34.31000 343.194
34.32000 335.776
34.33000 328.402
34.34000 326.585
34.35000 328.415
34.36000 330.317
34.37000 334.137
34.38000 338.806
34.39000 342.937
34.40000 340.416
34.41000 335.912
34.42000 331.882
34.43000 325.371
34.44000 319.267
34.45000 314.438
34.46000 315.367
34.47000 316.997
34.48000 319.040
34.49000 322.321
34.50000 325.684
34.51000 327.955
34.52000 335.750
34.53000 341.669
34.54000 339.081
34.55000 325.046
34.56000 310.965
34.57000 307.870
34.58000 314.251
34.59000 320.556
34.60000 322.492
34.61000 321.960
34.62000 321.273
34.63000 317.616
34.64000 312.823
34.65000 309.183
34.66000 316.958
34.67000 327.656
34.68000 337.009
34.69000 328.869
34.70000 319.416
34.71000 312.464
34.72000 315.168
34.73000 318.832
34.74000 321.607
34.75000 322.084
34.76000 322.444
34.77000 322.674
34.78000 317.803
34.79000 314.190
34.80000 316.787
34.81000 326.497
34.82000 336.173
34.83000 338.599
34.84000 335.701
34.85000 332.858
34.86000 329.277
34.87000 325.480
34.88000 321.589
34.89000 316.317
34.90000 310.589
34.91000 305.680
34.92000 307.392
34.93000 310.553
34.94000 313.245
34.95000 317.791
34.96000 321.828
34.97000 323.663
34.98000 318.191
34.99000 312.139
35.00000 308.043
35.01000 308.315
35.02000 308.749
35.03000 309.010
35.04000 313.003
35.05000 315.868
35.06000 315.371
35.07000 311.624
35.08000 307.922
35.09000 307.651
35.10000 309.541
35.11000 311.377
35.12000 312.203
35.13000 312.582
35.14000 313.072
35.15000 314.840
35.16000 316.971
35.17000 317.992
35.18000 311.552
35.19000 303.726
35.20000 297.253
35.21000 307.127
35.22000 316.812
35.23000 324.879
35.24000 328.324
35.25000 331.484
35.26000 331.308
35.27000 324.710
35.28000 317.950
35.29000 314.151
35.30000 312.003
35.31000 310.518
35.32000 309.369
35.33000 308.494
35.34000 307.622
35.35000 306.852
35.36000 306.137
35.37000 305.451
35.38000 307.114
35.39000 309.471
35.40000 312.157
35.41000 317.900
35.42000 324.387
35.43000 329.065
35.44000 323.531
35.45000 316.398
35.46000 310.687
35.47000 304.401
35.48000 299.273
35.49000 296.738
35.50000 300.597
35.51000 304.753
35.52000 307.947
35.53000 309.546
35.54000 311.120
35.55000 311.940
35.56000 307.365
35.57000 304.285
35.58000 302.850
35.59000 302.565
35.60000 302.420
35.61000 306.459
35.62000 312.452
35.63000 318.125
35.64000 316.261
35.65000 312.364
35.66000 309.040
35.67000 310.075
35.68000 312.016
35.69000 313.238
35.70000 311.022
35.71000 308.358
35.72000 306.301
35.73000 307.013
35.74000 307.740
35.75000 307.428
35.76000 304.903
35.77000 302.304
35.78000 302.012
35.79000 305.004
35.80000 308.019
35.81000 306.806
35.82000 301.725
35.83000 296.757
35.84000 299.168
35.85000 306.002
35.86000 312.344
35.87000 308.188
35.88000 299.798
35.89000 291.983
35.90000 291.822
35.91000 293.550
35.92000 295.708
35.93000 300.594
35.94000 305.962
35.95000 309.115
35.96000 303.232
35.97000 296.382
35.98000 291.296
35.99000 294.172
36.00000 296.758
36.01000 296.881
36.02000 292.481
36.03000 287.982
36.04000 288.833
36.05000 296.180
36.06000 303.526
36.07000 305.720
36.08000 303.917
36.09000 302.094
36.10000 299.494
36.11000 296.493
36.12000 293.814
36.13000 296.300
36.14000 300.584
36.15000 304.502
36.16000 303.705
36.17000 302.025
36.18000 300.201
36.19000 297.603
36.20000 294.891
36.21000 293.265
36.22000 295.440
36.23000 297.943
36.24000 299.721
36.25000 295.672
36.26000 292.404
36.27000 292.018
36.28000 296.188
36.29000 300.414
36.30000 300.832
36.31000 297.334
36.32000 293.856
36.33000 292.940
36.34000 293.716
36.35000 294.615
36.36000 298.777
36.37000 304.394
36.38000 309.339
36.39000 305.896
36.40000 299.937
36.41000 294.599
36.42000 298.339
36.43000 303.167
36.44000 306.679
36.45000 304.210
36.46000 301.008
36.47000 298.866
36.48000 299.919
36.49000 301.189
36.50000 302.049
36.51000 296.938
36.52000 293.002
36.53000 291.471
36.54000 293.197
36.55000 294.939
36.56000 295.028
36.57000 293.682
36.58000 292.352
36.59000 289.058
36.60000 284.749
36.61000 280.760
36.62000 282.950
36.63000 287.518
36.64000 292.164
36.65000 297.592
36.66000 303.221
36.67000 308.147
36.68000 306.877
36.69000 304.902
36.70000 303.654
36.71000 305.223
36.72000 307.075
36.73000 307.200
36.74000 302.830
36.75000 298.228
36.76000 295.280
36.77000 300.227
36.78000 303.937
36.79000 303.420
36.80000 298.029
36.81000 292.661
36.82000 292.533
36.83000 296.279
36.84000 299.954
36.85000 301.544
36.86000 302.088
36.87000 303.093
36.88000 310.912
36.89000 320.992
36.90000 328.403
36.91000 314.027
36.92000 294.852
36.93000 278.505
36.94000 286.502
36.95000 296.087
36.96000 303.465
36.97000 303.479
36.98000 302.902
36.99000 300.399
37.00000 293.567
37.01000 286.573
37.02000 282.354
37.03000 293.426
37.04000 301.416
37.05000 304.338
37.06000 302.325
37.07000 300.375
37.08000 303.434
37.09000 309.665
37.10000 315.719
37.11000 310.913
37.12000 301.961
37.13000 293.664
37.14000 292.959
37.15000 294.424
37.16000 295.712
37.17000 295.807
37.18000 295.678
37.19000 295.572
37.20000 295.356
37.21000 295.168
37.22000 294.093
37.23000 290.467
37.24000 286.682
37.25000 284.987
37.26000 287.342
37.27000 289.800
37.28000 291.186
37.29000 291.986
37.30000 292.542
37.31000 294.113
37.32000 296.522
37.33000 298.834
37.34000 296.659
37.35000 292.042
37.36000 287.607
37.37000 290.193
37.38000 295.023
37.39000 299.529
37.40000 301.006
37.41000 301.741
37.42000 301.457
37.43000 295.381
37.44000 288.392
37.45000 282.788
37.46000 292.654
37.47000 301.812
37.48000 306.340
37.49000 299.378
37.50000 291.877
37.51000 289.077
37.52000 294.122
37.53000 299.289
37.54000 301.988
37.55000 302.020
37.56000 302.047
37.57000 302.822
37.58000 304.123
37.59000 305.363
37.60000 304.748
37.61000 303.261
37.62000 301.852
37.63000 296.003
37.64000 289.323
37.65000 283.659
37.66000 285.787
37.67000 289.545
37.68000 291.929
37.69000 287.704
37.70000 282.609
37.71000 278.668
37.72000 280.787
37.73000 282.826
37.74000 285.697
37.75000 290.353
37.76000 295.068
37.77000 296.448
37.78000 293.051
37.79000 289.617
37.80000 286.670
37.81000 284.172
37.82000 281.793
37.83000 287.193
37.84000 297.288
37.85000 306.860
37.86000 305.135
37.87000 298.828
37.88000 292.949
37.89000 284.246
37.90000 275.673
37.91000 269.174
37.92000 275.939
37.93000 285.057
37.94000 293.682
37.95000 300.280
37.96000 306.659
37.97000 311.403
37.98000 299.308
37.99000 289.151
38.00000 284.923
38.01000 291.651
38.02000 298.621
38.03000 301.707
38.04000 300.045
38.05000 298.375
38.06000 293.044
38.07000 284.891
38.08000 277.032
38.09000 280.995
38.10000 291.099
38.11000 300.959
38.12000 306.880
38.13000 311.422
38.14000 315.579
38.15000 309.989
38.16000 302.996
38.17000 297.828
38.18000 302.491
38.19000 308.619
38.20000 312.901
38.21000 310.682
38.22000 307.897
38.23000 305.915
38.24000 307.482
38.25000 308.790
38.26000 309.493
38.27000 309.234
38.28000 308.962
38.29000 309.353
38.30000 310.429
38.31000 311.499
38.32000 314.764
38.33000 319.436
38.34000 323.985
38.35000 325.184
38.36000 324.883
38.37000 325.083
38.38000 331.600
38.39000 340.022
38.40000 347.573
38.41000 352.462
38.42000 356.272
38.43000 362.083
38.44000 377.046
38.45000 393.140
38.46000 409.268
38.47000 425.496
38.48000 441.731
38.49000 452.737
38.50000 472.104
38.51000 486.730
38.52000 505.712
38.53000 530.630
38.54000 555.580
38.55000 578.198
38.56000 598.777
38.57000 619.123
38.58000 648.521
38.59000 682.302
38.60000 715.812
38.61000 744.015
38.62000 770.165
38.63000 797.121
38.64000 832.200
38.65000 869.386
38.66000 901.958
38.67000 930.015
38.68000 953.433
38.69000 973.603
38.70000 981.080
38.71000 987.274
38.72000 995.587
38.73000 1009.442
38.74000 1023.587
38.75000 1032.671
38.76000 1012.351
38.77000 997.128
38.78000 988.057
38.79000 986.123
38.80000 984.094
38.81000 962.036
38.82000 925.077
38.83000 888.811
38.84000 853.078
38.85000 818.885
38.86000 785.082
38.87000 757.076
38.88000 731.006
38.89000 704.055
38.90000 669.858
38.91000 634.055
38.92000 603.498
38.93000 575.665
38.94000 552.553
38.95000 529.897
38.96000 508.767
38.97000 487.762
38.98000 465.919
38.99000 442.185
39.00000 418.378
39.01000 403.982
39.02000 388.233
39.03000 377.001
39.04000 366.925
39.05000 357.980
39.06000 349.001
39.07000 337.114
39.08000 323.375
39.09000 310.022
39.10000 301.282
39.11000 294.851
39.12000 288.954
39.13000 289.315
39.14000 291.476
39.15000 292.984
39.16000 290.042
39.17000 286.260
39.18000 283.126
39.19000 284.227
39.20000 285.543
39.21000 286.347
39.22000 285.666
39.23000 284.891
39.24000 283.721
39.25000 281.780
39.26000 279.819
39.27000 278.711
39.28000 277.832
39.29000 277.222
39.30000 276.735
39.31000 276.348
39.32000 275.969
39.33000 275.933
39.34000 276.085
39.35000 276.231
39.36000 278.093
39.37000 280.430
39.38000 282.048
39.39000 276.899
39.40000 270.079
39.41000 264.326
39.42000 264.671
39.43000 265.986
39.44000 267.041
39.45000 277.342
39.46000 286.395
39.47000 290.847
39.48000 283.815
39.49000 276.237
39.50000 271.589
39.51000 271.862
39.52000 272.212
39.53000 272.396
39.54000 275.996
39.55000 278.405
39.56000 276.474
39.57000 271.474
39.58000 266.751
39.59000 270.599
39.60000 278.499
39.61000 285.985
39.62000 277.556
39.63000 265.122
39.64000 254.122
39.65000 254.211
39.66000 256.636
39.67000 259.136
39.68000 262.000
39.69000 264.912
39.70000 267.168
39.71000 263.733
39.72000 260.665
39.73000 261.730
39.74000 271.704
39.75000 281.981
39.76000 283.826
39.77000 273.518
39.78000 263.115
39.79000 256.727
39.80000 254.066
39.81000 251.467
39.82000 253.029
39.83000 257.116
39.84000 261.141
39.85000 263.785
39.86000 265.867
39.87000 267.808
39.88000 268.457
39.89000 268.724
39.90000 268.160
39.91000 262.246
39.92000 255.376
39.93000 251.254
39.94000 258.496
39.95000 266.976
39.96000 273.292
39.97000 267.143
39.98000 261.796
39.99000 260.232
40.00000 265.705
40.01000 271.336
40.02000 271.508
40.03000 264.964
40.04000 258.415
40.05000 256.079
40.06000 257.056
40.07000 258.021
40.08000 258.527
40.09000 258.793
40.10000 258.909
40.11000 256.583
40.12000 253.397
40.13000 250.479
40.14000 251.797
40.15000 253.855
40.16000 254.953
40.17000 250.851
40.18000 245.968
40.19000 243.381
40.20000 248.937
40.21000 255.209
40.22000 259.680
40.23000 248.378
40.24000 239.245
40.25000 236.904
40.26000 245.429
40.27000 254.097
40.28000 259.335
40.29000 260.997
40.30000 262.650
40.31000 260.860
40.32000 256.804
40.33000 252.968
40.34000 255.158
40.35000 260.066
40.36000 264.609
40.37000 264.505
40.38000 262.992
40.39000 261.633
40.40000 261.636
40.41000 261.875
40.42000 261.452
40.43000 257.976
40.44000 254.119
40.45000 251.238
40.46000 251.334
40.47000 251.636
40.48000 251.841
40.49000 251.926
40.50000 251.986
40.51000 252.576
40.52000 253.891
40.53000 255.211
40.54000 256.642
40.55000 258.171
40.56000 259.682
40.57000 256.515
40.58000 250.777
40.59000 245.236
40.60000 243.602
40.61000 243.490
40.62000 243.608
40.63000 246.063
40.64000 249.127
40.65000 251.813
40.66000 248.917
40.67000 245.620
40.68000 243.224
40.69000 244.377
40.70000 245.892
40.71000 247.935
40.72000 251.371
40.73000 254.880
40.74000 257.139
40.75000 257.005
40.76000 256.874
40.77000 254.835
40.78000 250.566
40.79000 246.309
40.80000 244.938
40.81000 245.730
40.82000 246.506
40.83000 249.404
40.84000 253.218
40.85000 256.783
40.86000 256.595
40.87000 255.146
40.88000 253.464
40.89000 249.858
40.90000 245.822
40.91000 242.374
40.92000 245.037
40.93000 248.009
40.94000 249.745
40.95000 247.307
40.96000 244.528
40.97000 243.714
40.98000 247.365
40.99000 251.188
41.00000 253.506
41.01000 250.224
41.02000 247.842
41.03000 247.680
41.04000 249.710
41.05000 251.681
41.06000 248.658
41.07000 242.434
41.08000 236.381
41.09000 242.615
41.10000 253.573
41.11000 263.303
41.12000 258.545
41.13000 249.596
41.14000 241.745
41.15000 241.441
41.16000 242.569
41.17000 243.506
41.18000 241.973
41.19000 240.468
41.20000 239.607
41.21000 240.623
41.22000 241.759
41.23000 244.285
41.24000 249.540
41.25000 254.866
41.26000 257.886
41.27000 250.670
41.28000 245.621
41.29000 242.515
41.30000 241.031
41.31000 239.586
41.32000 240.020
41.33000 241.489
41.34000 242.901
41.35000 242.629
41.36000 241.787
41.37000 241.162
41.38000 242.604
41.39000 244.560
41.40000 246.622
41.41000 249.301
41.42000 252.080
41.43000 254.313
41.44000 245.819
41.45000 238.104
41.46000 232.661
41.47000 232.924
41.48000 233.463
41.49000 235.752
41.50000 241.000
41.51000 246.296
41.52000 249.080
41.53000 242.510
41.54000 238.054
41.55000 233.976
41.56000 230.166
41.57000 226.540
41.58000 228.719
41.59000 233.657
41.60000 238.339
41.61000 238.579
41.62000 237.488
41.63000 236.251
41.64000 233.874
41.65000 231.256
41.66000 229.586
41.67000 232.548
41.68000 236.127
41.69000 238.904
41.70000 236.808
41.71000 234.849
41.72000 233.173
41.73000 232.115
41.74000 231.077
41.75000 232.107
41.76000 236.134
41.77000 240.185
41.78000 243.523
41.79000 246.195
41.80000 248.777
41.81000 245.116
41.82000 237.644
41.83000 230.496
41.84000 230.545
41.85000 233.548
41.86000 236.350
41.87000 231.675
41.88000 225.570
41.89000 220.932
41.90000 225.814
41.91000 232.408
41.92000 238.582
41.93000 243.013
41.94000 247.253
41.95000 250.416
41.96000 240.456
41.97000 232.098
41.98000 227.572
41.99000 230.211
42.00000 233.015
42.01000 234.227
42.02000 233.468
42.03000 232.705
42.04000 234.409
42.05000 238.052
42.06000 241.631
42.07000 242.586
42.08000 242.162
42.09000 241.837
42.10000 243.158
42.11000 245.063
42.12000 246.809
42.13000 245.649
42.14000 244.006
42.15000 242.794
42.16000 243.940
42.17000 245.443
42.18000 245.155
42.19000 238.481
42.20000 231.241
42.21000 226.069
42.22000 220.994
42.23000 217.124
42.24000 217.136
42.25000 223.396
42.26000 229.740
42.27000 232.570
42.28000 231.711
42.29000 230.856
42.30000 230.359
42.31000 230.106
42.32000 229.866
42.33000 229.952
42.34000 230.188
42.35000 230.499
42.36000 231.786
42.37000 233.372
42.38000 234.796
42.39000 234.814
42.40000 234.581
42.41000 233.563
42.42000 228.908
42.43000 223.796
42.44000 220.047
42.45000 220.481
42.46000 221.209
42.47000 221.705
42.48000 221.365
42.49000 221.093
42.50000 221.440
42.51000 222.643
42.52000 223.855
42.53000 229.171
42.54000 238.124
42.55000 246.979
42.56000 245.612
42.57000 238.463
42.58000 231.663
42.59000 231.871
42.60000 234.824
42.61000 237.457
42.62000 236.806
42.63000 235.294
42.64000 233.967
42.65000 228.109
42.66000 222.413
42.67000 218.742
42.68000 223.083
42.69000 228.249
42.70000 231.130
42.71000 227.964
42.72000 224.474
42.73000 222.223
42.74000 226.380
42.75000 229.509
42.76000 231.455
42.77000 232.011
42.78000 232.556
42.79000 231.075
42.80000 228.070
42.81000 225.118
42.82000 225.839
42.83000 228.311
42.84000 230.508
42.85000 228.521
42.86000 225.120
42.87000 222.755
42.88000 229.042
42.89000 237.273
42.90000 244.313
42.91000 243.349
42.92000 241.573
42.93000 238.807
42.94000 232.674
42.95000 226.263
42.96000 223.434
42.97000 228.792
42.98000 234.471
42.99000 237.923
43.00000 229.894
43.01000 224.073
43.02000 218.204
43.03000 212.289
43.04000 206.449
43.05000 207.259
43.06000 212.360
43.07000 217.322
43.08000 219.635
43.09000 220.746
43.10000 221.564
43.11000 218.906
43.12000 215.236
43.13000 212.153
43.14000 213.138
43.15000 214.899
43.16000 216.363
43.17000 218.857
43.18000 221.021
43.19000 221.846
43.20000 218.754
43.21000 215.408
43.22000 215.984
43.23000 224.298
43.24000 232.819
43.25000 237.663
43.26000 231.009
43.27000 226.342
43.28000 224.645
43.29000 225.444
43.30000 226.255
43.31000 227.670
43.32000 229.420
43.33000 231.103
43.34000 227.702
43.35000 222.734
43.36000 217.978
43.37000 215.257
43.38000 213.043
43.39000 212.130
43.40000 218.761
43.41000 226.607
43.42000 232.924
43.43000 226.689
43.44000 220.653
43.45000 218.166
43.46000 224.644
43.47000 231.560
43.48000 233.694
43.49000 227.701
43.50000 221.573
43.51000 218.341
43.52000 214.253
43.53000 211.497
43.54000 211.555
43.55000 213.629
43.56000 215.736
43.57000 218.880
43.58000 222.519
43.59000 225.972
43.60000 229.000
43.61000 231.668
43.62000 233.739
43.63000 231.121
43.64000 227.504
43.65000 224.835
43.66000 226.828
43.67000 229.446
43.68000 231.482
43.69000 228.984
43.70000 226.722
43.71000 224.144
43.72000 220.877
43.73000 217.586
43.74000 217.704
43.75000 222.796
43.76000 227.930
43.77000 227.978
43.78000 223.243
43.79000 218.555
43.80000 217.273
43.81000 218.083
43.82000 218.986
43.83000 221.950
43.84000 225.766
43.85000 229.330
43.86000 224.218
43.87000 217.399
43.88000 211.856
43.89000 214.649
43.90000 218.950
43.91000 222.324
43.92000 221.818
43.93000 220.883
43.94000 220.184
43.95000 220.425
43.96000 220.657
43.97000 218.762
43.98000 212.867
43.99000 206.878
44.00000 205.079
44.01000 208.502
44.02000 211.935
44.03000 215.554
44.04000 219.305
44.05000 222.987
44.06000 223.726
44.07000 222.909
44.08000 222.052
44.09000 220.516
44.10000 218.738
44.11000 217.107
44.12000 213.968
44.13000 210.850
44.14000 208.987
44.15000 214.014
44.16000 220.090
44.17000 225.262
44.18000 227.187
44.19000 228.821
44.20000 229.991
44.21000 225.859
44.22000 222.524
44.23000 218.955
44.24000 215.005
44.25000 211.050
44.26000 211.124
44.27000 215.457
44.28000 219.769
44.29000 223.968
44.30000 228.041
44.31000 231.906
44.32000 229.912
44.33000 225.244
44.34000 220.752
44.35000 218.527
44.36000 217.000
44.37000 215.626
44.38000 217.032
44.39000 218.756
44.40000 219.340
44.41000 214.608
44.42000 209.204
44.43000 206.126
44.44000 210.231
44.45000 214.844
44.46000 217.990
44.47000 215.659
44.48000 213.788
44.49000 215.201
44.50000 221.171
44.51000 227.166
44.52000 226.938
44.53000 221.161
44.54000 215.445
44.55000 211.025
44.56000 207.446
44.57000 204.144
44.58000 206.459
44.59000 210.988
44.60000 215.814
44.61000 223.719
44.62000 232.437
44.63000 240.096
44.64000 236.441
44.65000 231.631
44.66000 226.824
44.67000 222.031
44.68000 217.239
44.69000 215.839
44.70000 223.474
44.71000 231.598
44.72000 236.852
44.73000 235.132
44.74000 233.772
44.75000 232.913
44.76000 232.645
44.77000 232.383
44.78000 233.104
44.79000 234.570
44.80000 236.011
44.81000 237.387
44.82000 238.685
44.83000 240.077
44.84000 242.908
44.85000 246.229
44.86000 249.533
44.87000 252.702
44.88000 255.840
44.89000 258.527
44.90000 263.090
44.91000 267.168
44.92000 270.758
44.93000 272.684
44.94000 274.470
44.95000 278.542
44.96000 287.870
44.97000 297.407
44.98000 303.218
44.99000 300.409
45.00000 298.332
45.01000 302.791
45.02000 313.790
45.03000 324.688
45.04000 326.534
45.05000 322.504
45.06000 318.583
45.07000 317.627
45.08000 317.948
45.09000 317.947
45.10000 314.086
45.11000 309.094
45.12000 305.633
45.13000 312.841
45.14000 322.101
45.15000 329.807
45.16000 326.591
45.17000 322.853
45.18000 320.324
45.19000 321.357
45.20000 322.623
45.21000 324.307
45.22000 326.824
45.23000 329.364
45.24000 330.812
45.25000 328.192
45.26000 326.340
45.27000 317.302
45.28000 302.184
45.29000 287.188
45.30000 278.255
45.31000 272.705
45.32000 267.365
45.33000 268.915
45.34000 272.797
45.35000 276.394
45.36000 277.229
45.37000 277.369
45.38000 276.642
45.39000 270.846
45.40000 264.227
45.41000 258.892
45.42000 257.908
45.43000 257.452
45.44000 254.768
45.45000 246.425
45.46000 237.803
45.47000 231.871
45.48000 230.540
45.49000 229.287
45.50000 228.624
45.51000 240.631
45.52000 248.751
45.53000 249.765
45.54000 245.655
45.55000 241.511
45.56000 236.280
45.57000 230.524
45.58000 225.060
45.59000 220.428
45.60000 216.402
45.61000 213.520
45.62000 219.690
45.63000 227.804
45.64000 234.080
45.65000 231.271
45.66000 227.232
45.67000 224.088
45.68000 224.322
45.69000 224.716
45.70000 224.843
45.71000 224.385
45.72000 223.905
45.73000 223.216
45.74000 222.216
45.75000 221.214
45.76000 218.905
45.77000 215.361
45.78000 211.851
45.79000 210.871
45.80000 211.454
45.81000 211.907
45.82000 209.403
45.83000 205.670
45.84000 202.182
45.85000 199.126
45.86000 196.462
45.87000 194.606
45.88000 198.061
45.89000 202.483
45.90000 206.406
45.91000 208.220
45.92000 209.798
45.93000 210.980
45.94000 207.489
45.95000 204.547
45.96000 202.044
45.97000 200.371
45.98000 198.718
45.99000 198.345
46.00000 199.577
46.01000 200.813
46.02000 201.109
46.03000 200.651
46.04000 200.214
46.05000 200.642
46.06000 201.530
46.07000 202.262
46.08000 200.353
46.09000 197.496
46.10000 194.873
46.11000 194.568
46.12000 194.790
46.13000 195.303
46.14000 197.421
46.15000 199.787
46.16000 202.368
46.17000 205.728
46.18000 209.160
46.19000 211.620
46.20000 205.246
46.21000 200.072
46.22000 199.371
46.23000 205.958
46.24000 212.647
46.25000 213.497
46.26000 208.131
46.27000 202.791
46.28000 202.725
46.29000 206.235
46.30000 209.606
46.31000 208.964
46.32000 206.479
46.33000 204.343
46.34000 206.765
46.35000 210.596
46.36000 214.043
46.37000 207.693
46.38000 200.378
46.39000 194.462
46.40000 195.109
46.41000 196.593
46.42000 197.930
46.43000 198.813
46.44000 199.664
46.45000 200.245
46.46000 200.867
46.47000 201.332
46.48000 202.011
46.49000 202.988
46.50000 203.968
46.51000 206.212
46.52000 209.593
46.53000 212.938
46.54000 209.064
46.55000 201.115
46.56000 193.410
46.57000 190.738
46.58000 190.061
46.59000 189.481
46.60000 189.913
46.61000 190.615
46.62000 191.232
46.63000 184.739
46.64000 178.096
46.65000 174.407
46.66000 182.556
46.67000 191.943
46.68000 198.652
46.69000 198.186
46.70000 197.327
46.71000 196.770
46.72000 196.494
46.73000 196.296
46.74000 194.438
46.75000 190.602
46.76000 186.774
46.77000 185.322
46.78000 185.684
46.79000 186.040
46.80000 186.822
46.81000 187.787
46.82000 188.840
46.83000 191.259
46.84000 194.146
46.85000 197.144
46.86000 201.084
46.87000 205.240
46.88000 208.801
46.89000 206.868
46.90000 204.564
46.91000 202.560
46.92000 201.591
46.93000 200.709
46.94000 200.150
46.95000 200.340
46.96000 200.559
46.97000 200.694
46.98000 197.927
46.99000 195.924
47.00000 192.935
47.01000 188.953
47.02000 185.025
47.03000 186.187
47.04000 190.674
47.05000 195.042
47.06000 194.771
47.07000 192.576
47.08000 190.350
47.09000 187.731
47.10000 184.997
47.11000 182.882
47.12000 185.109
47.13000 188.176
47.14000 190.732
47.15000 193.287
47.16000 195.404
47.17000 196.241
47.18000 193.287
47.19000 190.084
47.20000 187.455
47.21000 185.974
47.22000 184.524
47.23000 183.696
47.24000 190.970
47.25000 196.071
47.26000 197.793
47.27000 196.637
47.28000 195.484
47.29000 194.425
47.30000 193.420
47.31000 192.452
47.32000 193.032
47.33000 194.125
47.34000 195.141
47.35000 195.405
47.36000 195.479
47.37000 194.891
47.38000 190.405
47.39000 185.283
47.40000 181.149
47.41000 181.309
47.42000 181.780
47.43000 182.542
47.44000 184.047
47.45000 185.589
47.46000 186.052
47.47000 184.661
47.48000 183.237
47.49000 182.481
47.50000 183.955
47.51000 184.958
47.52000 185.784
47.53000 186.482
47.54000 187.202
47.55000 188.630
47.56000 190.401
47.57000 192.083
47.58000 189.552
47.59000 185.945
47.60000 182.878
47.61000 184.116
47.62000 186.285
47.63000 187.842
47.64000 186.361
47.65000 184.464
47.66000 182.985
47.67000 185.328
47.68000 187.431
47.69000 187.810
47.70000 184.381
47.71000 180.814
47.72000 181.252
47.73000 187.606
47.74000 194.013
47.75000 195.148
47.76000 191.253
47.77000 187.439
47.78000 189.711
47.79000 195.769
47.80000 201.530
47.81000 200.464
47.82000 196.546
47.83000 192.881
47.84000 188.944
47.85000 185.299
47.86000 181.854
47.87000 179.734
47.88000 177.858
47.89000 176.612
47.90000 178.043
47.91000 179.774
47.92000 181.072
47.93000 183.727
47.94000 185.865
47.95000 184.799
47.96000 177.634
47.97000 170.321
47.98000 169.057
47.99000 175.433
48.00000 181.825
48.01000 187.386
48.02000 192.256
48.03000 196.935
48.04000 193.221
48.05000 185.013
48.06000 177.172
48.07000 175.603
48.08000 176.296
48.09000 176.933
48.10000 180.292
48.11000 183.876
48.12000 186.283
48.13000 182.141
48.14000 176.988
48.15000 173.600
48.16000 176.627
48.17000 180.238
48.18000 182.833
48.19000 185.127
48.20000 186.872
48.21000 188.857
48.22000 191.238
48.23000 193.624
48.24000 192.116
48.25000 186.435
48.26000 180.780
48.27000 179.189
48.28000 180.390
48.29000 181.554
48.30000 181.659
48.31000 181.277
48.32000 181.168
48.33000 184.689
48.34000 189.338
48.35000 193.524
48.36000 188.881
48.37000 183.221
48.38000 179.465
48.39000 184.706
48.40000 191.103
48.41000 194.585
48.42000 188.958
48.43000 182.674
48.44000 178.370
48.45000 181.097
48.46000 183.308
48.47000 184.655
48.48000 184.789
48.49000 184.913
48.50000 184.589
48.51000 183.859
48.52000 183.136
48.53000 179.758
48.54000 174.912
48.55000 170.289
48.56000 170.319
48.57000 172.204
48.58000 173.984
48.59000 174.667
48.60000 175.057
48.61000 175.400
48.62000 176.961
48.63000 178.488
48.64000 179.762
48.65000 180.019
48.66000 180.168
48.67000 180.786
48.68000 182.670
48.69000 184.625
48.70000 185.894
48.71000 181.063
48.72000 177.430
48.73000 174.804
48.74000 173.384
48.75000 171.964
48.76000 169.987
48.77000 167.582
48.78000 165.218
48.79000 166.462
48.80000 169.445
48.81000 172.418
48.82000 175.251
48.83000 178.036
48.84000 180.606
48.85000 181.332
48.86000 181.636
48.87000 181.897
48.88000 181.331
48.89000 180.751
48.90000 179.467
48.91000 175.749
48.92000 171.825
48.93000 168.478
48.94000 166.474
48.95000 164.524
48.96000 163.331
48.97000 167.061
48.98000 169.774
48.99000 171.325
49.00000 171.698
49.01000 172.072
49.02000 172.670
49.03000 173.415
49.04000 174.140
49.05000 176.342
49.06000 179.060
49.07000 181.661
49.08000 182.815
49.09000 183.540
49.10000 183.113
49.11000 174.531
49.12000 164.359
49.13000 155.875
49.14000 158.072
49.15000 160.963
49.16000 164.943
49.17000 172.166
49.18000 179.605
49.19000 183.605
49.20000 180.694
49.21000 177.589
49.22000 175.808
49.23000 169.562
49.24000 165.189
49.25000 165.918
49.26000 171.022
49.27000 176.001
49.28000 174.450
49.29000 169.209
49.30000 164.162
49.31000 163.439
49.32000 164.304
49.33000 165.388
49.34000 168.616
49.35000 172.389
49.36000 175.519
49.37000 174.841
49.38000 173.535
49.39000 172.480
49.40000 173.097
49.41000 173.733
49.42000 174.047
49.43000 173.534
49.44000 172.979
49.45000 172.839
49.46000 173.416
49.47000 174.005
49.48000 174.319
49.49000 169.865
49.50000 166.844
49.51000 166.383
49.52000 167.793
49.53000 169.237
49.54000 171.832
49.55000 174.986
49.56000 177.985
49.57000 175.789
49.58000 172.185
49.59000 169.361
49.60000 172.808
49.61000 177.619
49.62000 181.293
49.63000 179.276
49.64000 176.477
49.65000 174.291
49.66000 174.667
49.67000 175.128
49.68000 174.789
49.69000 172.675
49.70000 170.497
49.71000 169.510
49.72000 170.294
49.73000 171.094
49.74000 172.683
49.75000 175.028
49.76000 177.338
49.77000 176.867
49.78000 174.656
49.79000 172.440
49.80000 170.117
49.81000 167.750
49.82000 165.535
49.83000 166.003
49.84000 167.117
49.85000 168.412
49.86000 170.914
49.87000 173.639
49.88000 175.671
49.89000 174.745
49.90000 173.484
49.91000 172.537
49.92000 169.785
49.93000 167.547
49.94000 167.702
49.95000 172.439
49.96000 177.289
49.97000 178.280
49.98000 174.365
49.99000 170.439
50.00000 170.370
50.01000 173.430
50.02000 176.399
50.03000 175.330
50.04000 172.086
50.05000 169.124
50.06000 171.046
50.07000 174.739
50.08000 178.135
50.09000 182.086
50.10000 185.735
50.11000 188.535
50.12000 186.563
50.13000 183.849
50.14000 181.305
50.15000 179.381
50.16000 177.513
50.17000 176.169
50.18000 176.772
50.19000 177.301
50.20000 176.582
50.21000 173.801
50.22000 170.990
50.23000 169.800
50.24000 170.360
50.25000 170.917
50.26000 172.552
50.27000 174.909
50.28000 177.154
50.29000 176.110
50.30000 173.537
50.31000 171.192
50.32000 171.876
50.33000 173.507
50.34000 174.978
50.35000 176.209
50.36000 177.246
50.37000 178.268
50.38000 179.222
50.39000 180.168
50.40000 181.070
50.41000 181.836
50.42000 182.592
50.43000 183.111
50.44000 192.407
50.45000 199.589
50.46000 202.971
50.47000 200.975
50.48000 198.941
50.49000 199.914
50.50000 203.622
50.51000 207.293
50.52000 210.550
50.53000 213.496
50.54000 216.353
50.55000 217.320
50.56000 217.529
50.57000 218.176
50.58000 223.464
50.59000 230.002
50.60000 235.762
50.61000 239.900
50.62000 243.221
50.63000 245.693
50.64000 244.716
50.65000 243.373
50.66000 242.389
50.67000 242.376
50.68000 242.418
50.69000 242.445
50.70000 250.640
50.71000 256.777
50.72000 261.949
50.73000 265.956
50.74000 269.946
50.75000 270.287
50.76000 267.807
50.77000 265.369
50.78000 263.763
50.79000 262.624
50.80000 261.310
50.81000 257.220
50.82000 252.170
50.83000 247.561
50.84000 246.751
50.85000 246.816
50.86000 246.872
50.87000 242.700
50.88000 238.647
50.89000 234.475
50.90000 229.890
50.91000 225.270
50.92000 220.318
50.93000 214.587
50.94000 208.824
50.95000 205.285
50.96000 207.764
50.97000 209.592
50.98000 211.608
50.99000 213.816
51.00000 215.933
51.01000 209.199
51.02000 196.612
51.03000 184.348
51.04000 184.348
51.05000 189.532
51.06000 194.124
51.07000 191.391
51.08000 186.475
51.09000 181.941
51.10000 180.132
51.11000 178.857
51.12000 177.793
51.13000 175.208
51.14000 172.910
51.15000 170.958
51.16000 170.048
51.17000 169.208
51.18000 169.459
51.19000 171.913
51.20000 174.430
51.21000 175.878
51.22000 172.249
51.23000 169.693
51.24000 168.222
51.25000 167.688
51.26000 167.160
51.27000 166.895
51.28000 166.781
51.29000 166.670
51.30000 166.431
51.31000 166.160
51.32000 165.859
51.33000 165.265
51.34000 164.595
51.35000 163.854
51.36000 162.694
51.37000 161.464
51.38000 160.468
51.39000 161.716
51.40000 162.914
51.41000 162.699
51.42000 158.831
51.43000 154.777
51.44000 154.595
51.45000 161.155
51.46000 167.838
51.47000 171.408
51.48000 166.653
51.49000 163.442
51.50000 166.712
51.51000 174.743
51.52000 182.461
51.53000 179.531
51.54000 171.385
51.55000 163.637
51.56000 163.506
51.57000 165.710
51.58000 167.511
51.59000 166.049
51.60000 163.873
51.61000 162.221
51.62000 163.211
51.63000 164.567
51.64000 165.627
51.65000 169.495
51.66000 172.759
51.67000 173.137
51.68000 167.068
51.69000 160.760
51.70000 156.556
51.71000 155.500
51.72000 154.475
51.73000 153.866
51.74000 153.659
51.75000 153.486
51.76000 155.929
51.77000 160.020
51.78000 163.879
51.79000 162.245
51.80000 158.288
51.81000 154.583
51.82000 157.329
51.83000 161.495
51.84000 164.827
51.85000 162.562
51.86000 159.255
51.87000 156.310
51.88000 154.917
51.89000 153.702
51.90000 152.788
51.91000 157.572
51.92000 161.589
51.93000 163.620
51.94000 161.821
51.95000 159.927
51.96000 157.677
51.97000 154.973
51.98000 152.270
51.99000 153.261
52.00000 157.262
52.01000 161.254
52.02000 164.867
52.03000 168.275
52.04000 171.352
52.05000 168.658
52.06000 163.856
52.07000 159.438
52.08000 159.248
52.09000 160.000
52.10000 161.001
52.11000 163.407
52.12000 166.034
52.13000 168.537
52.14000 170.586
52.15000 172.593
52.16000 174.039
52.17000 162.277
52.18000 152.795
52.19000 149.394
52.20000 156.088
52.21000 162.934
52.22000 165.896
52.23000 164.638
52.24000 163.384
52.25000 163.226
52.26000 163.828
52.27000 164.325
52.28000 161.688
52.29000 157.585
52.30000 153.894
52.31000 155.743
52.32000 159.337
52.33000 162.578
52.34000 160.227
52.35000 157.141
52.36000 153.998
52.37000 150.583
52.38000 147.132
52.39000 145.231
52.40000 148.234
52.41000 151.598
52.42000 153.910
52.43000 160.574
52.44000 165.680
52.45000 166.935
52.46000 162.704
52.47000 158.433
52.48000 157.320
52.49000 159.099
52.50000 160.860
52.51000 161.607
52.52000 161.741
52.53000 161.813
52.54000 160.570
52.55000 158.796
52.56000 157.084
52.57000 156.039
52.58000 155.174
52.59000 154.412
52.60000 160.647
52.61000 167.087
52.62000 171.403
52.63000 167.047
52.64000 161.762
52.65000 157.403
52.66000 155.569
52.67000 153.879
52.68000 152.776
52.69000 156.495
52.70000 159.301
52.71000 161.167
52.72000 161.892
52.73000 162.617
52.74000 163.853
52.75000 165.488
52.76000 167.096
52.77000 165.761
52.78000 162.999
52.79000 160.589
52.80000 163.846
52.81000 169.076
52.82000 173.210
52.83000 167.817
52.84000 160.215
52.85000 153.677
52.86000 151.152
52.87000 149.517
52.88000 148.288
52.89000 148.483
52.90000 148.802
52.91000 149.941
52.92000 153.015
52.93000 156.170
52.94000 158.111
52.95000 153.896
52.96000 150.817
52.97000 149.699
52.98000 150.596
52.99000 151.505
53.00000 153.454
53.01000 156.096
53.02000 158.670
53.03000 158.828
53.04000 157.951
53.05000 156.976
53.06000 154.791
53.07000 152.243
53.08000 150.147
53.09000 151.293
53.10000 153.079
53.11000 154.572
53.12000 154.709
53.13000 154.685
53.14000 154.828
53.15000 155.479
53.16000 156.164
53.17000 156.953
53.18000 157.955
53.19000 158.962
53.20000 159.543
53.21000 161.701
53.22000 163.216
53.23000 163.431
53.24000 162.516
53.25000 161.570
53.26000 159.003
53.27000 155.509
53.28000 152.140
53.29000 152.587
53.30000 154.388
53.31000 156.414
53.32000 160.695
53.33000 165.558
53.34000 169.453
53.35000 167.537
53.36000 164.651
53.37000 162.312
53.38000 155.634
53.39000 149.839
53.40000 146.381
53.41000 149.005
53.42000 151.945
53.43000 154.871
53.44000 157.774
53.45000 160.677
53.46000 162.232
53.47000 164.505
53.48000 166.039
53.49000 164.518
53.50000 160.735
53.51000 157.031
53.52000 156.041
53.53000 156.388
53.54000 156.718
53.55000 158.348
53.56000 160.256
53.57000 161.704
53.58000 159.396
53.59000 156.259
53.60000 154.286
53.61000 158.221
53.62000 162.980
53.63000 166.706
53.64000 165.923
53.65000 165.009
53.66000 163.388
53.67000 160.180
53.68000 156.913
53.69000 153.980
53.70000 151.549
53.71000 149.124
53.72000 149.370
53.73000 152.217
53.74000 155.048
53.75000 156.576
53.76000 157.279
53.77000 158.045
53.78000 160.346
53.79000 163.299
53.80000 166.066
53.81000 161.583
53.82000 155.616
53.83000 150.808
53.84000 153.853
53.85000 158.368
53.86000 161.279
53.87000 157.260
53.88000 152.442
53.89000 148.812
53.90000 154.600
53.91000 159.593
53.92000 160.653
53.93000 154.090
53.94000 147.332
53.95000 147.053
53.96000 155.115
53.97000 163.200
53.98000 163.520
53.99000 157.458
54.00000 151.526
54.01000 151.582
54.02000 154.901
54.03000 158.085
54.04000 158.879
54.05000 158.795
54.06000 158.718
54.07000 156.948
54.08000 154.992
54.09000 153.559
54.10000 155.094
54.11000 157.098
54.12000 158.276
54.13000 156.399
54.14000 154.237
54.15000 152.675
54.16000 154.057
54.17000 155.223
54.18000 156.641
54.19000 158.480
54.20000 160.326
54.21000 161.378
54.22000 161.560
54.23000 161.742
54.24000 159.981
54.25000 156.885
54.26000 153.863
54.27000 153.057
54.28000 153.292
54.29000 153.402
54.30000 151.788
54.31000 149.628
54.32000 147.679
54.33000 147.667
54.34000 148.013
54.35000 148.633
54.36000 150.575
54.37000 152.690
54.38000 154.244
54.39000 154.009
54.40000 153.640
54.41000 153.386
54.42000 153.159
54.43000 152.990
54.44000 152.610
54.45000 151.928
54.46000 151.243
54.47000 148.030
54.48000 142.485
54.49000 136.991
54.50000 139.680
54.51000 147.153
54.52000 154.376
54.53000 156.161
54.54000 155.739
54.55000 155.521
54.56000 157.493
54.57000 160.061
54.58000 162.329
54.59000 162.670
54.60000 162.669
54.61000 161.834
54.62000 157.572
54.63000 152.939
54.64000 149.155
54.65000 147.696
54.66000 146.371
54.67000 145.504
54.68000 143.601
54.69000 142.185
54.70000 143.179
54.71000 147.119
54.72000 151.056
54.73000 152.116
54.74000 150.923
54.75000 149.749
54.76000 149.128
54.77000 148.805
54.78000 148.604
54.79000 150.374
54.80000 152.834
54.81000 154.774
54.82000 152.157
54.83000 148.476
54.84000 145.308
54.85000 147.718
54.86000 150.463
54.87000 152.519
54.88000 152.145
54.89000 151.559
54.90000 151.718
54.91000 153.644
54.92000 155.644
54.93000 156.878
54.94000 163.669
54.95000 168.595
54.96000 166.921
54.97000 158.408
54.98000 149.943
54.99000 146.497
55.00000 146.411
55.01000 146.327
55.02000 148.168
55.03000 150.752
55.04000 153.216
55.05000 154.160
55.06000 154.645
55.07000 155.393
55.08000 158.050
55.09000 161.086
55.10000 163.627
55.11000 161.840
55.12000 159.910
55.13000 158.254
55.14000 157.430
55.15000 156.663
55.16000 154.878
55.17000 151.011
55.18000 147.083
55.19000 144.811
55.20000 150.586
55.21000 154.663
55.22000 155.577
55.23000 153.727
55.24000 151.958
55.25000 154.708
55.26000 160.058
55.27000 165.218
55.28000 166.634
55.29000 166.603
55.30000 166.453
55.31000 165.111
55.32000 163.459
55.33000 161.808
55.34000 160.161
55.35000 158.514
55.36000 157.177
55.37000 166.216
55.38000 174.440
55.39000 179.306
55.40000 175.380
55.41000 170.994
55.42000 170.096
55.43000 175.347
55.44000 180.715
55.45000 183.600
55.46000 170.736
55.47000 161.995
55.48000 165.252
55.49000 177.437
55.50000 189.358
55.51000 192.026
55.52000 190.109
55.53000 188.282
55.54000 189.822
55.55000 192.290
55.56000 194.393
55.57000 193.498
55.58000 191.937
55.59000 192.724
55.60000 205.502
55.61000 219.967
55.62000 231.308
55.63000 238.446
55.64000 243.881
55.65000 249.255
55.66000 254.493
55.67000 259.726
55.68000 268.533
55.69000 282.755
55.70000 297.033
55.71000 307.095
55.72000 313.024
55.73000 319.082
55.74000 335.901
55.75000 359.580
55.76000 382.642
55.77000 390.725
55.78000 392.400
55.79000 393.970
55.80000 419.423
55.81000 448.861
55.82000 476.016
55.83000 487.595
55.84000 496.237
55.85000 506.565
55.86000 524.225
55.87000 542.738
55.88000 556.709
55.89000 576.993
55.90000 593.198
55.91000 610.530
55.92000 630.058
55.93000 649.643
55.94000 657.870
55.95000 651.377
55.96000 644.831
55.97000 646.576
55.98000 655.174
55.99000 663.586
56.00000 663.166
56.01000 657.903
56.02000 652.251
56.03000 639.632
56.04000 624.440
56.05000 610.438
56.06000 588.992
56.07000 568.149
56.08000 549.482
56.09000 543.269
56.10000 539.035
56.11000 532.759
56.12000 518.878
56.13000 504.280
56.14000 493.718
56.15000 471.125
56.16000 453.345
56.17000 436.406
56.18000 420.882
56.19000 405.380
56.20000 386.579
56.21000 364.147
56.22000 341.807
56.23000 323.846
56.24000 309.132
56.25000 294.599
56.26000 285.631
56.27000 279.294
56.28000 273.360
56.29000 272.974
56.30000 274.355
56.31000 275.603
56.32000 261.742
56.33000 246.751
56.34000 232.782
56.35000 223.763
56.36000 215.400
56.37000 208.394
56.38000 205.728
56.39000 203.389
56.40000 201.774
56.41000 193.543
56.42000 187.188
56.43000 182.121
56.44000 178.910
56.45000 175.714
56.46000 176.211
56.47000 180.135
56.48000 184.024
56.49000 180.513
56.50000 172.667
56.51000 165.000
56.52000 161.263
56.53000 159.130
56.54000 157.098
56.55000 156.159
56.56000 155.520
56.57000 154.955
56.58000 155.663
56.59000 156.471
56.60000 156.728
56.61000 154.708
56.62000 152.439
56.63000 151.086
56.64000 152.257
56.65000 153.575
56.66000 154.438
56.67000 155.584
56.68000 156.430
56.69000 156.934
56.70000 157.014
56.71000 157.090
56.72000 156.114
56.73000 154.309
56.74000 152.532
56.75000 150.988
56.76000 149.609
56.77000 148.270
56.78000 147.590
56.79000 147.143
56.80000 146.808
56.81000 147.467
56.82000 148.360
56.83000 149.129
56.84000 150.549
56.85000 151.836
56.86000 152.278
56.87000 149.728
56.88000 146.914
56.89000 145.115
56.90000 145.734
56.91000 146.457
56.92000 146.904
56.93000 150.553
56.94000 153.205
56.95000 153.148
56.96000 150.266
56.97000 147.406
56.98000 146.865
56.99000 147.887
57.00000 148.884
57.01000 149.283
57.02000 149.407
57.03000 149.456
57.04000 148.562
57.05000 147.382
57.06000 145.911
57.07000 142.323
57.08000 138.311
57.09000 134.949
57.10000 140.889
57.11000 146.795
57.12000 149.661
57.13000 143.247
57.14000 136.190
57.15000 131.688
57.16000 132.443
57.17000 133.357
57.18000 133.886
57.19000 143.323
57.20000 149.976
57.21000 150.103
57.22000 144.484
57.23000 139.003
57.24000 141.274
57.25000 148.031
57.26000 154.552
57.27000 149.514
57.28000 140.533
57.29000 132.568
57.30000 134.945
57.31000 140.021
57.32000 144.201
57.33000 142.923
57.34000 140.721
57.35000 138.933
57.36000 134.546
57.37000 130.752
57.38000 129.256
57.39000 133.817
57.40000 138.698
57.41000 142.213
57.42000 143.306
57.43000 144.353
57.44000 144.917
57.45000 143.070
57.46000 141.807
57.47000 141.100
57.48000 140.809
57.49000 140.577
57.50000 142.438
57.51000 145.343
57.52000 148.110
57.53000 143.201
57.54000 136.262
57.55000 130.808
57.56000 137.671
57.57000 147.284
57.58000 154.108
57.59000 146.593
57.60000 137.046
57.61000 129.550
57.62000 137.385
57.63000 144.656
57.64000 149.536
57.65000 148.978
57.66000 148.211
57.67000 147.126
57.68000 145.557
57.69000 143.984
57.70000 143.180
57.71000 143.138
57.72000 143.120
57.73000 145.265
57.74000 148.796
57.75000 152.132
57.76000 150.666
57.77000 147.132
57.78000 143.817
57.79000 144.196
57.80000 145.516
57.81000 146.473
57.82000 144.938
57.83000 142.931
57.84000 141.563
57.85000 142.990
57.86000 144.745
57.87000 146.071
57.88000 145.627
57.89000 145.190
57.90000 145.467
57.91000 147.148
57.92000 148.866
57.93000 147.886
57.94000 143.388
57.95000 138.880
57.96000 135.751
57.97000 133.782
57.98000 131.871
57.99000 132.819
58.00000 135.343
58.01000 137.800
58.02000 139.039
58.03000 139.826
58.04000 140.551
58.05000 139.660
58.06000 138.502
58.07000 136.772
58.08000 131.746
58.09000 126.192
58.10000 122.917
58.11000 128.174
58.12000 134.244
58.13000 138.643
58.14000 139.475
58.15000 139.982
58.16000 140.225
58.17000 140.021
58.18000 139.810
58.19000 138.246
58.20000 135.181
58.21000 132.127
58.22000 134.045
58.23000 139.450
58.24000 144.650
58.25000 143.388
58.26000 139.052
58.27000 135.280
58.28000 139.326
58.29000 145.878
58.30000 151.803
58.31000 142.810
58.32000 132.112
58.33000 123.490
58.34000 125.004
58.35000 127.872
58.36000 131.404
58.37000 137.078
58.38000 142.914
58.39000 146.951
58.40000 147.272
58.41000 147.417
58.42000 146.853
58.43000 145.260
58.44000 143.657
58.45000 140.916
58.46000 137.111
58.47000 133.339
58.48000 130.696
58.49000 128.781
58.50000 127.039
58.51000 129.138
58.52000 132.814
58.53000 136.055
58.54000 134.507
58.55000 131.640
58.56000 129.103
58.57000 130.487
58.58000 132.293
58.59000 133.841
58.60000 134.316
58.61000 134.673
58.62000 135.605
58.63000 138.134
58.64000 140.756
58.65000 142.478
58.66000 138.364
58.67000 135.237
58.68000 131.764
58.69000 127.860
58.70000 123.972
58.71000 124.952
58.72000 129.794
58.73000 134.561
58.74000 136.924
58.75000 137.988
58.76000 138.868
58.77000 136.706
58.78000 133.465
58.79000 130.741
58.80000 132.626
58.81000 135.599
58.82000 138.164
58.83000 141.170
58.84000 143.777
58.85000 145.586
58.86000 144.544
58.87000 143.248
58.88000 142.169
58.89000 141.607
58.90000 141.067
58.91000 140.733
58.92000 141.322
58.93000 141.756
58.94000 139.703
58.95000 135.040
58.96000 130.405
58.97000 128.969
58.98000 129.702
58.99000 130.417
59.00000 128.855
59.01000 126.375
59.02000 124.175
59.03000 125.581
59.04000 128.089
59.05000 130.821
59.06000 135.198
59.07000 139.907
59.08000 143.858
59.09000 142.756
59.10000 141.309
59.11000 139.730
59.12000 137.741
59.13000 135.724
59.14000 135.783
59.15000 140.139
59.16000 144.626
59.17000 147.235
59.18000 139.851
59.19000 134.624
59.20000 131.877
59.21000 131.330
59.22000 130.816
59.23000 132.279
59.24000 134.892
59.25000 137.415
59.26000 136.868
59.27000 135.219
59.28000 133.929
59.29000 136.312
59.30000 139.659
59.31000 142.588
59.32000 142.946
59.33000 142.866
59.34000 142.801
59.35000 141.014
59.36000 139.410
59.37000 139.073
59.38000 142.094
59.39000 145.295
59.40000 148.022
59.41000 149.903
59.42000 151.768
59.43000 152.777
59.44000 137.702
59.45000 127.391
59.46000 123.040
59.47000 123.181
59.48000 123.283
59.49000 121.980
59.50000 119.970
59.51000 118.055
59.52000 125.227
59.53000 134.725
59.54000 143.155
59.55000 142.647
59.56000 140.131
59.57000 137.393
59.58000 133.506
59.59000 129.455
59.60000 126.269
59.61000 126.575
59.62000 127.050
59.63000 128.409
59.64000 131.788
59.65000 135.246
59.66000 135.873
59.67000 132.159
59.68000 128.397
59.69000 129.891
59.70000 136.611
59.71000 143.268
59.72000 144.407
59.73000 141.984
59.74000 139.512
59.75000 135.812
59.76000 131.580
59.77000 127.605
59.78000 132.342
59.79000 138.976
59.80000 144.546
59.81000 142.746
59.82000 139.539
59.83000 136.966
59.84000 137.189
59.85000 137.742
59.86000 138.161
59.87000 131.167
59.88000 125.302
59.89000 123.623
59.90000 130.206
59.91000 137.010
59.92000 139.496
59.93000 136.315
59.94000 133.112
59.95000 131.375
59.96000 130.873
59.97000 130.404
59.98000 131.530
59.99000 133.543
60.00000 135.480
60.01000 136.042
60.02000 136.090
60.03000 136.135
60.04000 133.405
60.05000 130.337
60.06000 128.323
60.07000 132.430
60.08000 137.522
60.09000 140.584
60.10000 135.986
60.11000 130.652
60.12000 126.780
60.13000 127.834
60.14000 128.829
60.15000 130.733
60.16000 134.183
60.17000 137.658
60.18000 138.046
60.19000 134.987
60.20000 131.938
60.21000 130.772
60.22000 130.955
60.23000 131.100
60.24000 130.054
60.25000 128.438
60.26000 126.897
60.27000 126.418
60.28000 126.282
60.29000 126.159
60.30000 123.619
60.31000 120.927
60.32000 119.090
60.33000 121.452
60.34000 124.379
60.35000 126.970
60.36000 128.475
60.37000 129.896
60.38000 130.881
60.39000 127.398
60.40000 124.659
60.41000 125.106
60.42000 130.206
60.43000 135.345
60.44000 136.914
60.45000 135.123
60.46000 133.347
60.47000 133.522
60.48000 134.871
60.49000 136.206
60.50000 137.228
60.51000 138.121
60.52000 138.854
60.53000 137.817
60.54000 136.289
60.55000 134.937
60.56000 130.540
60.57000 126.261
60.58000 123.380
60.59000 126.354
60.60000 129.976
60.61000 134.228
60.62000 140.239
60.63000 146.354
60.64000 150.379
60.65000 145.130
60.66000 141.104
60.67000 137.555
60.68000 134.601
60.69000 131.654
60.70000 130.538
60.71000 130.883
60.72000 131.223
60.73000 132.518
60.74000 134.264
60.75000 136.035
60.76000 138.238
60.77000 140.596
60.78000 142.566
60.79000 141.048
60.80000 138.701
60.81000 136.674
60.82000 130.243
60.83000 124.213
60.84000 120.381
60.85000 124.437
60.86000 129.199
60.87000 132.925
60.88000 134.153
60.89000 135.270
60.90000 135.964
60.91000 135.279
60.92000 134.773
60.93000 134.323
60.94000 133.935
60.95000 133.535
60.96000 131.780
60.97000 129.102
60.98000 126.487
60.99000 127.907
61.00000 131.027
61.01000 134.012
61.02000 135.244
61.03000 135.938
61.04000 136.302
61.05000 134.226
61.06000 131.656
61.07000 129.496
61.08000 133.540
61.09000 137.564
61.10000 139.352
61.11000 134.235
61.12000 128.630
61.13000 125.192
61.14000 126.264
61.15000 127.477
61.16000 128.184
61.17000 131.088
61.18000 133.139
61.19000 135.189
61.20000 137.237
61.21000 139.247
61.22000 138.919
61.23000 137.224
61.24000 135.586
61.25000 132.868
61.26000 129.904
61.27000 127.264
61.28000 127.969
61.29000 129.558
61.30000 130.953
61.31000 131.158
61.32000 131.158
61.33000 131.158
61.34000 131.705
61.35000 132.198
61.36000 132.844
61.37000 133.894
61.38000 134.967
61.39000 135.860
61.40000 136.431
61.41000 136.995
61.42000 137.301
61.43000 138.213
61.44000 138.833
61.45000 138.289
61.46000 136.862
61.47000 135.562
61.48000 138.908
61.49000 144.599
61.50000 150.027
61.51000 151.031
61.52000 150.567
61.53000 151.602
61.54000 165.272
61.55000 181.799
61.56000 196.588
61.57000 202.324
61.58000 206.758
61.59000 210.250
61.60000 218.333
61.61000 225.117
61.62000 232.558
61.63000 241.513
61.64000 250.528
61.65000 257.667
61.66000 261.912
61.67000 266.124
61.68000 268.231
61.69000 261.307
61.70000 256.754
61.71000 257.942
61.72000 262.859
61.73000 267.491
61.74000 264.944
61.75000 259.269
61.76000 253.937
61.77000 241.634
61.78000 228.542
61.79000 215.494
61.80000 202.755
61.81000 190.074
61.82000 178.702
61.83000 173.130
61.84000 168.249
61.85000 164.547
61.86000 155.283
61.87000 147.722
61.88000 143.194
61.89000 144.688
61.90000 146.347
61.91000 145.931
61.92000 142.776
61.93000 139.611
61.94000 136.940
61.95000 134.694
61.96000 132.497
61.97000 132.768
61.98000 134.417
61.99000 136.033
62.00000 137.058
62.01000 137.861
62.02000 138.602
62.03000 136.206
62.04000 133.349
62.05000 131.548
62.06000 135.920
62.07000 141.294
62.08000 145.271
62.09000 143.948
62.10000 142.111
62.11000 140.775
62.12000 136.218
62.13000 132.588
62.14000 132.747
62.15000 139.386
62.16000 146.135
62.17000 147.856
62.18000 143.930
62.19000 140.013
62.20000 140.455
62.21000 144.010
62.22000 147.476
62.23000 148.096
62.24000 147.346
62.25000 146.348
62.26000 141.840
62.27000 136.194
62.28000 131.080
62.29000 134.557
62.30000 139.248
62.31000 142.259
62.32000 136.966
62.33000 130.547
62.34000 127.109
62.35000 133.389
62.36000 140.421
62.37000 145.305
62.38000 140.877
62.39000 137.291
62.40000 136.214
62.41000 138.822
62.42000 141.462
62.43000 143.297
62.44000 144.368
62.45000 145.431
62.46000 143.673
62.47000 140.236
62.48000 136.988
62.49000 138.060
62.50000 140.927
62.51000 143.480
62.52000 142.515
62.53000 140.568
62.54000 138.843
62.55000 136.424
62.56000 134.222
62.57000 132.530
62.58000 132.986
62.59000 133.682
62.60000 134.777
62.61000 136.990
62.62000 139.271
62.63000 140.775
62.64000 137.252
62.65000 134.567
62.66000 132.226
62.67000 130.317
62.68000 128.420
62.69000 129.958
62.70000 134.256
62.71000 138.491
62.72000 141.228
62.73000 143.111
62.74000 144.960
62.75000 146.232
62.76000 147.296
62.77000 148.013
62.78000 145.580
62.79000 142.394
62.80000 139.639
62.81000 136.023
62.82000 132.838
62.83000 131.275
62.84000 135.567
62.85000 140.387
62.86000 144.160
62.87000 145.390
62.88000 146.507
62.89000 147.203
62.90000 142.012
62.91000 138.212
62.92000 138.865
62.93000 144.259
62.94000 149.611
62.95000 149.744
62.96000 146.294
62.97000 142.924
62.98000 139.869
62.99000 137.084
63.00000 134.376
63.01000 132.689
63.02000 131.317
63.03000 130.242
63.04000 131.384
63.05000 132.978
63.06000 134.318
63.07000 137.677
63.08000 140.691
63.09000 142.384
63.10000 139.970
63.11000 137.261
63.12000 136.689
63.13000 140.592
63.14000 144.635
63.15000 146.999
63.16000 148.589
63.17000 149.704
63.18000 149.818
63.19000 149.034
63.20000 148.218
63.21000 145.503
63.22000 141.668
63.23000 137.962
63.24000 134.685
63.25000 131.755
63.26000 129.589
63.27000 135.398
63.28000 143.328
63.29000 150.224
63.30000 150.687
63.31000 150.038
63.32000 149.509
63.33000 152.229
63.34000 154.731
63.35000 156.087
63.36000 154.369
63.37000 152.482
63.38000 150.659
63.39000 148.950
63.40000 147.244
63.41000 146.315
63.42000 149.642
63.43000 151.917
63.44000 151.083
63.45000 147.877
63.46000 144.692
63.47000 142.330
63.48000 140.386
63.49000 138.530
63.50000 139.745
63.51000 141.849
63.52000 143.757
63.53000 144.002
63.54000 143.868
63.55000 143.987
63.56000 145.428
63.57000 147.060
63.58000 148.348
63.59000 146.641
63.60000 145.071
63.61000 145.590
63.62000 150.948
63.63000 156.500
63.64000 158.148
63.65000 153.734
63.66000 149.250
63.67000 146.999
63.68000 150.641
63.69000 153.058
63.70000 154.130
63.71000 154.323
63.72000 154.348
63.73000 150.077
63.74000 143.924
63.75000 138.138
63.76000 142.574
63.77000 149.377
63.78000 155.418
63.79000 156.109
63.80000 155.765
63.81000 154.877
63.82000 151.558
63.83000 147.949
63.84000 145.207
63.85000 145.578
63.86000 146.030
63.87000 145.899
63.88000 144.601
63.89000 143.270
63.90000 145.563
63.91000 152.672
63.92000 159.798
63.93000 162.929
63.94000 162.657
63.95000 162.375
63.96000 161.607
63.97000 160.568
63.98000 159.544
63.99000 158.833
64.00000 158.240
64.01000 157.691
64.02000 161.250
64.03000 165.377
64.04000 167.868
64.05000 160.722
64.06000 152.002
64.07000 146.275
64.08000 151.971
64.09000 158.783
64.10000 163.747
64.11000 158.340
64.12000 153.776
64.13000 152.303
64.14000 156.150
64.15000 160.089
64.16000 161.553
64.17000 160.218
64.18000 158.885
64.19000 156.766
64.20000 154.101
64.21000 151.526
64.22000 151.921
64.23000 153.753
64.24000 155.411
64.25000 154.566
64.26000 152.904
64.27000 151.397
64.28000 148.107
64.29000 144.865
64.30000 143.058
64.31000 148.390
64.32000 154.698
64.33000 159.412
64.34000 158.899
64.35000 157.977
64.36000 157.336
64.37000 158.975
64.38000 160.273
64.39000 161.187
64.40000 161.532
64.41000 161.872
64.42000 161.408
64.43000 160.178
64.44000 158.958
64.45000 160.833
64.46000 164.566
64.47000 168.174
64.48000 168.915
64.49000 168.457
64.50000 167.699
64.51000 163.545
64.52000 158.437
64.53000 153.907
64.54000 154.815
64.55000 156.467
64.56000 158.115
64.57000 159.744
64.58000 161.372
64.59000 162.151
64.60000 160.532
64.61000 158.768
64.62000 157.602
64.63000 165.726
64.64000 171.886
64.65000 173.486
64.66000 169.324
64.67000 165.153
64.68000 165.250
64.69000 168.797
64.70000 172.293
64.71000 173.245
64.72000 172.848
64.73000 172.338
64.74000 169.896
64.75000 166.758
64.76000 163.929
64.77000 163.932
64.78000 164.616
64.79000 165.208
64.80000 164.201
64.81000 163.135
64.82000 163.916
64.83000 171.411
64.84000 179.518
64.85000 185.061
64.86000 184.346
64.87000 183.347
64.88000 182.724
64.89000 178.559
64.90000 175.518
64.91000 173.503
64.92000 172.590
64.93000 171.697
64.94000 173.200
64.95000 176.359
64.96000 179.444
64.97000 181.778
64.98000 183.680
64.99000 185.462
65.00000 185.655
65.01000 185.353
65.02000 185.395
65.03000 188.016
65.04000 191.166
65.05000 193.819
65.06000 196.849
65.07000 199.418
65.08000 199.780
65.09000 193.241
65.10000 186.204
65.11000 184.543
65.12000 194.209
65.13000 204.238
65.14000 210.117
65.15000 207.136
65.16000 204.994
65.17000 205.833
65.18000 209.369
65.19000 212.869
65.20000 214.148
65.21000 214.111
65.22000 214.076
65.23000 217.110
65.24000 221.130
65.25000 224.826
65.26000 225.111
65.27000 224.483
65.28000 225.130
65.29000 233.765
65.30000 243.790
65.31000 251.978
65.32000 254.045
65.33000 255.209
65.34000 258.514
65.35000 267.596
65.36000 276.997
65.37000 287.603
65.38000 300.396
65.39000 313.236
65.40000 320.245
65.41000 321.825
65.42000 322.919
65.43000 327.967
65.44000 336.053
65.45000 344.020
65.46000 347.418
65.47000 348.482
65.48000 349.498
65.49000 354.635
65.50000 360.726
65.51000 366.472
65.52000 369.269
65.53000 371.392
65.54000 375.153
65.55000 387.565
65.56000 401.239
65.57000 412.038
65.58000 403.435
65.59000 395.208
65.60000 393.344
65.61000 406.293
65.62000 419.846
65.63000 429.503
65.64000 433.070
65.65000 436.566
65.66000 438.327
65.67000 474.688
65.68000 498.977
65.69000 521.995
65.70000 544.177
65.71000 567.026
65.72000 607.190
65.73000 654.987
65.74000 699.956
65.75000 747.814
65.76000 792.333
65.77000 834.847
65.78000 863.164
65.79000 888.714
65.80000 914.759
65.81000 943.020
65.82000 971.550
65.83000 993.254
65.84000 970.838
65.85000 950.890
65.86000 941.625
65.87000 953.829
65.88000 966.638
65.89000 968.490
65.90000 955.680
65.91000 942.805
65.92000 917.994
65.93000 883.021
65.94000 847.901
65.95000 805.042
65.96000 757.811
65.97000 710.348
65.98000 658.499
65.99000 604.981
66.00000 555.475
66.01000 507.219
66.02000 464.153
66.03000 423.369
66.04000 396.102
66.05000 371.059
66.06000 348.730
66.07000 336.819
66.08000 325.936
66.09000 317.993
66.10000 312.552
66.11000 308.455
66.12000 304.024
66.13000 299.012
66.14000 293.990
66.15000 291.819
66.16000 292.893
66.17000 293.966
66.18000 291.092
66.19000 285.381
66.20000 279.761
66.21000 277.193
66.22000 276.111
66.23000 275.453
66.24000 280.939
66.25000 288.443
66.26000 295.251
66.27000 304.638
66.28000 313.418
66.29000 322.016
66.30000 329.701
66.31000 337.261
66.32000 344.617
66.33000 351.300
66.34000 357.930
66.35000 362.552
66.36000 368.580
66.37000 373.169
66.38000 374.888
66.39000 372.338
66.40000 369.748
66.41000 375.434
66.42000 389.071
66.43000 402.600
66.44000 402.777
66.45000 394.737
66.46000 387.027
66.47000 387.018
66.48000 390.248
66.49000 392.598
66.50000 384.923
66.51000 374.416
66.52000 365.088
66.53000 358.253
66.54000 352.728
66.55000 345.773
66.56000 332.717
66.57000 318.968
66.58000 308.569
66.59000 307.694
66.60000 307.402
66.61000 307.209
66.62000 305.659
66.63000 304.490
66.64000 303.719
66.65000 303.454
66.66000 303.188
66.67000 302.247
66.68000 300.756
66.69000 299.286
66.70000 300.257
66.71000 302.476
66.72000 304.676
66.73000 306.544
66.74000 308.291
66.75000 309.246
66.76000 302.909
66.77000 294.806
66.78000 287.785
66.79000 295.479
66.80000 303.974
66.81000 310.902
66.82000 312.102
66.83000 312.775
66.84000 311.057
66.85000 303.471
66.86000 295.616
66.87000 290.698
66.88000 293.692
66.89000 295.938
66.90000 298.333
66.91000 300.887
66.92000 303.448
66.93000 306.808
66.94000 310.724
66.95000 314.552
66.96000 317.794
66.97000 320.642
66.98000 323.285
66.99000 323.211
67.00000 322.286
67.01000 321.427
67.02000 321.064
67.03000 320.803
67.04000 320.584
67.05000 320.388
67.06000 320.228
67.07000 320.557
67.08000 322.424
67.09000 324.405
67.10000 326.189
67.11000 327.560
67.12000 328.917
67.13000 329.715
67.14000 338.950
67.15000 345.501
67.16000 343.888
67.17000 334.843
67.18000 325.992
67.19000 329.524
67.20000 340.442
67.21000 351.003
67.22000 348.684
67.23000 341.614
67.24000 334.920
67.25000 332.226
67.26000 330.608
67.27000 330.649
67.28000 341.155
67.29000 353.493
67.30000 363.584
67.31000 363.447
67.32000 362.444
67.33000 363.405
67.34000 369.691
67.35000 376.277
67.36000 380.498
67.37000 380.397
67.38000 380.204
67.39000 380.099
67.40000 372.571
67.41000 367.406
67.42000 367.657
67.43000 372.099
67.44000 376.616
67.45000 384.082
67.46000 393.062
67.47000 401.641
67.48000 403.591
67.49000 403.269
67.50000 402.497
67.51000 397.839
67.52000 392.286
67.53000 388.142
67.54000 391.488
67.55000 395.935
67.56000 399.452
67.57000 405.834
67.58000 411.158
67.59000 415.076
67.60000 415.705
67.61000 416.198
67.62000 416.054
67.63000 414.906
67.64000 413.747
67.65000 413.161
67.66000 419.272
67.67000 423.336
67.68000 424.925
67.69000 424.877
67.70000 425.056
67.71000 431.242
67.72000 440.090
67.73000 448.420
67.74000 446.678
67.75000 442.337
67.76000 438.505
67.77000 438.313
67.78000 438.834
67.79000 439.245
67.80000 439.164
67.81000 439.023
67.82000 438.916
67.83000 442.543
67.84000 445.597
67.85000 449.127
67.86000 453.620
67.87000 458.140
67.88000 461.626
67.89000 463.719
67.90000 465.804
67.91000 473.467
67.92000 485.921
67.93000 498.123
67.94000 496.830
67.95000 487.865
67.96000 479.216
67.97000 476.624
67.98000 476.350
67.99000 476.097
68.00000 483.343
68.01000 491.583
68.02000 499.467
68.03000 505.220
68.04000 510.620
68.05000 516.713
68.06000 525.487
68.07000 534.527
68.08000 541.136
68.09000 526.158
68.10000 513.751
68.11000 508.483
68.12000 515.653
68.13000 523.049
68.14000 530.715
68.15000 538.692
68.16000 546.643
68.17000 543.661
68.18000 532.730
68.19000 522.162
68.20000 523.927
68.21000 531.735
68.22000 540.199
68.23000 558.253
68.24000 579.474
68.25000 598.745
68.26000 589.732
68.27000 576.298
68.28000 568.056
68.29000 585.993
68.30000 607.559
68.31000 622.295
68.32000 614.356
68.33000 604.613
68.34000 597.807
68.35000 624.206
68.36000 645.078
68.37000 654.828
68.38000 647.930
68.39000 640.871
68.40000 641.626
68.41000 649.940
68.42000 658.190
68.43000 670.556
68.44000 685.257
68.45000 699.067
68.46000 691.774
68.47000 675.554
68.48000 662.134
68.49000 680.927
68.50000 708.877
68.51000 733.715
68.52000 748.854
68.53000 760.420
68.54000 771.802
68.55000 782.391
68.56000 792.890
68.57000 804.055
68.58000 817.127
68.59000 830.318
68.60000 839.076
68.61000 903.560
68.62000 952.259
68.63000 997.122
68.64000 1037.076
68.65000 1077.022
68.66000 1121.000
68.67000 1168.281
68.68000 1214.900
68.69000 1266.655
68.70000 1319.645
68.71000 1372.172
68.72000 1416.590
68.73000 1458.046
68.74000 1500.354
68.75000 1550.578
68.76000 1602.731
68.77000 1647.963
68.78000 1700.923
68.79000 1747.054
68.80000 1792.783
68.81000 1837.035
68.82000 1881.151
68.83000 1937.295
68.84000 2023.141
68.85000 2110.365
68.86000 2165.111
68.87000 2383.417
68.88000 2542.986
68.89000 2806.805
68.90000 3183.916
68.91000 3564.828
68.92000 4434.806
68.93000 5646.809
68.94000 6831.904
68.95000 9173.921
68.96000 11938.014
68.97000 14779.505
68.98000 18665.543
68.99000 22880.504
69.00000 27092.994
69.01000 31286.662
69.02000 35476.410
69.03000 39012.785
69.04000 42356.004
69.05000 45128.707
69.06000 47506.305
69.07000 48633.621
69.08000 49668.832
69.09000 50393.930
69.10000 50457.938
69.11000 50500.117
69.12000 50524.973
69.13000 51008.055
69.14000 51351.512
69.15000 51825.418
69.16000 52418.879
69.17000 53003.684
69.18000 53026.297
69.19000 52711.523
69.20000 52406.906
69.21000 50511.672
69.22000 48114.188
69.23000 45679.770
69.24000 42849.570
69.25000 39912.188
69.26000 37077.141
69.27000 34892.316
69.28000 32822.137
69.29000 31126.730
69.30000 29449.070
69.31000 28075.340
69.32000 26904.467
69.33000 26287.117
69.34000 25701.174
69.35000 25084.078
69.36000 24409.711
69.37000 23734.102
69.38000 23363.023
69.39000 21217.951
69.40000 19737.066
69.41000 17841.189
69.42000 15622.299
69.43000 13409.665
69.44000 11443.846
69.45000 9605.587
69.46000 7848.526
69.47000 6469.980
69.48000 5310.214
69.49000 4198.091
69.50000 3500.438
69.51000 2898.915
69.52000 2349.274
69.53000 2077.353
69.54000 1846.542
69.55000 1663.738
69.56000 1545.554
69.57000 1455.039
69.58000 1380.289
69.59000 1342.681
69.60000 1306.629
69.61000 1264.657
69.62000 1213.322
69.63000 1161.870
69.64000 1135.771
69.65000 1091.283
69.66000 1061.468
69.67000 1030.297
69.68000 998.223
69.69000 966.458
69.70000 942.960
69.71000 923.149
69.72000 904.486
69.73000 884.860
69.74000 866.636
69.75000 848.042
69.76000 826.793
69.77000 805.020
69.78000 786.443
69.79000 782.403
69.80000 780.148
69.81000 778.427
69.82000 764.949
69.83000 753.698
69.84000 741.192
69.85000 726.133
69.86000 711.001
69.87000 701.050
69.88000 698.122
69.89000 695.234
69.90000 690.273
69.91000 683.521
69.92000 676.893
69.93000 677.053
69.94000 681.096
69.95000 684.285
69.96000 670.917
69.97000 651.174
69.98000 632.885
69.99000 632.861
70.00000 637.076
