20.00000 564.801
20.01000 562.188
20.02000 559.202
20.03000 558.366
20.04000 565.882
20.05000 574.234
20.06000 580.350
20.07000 570.940
20.08000 563.058
20.09000 559.083
20.10000 561.950
20.11000 564.943
20.12000 568.892
20.13000 573.943
20.14000 578.980
20.15000 572.832
20.16000 558.533
20.17000 544.654
20.18000 545.226
20.19000 552.914
20.20000 560.151
20.21000 560.738
20.22000 559.118
20.23000 557.646
20.24000 555.661
20.25000 553.806
20.26000 552.858
20.27000 556.506
20.28000 560.795
20.29000 562.780
20.30000 557.081
20.31000 550.766
20.32000 546.347
20.33000 552.314
20.34000 557.120
20.35000 557.841
20.36000 552.418
20.37000 546.935
20.38000 546.943
20.39000 552.294
20.40000 557.605
20.41000 559.655
20.42000 559.641
20.43000 559.533
20.44000 557.161
20.45000 553.827
20.46000 550.440
20.47000 546.455
20.48000 542.298
20.49000 538.601
20.50000 542.580
20.51000 547.279
20.52000 551.283
20.53000 552.288
20.54000 552.947
20.55000 552.011
20.56000 546.490
20.57000 540.683
20.58000 536.820
20.59000 548.426
20.60000 557.302
20.61000 561.467
20.62000 559.573
20.63000 557.655
20.64000 555.471
20.65000 553.069
20.66000 550.699
20.67000 552.232
20.68000 555.786
20.69000 559.347
20.70000 563.017
20.71000 566.727
20.72000 569.624
20.73000 564.930
20.74000 558.375
20.75000 552.685
20.76000 555.309
20.77000 558.661
20.78000 559.476
20.79000 550.909
20.80000 541.464
20.81000 537.528
20.82000 547.256
20.83000 557.624
20.84000 564.144
20.85000 554.454
20.86000 547.264
20.87000 547.918
20.88000 557.143
20.89000 566.342
20.90000 571.459
20.91000 573.706
20.92000 575.904
20.93000 567.487
20.94000 554.630
20.95000 542.983
20.96000 547.795
20.97000 557.814
20.98000 567.045
20.99000 570.234
21.00000 572.160
21.01000 573.787
21.02000 564.657
21.03000 555.841
21.04000 550.010
21.05000 553.666
21.06000 558.027
21.07000 561.533
21.08000 563.209
21.09000 564.825
21.10000 565.779
21.11000 559.165
21.12000 554.455
21.13000 556.971
21.14000 566.144
21.15000 575.146
21.16000 572.773
21.17000 563.542
21.18000 554.605
21.19000 550.481
21.20000 548.427
21.21000 546.070
21.22000 540.453
21.23000 533.949
21.24000 528.624
21.25000 530.830
21.26000 534.370
21.27000 537.273
21.28000 537.225
21.29000 536.924
21.30000 537.090
21.31000 538.534
21.32000 540.052
21.33000 543.665
21.34000 551.151
21.35000 558.722
21.36000 562.890
21.37000 557.777
21.38000 554.245
21.39000 552.526
21.40000 552.224
21.41000 552.073
21.42000 557.938
21.43000 566.928
21.44000 575.525
21.45000 574.060
21.46000 569.420
21.47000 564.510
21.48000 557.239
21.49000 549.417
21.50000 542.704
21.51000 541.955
21.52000 542.093
21.53000 542.203
21.54000 543.877
21.55000 545.333
21.56000 546.336
21.57000 546.266
21.58000 546.151
21.59000 550.417
21.60000 561.649
21.61000 572.969
21.62000 578.726
21.63000 586.077
21.64000 590.953
21.65000 590.394
21.66000 586.200
21.67000 582.318
21.68000 586.880
21.69000 595.226
21.70000 603.092
21.71000 610.833
21.72000 617.886
21.73000 625.428
21.74000 636.499
21.75000 648.270
21.76000 660.007
21.77000 671.582
21.78000 683.137
21.79000 691.967
21.80000 715.744
21.81000 735.301
21.82000 747.351
21.83000 744.064
21.84000 740.324
21.85000 747.309
21.86000 768.902
21.87000 790.565
21.88000 806.261
21.89000 816.726
21.90000 827.245
21.91000 840.761
21.92000 855.999
21.93000 870.756
21.94000 876.077
21.95000 877.748
21.96000 879.296
21.97000 884.987
21.98000 891.075
21.99000 895.708
22.00000 891.551
22.01000 885.920
22.02000 881.997
22.03000 884.751
22.04000 888.180
22.05000 890.695
22.06000 864.872
22.07000 843.778
22.08000 825.788
22.09000 813.262
22.10000 800.839
22.11000 788.162
22.12000 775.189
22.13000 762.256
22.14000 743.443
22.15000 720.431
22.16000 697.685
22.17000 684.234
22.18000 675.387
22.19000 666.219
22.20000 652.276
22.21000 636.739
22.22000 622.609
22.23000 621.085
22.24000 622.207
22.25000 621.589
22.26000 612.094
22.27000 601.351
22.28000 592.226
22.29000 588.530
22.30000 585.274
22.31000 582.992
22.32000 578.252
22.33000 574.596
22.34000 568.614
22.35000 559.111
22.36000 549.573
22.37000 546.472
22.38000 549.678
22.39000 552.860
22.40000 555.802
22.41000 558.547
22.42000 560.963
22.43000 555.420
22.44000 546.474
22.45000 538.166
22.46000 537.332
22.47000 538.646
22.48000 539.816
22.49000 541.778
22.50000 543.612
22.51000 546.661
22.52000 554.992
22.53000 563.936
22.54000 570.207
22.55000 568.753
22.56000 566.811
22.57000 565.517
22.58000 549.768
22.59000 537.831
22.60000 534.183
22.61000 541.265
22.62000 548.375
22.63000 548.402
22.64000 542.558
22.65000 536.793
22.66000 528.123
22.67000 518.145
22.68000 508.739
22.69000 509.557
22.70000 514.150
22.71000 518.284
22.72000 518.108
22.73000 516.868
22.74000 515.791
22.75000 522.922
22.76000 530.113
22.77000 535.455
22.78000 533.915
22.79000 531.726
22.80000 528.023
22.81000 520.542
22.82000 512.881
22.83000 508.052
22.84000 522.272
22.85000 532.785
22.86000 536.679
22.87000 533.292
22.88000 529.903
22.89000 526.723
22.90000 523.690
22.91000 520.723
22.92000 521.167
22.93000 523.140
22.94000 525.077
22.95000 526.518
22.96000 527.801
22.97000 529.035
22.98000 529.885
22.99000 530.654
23.00000 531.305
23.01000 523.202
23.02000 515.451
23.03000 509.971
23.04000 511.756
23.05000 514.086
23.06000 518.005
23.07000 525.349
23.08000 532.810
23.09000 537.228
23.10000 519.023
23.11000 506.028
23.12000 506.828
23.13000 520.426
23.14000 533.829
23.15000 534.000
23.16000 526.144
23.17000 518.536
23.18000 516.876
23.19000 517.601
23.20000 518.744
23.21000 524.434
23.22000 531.368
23.23000 536.443
23.24000 529.542
23.25000 520.504
23.26000 513.085
23.27000 515.384
23.28000 518.140
23.29000 518.199
23.30000 510.821
23.31000 503.013
23.32000 500.440
23.33000 507.596
23.34000 514.969
23.35000 519.041
23.36000 508.042
23.37000 500.449
23.38000 498.585
23.39000 501.231
23.40000 503.956
23.41000 509.878
23.42000 517.470
23.43000 524.733
23.44000 515.657
23.45000 501.845
23.46000 489.289
23.47000 487.814
23.48000 488.938
23.49000 491.433
23.50000 501.354
23.51000 512.388
23.52000 521.150
23.53000 519.172
23.54000 516.820
23.55000 515.667
23.56000 517.366
23.57000 519.188
23.58000 519.340
23.59000 516.820
23.60000 514.265
23.61000 512.961
23.62000 506.917
23.63000 502.883
23.64000 501.276
23.65000 501.305
23.66000 501.299
23.67000 500.355
23.68000 498.988
23.69000 497.698
23.70000 499.366
23.71000 501.716
23.72000 503.401
23.73000 500.241
23.74000 496.113
23.75000 493.400
23.76000 497.194
23.77000 501.799
23.78000 505.323
23.79000 501.406
23.80000 497.907
23.81000 497.647
23.82000 504.043
23.83000 510.639
23.84000 508.283
23.85000 493.657
23.86000 478.966
23.87000 475.457
23.88000 481.774
23.89000 488.051
23.90000 492.101
23.91000 494.863
23.92000 497.631
23.93000 500.513
23.94000 503.439
23.95000 506.153
23.96000 508.986
23.97000 511.566
23.98000 513.343
23.99000 510.237
24.00000 506.306
24.01000 502.321
24.02000 498.124
24.03000 493.906
24.04000 490.806
24.05000 492.749
24.06000 494.456
24.07000 496.970
24.08000 500.911
24.09000 504.879
24.10000 508.060
24.11000 510.323
24.12000 512.577
24.13000 511.605
24.14000 508.244
24.15000 504.968
24.16000 504.766
24.17000 506.094
24.18000 507.039
24.19000 502.214
24.20000 495.452
24.21000 489.297
24.22000 487.947
24.23000 487.700
24.24000 487.017
24.25000 484.092
24.26000 480.850
24.27000 479.421
24.28000 484.114
24.29000 489.306
24.30000 492.954
24.31000 493.725
24.32000 494.226
24.33000 493.449
24.34000 490.727
24.35000 487.984
24.36000 485.081
24.37000 482.020
24.38000 478.980
24.39000 481.832
24.40000 488.355
24.41000 494.672
24.42000 495.958
24.43000 495.080
24.44000 494.017
24.45000 490.767
24.46000 486.885
24.47000 483.426
24.48000 479.128
24.49000 475.253
24.50000 473.994
24.51000 484.175
24.52000 495.695
24.53000 502.505
24.54000 495.614
24.55000 487.850
24.56000 482.663
24.57000 485.841
24.58000 488.359
24.59000 486.770
24.60000 479.830
24.61000 472.880
24.62000 472.178
24.63000 476.690
24.64000 481.142
24.65000 482.600
24.66000 482.413
24.67000 482.264
24.68000 482.814
24.69000 483.623
24.70000 484.615
24.71000 487.341
24.72000 490.497
24.73000 493.243
24.74000 483.039
24.75000 472.565
24.76000 464.520
24.77000 465.571
24.78000 467.487
24.79000 469.277
24.80000 470.750
24.81000 472.207
24.82000 473.128
24.83000 464.814
24.84000 458.682
24.85000 457.539
24.86000 461.924
24.87000 466.281
24.88000 466.156
24.89000 462.843
24.90000 459.601
24.91000 463.903
24.92000 471.478
24.93000 478.728
24.94000 481.469
24.95000 482.766
24.96000 483.482
24.97000 479.668
24.98000 474.895
24.99000 470.854
25.00000 473.676
25.01000 476.806
25.02000 477.479
25.03000 470.241
25.04000 462.405
25.05000 460.245
25.06000 470.385
25.07000 480.950
25.08000 487.223
25.09000 492.214
25.10000 495.738
25.11000 497.122
25.12000 496.506
25.13000 495.857
25.14000 492.933
25.15000 488.619
25.16000 484.439
25.17000 480.503
25.18000 476.873
25.19000 473.529
25.20000 473.320
25.21000 473.976
25.22000 475.082
25.23000 479.106
25.24000 483.653
25.25000 487.391
25.26000 477.434
25.27000 468.020
25.28000 463.208
25.29000 471.168
25.30000 479.875
25.31000 485.939
25.32000 487.062
25.33000 488.072
25.34000 488.631
25.35000 482.567
25.36000 478.375
25.37000 476.306
25.38000 475.920
25.39000 475.536
25.40000 475.227
25.41000 474.956
25.42000 474.697
25.43000 476.852
25.44000 479.658
25.45000 482.082
25.46000 481.109
25.47000 479.333
25.48000 478.387
25.49000 481.960
25.50000 486.217
25.51000 489.601
25.52000 492.581
25.53000 494.953
25.54000 494.096
25.55000 485.507
25.56000 476.582
25.57000 470.650
25.58000 469.535
25.59000 468.484
25.60000 467.946
25.61000 474.231
25.62000 478.436
25.63000 480.509
25.64000 481.140
25.65000 481.662
25.66000 479.169
25.67000 475.309
25.68000 471.666
25.69000 471.431
25.70000 472.170
25.71000 473.254
25.72000 476.875
25.73000 481.005
25.74000 483.587
25.75000 478.994
25.76000 473.501
25.77000 469.290
25.78000 461.482
25.79000 455.117
25.80000 453.487
25.81000 461.646
25.82000 470.104
25.83000 473.160
25.84000 468.762
25.85000 464.321
25.86000 461.332
25.87000 459.631
25.88000 457.970
25.89000 458.558
25.90000 460.455
25.91000 462.514
25.92000 467.813
25.93000 474.382
25.94000 480.479
25.95000 475.177
25.96000 467.702
25.97000 461.715
25.98000 464.845
25.99000 469.526
26.00000 474.038
26.01000 477.878
26.02000 481.649
26.03000 484.424
26.04000 478.189
26.05000 472.991
26.06000 467.048
26.07000 459.777
26.08000 452.479
26.09000 451.942
26.10000 459.351
26.11000 466.751
26.12000 470.371
26.13000 471.137
26.14000 471.865
26.15000 471.224
26.16000 469.897
26.17000 468.523
26.18000 466.434
26.19000 464.104
26.20000 461.981
26.21000 461.504
26.22000 461.409
26.23000 460.992
26.24000 458.907
26.25000 456.585
26.26000 455.377
26.27000 457.955
26.28000 460.844
26.29000 462.877
26.30000 464.861
26.31000 466.362
26.32000 469.971
26.33000 476.808
26.34000 483.680
26.35000 484.536
26.36000 479.415
26.37000 474.330
26.38000 470.405
26.39000 467.278
26.40000 464.218
26.41000 462.818
26.42000 462.136
26.43000 461.165
26.44000 456.756
26.45000 451.347
26.46000 446.523
26.47000 451.805
26.48000 458.076
26.49000 463.117
26.50000 462.741
26.51000 461.726
26.52000 462.611
26.53000 469.057
26.54000 475.862
26.55000 480.417
26.56000 477.796
26.57000 475.709
26.58000 471.169
26.59000 463.412
26.60000 455.655
26.61000 455.152
26.62000 460.743
26.63000 466.261
26.64000 467.470
26.65000 466.321
26.66000 465.194
26.67000 464.468
26.68000 463.892
26.69000 463.347
26.70000 463.099
26.71000 462.926
26.72000 462.774
26.73000 454.829
26.74000 446.973
26.75000 440.395
26.76000 438.636
26.77000 437.340
26.78000 437.475
26.79000 441.225
26.80000 445.150
26.81000 447.637
26.82000 449.227
26.83000 450.370
26.84000 454.975
26.85000 463.441
26.86000 471.838
26.87000 469.567
26.88000 459.656
26.89000 449.952
26.90000 447.256
26.91000 447.884
26.92000 448.712
26.93000 452.343
26.94000 456.878
26.95000 460.312
26.96000 455.112
26.97000 448.069
26.98000 442.100
26.99000 440.809
27.00000 440.254
27.01000 440.416
27.02000 442.899
27.03000 445.560
27.04000 449.476
27.05000 456.129
27.06000 462.877
27.07000 466.895
27.08000 457.613
27.09000 450.958
27.10000 447.516
27.11000 447.098
27.12000 446.731
27.13000 450.047
27.14000 455.627
27.15000 461.036
27.16000 455.898
27.17000 446.909
27.18000 439.017
27.19000 443.288
27.20000 450.930
27.21000 457.896
27.22000 460.451
27.23000 462.209
27.24000 463.655
27.25000 462.553
27.26000 461.416
27.27000 459.197
27.28000 453.962
27.29000 448.548
27.30000 444.264
27.31000 442.103
27.32000 439.992
27.33000 438.819
27.34000 444.700
27.35000 448.764
27.36000 448.387
27.37000 444.468
27.38000 440.661
27.39000 441.613
27.40000 445.081
27.41000 448.403
27.42000 453.218
27.43000 458.204
27.44000 462.916
27.45000 465.171
27.46000 466.842
27.47000 468.067
27.48000 466.838
27.49000 465.237
27.50000 463.962
27.51000 460.458
27.52000 457.472
27.53000 453.259
27.54000 446.094
27.55000 438.797
27.56000 433.485
27.57000 431.382
27.58000 429.324
27.59000 428.267
27.60000 426.703
27.61000 425.699
27.62000 430.025
27.63000 437.984
27.64000 445.608
27.65000 443.782
27.66000 437.645
27.67000 431.849
27.68000 431.663
27.69000 433.071
27.70000 434.593
27.71000 436.948
27.72000 439.471
27.73000 441.523
27.74000 441.378
27.75000 440.955
27.76000 440.631
27.77000 450.266
27.78000 458.439
27.79000 464.136
27.80000 464.684
27.81000 465.072
27.82000 460.559
27.83000 449.242
27.84000 437.887
27.85000 434.651
27.86000 438.649
27.87000 442.595
27.88000 443.433
27.89000 442.452
27.90000 441.498
27.91000 441.087
27.92000 440.890
27.93000 440.706
27.94000 442.416
27.95000 444.408
27.96000 446.550
27.97000 449.613
27.98000 452.835
27.99000 454.774
28.00000 451.610
28.01000 447.917
28.02000 445.194
28.03000 450.311
28.04000 454.602
28.05000 456.305
28.06000 453.368
28.07000 450.339
28.08000 447.791
28.09000 445.815
28.10000 443.845
28.11000 439.274
28.12000 432.775
28.13000 426.519
28.14000 429.148
28.15000 436.258
28.16000 442.961
28.17000 443.421
28.18000 441.759
28.19000 440.243
28.20000 444.568
28.21000 449.570
28.22000 454.630
28.23000 459.992
28.24000 465.398
28.25000 467.276
28.26000 457.101
28.27000 445.923
28.28000 438.043
28.29000 427.806
28.30000 419.971
28.31000 421.305
28.32000 436.778
28.33000 452.409
28.34000 455.853
28.35000 447.107
28.36000 438.419
28.37000 433.756
28.38000 431.736
28.39000 429.960
28.40000 434.363
28.41000 441.456
28.42000 447.528
28.43000 441.331
28.44000 431.542
28.45000 422.806
28.46000 428.129
28.47000 435.115
28.48000 440.076
28.49000 436.069
28.50000 430.996
28.51000 428.702
28.52000 434.586
28.53000 441.004
28.54000 445.308
28.55000 442.198
28.56000 439.739
28.57000 440.870
28.58000 446.741
28.59000 452.632
28.60000 457.532
28.61000 461.594
28.62000 465.603
28.63000 459.972
28.64000 449.250
28.65000 439.055
28.66000 438.615
28.67000 441.841
28.68000 444.760
28.69000 444.716
28.70000 443.928
28.71000 443.242
28.72000 445.573
28.73000 447.983
28.74000 447.975
28.75000 438.804
28.76000 428.746
28.77000 422.896
28.78000 427.735
28.79000 433.100
28.80000 436.506
28.81000 433.495
28.82000 431.231
28.83000 429.960
28.84000 429.804
28.85000 429.667
28.86000 432.434
28.87000 437.293
28.88000 442.052
28.89000 437.129
28.90000 427.918
28.91000 419.591
28.92000 423.764
28.93000 431.988
28.94000 439.265
28.95000 439.038
28.96000 437.201
28.97000 435.641
28.98000 438.254
28.99000 440.918
29.00000 443.730
29.01000 447.019
29.02000 450.345
29.03000 452.642
29.04000 452.680
29.05000 452.637
29.06000 452.612
29.07000 437.497
29.08000 426.685
29.09000 422.688
29.10000 425.142
29.11000 427.586
29.12000 429.232
29.13000 430.387
29.14000 431.506
29.15000 430.818
29.16000 429.455
29.17000 428.573
29.18000 433.066
29.19000 439.060
29.20000 442.939
29.21000 432.913
29.22000 420.354
29.23000 410.006
29.24000 418.092
29.25000 426.437
29.26000 431.417
29.27000 426.951
29.28000 421.919
29.29000 418.459
29.30000 417.970
29.31000 417.552
29.32000 417.319
29.33000 415.964
29.34000 415.037
29.35000 418.490
29.36000 425.458
29.37000 432.279
29.38000 432.712
29.39000 429.749
29.40000 426.909
29.41000 423.561
29.42000 420.268
29.43000 417.240
29.44000 416.618
29.45000 416.570
29.46000 416.869
29.47000 419.089
29.48000 421.603
29.49000 423.607
29.50000 424.446
29.51000 425.038
29.52000 425.069
29.53000 423.743
29.54000 422.356
29.55000 421.316
29.56000 420.842
29.57000 420.375
29.58000 420.135
29.59000 420.574
29.60000 420.871
29.61000 421.377
29.62000 422.024
29.63000 422.501
29.64000 418.085
29.65000 411.425
29.66000 405.132
29.67000 402.605
29.68000 401.352
29.69000 401.716
29.70000 414.113
29.71000 428.962
29.72000 441.186
29.73000 441.092
29.74000 439.429
29.75000 438.150
29.76000 447.062
29.77000 454.687
29.78000 459.082
29.79000 456.718
29.80000 454.141
29.81000 453.483
29.82000 455.505
29.83000 457.544
29.84000 459.415
29.85000 461.134
29.86000 462.911
29.87000 468.162
29.88000 475.460
29.89000 482.181
29.90000 477.044
29.91000 467.209
29.92000 458.068
29.93000 453.920
29.94000 451.374
29.95000 449.172
29.96000 449.101
29.97000 449.398
29.98000 449.111
29.99000 446.485
30.00000 443.614
30.01000 441.494
30.02000 449.837
30.03000 456.749
30.04000 459.889
30.05000 456.226
30.06000 452.424
30.07000 450.135
30.08000 449.650
30.09000 449.169
30.10000 449.367
30.11000 450.077
30.12000 450.764
30.13000 450.581
30.14000 449.956
30.15000 449.160
30.16000 445.712
30.17000 441.357
30.18000 437.384
30.19000 437.997
30.20000 439.466
30.21000 441.627
30.22000 447.416
30.23000 453.729
30.24000 456.525
30.25000 447.228
30.26000 436.914
30.27000 429.629
30.28000 438.901
30.29000 446.445
30.30000 452.037
30.31000 454.600
30.32000 457.127
30.33000 458.185
30.34000 457.760
30.35000 457.339
30.36000 458.164
30.37000 459.779
30.38000 461.210
30.39000 457.920
30.40000 452.564
30.41000 447.427
30.42000 444.961
30.43000 443.280
30.44000 441.780
30.45000 439.652
30.46000 437.693
30.47000 435.383
30.48000 431.512
30.49000 427.453
30.50000 427.141
30.51000 437.923
30.52000 449.435
30.53000 457.174
30.54000 464.133
30.55000 469.287
30.56000 469.629
30.57000 463.578
30.58000 457.504
30.59000 455.794
30.60000 457.800
30.61000 459.781
30.62000 463.454
30.63000 467.958
30.64000 472.267
30.65000 472.926
30.66000 472.205
30.67000 471.675
30.68000 473.003
30.69000 474.800
30.70000 476.368
30.71000 477.974
30.72000 479.353
30.73000 480.481
30.74000 480.652
30.75000 480.730
30.76000 482.768
30.77000 489.813
30.78000 497.107
30.79000 501.749
30.80000 508.225
30.81000 512.953
30.82000 518.913
30.83000 526.265
30.84000 533.601
30.85000 538.104
30.86000 540.554
30.87000 542.954
30.88000 557.796
30.89000 577.864
30.90000 598.184
30.91000 622.127
30.92000 647.251
30.93000 674.680
30.94000 720.491
30.95000 770.274
30.96000 812.572
30.97000 886.610
30.98000 952.389
30.99000 1022.061
31.00000 1104.488
31.01000 1187.908
31.02000 1283.781
31.03000 1407.126
31.04000 1531.459
31.05000 1605.871
31.06000 1843.812
31.07000 2013.764
31.08000 2194.146
31.09000 2384.473
31.10000 2574.754
31.11000 2761.552
31.12000 2946.186
31.13000 3125.330
31.14000 3307.442
31.15000 3481.305
31.16000 3653.414
31.17000 3805.714
31.18000 3952.456
31.19000 4091.221
31.20000 4177.145
31.21000 4253.378
31.22000 4316.270
31.23000 4365.540
31.24000 4404.851
31.25000 4420.053
31.26000 4367.165
31.27000 4310.158
31.28000 4245.789
31.29000 4167.405
31.30000 4088.684
31.31000 4044.694
31.32000 3796.981
31.33000 3624.977
31.34000 3450.923
31.35000 3275.211
31.36000 3099.074
31.37000 2904.249
31.38000 2699.425
31.39000 2503.043
31.40000 2334.422
31.41000 2186.317
31.42000 2039.493
31.43000 1904.342
31.44000 1772.000
31.45000 1641.032
31.46000 1517.723
31.47000 1395.596
31.48000 1298.080
31.49000 1198.581
31.50000 1118.080
31.51000 1047.121
31.52000 999.424
31.53000 952.779
31.54000 904.095
31.55000 852.068
31.56000 799.993
31.57000 773.058
31.58000 744.353
31.59000 724.933
31.60000 697.611
31.61000 664.837
31.62000 632.299
31.63000 606.626
31.64000 584.121
31.65000 562.844
31.66000 550.679
31.67000 542.106
31.68000 533.687
31.69000 526.425
31.70000 519.401
31.71000 512.229
31.72000 504.361
31.73000 496.404
31.74000 490.276
31.75000 493.198
31.76000 496.029
31.77000 493.701
31.78000 480.514
31.79000 466.979
31.80000 457.262
31.81000 452.910
31.82000 448.597
31.83000 440.909
31.84000 430.184
31.85000 419.676
31.86000 422.656
31.87000 433.625
31.88000 444.054
31.89000 443.228
31.90000 437.917
31.91000 432.977
31.92000 431.591
31.93000 431.198
31.94000 430.913
31.95000 431.313
31.96000 431.831
31.97000 430.089
31.98000 419.234
31.99000 407.420
32.00000 398.679
32.01000 404.122
32.02000 408.954
32.03000 412.179
32.04000 412.490
32.05000 412.740
32.06000 413.758
32.07000 415.694
32.08000 417.628
32.09000 412.225
32.10000 401.256
32.11000 390.579
32.12000 390.999
32.13000 397.083
32.14000 402.564
32.15000 398.580
32.16000 391.341
32.17000 384.730
32.18000 389.857
32.19000 396.791
32.20000 402.745
32.21000 403.526
32.22000 403.554
32.23000 401.941
32.24000 394.652
32.25000 386.882
32.26000 381.383
32.27000 379.482
32.28000 378.148
32.29000 379.571
32.30000 385.294
32.31000 391.069
32.32000 392.710
32.33000 390.160
32.34000 387.625
32.35000 383.764
32.36000 379.101
32.37000 374.643
32.38000 375.541
32.39000 378.797
32.40000 381.860
32.41000 382.562
32.42000 382.565
32.43000 382.567
32.44000 386.266
32.45000 390.117
32.46000 392.302
32.47000 387.013
32.48000 380.820
32.49000 376.409
32.50000 377.303
32.51000 378.550
32.52000 379.391
32.53000 377.567
32.54000 376.156
32.55000 374.293
32.56000 371.826
32.57000 369.366
32.58000 373.133
32.59000 382.237
32.60000 391.231
32.61000 390.754
32.62000 385.076
32.63000 379.665
32.64000 379.299
32.65000 380.851
32.66000 381.588
32.67000 374.312
32.68000 364.996
32.69000 356.861
32.70000 358.365
32.71000 361.008
32.72000 363.030
32.73000 362.663
32.74000 362.062
32.75000 364.451
32.76000 374.530
32.77000 384.996
32.78000 391.671
32.79000 380.231
32.80000 371.678
32.81000 367.215
32.82000 367.404
32.83000 367.582
32.84000 365.245
32.85000 361.072
32.86000 356.981
32.87000 359.859
32.88000 365.892
32.89000 371.269
32.90000 367.159
32.91000 359.937
32.92000 353.678
32.93000 355.156
32.94000 358.315
32.95000 361.003
32.96000 360.414
32.97000 359.542
32.98000 360.444
32.99000 367.199
33.00000 374.415
33.01000 375.749
33.02000 364.033
33.03000 351.840
33.04000 344.524
33.05000 347.594
33.06000 349.845
33.07000 349.422
33.08000 346.432
33.09000 343.556
33.10000 349.451
33.11000 360.832
33.12000 371.880
33.13000 366.359
33.14000 354.516
33.15000 343.909
33.16000 347.387
33.17000 354.841
33.18000 361.141
33.19000 359.742
33.20000 356.921
33.21000 354.591
33.22000 356.841
33.23000 359.122
33.24000 361.731
33.25000 365.271
33.26000 368.868
33.27000 368.059
33.28000 358.809
33.29000 349.353
33.30000 344.053
33.31000 350.861
33.32000 355.593
33.33000 354.476
33.34000 348.600
33.35000 342.927
33.36000 346.298
33.37000 354.538
33.38000 362.442
33.39000 362.209
33.40000 359.235
33.41000 356.270
33.42000 353.401
33.43000 350.554
33.44000 348.763
33.45000 352.893
33.46000 357.944
33.47000 361.983
33.48000 360.293
33.49000 358.501
33.50000 355.359
33.51000 348.903
33.52000 342.295
33.53000 341.388
33.54000 349.881
33.55000 358.514
33.56000 362.993
33.57000 360.213
33.58000 358.340
33.59000 357.278
33.60000 356.779
33.61000 356.200
33.62000 353.235
33.63000 349.163
33.64000 345.312
33.65000 342.210
33.66000 339.575
33.67000 336.942
33.68000 334.324
33.69000 331.708
33.70000 330.455
33.71000 335.681
33.72000 341.744
33.73000 346.421
33.74000 347.272
33.75000 347.726
33.76000 345.639
33.77000 338.174
33.78000 330.534
33.79000 324.526
33.80000 320.826
33.81000 317.145
33.82000 317.641
33.83000 321.934
33.84000 326.204
33.85000 329.036
33.86000 331.012
33.87000 332.827
33.88000 331.266
33.89000 328.352
33.90000 325.639
33.91000 326.798
33.92000 328.787
33.93000 330.923
33.94000 333.986
33.95000 337.212
33.96000 339.592
33.97000 338.538
33.98000 337.119
33.99000 336.068
34.00000 336.884
34.01000 337.599
34.02000 337.118
34.03000 334.455
34.04000 331.746
34.05000 330.064
34.06000 329.621
34.07000 329.181
34.08000 333.043
34.09000 340.187
34.10000 347.095
34.11000 344.840
34.12000 337.881
34.13000 331.485
34.14000 334.013
34.15000 339.628
34.16000 344.760
34.17000 339.570
34.18000 332.849
34.19000 328.355
34.20000 335.693
34.21000 344.768
34.22000 349.879
34.23000 341.193
34.24000 331.327
34.25000 324.331
34.26000 325.564
34.27000 326.759
34.28000 328.478
34.29000 331.019
34.30000 333.570
34.31000 334.258
34.32000 333.044
34.33000 331.838
34.34000 331.776
34.35000 332.461
34.36000 333.031
34.37000 330.543
34.38000 326.701
34.39000 323.088
34.40000 322.302
34.41000 322.359
34.42000 322.411
34.43000 328.978
34.44000 335.821
34.45000 340.795
34.46000 337.327
34.47000 332.832
34.48000 329.868
34.49000 331.495
34.50000 333.430
34.51000 334.736
34.52000 326.678
34.53000 320.480
34.54000 318.265
34.55000 321.406
34.56000 324.569
34.57000 322.823
34.58000 316.843
34.59000 310.934
34.60000 314.278
34.61000 322.667
34.62000 330.702
34.63000 331.976
34.64000 330.664
34.65000 329.355
34.66000 328.066
34.67000 326.782
34.68000 325.660
34.69000 335.342
34.70000 345.168
34.71000 351.202
34.72000 342.598
34.73000 332.540
34.74000 323.844
34.75000 318.670
34.76000 313.675
34.77000 310.483
34.78000 318.332
34.79000 324.191
34.80000 326.587
34.81000 325.015
34.82000 323.465
34.83000 326.341
34.84000 332.469
34.85000 338.478
34.86000 338.506
34.87000 335.715
34.88000 332.715
34.89000 326.682
34.90000 319.649
34.91000 313.717
34.92000 316.714
34.93000 321.664
34.94000 325.880
34.95000 326.649
34.96000 326.894
34.97000 324.981
34.98000 315.908
34.99000 306.266
35.00000 302.494
35.01000 311.829
35.02000 321.649
35.03000 327.557
35.04000 325.486
35.05000 323.959
35.06000 322.241
35.07000 320.338
35.08000 318.493
35.09000 321.185
35.10000 326.734
35.11000 332.123
35.12000 331.737
35.13000 329.054
35.14000 326.227
35.15000 321.743
35.16000 316.788
35.17000 312.725
35.18000 314.659
35.19000 317.707
35.20000 320.228
35.21000 324.599
35.22000 328.378
35.23000 330.883
35.24000 329.747
35.25000 328.387
35.26000 326.354
35.27000 323.025
35.28000 319.664
35.29000 317.775
35.30000 312.229
35.31000 308.379
35.32000 307.572
35.33000 309.258
35.34000 310.937
35.35000 312.327
35.36000 313.560
35.37000 314.743
35.38000 313.181
35.39000 310.783
35.40000 309.094
35.41000 313.972
35.42000 320.450
35.43000 326.356
35.44000 329.036
35.45000 331.210
35.46000 332.951
35.47000 325.324
35.48000 318.451
35.49000 314.232
35.50000 316.557
35.51000 319.186
35.52000 319.453
35.53000 315.801
35.54000 312.090
35.55000 310.157
35.56000 309.188
35.57000 308.545
35.58000 309.389
35.59000 311.273
35.60000 313.171
35.61000 315.501
35.62000 318.034
35.63000 320.431
35.64000 319.757
35.65000 318.248
35.66000 316.511
35.67000 313.033
35.68000 309.193
35.69000 306.369
35.70000 308.408
35.71000 311.082
35.72000 313.147
35.73000 310.431
35.74000 307.999
35.75000 306.829
35.76000 308.345
35.77000 309.950
35.78000 308.907
35.79000 304.095
35.80000 299.255
35.81000 298.846
35.82000 302.492
35.83000 306.054
35.84000 304.246
35.85000 299.217
35.86000 294.683
35.87000 300.696
35.88000 310.963
35.89000 320.526
35.90000 315.778
35.91000 307.980
35.92000 300.811
35.93000 297.633
35.94000 295.158
35.95000 294.729
35.96000 302.658
35.97000 311.481
35.98000 318.030
35.99000 312.456
36.00000 307.591
36.01000 304.848
36.02000 306.004
36.03000 307.244
36.04000 304.827
36.05000 297.969
36.06000 291.116
36.07000 291.417
36.08000 297.250
36.09000 303.058
36.10000 307.916
36.11000 312.284
36.12000 316.242
36.13000 313.647
36.14000 308.771
36.15000 304.312
36.16000 306.424
36.17000 309.655
36.18000 311.792
36.19000 308.073
36.20000 303.488
36.21000 300.676
36.22000 304.075
36.23000 308.010
36.24000 310.806
36.25000 305.961
36.26000 302.030
36.27000 298.569
36.28000 295.852
36.29000 293.144
36.30000 290.269
36.31000 287.221
36.32000 284.191
36.33000 289.251
36.34000 299.549
36.35000 309.478
36.36000 309.575
36.37000 305.290
36.38000 301.513
36.39000 304.071
36.40000 308.528
36.41000 312.521
36.42000 309.909
36.43000 306.490
36.44000 304.286
36.45000 307.596
36.46000 311.583
36.47000 314.467
36.48000 314.025
36.49000 313.357
36.50000 312.905
36.51000 307.539
36.52000 303.434
36.53000 300.518
36.54000 299.211
36.55000 297.921
36.56000 303.201
36.57000 314.186
36.58000 325.044
36.59000 327.969
36.60000 326.400
36.61000 324.640
36.62000 319.186
36.63000 312.311
36.64000 306.082
36.65000 306.320
36.66000 308.224
36.67000 309.889
36.68000 307.653
36.69000 305.178
36.70000 305.399
36.71000 316.088
36.72000 327.827
36.73000 334.392
36.74000 327.503
36.75000 319.918
36.76000 315.058
36.77000 310.363
36.78000 306.945
36.79000 308.247
36.80000 314.990
36.81000 321.705
36.82000 322.075
36.83000 317.753
36.84000 313.513
36.85000 315.004
36.86000 319.160
36.87000 322.853
36.88000 319.733
36.89000 314.351
36.90000 309.461
36.91000 308.576
36.92000 308.574
36.93000 308.572
36.94000 311.604
36.95000 314.511
36.96000 316.154
36.97000 313.576
36.98000 310.660
36.99000 308.981
37.00000 310.082
37.01000 311.288
37.02000 312.015
37.03000 305.627
37.04000 301.029
37.05000 303.910
37.06000 314.070
37.07000 324.171
37.08000 329.429
37.09000 331.621
37.10000 333.750
37.11000 329.022
37.12000 321.760
37.13000 314.621
37.14000 308.907
37.15000 303.600
37.16000 299.389
37.17000 302.601
37.18000 307.201
37.19000 311.011
37.20000 302.995
37.21000 295.255
37.22000 289.748
37.23000 290.662
37.24000 291.978
37.25000 291.638
37.26000 288.089
37.27000 284.459
37.28000 282.412
37.29000 295.021
37.30000 303.806
37.31000 307.151
37.32000 306.013
37.33000 304.834
37.34000 301.760
37.35000 297.655
37.36000 293.712
37.37000 292.361
37.38000 291.986
37.39000 291.575
37.40000 290.829
37.41000 290.001
37.42000 289.843
37.43000 293.487
37.44000 297.731
37.45000 301.134
37.46000 298.421
37.47000 295.762
37.48000 295.616
37.49000 301.707
37.50000 308.091
37.51000 312.411
37.52000 313.284
37.53000 314.103
37.54000 314.531
37.55000 305.151
37.56000 298.832
37.57000 296.546
37.58000 297.095
37.59000 297.702
37.60000 300.090
37.61000 303.316
37.62000 306.370
37.63000 301.261
37.64000 294.178
37.65000 288.111
37.66000 289.837
37.67000 293.195
37.68000 295.439
37.69000 292.322
37.70000 288.500
37.71000 285.543
37.72000 290.065
37.73000 294.095
37.74000 295.613
37.75000 291.752
37.76000 287.710
37.77000 285.227
37.78000 284.975
37.79000 284.741
37.80000 288.485
37.81000 295.892
37.82000 303.193
37.83000 303.433
37.84000 299.414
37.85000 295.506
37.86000 294.014
37.87000 293.500
37.88000 293.022
37.89000 288.445
37.90000 283.293
37.91000 279.006
37.92000 280.253
37.93000 282.481
37.94000 284.443
37.95000 285.308
37.96000 286.054
37.97000 286.609
37.98000 298.009
37.99000 307.357
38.00000 310.546
38.01000 302.350
38.02000 293.903
38.03000 291.071
38.04000 295.106
38.05000 299.149
38.06000 300.472
38.07000 299.672
38.08000 298.915
38.09000 299.918
38.10000 301.834
38.11000 303.712
38.12000 304.961
38.13000 305.989
38.14000 306.931
38.15000 304.432
38.16000 301.495
38.17000 299.337
38.18000 301.373
38.19000 304.034
38.20000 306.041
38.21000 305.746
38.22000 305.250
38.23000 304.897
38.24000 303.910
38.25000 303.138
38.26000 306.473
38.27000 316.342
38.28000 326.294
38.29000 330.714
38.30000 329.408
38.31000 328.108
38.32000 324.692
38.33000 319.923
38.34000 315.531
38.35000 321.333
38.36000 331.705
38.37000 341.357
38.38000 341.925
38.39000 339.753
38.40000 337.805
38.41000 343.177
38.42000 349.141
38.43000 353.876
38.44000 352.994
38.45000 351.418
38.46000 350.901
38.47000 353.593
38.48000 356.506
38.49000 358.480
38.50000 359.700
38.51000 360.593
38.52000 360.483
38.53000 359.008
38.54000 357.529
38.55000 359.591
38.56000 364.748
38.57000 369.847
38.58000 368.499
38.59000 363.564
38.60000 358.825
38.61000 357.916
38.62000 358.489
38.63000 358.646
38.64000 354.615
38.65000 349.498
38.66000 345.017
38.67000 350.480
38.68000 356.599
38.69000 361.212
38.70000 359.939
38.71000 358.071
38.72000 356.506
38.73000 355.734
38.74000 355.004
38.75000 354.535
38.76000 334.970
38.77000 320.439
38.78000 310.759
38.79000 306.709
38.80000 302.689
38.81000 302.841
38.82000 306.096
38.83000 309.290
38.84000 309.459
38.85000 308.177
38.86000 306.731
38.87000 302.843
38.88000 298.141
38.89000 293.973
38.90000 294.198
38.91000 295.398
38.92000 296.421
38.93000 297.805
38.94000 299.013
38.95000 299.305
38.96000 296.523
38.97000 293.493
38.98000 290.569
38.99000 287.883
39.00000 285.207
39.01000 283.589
39.02000 293.546
39.03000 300.726
39.04000 300.461
39.05000 292.898
39.06000 285.360
39.07000 279.781
39.08000 275.452
39.09000 271.244
39.10000 271.932
39.11000 274.577
39.12000 277.081
39.13000 277.950
39.14000 278.349
39.15000 278.238
39.16000 274.657
39.17000 270.423
39.18000 266.912
39.19000 265.444
39.20000 264.428
39.21000 263.500
39.22000 262.828
39.23000 262.173
39.24000 262.359
39.25000 264.186
39.26000 266.056
39.27000 267.113
39.28000 268.721
39.29000 269.847
39.30000 273.782
39.31000 280.048
39.32000 286.188
39.33000 286.391
39.34000 283.339
39.35000 280.407
39.36000 276.241
39.37000 271.915
39.38000 267.529
39.39000 262.588
39.40000 257.509
39.41000 253.712
39.42000 257.248
39.43000 261.949
39.44000 265.723
39.45000 273.289
39.46000 279.708
39.47000 284.816
39.48000 286.651
39.49000 288.331
39.50000 286.983
39.51000 280.551
39.52000 274.038
39.53000 270.625
39.54000 269.143
39.55000 268.161
39.56000 270.116
39.57000 274.150
39.58000 278.072
39.59000 278.547
39.60000 277.391
39.61000 276.297
39.62000 272.814
39.63000 268.905
39.64000 265.669
39.65000 267.632
39.66000 270.690
39.67000 272.313
39.68000 266.979
39.69000 260.724
39.70000 255.877
39.71000 260.856
39.72000 265.396
39.73000 267.103
39.74000 262.704
39.75000 258.097
39.76000 257.453
39.77000 262.519
39.78000 267.631
39.79000 269.307
39.80000 267.794
39.81000 266.269
39.82000 263.889
39.83000 260.992
39.84000 258.194
39.85000 257.579
39.86000 257.855
39.87000 258.113
39.88000 258.167
39.89000 258.165
39.90000 258.163
39.91000 258.161
39.92000 258.159
39.93000 258.333
39.94000 259.233
39.95000 260.212
39.96000 260.941
39.97000 254.844
39.98000 249.790
39.99000 249.791
40.00000 259.188
40.01000 268.797
40.02000 272.909
40.03000 270.257
40.04000 267.593
40.05000 265.750
40.06000 264.559
40.07000 263.325
40.08000 260.339
40.09000 256.437
40.10000 252.790
40.11000 253.303
40.12000 255.282
40.13000 257.094
40.14000 257.178
40.15000 256.891
40.16000 256.985
40.17000 259.148
40.18000 261.620
40.19000 262.316
40.20000 256.715
40.21000 250.559
40.22000 246.171
40.23000 249.988
40.24000 253.166
40.25000 254.984
40.26000 254.624
40.27000 254.235
40.28000 254.843
40.29000 256.489
40.30000 258.127
40.31000 259.769
40.32000 261.394
40.33000 262.892
40.34000 260.906
40.35000 257.350
40.36000 254.125
40.37000 255.117
40.38000 257.388
40.39000 259.427
40.40000 262.711
40.41000 265.801
40.42000 266.805
40.43000 258.207
40.44000 248.414
40.45000 241.883
40.46000 245.307
40.47000 249.420
40.48000 252.215
40.49000 259.290
40.50000 264.667
40.51000 266.391
40.52000 263.107
40.53000 259.792
40.54000 255.092
40.55000 249.174
40.56000 243.321
40.57000 244.326
40.58000 249.183
40.59000 253.833
40.60000 254.372
40.61000 253.311
40.62000 252.473
40.63000 253.909
40.64000 255.937
40.65000 257.715
40.66000 252.892
40.67000 247.793
40.68000 244.829
40.69000 250.265
40.70000 256.556
40.71000 261.001
40.72000 260.586
40.73000 259.913
40.74000 259.480
40.75000 260.562
40.76000 261.373
40.77000 258.756
40.78000 252.135
40.79000 245.538
40.80000 244.738
40.81000 248.277
40.82000 251.752
40.83000 255.531
40.84000 259.322
40.85000 262.994
40.86000 264.875
40.87000 266.154
40.88000 266.791
40.89000 262.100
40.90000 256.221
40.91000 251.197
40.92000 254.287
40.93000 257.859
40.94000 257.989
40.95000 246.494
40.96000 234.049
40.97000 229.158
40.98000 241.436
40.99000 254.378
41.00000 262.224
41.01000 258.504
41.02000 255.764
41.03000 252.497
41.04000 248.708
41.05000 244.950
41.06000 243.850
41.07000 244.453
41.08000 245.040
41.09000 248.932
41.10000 253.987
41.11000 258.372
41.12000 254.853
41.13000 249.047
41.14000 244.250
41.15000 246.389
41.16000 249.844
41.17000 252.712
41.18000 244.603
41.19000 236.837
41.20000 231.161
41.21000 231.568
41.22000 232.363
41.23000 234.261
41.24000 238.322
41.25000 242.440
41.26000 244.774
41.27000 251.764
41.28000 256.634
41.29000 256.492
41.30000 252.166
41.31000 247.958
41.32000 249.427
41.33000 254.027
41.34000 258.448
41.35000 256.778
41.36000 253.095
41.37000 249.407
41.38000 245.675
41.39000 241.931
41.40000 238.699
41.41000 238.409
41.42000 238.591
41.43000 238.737
41.44000 243.305
41.45000 247.350
41.46000 250.026
41.47000 249.264
41.48000 248.337
41.49000 248.508
41.50000 250.536
41.51000 252.594
41.52000 253.676
41.53000 244.525
41.54000 238.357
41.55000 238.158
41.56000 242.211
41.57000 246.041
41.58000 242.903
41.59000 236.451
41.60000 230.334
41.61000 235.219
41.62000 242.972
41.63000 249.820
41.64000 249.620
41.65000 247.926
41.66000 246.628
41.67000 247.263
41.68000 248.155
41.69000 248.847
41.70000 249.381
41.71000 249.796
41.72000 249.887
41.73000 249.277
41.74000 248.642
41.75000 245.834
41.76000 239.873
41.77000 233.886
41.78000 234.421
41.79000 241.048
41.80000 247.639
41.81000 251.743
41.82000 254.328
41.83000 256.714
41.84000 254.691
41.85000 250.858
41.86000 247.280
41.87000 246.649
41.88000 246.815
41.89000 247.026
41.90000 247.532
41.91000 248.091
41.92000 248.582
41.93000 248.789
41.94000 248.965
41.95000 249.096
41.96000 248.216
41.97000 247.484
41.98000 245.722
41.99000 242.033
42.00000 238.299
42.01000 238.138
42.02000 242.402
42.03000 246.669
42.04000 245.745
42.05000 240.728
42.06000 235.803
42.07000 234.719
42.08000 235.653
42.09000 236.534
42.10000 236.524
42.11000 236.200
42.12000 235.902
42.13000 233.895
42.14000 231.748
42.15000 229.775
42.16000 228.754
42.17000 227.876
42.18000 227.779
42.19000 230.465
42.20000 233.399
42.21000 235.494
42.22000 241.498
42.23000 246.208
42.24000 246.073
42.25000 238.136
42.26000 230.095
42.27000 229.297
42.28000 236.105
42.29000 242.877
42.30000 244.538
42.31000 242.757
42.32000 241.006
42.33000 240.046
42.34000 239.446
42.35000 238.950
42.36000 239.795
42.37000 241.048
42.38000 242.174
42.39000 240.820
42.40000 239.198
42.41000 237.835
42.42000 237.674
42.43000 237.663
42.44000 237.779
42.45000 238.280
42.46000 238.809
42.47000 239.168
42.48000 238.758
42.49000 238.435
42.50000 239.965
42.51000 244.054
42.52000 248.155
42.53000 247.902
42.54000 243.792
42.55000 239.726
42.56000 234.469
42.57000 228.656
42.58000 223.109
42.59000 222.918
42.60000 224.826
42.61000 226.834
42.62000 229.874
42.63000 233.186
42.64000 236.092
42.65000 229.738
42.66000 222.925
42.67000 218.258
42.68000 222.082
42.69000 226.779
42.70000 229.608
42.71000 227.487
42.72000 225.102
42.73000 223.564
42.74000 232.468
42.75000 239.123
42.76000 239.546
42.77000 232.640
42.78000 225.762
42.79000 227.155
42.80000 234.780
42.81000 242.267
42.82000 244.428
42.83000 243.935
42.84000 243.339
42.85000 241.173
42.86000 238.476
42.87000 235.738
42.88000 232.654
42.89000 229.492
42.90000 226.788
42.91000 228.971
42.92000 231.400
42.93000 233.570
42.94000 234.858
42.95000 236.073
42.96000 235.951
42.97000 232.772
42.98000 229.474
42.99000 227.469
43.00000 232.025
43.01000 235.329
43.02000 236.294
43.03000 234.935
43.04000 233.595
43.05000 233.898
43.06000 235.260
43.07000 236.586
43.08000 237.718
43.09000 238.715
43.10000 239.411
43.11000 236.509
43.12000 232.561
43.13000 229.192
43.14000 229.841
43.15000 231.257
43.16000 232.435
43.17000 233.501
43.18000 234.373
43.19000 234.667
43.20000 233.269
43.21000 231.763
43.22000 231.316
43.23000 232.959
43.24000 234.658
43.25000 235.624
43.26000 231.888
43.27000 229.273
43.28000 228.545
43.29000 229.401
43.30000 230.304
43.31000 233.491
43.32000 237.945
43.33000 242.228
43.34000 241.545
43.35000 239.164
43.36000 236.636
43.37000 232.695
43.38000 228.401
43.39000 224.999
43.40000 226.774
43.41000 229.382
43.42000 231.482
43.43000 231.665
43.44000 231.663
43.45000 231.088
43.46000 229.065
43.47000 226.971
43.48000 225.910
43.49000 226.605
43.50000 227.328
43.51000 227.710
43.52000 228.058
43.53000 228.294
43.54000 228.437
43.55000 228.514
43.56000 228.751
43.57000 234.049
43.58000 241.768
43.59000 249.092
43.60000 246.433
43.61000 241.012
43.62000 235.776
43.63000 231.992
43.64000 228.517
43.65000 225.907
43.66000 227.541
43.67000 229.746
43.68000 231.459
43.69000 223.386
43.70000 216.368
43.71000 214.646
43.72000 224.476
43.73000 234.711
43.74000 238.522
43.75000 232.960
43.76000 227.318
43.77000 224.935
43.78000 225.618
43.79000 226.317
43.80000 228.092
43.81000 230.531
43.82000 232.853
43.83000 232.586
43.84000 231.249
43.85000 230.000
43.86000 231.841
43.87000 234.288
43.88000 236.458
43.89000 236.821
43.90000 236.856
43.91000 236.194
43.92000 232.612
43.93000 228.707
43.94000 225.789
43.95000 228.132
43.96000 230.203
43.97000 232.889
43.98000 236.733
43.99000 240.604
44.00000 239.255
44.01000 231.399
44.02000 223.536
44.03000 219.431
44.04000 218.330
44.05000 217.305
44.06000 219.538
44.07000 223.493
44.08000 227.478
44.09000 231.960
44.10000 236.620
44.11000 240.895
44.12000 237.387
44.13000 232.611
44.14000 229.192
44.15000 233.228
44.16000 238.398
44.17000 241.805
44.18000 238.882
44.19000 235.392
44.20000 232.895
44.21000 232.859
44.22000 232.915
44.23000 232.901
44.24000 232.774
44.25000 232.645
44.26000 234.014
44.27000 236.966
44.28000 239.903
44.29000 242.356
44.30000 244.453
44.31000 246.442
44.32000 245.374
44.33000 242.911
44.34000 240.710
44.35000 241.892
44.36000 244.115
44.37000 246.113
44.38000 247.188
44.39000 247.965
44.40000 249.045
44.41000 251.536
44.42000 254.207
44.43000 257.414
44.44000 262.278
44.45000 267.259
44.46000 270.657
44.47000 284.129
44.48000 294.434
44.49000 299.537
44.50000 297.417
44.51000 295.255
44.52000 297.554
44.53000 303.832
44.54000 310.044
44.55000 316.715
44.56000 323.498
44.57000 330.463
44.58000 341.110
44.59000 353.207
44.60000 365.044
44.61000 374.177
44.62000 382.596
44.63000 389.993
44.64000 404.123
44.65000 417.264
44.66000 430.655
44.67000 445.043
44.68000 459.535
44.69000 473.572
44.70000 486.397
44.71000 499.157
44.72000 507.408
44.73000 523.803
44.74000 535.911
44.75000 547.504
44.76000 558.486
44.77000 569.468
44.78000 580.643
44.79000 591.963
44.80000 603.082
44.81000 610.209
44.82000 615.146
44.83000 619.330
44.84000 611.922
44.85000 600.572
44.86000 590.121
44.87000 587.235
44.88000 586.058
44.89000 585.050
44.90000 596.965
44.91000 608.586
44.92000 615.727
44.93000 607.548
44.94000 598.092
44.95000 588.493
44.96000 578.563
44.97000 568.620
44.98000 562.561
44.99000 553.556
45.00000 547.099
45.01000 534.938
45.02000 517.070
45.03000 499.279
45.04000 488.466
45.05000 482.181
45.06000 476.066
45.07000 464.365
45.08000 450.909
45.09000 438.507
45.10000 438.780
45.11000 442.766
45.12000 444.975
45.13000 434.803
45.14000 422.251
45.15000 411.806
45.16000 395.058
45.17000 380.571
45.18000 369.409
45.19000 368.037
45.20000 367.304
45.21000 363.662
45.22000 354.248
45.23000 344.676
45.24000 339.218
45.25000 330.291
45.26000 324.056
45.27000 318.987
45.28000 314.904
45.29000 310.738
45.30000 302.406
45.31000 291.750
45.32000 281.497
45.33000 290.033
45.34000 304.664
45.35000 316.888
45.36000 305.852
45.37000 288.969
45.38000 273.636
45.39000 267.356
45.40000 262.544
45.41000 258.664
45.42000 261.449
45.43000 264.235
45.44000 264.573
45.45000 258.690
45.46000 252.501
45.47000 248.954
45.48000 249.926
45.49000 250.975
45.50000 251.530
45.51000 248.525
45.52000 246.472
45.53000 243.054
45.54000 238.651
45.55000 234.423
45.56000 235.839
45.57000 239.971
45.58000 243.894
45.59000 243.083
45.60000 240.917
45.61000 238.101
45.62000 230.128
45.63000 221.049
45.64000 214.266
45.65000 218.833
45.66000 224.937
45.67000 229.688
45.68000 221.656
45.69000 214.474
45.70000 212.074
45.71000 220.167
45.72000 228.632
45.73000 231.915
45.74000 227.588
45.75000 223.194
45.76000 219.011
45.77000 215.030
45.78000 211.093
45.79000 210.356
45.80000 211.598
45.81000 212.725
45.82000 211.247
45.83000 208.687
45.84000 206.295
45.85000 207.142
45.86000 208.731
45.87000 210.121
45.88000 210.198
45.89000 210.035
45.90000 209.619
45.91000 208.135
45.92000 206.531
45.93000 205.331
45.94000 211.536
45.95000 216.724
45.96000 218.820
45.97000 215.061
45.98000 211.162
45.99000 207.610
46.00000 204.491
46.01000 201.378
46.02000 203.122
46.03000 208.742
46.04000 214.199
46.05000 212.611
46.06000 207.275
46.07000 202.231
46.08000 202.130
46.09000 203.802
46.10000 205.337
46.11000 206.772
46.12000 208.030
46.13000 208.621
46.14000 205.522
46.15000 201.858
46.16000 198.931
46.17000 198.662
46.18000 198.633
46.19000 198.613
46.20000 199.400
46.21000 200.029
46.22000 200.779
46.23000 201.728
46.24000 202.679
46.25000 205.888
46.26000 211.501
46.27000 217.086
46.28000 218.270
46.29000 216.455
46.30000 214.617
46.31000 212.132
46.32000 209.348
46.33000 206.546
46.34000 203.505
46.35000 200.389
46.36000 197.586
46.37000 202.477
46.38000 208.137
46.39000 212.534
46.40000 211.000
46.41000 208.710
46.42000 206.692
46.43000 205.519
46.44000 204.406
46.45000 203.646
46.46000 208.503
46.47000 212.269
46.48000 211.753
46.49000 205.252
46.50000 198.716
46.51000 199.448
46.52000 206.706
46.53000 213.890
46.54000 215.709
46.55000 214.399
46.56000 213.055
46.57000 211.034
46.58000 208.745
46.59000 206.512
46.60000 204.863
46.61000 203.369
46.62000 202.056
46.63000 199.062
46.64000 196.237
46.65000 194.478
46.66000 196.995
46.67000 199.959
46.68000 202.474
46.69000 203.787
46.70000 205.034
46.71000 205.842
46.72000 204.689
46.73000 203.816
46.74000 202.697
46.75000 201.286
46.76000 199.873
46.77000 198.280
46.78000 196.549
46.79000 194.848
46.80000 196.790
46.81000 200.450
46.82000 203.915
46.83000 204.335
46.84000 203.713
46.85000 202.736
46.86000 198.743
46.87000 194.063
46.88000 190.052
46.89000 191.620
46.90000 193.626
46.91000 195.234
46.92000 195.470
46.93000 195.591
46.94000 195.083
46.95000 193.121
46.96000 191.101
46.97000 189.866
46.98000 197.133
46.99000 202.401
47.00000 205.595
47.01000 206.700
47.02000 207.770
47.03000 205.618
47.04000 201.362
47.05000 197.218
47.06000 194.701
47.07000 192.981
47.08000 191.628
47.09000 194.733
47.10000 199.150
47.11000 203.087
47.12000 203.646
47.13000 203.552
47.14000 203.473
47.15000 200.427
47.16000 197.607
47.17000 194.846
47.18000 192.258
47.19000 189.680
47.20000 187.640
47.21000 186.673
47.22000 185.736
47.23000 185.199
47.24000 196.300
47.25000 204.080
47.26000 206.074
47.27000 203.139
47.28000 200.160
47.29000 194.956
47.30000 188.502
47.31000 182.289
47.32000 183.666
47.33000 187.652
47.34000 191.060
47.35000 188.841
47.36000 185.199
47.37000 183.440
47.38000 192.762
47.39000 203.893
47.40000 212.879
47.41000 206.985
47.42000 201.013
47.43000 195.505
47.44000 191.179
47.45000 186.913
47.46000 186.282
47.47000 191.905
47.48000 197.636
47.49000 200.679
47.50000 197.638
47.51000 195.558
47.52000 192.250
47.53000 188.051
47.54000 184.008
47.55000 185.070
47.56000 188.603
47.57000 191.959
47.58000 188.960
47.59000 184.274
47.60000 180.479
47.61000 183.784
47.62000 188.624
47.63000 192.321
47.64000 190.336
47.65000 187.575
47.66000 185.423
47.67000 185.400
47.68000 185.515
47.69000 185.572
47.70000 185.502
47.71000 185.427
47.72000 184.962
47.73000 183.918
47.74000 182.870
47.75000 183.448
47.76000 185.578
47.77000 187.687
47.78000 188.293
47.79000 187.962
47.80000 187.829
47.81000 192.247
47.82000 198.567
47.83000 204.478
47.84000 202.936
47.85000 199.634
47.86000 196.591
47.87000 195.256
47.88000 194.235
47.89000 193.029
47.90000 191.035
47.91000 188.952
47.92000 187.391
47.93000 185.733
47.94000 184.435
47.95000 183.500
47.96000 183.258
47.97000 183.033
47.98000 183.951
47.99000 186.313
48.00000 188.675
48.01000 189.469
48.02000 188.998
48.03000 188.535
48.04000 188.473
48.05000 188.625
48.06000 188.675
48.07000 186.980
48.08000 184.656
48.09000 182.521
48.10000 184.859
48.11000 187.906
48.12000 190.506
48.13000 190.612
48.14000 190.333
48.15000 190.064
48.16000 189.834
48.17000 189.607
48.18000 189.444
48.19000 195.044
48.20000 199.528
48.21000 200.453
48.22000 195.545
48.23000 190.552
48.24000 187.436
48.25000 186.330
48.26000 185.231
48.27000 185.971
48.28000 187.959
48.29000 189.802
48.30000 187.417
48.31000 183.079
48.32000 178.932
48.33000 177.312
48.34000 176.477
48.35000 175.726
48.36000 177.398
48.37000 179.301
48.38000 181.867
48.39000 187.561
48.40000 193.657
48.41000 196.499
48.42000 189.174
48.43000 181.114
48.44000 175.595
48.45000 173.193
48.46000 171.469
48.47000 172.371
48.48000 176.966
48.49000 181.586
48.50000 184.190
48.51000 184.973
48.52000 185.748
48.53000 188.125
48.54000 191.380
48.55000 194.403
48.56000 192.606
48.57000 188.886
48.58000 185.737
48.59000 188.603
48.60000 193.077
48.61000 197.015
48.62000 193.255
48.63000 188.865
48.64000 186.249
48.65000 190.790
48.66000 196.086
48.67000 199.505
48.68000 197.866
48.69000 195.947
48.70000 194.700
48.71000 192.099
48.72000 190.172
48.73000 189.204
48.74000 189.387
48.75000 189.563
48.76000 187.469
48.77000 183.633
48.78000 179.862
48.79000 177.808
48.80000 176.671
48.81000 175.698
48.82000 177.314
48.83000 179.821
48.84000 182.454
48.85000 186.162
48.86000 190.116
48.87000 193.509
48.88000 193.486
48.89000 193.046
48.90000 192.565
48.91000 191.944
48.92000 191.312
48.93000 190.348
48.94000 188.614
48.95000 186.848
48.96000 185.767
48.97000 191.597
48.98000 195.830
48.99000 195.743
49.00000 191.273
49.01000 186.854
49.02000 187.324
49.03000 191.009
49.04000 194.597
49.05000 190.721
49.06000 183.890
49.07000 177.394
49.08000 175.000
49.09000 173.822
49.10000 173.054
49.11000 175.189
49.12000 177.889
49.13000 180.141
49.14000 183.655
49.15000 186.696
49.16000 189.216
49.17000 190.189
49.18000 191.058
49.19000 190.841
49.20000 188.443
49.21000 185.983
49.22000 184.572
49.23000 185.747
49.24000 186.579
49.25000 187.786
49.26000 189.315
49.27000 190.802
49.28000 190.060
49.29000 188.059
49.30000 186.132
49.31000 184.965
49.32000 184.140
49.33000 183.385
49.34000 183.321
49.35000 183.433
49.36000 183.994
49.37000 187.211
49.38000 190.865
49.39000 193.819
49.40000 189.548
49.41000 185.495
49.42000 182.964
49.43000 184.351
49.44000 185.936
49.45000 185.890
49.46000 183.023
49.47000 180.107
49.48000 178.553
49.49000 179.822
49.50000 180.696
49.51000 182.871
49.52000 185.995
49.53000 189.072
49.54000 190.560
49.55000 191.274
49.56000 191.952
49.57000 192.203
49.58000 192.306
49.59000 192.181
49.60000 190.232
49.61000 187.885
49.62000 185.800
49.63000 185.025
49.64000 184.429
49.65000 183.964
49.66000 184.158
49.67000 184.353
49.68000 184.618
49.69000 185.036
49.70000 185.459
49.71000 183.612
49.72000 178.389
49.73000 173.135
49.74000 174.626
49.75000 182.594
49.76000 190.491
49.77000 192.950
49.78000 192.006
49.79000 191.049
49.80000 189.810
49.81000 188.451
49.82000 187.180
49.83000 183.726
49.84000 180.027
49.85000 177.257
49.86000 180.690
49.87000 185.268
49.88000 187.879
49.89000 182.098
49.90000 175.364
49.91000 170.307
49.92000 180.097
49.93000 188.458
49.94000 195.768
49.95000 201.062
49.96000 206.307
49.97000 206.943
49.98000 201.718
49.99000 196.481
50.00000 192.586
50.01000 189.795
50.02000 187.040
50.03000 185.905
50.04000 185.643
50.05000 185.424
50.06000 185.960
50.07000 186.771
50.08000 187.517
50.09000 188.074
50.10000 188.531
50.11000 189.916
50.12000 196.505
50.13000 203.904
50.14000 209.193
50.15000 206.768
50.16000 203.635
50.17000 201.380
50.18000 197.065
50.19000 193.688
50.20000 193.336
50.21000 197.970
50.22000 202.679
50.23000 208.467
50.24000 215.420
50.25000 222.341
50.26000 224.525
50.27000 223.430
50.28000 222.493
50.29000 226.234
50.30000 232.147
50.31000 237.743
50.32000 239.088
50.33000 239.104
50.34000 239.119
50.35000 241.765
50.36000 244.564
50.37000 246.682
50.38000 245.558
50.39000 244.014
50.40000 245.015
50.41000 254.017
50.42000 263.602
50.43000 270.180
50.44000 270.280
50.45000 270.198
50.46000 267.932
50.47000 262.578
50.48000 257.204
50.49000 257.858
50.50000 263.996
50.51000 270.074
50.52000 269.783
50.53000 265.782
50.54000 262.003
50.55000 262.908
50.56000 265.691
50.57000 267.704
50.58000 261.530
50.59000 253.154
50.60000 245.774
50.61000 241.301
50.62000 237.884
50.63000 235.386
50.64000 236.615
50.65000 238.241
50.66000 238.322
50.67000 234.216
50.68000 229.875
50.69000 227.048
50.70000 225.487
50.71000 224.361
50.72000 221.405
50.73000 216.239
50.74000 211.093
50.75000 212.062
50.76000 217.758
50.77000 223.359
50.78000 219.391
50.79000 210.801
50.80000 202.561
50.81000 199.888
50.82000 199.141
50.83000 198.345
50.84000 197.127
50.85000 195.813
50.86000 194.684
50.87000 193.848
50.88000 193.177
50.89000 192.872
50.90000 193.844
50.91000 194.924
50.92000 194.060
50.93000 188.641
50.94000 183.034
50.95000 179.592
50.96000 187.631
50.97000 193.492
50.98000 194.624
50.99000 190.926
51.00000 187.231
51.01000 183.869
51.02000 180.727
51.03000 177.667
51.04000 173.380
51.05000 168.773
51.06000 164.800
51.07000 168.677
51.08000 174.895
51.09000 180.428
51.10000 181.077
51.11000 180.768
51.12000 180.511
51.13000 178.439
51.14000 176.537
51.15000 175.298
51.16000 176.046
51.17000 176.928
51.18000 177.658
51.19000 178.079
51.20000 178.492
51.21000 178.729
51.22000 171.730
51.23000 166.813
51.24000 166.221
51.25000 169.362
51.26000 172.488
51.27000 174.797
51.28000 176.643
51.29000 178.422
51.30000 175.191
51.31000 170.354
51.32000 165.626
51.33000 161.989
51.34000 158.631
51.35000 156.032
51.36000 157.964
51.37000 160.647
51.38000 162.818
51.39000 160.341
51.40000 157.949
51.41000 156.811
51.42000 158.915
51.43000 161.184
51.44000 164.374
51.45000 169.166
51.46000 173.986
51.47000 176.561
51.48000 167.370
51.49000 161.098
51.50000 155.510
51.51000 150.424
51.52000 145.559
51.53000 148.202
51.54000 154.522
51.55000 160.532
51.56000 165.689
51.57000 170.196
51.58000 174.318
51.59000 175.310
51.60000 175.617
51.61000 175.414
51.62000 172.633
51.63000 169.494
51.64000 167.041
51.65000 171.174
51.66000 174.890
51.67000 176.419
51.68000 173.063
51.69000 169.525
51.70000 167.807
51.71000 168.810
51.72000 169.840
51.73000 172.232
51.74000 175.941
51.75000 179.592
51.76000 178.653
51.77000 174.824
51.78000 171.126
51.79000 170.524
51.80000 171.230
51.81000 171.891
51.82000 166.074
51.83000 159.108
51.84000 153.463
51.85000 156.696
51.86000 161.580
51.87000 166.297
51.88000 170.302
51.89000 174.224
51.90000 177.175
51.91000 173.072
51.92000 169.520
51.93000 165.904
51.94000 162.164
51.95000 158.420
51.96000 157.939
51.97000 161.634
51.98000 165.338
51.99000 167.723
52.00000 169.024
52.01000 170.306
52.02000 170.799
52.03000 170.862
52.04000 170.642
52.05000 165.461
52.06000 158.469
52.07000 152.034
52.08000 154.090
52.09000 157.778
52.10000 161.159
52.11000 162.809
52.12000 164.187
52.13000 164.895
52.14000 163.137
52.15000 161.150
52.16000 159.718
52.17000 162.958
52.18000 165.607
52.19000 166.770
52.20000 165.467
52.21000 164.126
52.22000 164.801
52.23000 167.665
52.24000 170.517
52.25000 170.867
52.26000 169.482
52.27000 168.152
52.28000 168.486
52.29000 169.597
52.30000 170.390
52.31000 166.885
52.32000 162.028
52.33000 157.647
52.34000 161.865
52.35000 167.139
52.36000 170.910
52.37000 167.483
52.38000 163.116
52.39000 159.825
52.40000 159.933
52.41000 160.292
52.42000 160.539
52.43000 160.011
52.44000 159.596
52.45000 160.161
52.46000 162.121
52.47000 164.090
52.48000 163.858
52.49000 161.610
52.50000 159.383
52.51000 155.413
52.52000 150.499
52.53000 145.932
52.54000 148.763
52.55000 154.579
52.56000 160.208
52.57000 163.831
52.58000 166.910
52.59000 169.625
52.60000 169.199
52.61000 168.353
52.62000 167.045
52.63000 163.843
52.64000 160.440
52.65000 157.673
52.66000 156.644
52.67000 155.714
52.68000 155.108
52.69000 161.262
52.70000 165.886
52.71000 169.343
52.72000 171.382
52.73000 173.413
52.74000 173.975
52.75000 173.396
52.76000 172.826
52.77000 167.153
52.78000 159.113
52.79000 151.684
52.80000 154.059
52.81000 159.847
52.82000 165.291
52.83000 167.741
52.84000 169.495
52.85000 171.005
52.86000 168.612
52.87000 166.098
52.88000 163.696
52.89000 161.688
52.90000 159.714
52.91000 158.884
52.92000 160.750
52.93000 162.728
52.94000 163.946
52.95000 167.095
52.96000 169.371
52.97000 171.366
52.98000 173.071
52.99000 174.745
53.00000 173.265
53.01000 169.687
53.02000 166.198
53.03000 165.419
53.04000 165.828
53.05000 166.344
53.06000 168.201
53.07000 170.459
53.08000 171.903
53.09000 167.501
53.10000 161.944
53.11000 157.297
53.12000 159.972
53.13000 162.940
53.14000 165.301
53.15000 165.831
53.16000 166.236
53.17000 166.736
53.18000 167.429
53.19000 168.128
53.20000 168.531
53.21000 171.132
53.22000 172.957
53.23000 170.486
53.24000 164.284
53.25000 158.184
53.26000 157.647
53.27000 160.290
53.28000 162.838
53.29000 162.071
53.30000 160.150
53.31000 158.498
53.32000 159.533
53.33000 161.262
53.34000 162.707
53.35000 162.454
53.36000 161.916
53.37000 161.481
53.38000 160.560
53.39000 159.771
53.40000 159.384
53.41000 160.047
53.42000 160.764
53.43000 161.950
53.44000 163.956
53.45000 165.978
53.46000 167.061
53.47000 166.948
53.48000 166.865
53.49000 165.945
53.50000 164.406
53.51000 162.942
53.52000 164.063
53.53000 166.458
53.54000 168.736
53.55000 168.699
53.56000 167.952
53.57000 167.137
53.58000 165.759
53.59000 164.258
53.60000 163.497
53.61000 166.489
53.62000 170.006
53.63000 172.759
53.64000 168.268
53.65000 164.216
53.66000 161.231
53.67000 160.642
53.68000 160.144
53.69000 159.256
53.70000 157.782
53.71000 156.302
53.72000 155.198
53.73000 154.458
53.74000 153.703
53.75000 151.710
53.76000 148.933
53.77000 146.264
53.78000 146.184
53.79000 147.205
53.80000 148.162
53.81000 151.541
53.82000 155.247
53.83000 158.532
53.84000 158.976
53.85000 158.888
53.86000 158.070
53.87000 154.099
53.88000 149.765
53.89000 146.499
53.90000 151.035
53.91000 154.967
53.92000 158.109
53.93000 159.714
53.94000 161.281
53.95000 162.194
53.96000 162.266
53.97000 162.335
53.98000 160.496
53.99000 157.097
54.00000 153.790
54.01000 154.734
54.02000 157.996
54.03000 161.016
54.04000 159.751
54.05000 156.913
54.06000 154.299
54.07000 149.823
54.08000 145.410
54.09000 142.136
54.10000 145.343
54.11000 149.573
54.12000 153.060
54.13000 153.803
54.14000 154.289
54.15000 154.640
54.16000 161.434
54.17000 166.877
54.18000 170.878
54.19000 172.473
54.20000 174.030
54.21000 171.181
54.22000 163.512
54.23000 155.875
54.24000 151.045
54.25000 148.220
54.26000 145.614
54.27000 149.693
54.28000 156.913
54.29000 163.688
54.30000 164.395
54.31000 163.181
54.32000 162.085
54.33000 163.134
54.34000 164.450
54.35000 165.434
54.36000 164.815
54.37000 163.985
54.38000 162.846
54.39000 160.719
54.40000 158.519
54.41000 157.003
54.42000 150.775
54.43000 145.979
54.44000 144.518
54.45000 147.835
54.46000 151.188
54.47000 152.542
54.48000 152.051
54.49000 151.565
54.50000 156.705
54.51000 165.067
54.52000 172.986
54.53000 171.326
54.54000 165.777
54.55000 160.561
54.56000 158.939
54.57000 158.297
54.58000 157.729
54.59000 159.851
54.60000 162.094
54.61000 163.575
54.62000 161.928
54.63000 159.943
54.64000 160.393
54.65000 167.524
54.66000 175.039
54.67000 179.953
54.68000 174.209
54.69000 169.816
54.70000 164.970
54.71000 159.569
54.72000 154.181
54.73000 152.569
54.74000 153.913
54.75000 155.236
54.76000 154.953
54.77000 153.870
54.78000 152.691
54.79000 149.954
54.80000 146.671
54.81000 144.211
54.82000 148.964
54.83000 155.400
54.84000 160.941
54.85000 163.873
54.86000 166.027
54.87000 167.322
54.88000 165.585
54.89000 163.585
54.90000 162.034
54.91000 161.549
54.92000 161.109
54.93000 160.837
54.94000 160.159
54.95000 159.668
54.96000 161.160
54.97000 164.704
54.98000 168.241
54.99000 170.991
55.00000 173.212
55.01000 175.379
55.02000 175.700
55.03000 175.217
55.04000 174.681
55.05000 173.486
55.06000 172.091
55.07000 171.106
55.08000 173.080
55.09000 175.642
55.10000 177.787
55.11000 171.113
55.12000 164.658
55.13000 162.942
55.14000 175.602
55.15000 189.250
55.16000 196.392
55.17000 190.233
55.18000 183.680
55.19000 179.891
55.20000 181.803
55.21000 183.166
55.22000 183.667
55.23000 183.414
55.24000 183.302
55.25000 191.036
55.26000 203.283
55.27000 215.097
55.28000 217.271
55.29000 215.804
55.30000 215.360
55.31000 225.228
55.32000 237.771
55.33000 249.360
55.34000 255.186
55.35000 260.043
55.36000 263.984
55.37000 282.904
55.38000 299.564
55.39000 314.489
55.40000 324.873
55.41000 335.020
55.42000 350.172
55.43000 374.145
55.44000 398.285
55.45000 411.262
55.46000 437.611
55.47000 455.624
55.48000 473.264
55.49000 490.627
55.50000 507.950
55.51000 523.877
55.52000 539.111
55.53000 553.616
55.54000 569.317
55.55000 584.227
55.56000 598.259
55.57000 605.068
55.58000 610.274
55.59000 615.441
55.60000 620.400
55.61000 625.330
55.62000 629.196
55.63000 636.908
55.64000 643.322
55.65000 644.334
55.66000 633.134
55.67000 621.468
55.68000 609.677
55.69000 597.694
55.70000 585.710
55.71000 577.387
55.72000 572.653
55.73000 567.869
55.74000 558.849
55.75000 547.128
55.76000 535.166
55.77000 517.347
55.78000 497.022
55.79000 477.961
55.80000 461.942
55.81000 448.149
55.82000 434.356
55.83000 420.563
55.84000 406.771
55.85000 393.776
55.86000 384.253
55.87000 375.132
55.88000 368.249
55.89000 354.992
55.90000 344.289
55.91000 335.938
55.92000 332.172
55.93000 328.525
55.94000 317.960
55.95000 298.428
55.96000 278.883
55.97000 269.433
55.98000 268.364
55.99000 267.160
56.00000 259.600
56.01000 248.554
56.02000 237.588
56.03000 228.034
56.04000 219.002
56.05000 210.678
56.06000 210.835
56.07000 212.848
56.08000 214.237
56.09000 212.049
56.10000 209.293
56.11000 207.692
56.12000 210.393
56.13000 213.500
56.14000 215.747
56.15000 201.041
56.16000 189.135
56.17000 182.567
56.18000 184.970
56.19000 187.514
56.20000 185.601
56.21000 178.779
56.22000 171.982
56.23000 172.625
56.24000 178.474
56.25000 184.110
56.26000 183.141
56.27000 179.050
56.28000 175.024
56.29000 171.908
56.30000 169.082
56.31000 166.528
56.32000 169.006
56.33000 172.118
56.34000 174.375
56.35000 172.490
56.36000 170.055
56.37000 168.652
56.38000 170.549
56.39000 172.693
56.40000 174.174
56.41000 167.178
56.42000 161.704
56.43000 160.704
56.44000 166.156
56.45000 171.657
56.46000 170.114
56.47000 162.029
56.48000 154.018
56.49000 153.792
56.50000 158.206
56.51000 162.451
56.52000 162.998
56.53000 162.037
56.54000 161.071
56.55000 160.062
56.56000 159.041
56.57000 158.139
56.58000 155.360
56.59000 152.671
56.60000 150.798
56.61000 152.299
56.62000 154.168
56.63000 154.980
56.64000 152.873
56.65000 150.597
56.66000 149.105
56.67000 157.204
56.68000 163.318
56.69000 164.502
56.70000 159.618
56.71000 154.720
56.72000 150.349
56.73000 146.395
56.74000 142.504
56.75000 147.605
56.76000 157.100
56.77000 165.916
56.78000 163.591
56.79000 157.340
56.80000 151.461
56.81000 148.880
56.82000 147.073
56.83000 145.515
56.84000 145.744
56.85000 146.166
56.86000 146.913
56.87000 148.816
56.88000 150.821
56.89000 151.812
56.90000 150.388
56.91000 148.859
56.92000 147.914
56.93000 149.020
56.94000 149.834
56.95000 153.383
56.96000 159.787
56.97000 166.118
56.98000 164.734
56.99000 158.153
57.00000 151.733
57.01000 150.003
57.02000 150.372
57.03000 150.713
57.04000 150.704
57.05000 150.589
57.06000 150.586
57.07000 151.401
57.08000 152.379
57.09000 153.199
57.10000 157.664
57.11000 161.755
57.12000 163.159
57.13000 156.360
57.14000 148.993
57.15000 143.823
57.16000 143.173
57.17000 142.660
57.18000 142.362
57.19000 149.294
57.20000 154.183
57.21000 154.044
57.22000 149.478
57.23000 144.932
57.24000 141.517
57.25000 138.756
57.26000 136.092
57.27000 141.992
57.28000 150.687
57.29000 158.293
57.30000 154.820
57.31000 148.457
57.32000 142.314
57.33000 137.519
57.34000 132.951
57.35000 129.239
57.36000 136.600
57.37000 143.526
57.38000 150.214
57.39000 156.272
57.40000 162.296
57.41000 165.183
57.42000 162.507
57.43000 159.723
57.44000 158.222
57.45000 157.558
57.46000 157.097
57.47000 155.088
57.48000 151.920
57.49000 148.736
57.50000 144.991
57.51000 140.965
57.52000 137.130
57.53000 138.516
57.54000 141.426
57.55000 144.547
57.56000 149.416
57.57000 154.676
57.58000 157.656
57.59000 148.912
57.60000 138.507
57.61000 130.337
57.62000 134.799
57.63000 139.196
57.64000 142.445
57.65000 143.086
57.66000 143.625
57.67000 144.067
57.68000 144.360
57.69000 144.652
57.70000 145.668
57.71000 147.400
57.72000 149.116
57.73000 149.418
57.74000 148.814
57.75000 148.278
57.76000 149.414
57.77000 151.270
57.78000 153.011
57.79000 149.819
57.80000 145.609
57.81000 141.753
57.82000 140.327
57.83000 139.362
57.84000 138.963
57.85000 141.047
57.86000 143.420
57.87000 145.215
57.88000 138.759
57.89000 133.284
57.90000 131.566
57.91000 137.221
57.92000 143.070
57.93000 145.631
57.94000 143.901
57.95000 142.156
57.96000 142.060
57.97000 143.338
57.98000 144.579
57.99000 143.986
58.00000 142.382
58.01000 140.973
58.02000 143.085
58.03000 146.505
58.04000 149.659
58.05000 143.415
58.06000 135.730
58.07000 129.680
58.08000 133.052
58.09000 137.932
58.10000 142.041
58.11000 143.262
58.12000 144.208
58.13000 144.894
58.14000 143.523
58.15000 142.395
58.16000 141.408
58.17000 140.664
58.18000 139.923
58.19000 140.213
58.20000 141.646
58.21000 143.075
58.22000 142.535
58.23000 140.610
58.24000 138.688
58.25000 136.825
58.26000 134.989
58.27000 133.526
58.28000 137.234
58.29000 142.599
58.30000 147.451
58.31000 144.028
58.32000 139.472
58.33000 135.952
58.34000 137.497
58.35000 139.717
58.36000 141.360
58.37000 141.145
58.38000 140.789
58.39000 140.543
58.40000 138.041
58.41000 136.101
58.42000 136.278
58.43000 139.527
58.44000 142.801
58.45000 144.165
58.46000 143.744
58.47000 143.325
58.48000 144.493
58.49000 146.588
58.50000 148.507
58.51000 146.508
58.52000 142.899
58.53000 139.589
58.54000 139.560
58.55000 140.436
58.56000 141.211
58.57000 139.259
58.58000 137.148
58.59000 134.626
58.60000 130.397
58.61000 125.981
58.62000 123.701
58.63000 127.353
58.64000 131.354
58.65000 133.981
58.66000 134.366
58.67000 134.611
58.68000 134.634
58.69000 134.384
58.70000 134.135
58.71000 134.642
58.72000 135.750
58.73000 136.840
58.74000 136.803
58.75000 136.193
58.76000 135.607
58.77000 135.404
58.78000 135.337
58.79000 135.328
58.80000 135.833
58.81000 136.459
58.82000 136.999
58.83000 138.969
58.84000 140.824
58.85000 140.663
58.86000 133.308
58.87000 125.315
58.88000 120.907
58.89000 125.091
58.90000 129.649
58.91000 132.475
58.92000 136.121
58.93000 138.752
58.94000 140.610
58.95000 141.656
58.96000 142.691
58.97000 142.509
58.98000 141.503
58.99000 140.520
59.00000 139.331
59.01000 138.103
59.02000 137.056
59.03000 138.321
59.04000 140.292
59.05000 141.597
59.06000 138.006
59.07000 133.428
59.08000 129.587
59.09000 133.393
59.10000 137.362
59.11000 140.583
59.12000 141.508
59.13000 142.273
59.14000 141.538
59.15000 137.700
59.16000 133.768
59.17000 131.481
59.18000 133.882
59.19000 135.589
59.20000 136.429
59.21000 136.503
59.22000 136.570
59.23000 136.222
59.24000 135.634
59.25000 135.066
59.26000 135.022
59.27000 135.173
59.28000 135.494
59.29000 137.559
59.30000 140.082
59.31000 142.189
59.32000 141.749
59.33000 140.875
59.34000 140.164
59.35000 135.415
59.36000 131.199
59.37000 128.605
59.38000 130.311
59.39000 132.248
59.40000 135.533
59.41000 141.226
59.42000 146.965
59.43000 150.070
59.44000 151.394
59.45000 152.274
59.46000 148.219
59.47000 140.445
59.48000 132.784
59.49000 129.280
59.50000 127.861
59.51000 126.508
59.52000 131.342
59.53000 137.763
59.54000 143.487
59.55000 143.377
59.56000 141.956
59.57000 140.772
59.58000 140.817
59.59000 141.037
59.60000 141.210
59.61000 137.101
59.62000 133.528
59.63000 131.950
59.64000 134.936
59.65000 138.099
59.66000 140.942
59.67000 143.291
59.68000 145.635
59.69000 145.080
59.70000 141.643
59.71000 138.211
59.72000 135.261
59.73000 132.622
59.74000 130.023
59.75000 128.421
59.76000 127.250
59.77000 126.150
59.78000 132.006
59.79000 139.194
59.80000 145.219
59.81000 143.185
59.82000 139.613
59.83000 135.903
59.84000 131.590
59.85000 127.206
59.86000 123.886
59.87000 131.455
59.88000 137.947
59.89000 142.187
59.90000 141.983
59.91000 141.659
59.92000 139.214
59.93000 133.982
59.94000 128.743
59.95000 129.369
59.96000 134.912
59.97000 140.381
59.98000 142.194
59.99000 141.979
60.00000 141.664
60.01000 139.541
60.02000 136.741
60.03000 134.156
60.04000 133.410
60.05000 133.152
60.06000 132.877
60.07000 132.500
60.08000 132.107
60.09000 132.536
60.10000 136.062
60.11000 139.886
60.12000 142.662
60.13000 140.371
60.14000 138.420
60.15000 136.690
60.16000 135.338
60.17000 133.993
60.18000 134.623
60.19000 137.459
60.20000 140.285
60.21000 141.369
60.22000 141.206
60.23000 140.929
60.24000 137.001
60.25000 131.325
60.26000 126.093
60.27000 127.096
60.28000 130.109
60.29000 132.836
60.30000 137.384
60.31000 141.731
60.32000 144.846
60.33000 141.913
60.34000 138.167
60.35000 135.091
60.36000 134.187
60.37000 133.450
60.38000 132.939
60.39000 135.760
60.40000 137.971
60.41000 138.297
60.42000 135.869
60.43000 133.418
60.44000 133.177
60.45000 135.017
60.46000 136.841
60.47000 136.559
60.48000 135.012
60.49000 133.537
60.50000 133.703
60.51000 134.546
60.52000 135.149
60.53000 133.084
60.54000 130.280
60.55000 127.797
60.56000 128.799
60.57000 130.212
60.58000 130.811
60.59000 128.004
60.60000 124.820
60.61000 124.302
60.62000 131.235
60.63000 138.610
60.64000 143.464
60.65000 135.905
60.66000 130.123
60.67000 126.403
60.68000 125.252
60.69000 124.117
60.70000 125.288
60.71000 128.301
60.72000 131.268
60.73000 130.549
60.74000 127.960
60.75000 125.748
60.76000 129.841
60.77000 136.182
60.78000 142.093
60.79000 144.138
60.80000 145.264
60.81000 146.237
60.82000 142.852
60.83000 139.415
60.84000 136.049
60.85000 132.941
60.86000 129.856
60.87000 128.049
60.88000 129.321
60.89000 130.730
60.90000 131.605
60.91000 137.231
60.92000 141.329
60.93000 142.324
60.94000 140.036
60.95000 137.767
60.96000 137.671
60.97000 139.059
60.98000 140.413
60.99000 139.655
61.00000 138.008
61.01000 136.344
61.02000 134.448
61.03000 132.481
61.04000 131.340
61.05000 136.312
61.06000 142.523
61.07000 147.741
61.08000 144.749
61.09000 141.390
61.10000 139.395
61.11000 141.611
61.12000 144.126
61.13000 145.474
61.14000 144.395
61.15000 143.240
61.16000 142.567
61.17000 146.394
61.18000 149.104
61.19000 149.505
61.20000 147.845
61.21000 146.216
61.22000 146.435
61.23000 147.737
61.24000 148.995
61.25000 144.516
61.26000 138.163
61.27000 132.567
61.28000 134.807
61.29000 139.117
61.30000 142.784
61.31000 142.473
61.32000 141.481
61.33000 140.672
61.34000 144.296
61.35000 147.632
61.36000 148.820
61.37000 144.282
61.38000 139.434
61.39000 136.094
61.40000 135.460
61.41000 134.880
61.42000 134.565
61.43000 137.840
61.44000 140.097
61.45000 143.995
61.46000 149.139
61.47000 154.234
61.48000 157.544
61.49000 159.954
61.50000 162.251
61.51000 177.402
61.52000 195.515
61.53000 213.229
61.54000 227.576
61.55000 241.162
61.56000 255.589
61.57000 274.400
61.58000 293.841
61.59000 309.151
61.60000 325.842
61.61000 339.309
61.62000 350.171
61.63000 355.038
61.64000 359.668
61.65000 362.211
61.66000 361.536
61.67000 360.825
61.68000 360.469
61.69000 366.124
61.70000 369.945
61.71000 378.322
61.72000 389.656
61.73000 400.200
61.74000 390.724
61.75000 372.529
61.76000 355.433
61.77000 337.536
61.78000 320.990
61.79000 304.232
61.80000 286.005
61.81000 267.495
61.82000 249.618
61.83000 234.547
61.84000 219.810
61.85000 208.635
61.86000 198.051
61.87000 189.769
61.88000 182.477
61.89000 177.152
61.90000 171.880
61.91000 168.515
61.92000 167.670
61.93000 166.837
61.94000 166.031
61.95000 165.248
61.96000 164.412
61.97000 160.919
61.98000 155.941
61.99000 151.290
62.00000 152.677
62.01000 156.336
62.02000 159.715
62.03000 156.877
62.04000 152.930
62.05000 149.506
62.06000 149.144
62.07000 149.279
62.08000 149.797
62.09000 151.767
62.10000 153.877
62.11000 155.412
62.12000 152.369
62.13000 149.854
62.14000 149.437
62.15000 152.608
62.16000 155.841
62.17000 157.204
62.18000 156.468
62.19000 155.732
62.20000 153.726
62.21000 150.830
62.22000 147.989
62.23000 146.967
62.24000 146.821
62.25000 146.765
62.26000 148.001
62.27000 149.655
62.28000 151.154
62.29000 153.806
62.30000 156.361
62.31000 157.729
62.32000 153.224
62.33000 147.923
62.34000 143.972
62.35000 144.426
62.36000 145.220
62.37000 145.771
62.38000 147.784
62.39000 149.340
62.40000 148.484
62.41000 144.085
62.42000 139.654
62.43000 137.577
62.44000 137.730
62.45000 137.882
62.46000 138.696
62.47000 139.897
62.48000 141.234
62.49000 145.650
62.50000 151.347
62.51000 156.463
62.52000 155.082
62.53000 151.886
62.54000 149.055
62.55000 148.408
62.56000 148.192
62.57000 148.016
62.58000 148.006
62.59000 148.016
62.60000 147.817
62.61000 147.033
62.62000 146.214
62.63000 145.673
62.64000 145.429
62.65000 145.254
62.66000 144.480
62.67000 142.956
62.68000 141.440
62.69000 143.751
62.70000 149.137
62.71000 154.442
62.72000 154.726
62.73000 152.409
62.74000 150.170
62.75000 149.257
62.76000 148.821
62.77000 148.248
62.78000 146.435
62.79000 144.325
62.80000 142.500
62.81000 139.682
62.82000 137.159
62.83000 135.649
62.84000 137.802
62.85000 140.287
62.86000 141.605
62.87000 140.096
62.88000 138.461
62.89000 137.441
62.90000 143.820
62.91000 148.493
62.92000 150.999
62.93000 151.200
62.94000 151.394
62.95000 150.839
62.96000 149.771
62.97000 148.728
62.98000 149.085
62.99000 150.043
63.00000 150.804
63.01000 148.987
63.02000 146.373
63.03000 144.668
63.04000 149.741
63.05000 156.197
63.06000 161.627
63.07000 155.153
63.08000 148.489
63.09000 144.120
63.10000 146.888
63.11000 150.165
63.12000 153.402
63.13000 156.553
63.14000 159.701
63.15000 161.542
63.16000 154.495
63.17000 149.495
63.18000 144.958
63.19000 140.837
63.20000 136.789
63.21000 137.176
63.22000 140.176
63.23000 143.076
63.24000 144.761
63.25000 145.897
63.26000 147.040
63.27000 148.259
63.28000 149.497
63.29000 150.564
63.30000 150.562
63.31000 150.374
63.32000 150.222
63.33000 153.920
63.34000 157.275
63.35000 158.931
63.36000 156.034
63.37000 152.888
63.38000 151.720
63.39000 154.125
63.40000 156.604
63.41000 157.952
63.42000 154.252
63.43000 151.708
63.44000 149.659
63.45000 147.985
63.46000 146.335
63.47000 145.539
63.48000 145.178
63.49000 144.832
63.50000 151.734
63.51000 160.444
63.52000 168.126
63.53000 167.079
63.54000 164.046
63.55000 161.286
63.56000 159.958
63.57000 158.837
63.58000 157.953
63.59000 150.800
63.60000 144.640
63.61000 140.800
63.62000 142.329
63.63000 144.074
63.64000 146.473
63.65000 149.884
63.66000 153.308
63.67000 155.027
63.68000 161.903
63.69000 166.417
63.70000 163.970
63.71000 156.973
63.72000 150.305
63.73000 152.065
63.74000 157.519
63.75000 162.647
63.76000 161.216
63.77000 158.144
63.78000 155.391
63.79000 154.876
63.80000 154.794
63.81000 155.039
63.82000 156.742
63.83000 158.620
63.84000 160.047
63.85000 162.287
63.86000 164.090
63.87000 164.473
63.88000 162.020
63.89000 159.487
63.90000 157.545
63.91000 156.388
63.92000 155.237
63.93000 153.471
63.94000 151.187
63.95000 148.994
63.96000 151.485
63.97000 156.606
63.98000 161.483
63.99000 161.780
64.00000 160.344
64.01000 159.017
64.02000 162.367
64.03000 166.437
64.04000 169.705
64.05000 168.258
64.06000 166.041
64.07000 164.008
64.08000 162.677
64.09000 161.414
64.10000 160.494
64.11000 160.626
64.12000 160.767
64.13000 159.738
64.14000 156.693
64.15000 153.613
64.16000 153.823
64.17000 157.755
64.18000 161.677
64.19000 163.369
64.20000 163.443
64.21000 163.559
64.22000 165.071
64.23000 167.259
64.24000 169.433
64.25000 171.407
64.26000 173.316
64.27000 175.046
64.28000 172.952
64.29000 170.375
64.30000 168.994
64.31000 173.567
64.32000 178.952
64.33000 182.002
64.34000 177.392
64.35000 172.184
64.36000 168.560
64.37000 170.364
64.38000 171.873
64.39000 174.906
64.40000 180.193
64.41000 185.500
64.42000 185.959
64.43000 181.793
64.44000 177.660
64.45000 174.916
64.46000 173.071
64.47000 171.265
64.48000 170.362
64.49000 169.835
64.50000 169.842
64.51000 175.876
64.52000 183.602
64.53000 190.454
64.54000 189.293
64.55000 187.013
64.56000 184.634
64.57000 181.838
64.58000 178.994
64.59000 177.641
64.60000 180.499
64.61000 183.613
64.62000 185.672
64.63000 185.733
64.64000 185.743
64.65000 186.373
64.66000 187.787
64.67000 189.209
64.68000 192.772
64.69000 198.069
64.70000 203.287
64.71000 204.959
64.72000 204.737
64.73000 204.671
64.74000 207.261
64.75000 210.808
64.76000 213.923
64.77000 213.086
64.78000 211.298
64.79000 209.751
64.80000 217.368
64.81000 225.048
64.82000 232.181
64.83000 237.327
64.84000 242.291
64.85000 246.898
64.86000 250.631
64.87000 254.324
64.88000 256.632
64.89000 266.987
64.90000 274.542
64.91000 284.662
64.92000 297.531
64.93000 310.353
64.94000 317.295
64.95000 320.176
64.96000 322.991
64.97000 334.520
64.98000 349.417
64.99000 364.079
65.00000 375.626
65.01000 386.204
65.02000 396.651
65.03000 406.116
65.04000 415.379
65.05000 423.180
65.06000 441.237
65.07000 457.404
65.08000 470.921
65.09000 476.156
65.10000 480.793
65.11000 485.644
65.12000 490.947
65.13000 496.265
65.14000 499.382
65.15000 509.173
65.16000 516.102
65.17000 521.299
65.18000 524.930
65.19000 528.494
65.20000 527.983
65.21000 525.055
65.22000 522.224
65.23000 522.188
65.24000 523.207
65.25000 523.682
65.26000 518.430
65.27000 511.647
65.28000 504.843
65.29000 497.908
65.30000 490.951
65.31000 485.268
65.32000 475.294
65.33000 466.760
65.34000 459.728
65.35000 456.749
65.36000 453.995
65.37000 449.359
65.38000 441.303
65.39000 433.176
65.40000 428.739
65.41000 419.748
65.42000 413.552
65.43000 403.681
65.44000 390.988
65.45000 378.683
65.46000 381.215
65.47000 391.324
65.48000 400.976
65.49000 388.907
65.50000 370.748
65.51000 354.748
65.52000 357.235
65.53000 363.955
65.54000 368.384
65.55000 360.711
65.56000 351.272
65.57000 343.818
65.58000 343.205
65.59000 343.179
65.60000 345.509
65.61000 353.323
65.62000 361.362
65.63000 371.415
65.64000 384.615
65.65000 397.851
65.66000 404.520
65.67000 465.746
65.68000 506.710
65.69000 551.851
65.70000 599.738
65.71000 648.702
65.72000 725.678
65.73000 814.999
65.74000 899.037
65.75000 979.851
65.76000 1052.831
65.77000 1127.106
65.78000 1210.547
65.79000 1295.775
65.80000 1373.852
65.81000 1419.825
65.82000 1461.916
65.83000 1493.937
65.84000 1515.083
65.85000 1531.148
65.86000 1544.012
65.87000 1550.446
65.88000 1556.697
65.89000 1550.328
65.90000 1527.074
65.91000 1503.751
65.92000 1485.252
65.93000 1470.918
65.94000 1455.582
65.95000 1387.812
65.96000 1290.414
65.97000 1192.902
65.98000 1093.234
65.99000 992.747
66.00000 899.792
66.01000 809.264
66.02000 728.493
66.03000 651.720
66.04000 598.643
66.05000 549.466
66.06000 504.282
66.07000 474.434
66.08000 446.097
66.09000 425.414
66.10000 399.562
66.11000 379.435
66.12000 364.143
66.13000 357.226
66.14000 350.457
66.15000 347.939
66.16000 350.261
66.17000 352.581
66.18000 349.781
66.19000 343.296
66.20000 337.163
66.21000 342.794
66.22000 354.156
66.23000 365.496
66.24000 376.528
66.25000 387.457
66.26000 397.374
66.27000 406.209
66.28000 413.798
66.29000 422.682
66.30000 438.054
66.31000 454.318
66.32000 470.965
66.33000 488.877
66.34000 506.888
66.35000 519.445
66.36000 533.302
66.37000 543.796
66.38000 555.977
66.39000 570.668
66.40000 585.381
66.41000 588.170
66.42000 579.501
66.43000 570.901
66.44000 572.379
66.45000 580.029
66.46000 587.050
66.47000 579.380
66.48000 565.533
66.49000 552.003
66.50000 542.091
66.51000 533.202
66.52000 525.309
66.53000 511.882
66.54000 499.356
66.55000 483.431
66.56000 452.993
66.57000 420.909
66.58000 395.514
66.59000 389.140
66.60000 383.932
66.61000 380.480
66.62000 372.602
66.63000 366.703
66.64000 361.350
66.65000 356.690
66.66000 352.041
66.67000 350.323
66.68000 350.992
66.69000 351.652
66.70000 351.943
66.71000 352.034
66.72000 352.319
66.73000 355.980
66.74000 360.867
66.75000 365.515
66.76000 367.974
66.77000 369.902
66.78000 371.572
66.79000 367.024
66.80000 362.329
66.81000 359.369
66.82000 362.747
66.83000 366.708
66.84000 368.698
66.85000 365.849
66.86000 362.777
66.87000 360.854
66.88000 371.252
66.89000 378.892
66.90000 386.221
66.91000 393.213
66.92000 400.160
66.93000 401.425
66.94000 398.742
66.95000 396.120
66.96000 394.087
66.97000 392.401
66.98000 390.958
66.99000 392.753
67.00000 395.563
67.01000 398.359
67.02000 401.059
67.03000 403.739
67.04000 405.998
67.05000 411.704
67.06000 416.841
67.07000 420.129
67.08000 417.599
67.09000 414.645
67.10000 414.907
67.11000 421.983
67.12000 429.282
67.13000 433.572
67.14000 424.449
67.15000 417.954
67.16000 422.677
67.17000 437.613
67.18000 452.336
67.19000 453.557
67.20000 446.725
67.21000 440.116
67.22000 441.832
67.23000 446.607
67.24000 450.867
67.25000 449.661
67.26000 446.983
67.27000 445.391
67.28000 450.653
67.29000 457.114
67.30000 462.399
67.31000 458.949
67.32000 455.361
67.33000 453.107
67.34000 454.469
67.35000 456.034
67.36000 456.176
67.37000 453.718
67.38000 451.205
67.39000 449.828
67.40000 469.422
67.41000 482.890
67.42000 487.315
67.43000 484.746
67.44000 482.111
67.45000 476.911
67.46000 470.392
67.47000 464.165
67.48000 474.998
67.49000 490.561
67.50000 504.788
67.51000 507.489
67.52000 507.533
67.53000 506.218
67.54000 497.674
67.55000 488.069
67.56000 480.472
67.57000 496.294
67.58000 510.615
67.59000 521.635
67.60000 524.926
67.61000 527.897
67.62000 529.810
67.63000 530.060
67.64000 530.290
67.65000 530.407
67.66000 533.024
67.67000 534.746
67.68000 533.560
67.69000 530.451
67.70000 527.541
67.71000 529.872
67.72000 534.528
67.73000 538.912
67.74000 539.959
67.75000 540.007
67.76000 540.803
67.77000 546.938
67.78000 554.120
67.79000 561.707
67.80000 571.118
67.81000 580.752
67.82000 588.092
67.83000 586.738
67.84000 585.211
67.85000 587.078
67.86000 595.806
67.87000 604.732
67.88000 610.380
67.89000 611.617
67.90000 612.829
67.91000 613.141
67.92000 612.676
67.93000 612.233
67.94000 612.961
67.95000 614.354
67.96000 615.813
67.97000 618.536
67.98000 621.742
67.99000 624.710
68.00000 635.189
68.01000 646.340
68.02000 656.115
68.03000 657.684
68.04000 657.893
68.05000 658.885
68.06000 662.904
68.07000 667.224
68.08000 670.383
68.09000 666.043
68.10000 662.399
68.11000 663.016
68.12000 671.059
68.13000 679.236
68.14000 688.565
68.15000 699.214
68.16000 709.830
68.17000 721.407
68.18000 733.593
68.19000 745.335
68.20000 742.002
68.21000 731.281
68.22000 721.628
68.23000 727.579
68.24000 738.683
68.25000 748.766
68.26000 753.952
68.27000 757.585
68.28000 762.269
68.29000 772.252
68.30000 782.970
68.31000 792.525
68.32000 798.225
68.33000 803.617
68.34000 807.384
68.35000 800.954
68.36000 795.811
68.37000 800.187
68.38000 818.813
68.39000 837.577
68.40000 856.542
68.41000 875.700
68.42000 894.711
68.43000 902.516
68.44000 903.250
68.45000 904.456
68.46000 916.838
68.47000 933.948
68.48000 950.521
68.49000 960.919
68.50000 969.562
68.51000 977.242
68.52000 1013.819
68.53000 1050.211
68.54000 1083.928
68.55000 1106.151
68.56000 1127.060
68.57000 1152.150
68.58000 1189.199
68.59000 1226.989
68.60000 1252.083
68.61000 1341.146
68.62000 1408.167
68.63000 1478.809
68.64000 1554.085
68.65000 1629.395
68.66000 1711.720
68.67000 1799.793
68.68000 1886.632
68.69000 1979.568
68.70000 2073.077
68.71000 2166.268
68.72000 2253.900
68.73000 2339.502
68.74000 2425.090
68.75000 2510.541
68.76000 2595.959
68.77000 2670.040
68.78000 2762.452
68.79000 2843.592
68.80000 2935.273
68.81000 3065.737
68.82000 3199.802
68.83000 3362.947
68.84000 3597.889
68.85000 3836.166
68.86000 3985.717
68.87000 4397.264
68.88000 4697.570
68.89000 5204.984
68.90000 5937.468
68.91000 6675.883
68.92000 8175.025
68.93000 10206.176
68.94000 12192.231
68.95000 16301.131
68.96000 21192.262
68.97000 26254.352
68.98000 33623.629
68.99000 41719.426
69.00000 49819.453
69.01000 57951.738
69.02000 66090.734
69.03000 72960.484
69.04000 79406.031
69.05000 84746.008
69.06000 89406.742
69.07000 91918.086
69.08000 94271.094
69.09000 96092.148
69.10000 96779.227
69.11000 97428.859
69.12000 97811.742
69.13000 98818.117
69.14000 99531.750
69.15000 100253.484
69.16000 100982.648
69.17000 101702.500
69.18000 101817.156
69.19000 101568.641
69.20000 101328.133
69.21000 98818.422
69.22000 95581.508
69.23000 92182.133
69.24000 87041.844
69.25000 81430.109
69.26000 75916.719
69.27000 71028.180
69.28000 66249.820
69.29000 62336.512
69.30000 58830.688
69.31000 55992.555
69.32000 53515.777
69.33000 52025.016
69.34000 50590.191
69.35000 49142.391
69.36000 47670.730
69.37000 46198.555
69.38000 45389.965
69.39000 41692.098
69.40000 39139.754
69.41000 35941.852
69.42000 32241.479
69.43000 28538.531
69.44000 24734.168
69.45000 20877.389
69.46000 17190.967
69.47000 14140.686
69.48000 11509.229
69.49000 8988.348
69.50000 7429.453
69.51000 6093.676
69.52000 4866.075
69.53000 4217.538
69.54000 3654.717
69.55000 3208.960
69.56000 2855.396
69.57000 2577.578
69.58000 2345.353
69.59000 2220.533
69.60000 2100.216
69.61000 1991.906
69.62000 1902.588
69.63000 1813.508
69.64000 1768.322
69.65000 1685.294
69.66000 1629.759
69.67000 1582.901
69.68000 1541.820
69.69000 1500.321
69.70000 1447.651
69.71000 1390.000
69.72000 1335.691
69.73000 1294.643
69.74000 1260.723
69.75000 1227.947
69.76000 1203.397
69.77000 1180.471
69.78000 1158.203
69.79000 1138.932
69.80000 1120.029
69.81000 1105.603
69.82000 1093.226
69.83000 1083.582
69.84000 1069.029
69.85000 1044.492
69.86000 1019.664
69.87000 990.094
69.88000 954.100
69.89000 918.094
69.90000 902.974
69.91000 906.001
69.92000 908.695
69.93000 893.257
69.94000 867.448
69.95000 842.447
69.96000 833.137
69.97000 829.870
69.98000 826.843
69.99000 819.671
70.00000 812.257
