20.00000 562.743
20.01000 560.848
20.02000 558.681
20.03000 557.410
20.04000 559.617
20.05000 562.172
20.06000 564.043
20.07000 556.636
20.08000 550.548
20.09000 548.689
20.10000 554.232
20.11000 559.911
20.12000 559.559
20.13000 552.259
20.14000 544.974
20.15000 543.896
20.16000 547.379
20.17000 550.732
20.18000 549.621
20.19000 546.314
20.20000 543.417
20.21000 546.558
20.22000 551.703
20.23000 556.378
20.24000 553.693
20.25000 549.888
20.26000 547.544
20.27000 552.601
20.28000 558.691
20.29000 563.065
20.30000 561.714
20.31000 559.905
20.32000 558.639
20.33000 551.138
20.34000 545.292
20.35000 541.308
20.36000 540.128
20.37000 538.975
20.38000 538.749
20.39000 539.425
20.40000 540.096
20.41000 543.375
20.42000 548.220
20.43000 552.756
20.44000 549.865
20.45000 543.820
20.46000 537.845
20.47000 532.703
20.48000 527.799
20.49000 523.438
20.50000 535.261
20.51000 548.150
20.52000 558.483
20.53000 557.778
20.54000 555.803
20.55000 554.122
20.56000 553.290
20.57000 552.510
20.58000 551.992
20.59000 551.639
20.60000 551.381
20.61000 553.087
20.62000 557.321
20.63000 561.554
20.64000 561.182
20.65000 557.016
20.66000 552.908
20.67000 546.842
20.68000 539.909
20.69000 533.944
20.70000 545.086
20.71000 562.505
20.72000 577.472
20.73000 569.542
20.74000 556.000
20.75000 544.245
20.76000 541.232
20.77000 539.839
20.78000 540.103
20.79000 546.494
20.80000 553.459
20.81000 556.410
20.82000 549.404
20.83000 541.932
20.84000 537.233
20.85000 544.566
20.86000 550.004
20.87000 553.729
20.88000 555.581
20.89000 557.383
20.90000 552.486
20.91000 542.881
20.92000 533.487
20.93000 539.814
20.94000 552.967
20.95000 564.901
20.96000 560.271
20.97000 550.400
20.98000 541.322
20.99000 538.332
21.00000 536.616
21.01000 535.166
21.02000 532.138
21.03000 529.433
21.04000 526.870
21.05000 524.759
21.06000 522.681
21.07000 521.481
21.08000 522.161
21.09000 522.904
21.10000 523.343
21.11000 533.055
21.12000 539.963
21.13000 539.597
21.14000 532.527
21.15000 525.669
21.16000 532.835
21.17000 548.458
21.18000 563.583
21.19000 557.274
21.20000 543.093
21.21000 530.389
21.22000 533.621
21.23000 541.190
21.24000 547.778
21.25000 548.099
21.26000 547.310
21.27000 546.662
21.28000 549.403
21.29000 551.951
21.30000 551.964
21.31000 545.027
21.32000 537.691
21.33000 535.166
21.34000 541.524
21.35000 548.078
21.36000 551.687
21.37000 547.823
21.38000 545.140
21.39000 539.916
21.40000 532.704
21.41000 525.773
21.42000 530.103
21.43000 540.281
21.44000 550.013
21.45000 554.069
21.46000 555.993
21.47000 557.543
21.48000 555.813
21.49000 553.319
21.50000 550.173
21.51000 543.521
21.52000 536.347
21.53000 530.659
21.54000 529.609
21.55000 529.089
21.56000 529.249
21.57000 531.020
21.58000 532.859
21.59000 534.294
21.60000 535.089
21.61000 535.876
21.62000 536.276
21.63000 543.523
21.64000 548.395
21.65000 554.638
21.66000 561.799
21.67000 568.609
21.68000 565.942
21.69000 559.029
21.70000 552.514
21.71000 556.146
21.72000 562.274
21.73000 567.246
21.74000 563.861
21.75000 558.817
21.76000 555.239
21.77000 558.362
21.78000 562.312
21.79000 565.331
21.80000 565.561
21.81000 565.592
21.82000 566.187
21.83000 567.933
21.84000 569.714
21.85000 574.240
21.86000 582.505
21.87000 590.787
21.88000 595.040
21.89000 595.772
21.90000 596.544
21.91000 599.538
21.92000 603.809
21.93000 608.096
21.94000 612.703
21.95000 617.434
21.96000 621.819
21.97000 630.469
21.98000 639.249
21.99000 646.670
22.00000 645.871
22.01000 643.693
22.02000 641.569
22.03000 639.658
22.04000 637.769
22.05000 636.384
22.06000 655.876
22.07000 671.779
22.08000 676.612
22.09000 661.950
22.10000 646.921
22.11000 642.978
22.12000 651.893
22.13000 660.799
22.14000 657.005
22.15000 643.866
22.16000 630.944
22.17000 625.563
22.18000 623.917
22.19000 622.409
22.20000 622.957
22.21000 624.190
22.22000 625.312
22.23000 621.515
22.24000 617.193
22.25000 612.533
22.26000 606.153
22.27000 599.530
22.28000 595.808
22.29000 601.815
22.30000 608.610
22.31000 613.373
22.32000 596.740
22.33000 583.540
22.34000 574.088
22.35000 570.308
22.36000 566.586
22.37000 565.729
22.38000 567.677
22.39000 569.612
22.40000 567.334
22.41000 562.455
22.42000 557.483
22.43000 550.236
22.44000 542.017
22.45000 534.801
22.46000 539.311
22.47000 547.191
22.48000 554.205
22.49000 553.201
22.50000 551.017
22.51000 547.576
22.52000 538.678
22.53000 529.147
22.54000 522.930
22.55000 526.296
22.56000 530.267
22.57000 532.914
22.58000 528.300
22.59000 524.745
22.60000 524.645
22.61000 529.017
22.62000 533.395
22.63000 531.933
22.64000 525.630
22.65000 519.412
22.66000 517.017
22.67000 516.726
22.68000 516.283
22.69000 513.136
22.70000 508.991
22.71000 505.000
22.72000 502.468
22.73000 500.295
22.74000 498.407
22.75000 505.484
22.76000 512.733
22.77000 518.715
22.78000 519.985
22.79000 520.811
22.80000 521.489
22.81000 521.797
22.82000 522.087
22.83000 522.271
22.84000 522.571
22.85000 522.790
22.86000 518.550
22.87000 509.405
22.88000 500.311
22.89000 498.640
22.90000 502.219
22.91000 505.721
22.92000 501.277
22.93000 493.409
22.94000 486.132
22.95000 486.995
22.96000 490.449
22.97000 493.558
22.98000 493.999
22.99000 493.880
23.00000 493.778
23.01000 497.022
23.02000 500.108
23.03000 502.650
23.04000 503.457
23.05000 504.133
23.06000 507.587
23.07000 517.025
23.08000 526.667
23.09000 532.377
23.10000 530.761
23.11000 529.577
23.12000 525.671
23.13000 519.241
23.14000 512.806
23.15000 506.025
23.16000 499.034
23.17000 492.263
23.18000 497.871
23.19000 507.952
23.20000 517.411
23.21000 520.089
23.22000 520.910
23.23000 521.478
23.24000 520.419
23.25000 519.069
23.26000 517.962
23.27000 503.481
23.28000 490.399
23.29000 483.475
23.30000 493.536
23.31000 504.580
23.32000 510.293
23.33000 506.096
23.34000 501.677
23.35000 499.237
23.36000 499.264
23.37000 499.269
23.38000 493.922
23.39000 484.361
23.40000 475.047
23.41000 475.826
23.42000 481.876
23.43000 487.665
23.44000 491.462
23.45000 494.345
23.46000 497.040
23.47000 498.077
23.48000 498.725
23.49000 498.365
23.50000 492.549
23.51000 485.914
23.52000 480.645
23.53000 487.932
23.54000 494.687
23.55000 500.167
23.56000 502.612
23.57000 504.928
23.58000 506.172
23.59000 505.704
23.60000 505.213
23.61000 504.963
23.62000 498.835
23.63000 494.753
23.64000 494.054
23.65000 495.632
23.66000 497.034
23.67000 493.588
23.68000 487.958
23.69000 482.648
23.70000 484.652
23.71000 488.523
23.72000 493.394
23.73000 505.557
23.74000 519.177
23.75000 529.473
23.76000 524.476
23.77000 517.574
23.78000 512.292
23.79000 497.893
23.80000 486.032
23.81000 480.364
23.82000 487.427
23.83000 494.873
23.84000 498.125
23.85000 495.629
23.86000 493.101
23.87000 495.738
23.88000 502.909
23.89000 509.986
23.90000 511.740
23.91000 510.415
23.92000 509.339
23.93000 513.192
23.94000 518.964
23.95000 524.318
23.96000 512.225
23.97000 497.235
23.98000 484.035
23.99000 481.734
24.00000 481.275
24.01000 482.175
24.02000 488.425
24.03000 495.220
24.04000 500.212
24.05000 493.576
24.06000 487.969
24.07000 484.603
24.08000 485.209
24.09000 485.890
24.10000 489.979
24.11000 498.046
24.12000 506.095
24.13000 507.014
24.14000 502.629
24.15000 498.508
24.16000 503.800
24.17000 513.782
24.18000 523.188
24.19000 523.933
24.20000 521.769
24.21000 519.800
24.22000 506.502
24.23000 492.496
24.24000 481.423
24.25000 485.413
24.26000 491.535
24.27000 495.929
24.28000 494.492
24.29000 492.579
24.30000 491.236
24.31000 488.097
24.32000 485.669
24.33000 485.178
24.34000 487.640
24.35000 490.133
24.36000 492.905
24.37000 495.951
24.38000 498.975
24.39000 498.469
24.40000 495.745
24.41000 492.964
24.42000 488.775
24.43000 483.980
24.44000 479.364
24.45000 476.848
24.46000 474.940
24.47000 473.240
24.48000 474.018
24.49000 475.103
24.50000 477.243
24.51000 484.000
24.52000 491.297
24.53000 494.660
24.54000 486.580
24.55000 477.770
24.56000 471.885
24.57000 475.110
24.58000 477.676
24.59000 478.250
24.60000 476.224
24.61000 474.191
24.62000 473.714
24.63000 474.536
24.64000 475.348
24.65000 471.821
24.66000 466.063
24.67000 460.845
24.68000 465.387
24.69000 473.553
24.70000 481.265
24.71000 484.663
24.72000 486.990
24.73000 489.015
24.74000 479.818
24.75000 470.440
24.76000 464.605
24.77000 472.035
24.78000 480.726
24.79000 484.098
24.80000 474.115
24.81000 463.491
24.82000 456.778
24.83000 460.134
24.84000 462.684
24.85000 461.101
24.86000 454.941
24.87000 448.836
24.88000 451.091
24.89000 459.296
24.90000 467.328
24.91000 472.988
24.92000 477.342
24.93000 481.123
24.94000 476.968
24.95000 470.270
24.96000 464.574
24.97000 466.677
24.98000 470.432
24.99000 473.611
25.00000 477.615
25.01000 481.060
25.02000 482.201
25.03000 475.929
25.04000 469.095
25.05000 465.227
25.06000 467.786
25.07000 470.567
25.08000 472.219
25.09000 470.042
25.10000 468.478
25.11000 467.131
25.12000 465.985
25.13000 464.883
25.14000 466.813
25.15000 470.594
25.16000 474.258
25.17000 482.535
25.18000 492.162
25.19000 500.609
25.20000 496.096
25.21000 488.014
25.22000 479.846
25.23000 471.132
25.24000 462.319
25.25000 455.076
25.26000 459.960
25.27000 465.065
25.28000 468.077
25.29000 465.282
25.30000 462.148
25.31000 461.500
25.32000 465.502
25.33000 469.611
25.34000 471.887
25.35000 468.664
25.36000 466.434
25.37000 465.617
25.38000 465.921
25.39000 466.245
25.40000 467.395
25.41000 468.980
25.42000 470.496
25.43000 469.276
25.44000 467.235
25.45000 465.388
25.46000 465.260
25.47000 465.537
25.48000 466.302
25.49000 469.728
25.50000 473.557
25.51000 476.601
25.52000 475.435
25.53000 474.194
25.54000 474.098
25.55000 476.742
25.56000 479.506
25.57000 476.740
25.58000 465.078
25.59000 453.297
25.60000 447.264
25.61000 452.622
25.62000 456.211
25.63000 458.310
25.64000 459.399
25.65000 460.458
25.66000 460.654
25.67000 460.459
25.68000 460.275
25.69000 459.759
25.70000 459.193
25.71000 457.839
25.72000 450.711
25.73000 442.422
25.74000 436.561
25.75000 441.950
25.76000 448.751
25.77000 453.963
25.78000 451.272
25.79000 448.709
25.80000 450.550
25.81000 461.494
25.82000 472.716
25.83000 474.788
25.84000 464.237
25.85000 453.613
25.86000 446.754
25.87000 443.234
25.88000 439.813
25.89000 442.136
25.90000 447.801
25.91000 453.194
25.92000 453.121
25.93000 450.908
25.94000 448.854
25.95000 450.718
25.96000 453.325
25.97000 455.656
25.98000 456.295
25.99000 456.647
26.00000 457.779
26.01000 461.998
26.02000 466.534
26.03000 469.873
26.04000 468.537
26.05000 467.310
26.06000 464.614
26.07000 459.301
26.08000 453.937
26.09000 452.654
26.10000 456.170
26.11000 459.684
26.12000 459.632
26.13000 456.912
26.14000 454.167
26.15000 450.507
26.16000 446.388
26.17000 442.294
26.18000 438.568
26.19000 434.967
26.20000 431.686
26.21000 440.988
26.22000 451.728
26.23000 460.873
26.24000 461.775
26.25000 461.501
26.26000 460.426
26.27000 456.629
26.28000 452.608
26.29000 449.778
26.30000 436.094
26.31000 425.401
26.32000 424.708
26.33000 439.338
26.34000 454.135
26.35000 460.325
26.36000 457.967
26.37000 455.625
26.38000 455.745
26.39000 457.424
26.40000 458.905
26.41000 455.417
26.42000 449.780
26.43000 444.432
26.44000 442.533
26.45000 441.637
26.46000 440.838
26.47000 429.002
26.48000 416.874
26.49000 409.215
26.50000 421.215
26.51000 435.534
26.52000 445.276
26.53000 441.626
26.54000 437.113
26.55000 434.091
26.56000 438.700
26.57000 442.271
26.58000 441.251
26.59000 434.211
26.60000 427.162
26.61000 429.951
26.62000 441.005
26.63000 451.915
26.64000 452.691
26.65000 447.975
26.66000 443.317
26.67000 439.705
26.68000 436.484
26.69000 433.628
26.70000 434.265
26.71000 435.776
26.72000 437.091
26.73000 442.096
26.74000 446.878
26.75000 449.069
26.76000 441.505
26.77000 433.004
26.78000 426.980
26.79000 427.211
26.80000 427.746
26.81000 428.085
26.82000 437.326
26.83000 444.135
26.84000 445.956
26.85000 442.215
26.86000 438.486
26.87000 437.112
26.88000 437.425
26.89000 437.731
26.90000 441.438
26.91000 446.562
26.92000 451.294
26.93000 450.529
26.94000 447.994
26.95000 445.396
26.96000 442.313
26.97000 439.126
26.98000 436.425
26.99000 435.404
27.00000 434.737
27.01000 433.359
27.02000 429.676
27.03000 425.816
27.04000 424.327
27.05000 428.004
27.06000 431.862
27.07000 434.159
27.08000 427.419
27.09000 422.590
27.10000 424.356
27.11000 432.324
27.12000 440.245
27.13000 444.898
27.14000 447.543
27.15000 450.108
27.16000 449.800
27.17000 448.387
27.18000 446.918
27.19000 444.840
27.20000 442.594
27.21000 440.485
27.22000 439.272
27.23000 438.222
27.24000 437.358
27.25000 435.949
27.26000 434.742
27.27000 433.520
27.28000 432.263
27.29000 431.003
27.30000 430.535
27.31000 431.559
27.32000 432.617
27.33000 433.205
27.34000 435.942
27.35000 437.825
27.36000 435.725
27.37000 430.448
27.38000 425.335
27.39000 427.129
27.40000 432.576
27.41000 437.793
27.42000 433.136
27.43000 425.513
27.44000 418.731
27.45000 419.507
27.46000 422.079
27.47000 423.754
27.48000 420.507
27.49000 416.512
27.50000 413.330
27.51000 416.302
27.52000 419.142
27.53000 421.908
27.54000 424.498
27.55000 427.079
27.56000 430.903
27.57000 436.738
27.58000 442.601
27.59000 445.613
27.60000 444.468
27.61000 443.677
27.62000 440.626
27.63000 436.036
27.64000 431.543
27.65000 429.812
27.66000 429.340
27.67000 428.894
27.68000 429.898
27.69000 431.228
27.70000 432.345
27.71000 431.883
27.72000 431.102
27.73000 431.388
27.74000 436.644
27.75000 442.529
27.76000 447.047
27.77000 439.196
27.78000 432.300
27.79000 426.685
27.80000 423.737
27.81000 420.873
27.82000 422.066
27.83000 428.892
27.84000 435.753
27.85000 436.086
27.86000 430.610
27.87000 425.107
27.88000 418.083
27.89000 410.168
27.90000 402.846
27.91000 407.576
27.92000 417.053
27.93000 425.855
27.94000 423.440
27.95000 418.591
27.96000 414.359
27.97000 413.942
27.98000 414.179
27.99000 414.588
28.00000 415.683
28.01000 416.849
28.02000 417.709
28.03000 421.343
28.04000 424.275
28.05000 427.473
28.06000 431.150
28.07000 434.837
28.08000 433.084
28.09000 424.894
28.10000 416.714
28.11000 417.947
28.12000 426.259
28.13000 434.329
28.14000 433.496
28.15000 428.174
28.16000 423.348
28.17000 426.130
28.18000 431.498
28.19000 436.391
28.20000 428.689
28.21000 419.340
28.22000 413.274
28.23000 424.301
28.24000 437.782
28.25000 445.731
28.26000 434.770
28.27000 422.235
28.28000 413.398
28.29000 418.139
28.30000 422.144
28.31000 423.092
28.32000 419.327
28.33000 415.509
28.34000 415.184
28.35000 418.353
28.36000 421.501
28.37000 425.413
28.38000 429.755
28.39000 433.886
28.40000 432.694
28.41000 429.185
28.42000 425.626
28.43000 421.457
28.44000 417.110
28.45000 413.231
28.46000 413.903
28.47000 415.250
28.48000 417.513
28.49000 423.831
28.50000 430.632
28.51000 435.598
28.52000 435.168
28.53000 434.386
28.54000 433.862
28.55000 433.186
28.56000 432.681
28.57000 429.353
28.58000 422.296
28.59000 415.230
28.60000 412.886
28.61000 414.534
28.62000 416.161
28.63000 416.693
28.64000 416.616
28.65000 416.774
28.66000 421.253
28.67000 427.357
28.68000 432.429
28.69000 427.534
28.70000 420.136
28.71000 413.688
28.72000 408.621
28.73000 404.482
28.74000 401.916
28.75000 405.308
28.76000 409.277
28.77000 412.312
28.78000 412.973
28.79000 413.518
28.80000 413.863
28.81000 415.801
28.82000 417.228
28.83000 419.919
28.84000 424.030
28.85000 428.089
28.86000 424.060
28.87000 414.200
28.88000 404.543
28.89000 402.752
28.90000 404.668
28.91000 406.126
28.92000 401.093
28.93000 393.955
28.94000 388.850
28.95000 399.819
28.96000 414.239
28.97000 426.477
28.98000 419.835
28.99000 412.120
29.00000 407.267
29.01000 411.735
29.02000 416.922
29.03000 422.192
29.04000 427.643
29.05000 433.101
29.06000 436.358
29.07000 426.634
29.08000 419.657
29.09000 414.098
29.10000 409.881
29.11000 405.745
29.12000 407.458
29.13000 412.784
29.14000 417.950
29.15000 412.166
29.16000 402.375
29.17000 393.530
29.18000 395.266
29.19000 399.952
29.20000 403.910
29.21000 403.071
29.22000 401.359
29.23000 399.948
29.24000 408.868
29.25000 417.155
29.26000 422.032
29.27000 417.336
29.28000 412.068
29.29000 407.530
29.30000 404.377
29.31000 401.256
29.32000 399.517
29.33000 409.364
29.34000 416.189
29.35000 419.119
29.36000 418.920
29.37000 418.772
29.38000 420.782
29.39000 423.941
29.40000 426.968
29.41000 422.619
29.42000 416.095
29.43000 410.469
29.44000 412.967
29.45000 417.408
29.46000 420.738
29.47000 417.922
29.48000 414.165
29.49000 411.170
29.50000 414.027
29.51000 416.760
29.52000 418.927
29.53000 419.723
29.54000 420.459
29.55000 417.957
29.56000 410.182
29.57000 402.333
29.58000 398.286
29.59000 400.737
29.60000 402.376
29.61000 402.629
29.62000 401.931
29.63000 401.191
29.64000 399.226
29.65000 396.700
29.66000 394.313
29.67000 391.464
29.68000 388.717
29.69000 387.002
29.70000 392.970
29.71000 400.503
29.72000 406.797
29.73000 407.277
29.74000 407.015
29.75000 406.814
29.76000 404.597
29.77000 402.729
29.78000 402.344
29.79000 405.061
29.80000 407.876
29.81000 411.333
29.82000 415.686
29.83000 420.044
29.84000 418.032
29.85000 410.313
29.86000 402.762
29.87000 405.345
29.88000 413.894
29.89000 422.350
29.90000 428.882
29.91000 434.652
29.92000 440.016
29.93000 429.251
29.94000 415.668
29.95000 404.339
29.96000 407.015
29.97000 412.109
29.98000 414.789
29.99000 407.801
30.00000 399.803
30.01000 393.896
30.02000 410.857
30.03000 424.974
30.04000 430.225
30.05000 419.480
30.06000 408.408
30.07000 405.800
30.08000 413.271
30.09000 420.743
30.10000 425.082
30.11000 427.019
30.12000 428.946
30.13000 430.475
30.14000 431.802
30.15000 433.193
30.16000 435.582
30.17000 438.312
30.18000 440.803
30.19000 437.808
30.20000 434.045
30.21000 431.035
30.22000 431.966
30.23000 433.468
30.24000 433.370
30.25000 427.769
30.26000 421.706
30.27000 417.423
30.28000 411.543
30.29000 407.031
30.30000 407.325
30.31000 415.077
30.32000 422.915
30.33000 425.636
30.34000 423.203
30.35000 420.785
30.36000 420.513
30.37000 421.623
30.38000 422.647
30.39000 421.463
30.40000 419.312
30.41000 417.475
30.42000 419.441
30.43000 422.528
30.44000 425.285
30.45000 421.467
30.46000 417.032
30.47000 413.586
30.48000 414.546
30.49000 416.035
30.50000 415.405
30.51000 408.506
30.52000 401.193
30.53000 396.278
30.54000 409.243
30.55000 419.245
30.56000 421.421
30.57000 413.201
30.58000 404.951
30.59000 409.593
30.60000 425.207
30.61000 440.628
30.62000 440.816
30.63000 432.668
30.64000 424.662
30.65000 419.309
30.66000 414.958
30.67000 411.391
30.68000 415.455
30.69000 421.449
30.70000 426.679
30.71000 430.822
30.72000 434.214
30.73000 437.918
30.74000 442.813
30.75000 447.824
30.76000 452.285
30.77000 455.337
30.78000 458.319
30.79000 460.217
30.80000 458.502
30.81000 457.211
30.82000 455.821
30.83000 454.319
30.84000 452.846
30.85000 455.870
30.86000 462.157
30.87000 468.318
30.88000 473.194
30.89000 477.287
30.90000 481.122
30.91000 481.252
30.92000 480.174
30.93000 480.885
30.94000 495.850
30.95000 513.894
30.96000 529.226
30.97000 533.002
30.98000 534.848
30.99000 543.204
31.00000 572.889
31.01000 604.237
31.02000 629.407
31.03000 640.948
31.04000 652.000
31.05000 658.614
31.06000 701.077
31.07000 731.450
31.08000 766.551
31.09000 806.161
31.10000 845.753
31.11000 884.022
31.12000 921.467
31.13000 957.799
31.14000 1019.989
31.15000 1089.201
31.16000 1158.426
31.17000 1227.786
31.18000 1297.184
31.19000 1367.204
31.20000 1441.346
31.21000 1516.244
31.22000 1578.035
31.23000 1702.180
31.24000 1810.185
31.25000 1915.462
31.26000 2013.032
31.27000 2110.137
31.28000 2205.584
31.29000 2297.874
31.30000 2390.088
31.31000 2441.617
31.32000 2559.268
31.33000 2640.805
31.34000 2692.264
31.35000 2719.417
31.36000 2746.346
31.37000 2763.454
31.38000 2775.307
31.39000 2786.672
31.40000 2779.092
31.41000 2765.636
31.42000 2749.435
31.43000 2708.213
31.44000 2660.970
31.45000 2610.789
31.46000 2544.251
31.47000 2475.188
31.48000 2420.044
31.49000 2284.725
31.50000 2169.543
31.51000 2058.441
31.52000 1957.284
31.53000 1856.576
31.54000 1758.854
31.55000 1666.025
31.56000 1573.267
31.57000 1525.289
31.58000 1377.087
31.59000 1277.367
31.60000 1205.581
31.61000 1153.071
31.62000 1100.265
31.63000 1038.853
31.64000 973.469
31.65000 911.653
31.66000 861.387
31.67000 818.505
31.68000 776.967
31.69000 745.511
31.70000 716.123
31.71000 685.348
31.72000 648.020
31.73000 609.851
31.74000 580.457
31.75000 561.881
31.76000 547.791
31.77000 537.499
31.78000 535.201
31.79000 533.158
31.80000 526.498
31.81000 513.349
31.82000 500.158
31.83000 490.342
31.84000 483.580
31.85000 476.827
31.86000 470.622
31.87000 464.741
31.88000 458.771
31.89000 450.934
31.90000 442.353
31.91000 434.371
31.92000 429.049
31.93000 424.883
31.94000 421.218
31.95000 420.684
31.96000 420.693
31.97000 418.710
31.98000 408.694
31.99000 397.831
32.00000 389.795
32.01000 397.811
32.02000 404.719
32.03000 407.287
32.04000 401.975
32.05000 396.499
32.06000 393.460
32.07000 393.341
32.08000 393.229
32.09000 390.354
32.10000 385.389
32.11000 380.697
32.12000 386.406
32.13000 397.423
32.14000 407.625
32.15000 405.048
32.16000 398.074
32.17000 391.706
32.18000 388.955
32.19000 387.246
32.20000 385.691
32.21000 384.942
32.22000 384.311
32.23000 383.634
32.24000 382.798
32.25000 381.950
32.26000 381.349
32.27000 376.560
32.28000 372.792
32.29000 369.229
32.30000 365.985
32.31000 362.745
32.32000 363.475
32.33000 368.233
32.34000 372.961
32.35000 376.544
32.36000 379.334
32.37000 381.868
32.38000 377.739
32.39000 370.675
32.40000 364.056
32.41000 362.883
32.42000 363.324
32.43000 363.717
32.44000 362.704
32.45000 361.581
32.46000 361.189
32.47000 364.077
32.48000 367.359
32.49000 368.857
32.50000 365.035
32.51000 360.859
32.52000 358.046
32.53000 357.154
32.54000 356.531
32.55000 360.307
32.56000 369.966
32.57000 379.640
32.58000 380.120
32.59000 372.721
32.60000 365.411
32.61000 357.211
32.62000 348.727
32.63000 340.741
32.64000 342.170
32.65000 347.178
32.66000 351.899
32.67000 353.791
32.68000 354.963
32.69000 355.987
32.70000 354.098
32.71000 352.072
32.72000 350.029
32.73000 347.921
32.74000 345.807
32.75000 344.230
32.76000 344.035
32.77000 343.910
32.78000 343.830
32.79000 352.324
32.80000 358.613
32.81000 358.856
32.82000 352.223
32.83000 345.612
32.84000 343.878
32.85000 345.705
32.86000 347.495
32.87000 350.375
32.88000 353.655
32.89000 356.553
32.90000 353.918
32.91000 349.468
32.92000 345.575
32.93000 346.152
32.94000 347.701
32.95000 349.018
32.96000 356.131
32.97000 362.776
32.98000 367.177
32.99000 364.185
33.00000 360.610
33.01000 356.252
33.02000 350.157
33.03000 343.998
33.04000 340.303
33.05000 334.771
33.06000 330.828
33.07000 333.551
33.08000 342.672
33.09000 351.684
33.10000 352.435
33.11000 348.017
33.12000 343.728
33.13000 339.199
33.14000 334.805
33.15000 331.410
33.16000 339.392
33.17000 350.585
33.18000 360.028
33.19000 357.792
33.20000 353.399
33.21000 349.770
33.22000 353.546
33.23000 357.349
33.24000 358.211
33.25000 350.721
33.26000 342.719
33.27000 339.846
33.28000 346.792
33.29000 353.979
33.30000 358.008
33.31000 338.408
33.32000 324.796
33.33000 323.005
33.34000 330.830
33.35000 338.561
33.36000 342.122
33.37000 343.440
33.38000 344.703
33.39000 345.739
33.40000 346.629
33.41000 347.044
33.42000 343.090
33.43000 338.079
33.44000 333.458
33.45000 331.024
33.46000 328.929
33.47000 327.255
33.48000 323.619
33.49000 320.535
33.50000 320.100
33.51000 326.161
33.52000 332.521
33.53000 336.356
33.54000 336.029
33.55000 335.640
33.56000 335.439
33.57000 328.736
33.58000 324.265
33.59000 326.584
33.60000 333.620
33.61000 340.525
33.62000 343.565
33.63000 344.812
33.64000 345.991
33.65000 343.995
33.66000 341.246
33.67000 338.555
33.68000 336.294
33.69000 334.121
33.70000 333.310
33.71000 338.967
33.72000 345.460
33.73000 350.468
33.74000 348.663
33.75000 346.840
33.76000 344.129
33.77000 339.540
33.78000 334.889
33.79000 332.867
33.80000 334.562
33.81000 336.284
33.82000 336.329
33.83000 334.852
33.84000 333.402
33.85000 333.652
33.86000 334.915
33.87000 335.972
33.88000 332.701
33.89000 327.694
33.90000 323.033
33.91000 331.562
33.92000 342.477
33.93000 351.597
33.94000 349.406
33.95000 345.236
33.96000 342.046
33.97000 342.830
33.98000 344.037
33.99000 344.931
34.00000 347.187
34.01000 348.997
34.02000 347.014
34.03000 338.103
34.04000 329.045
34.05000 323.060
34.06000 320.783
34.07000 318.519
34.08000 321.242
34.09000 327.780
34.10000 334.233
34.11000 337.382
34.12000 338.837
34.13000 339.972
34.14000 336.046
34.15000 330.369
34.16000 325.181
34.17000 326.175
34.18000 328.323
34.19000 330.441
34.20000 332.403
34.21000 334.343
34.22000 336.147
34.23000 337.482
34.24000 338.776
34.25000 339.693
34.26000 340.956
34.27000 341.927
34.28000 339.486
34.29000 331.688
34.30000 323.824
34.31000 317.968
34.32000 314.163
34.33000 310.381
34.34000 313.969
34.35000 322.310
34.36000 330.368
34.37000 331.008
34.38000 328.362
34.39000 326.225
34.40000 330.400
34.41000 336.456
34.42000 341.876
34.43000 332.239
34.44000 321.256
34.45000 312.970
34.46000 316.857
34.47000 322.227
34.48000 325.642
34.49000 323.204
34.50000 320.372
34.51000 318.461
34.52000 320.490
34.53000 322.084
34.54000 322.899
34.55000 322.665
34.56000 322.424
34.57000 320.526
34.58000 317.198
34.59000 313.910
34.60000 313.166
34.61000 313.850
34.62000 314.704
34.63000 318.809
34.64000 324.158
34.65000 328.974
34.66000 328.523
34.67000 326.723
34.68000 325.150
34.69000 320.331
34.70000 315.744
34.71000 311.979
34.72000 311.390
34.73000 311.116
34.74000 310.388
34.75000 308.484
34.76000 306.520
34.77000 305.264
34.78000 312.746
34.79000 318.307
34.80000 322.297
34.81000 324.488
34.82000 326.671
34.83000 327.666
34.84000 327.789
34.85000 327.909
34.86000 323.026
34.87000 315.964
34.88000 309.250
34.89000 307.610
34.90000 307.644
34.91000 308.469
34.92000 315.693
34.93000 324.318
34.94000 331.662
34.95000 330.185
34.96000 327.917
34.97000 325.976
34.98000 325.120
34.99000 324.350
35.00000 323.451
35.01000 322.266
35.02000 321.070
35.03000 320.351
35.04000 309.742
35.05000 302.130
35.06000 298.978
35.07000 300.138
35.08000 301.310
35.09000 303.483
35.10000 306.286
35.11000 309.008
35.12000 307.274
35.13000 303.839
35.14000 300.426
35.15000 297.251
35.16000 294.145
35.17000 292.622
35.18000 301.734
35.19000 312.824
35.20000 321.996
35.21000 311.823
35.22000 301.609
35.23000 296.296
35.24000 304.993
35.25000 314.556
35.26000 319.962
35.27000 317.359
35.28000 314.555
35.29000 312.979
35.30000 302.067
35.31000 294.490
35.32000 294.258
35.33000 300.040
35.34000 305.731
35.35000 307.340
35.36000 306.738
35.37000 306.160
35.38000 305.113
35.39000 303.974
35.40000 302.676
35.41000 299.908
35.42000 296.781
35.43000 293.880
35.44000 292.250
35.45000 290.818
35.46000 289.672
35.47000 295.143
35.48000 300.065
35.49000 305.817
35.50000 313.619
35.51000 321.515
35.52000 323.920
35.53000 317.215
35.54000 310.372
35.55000 306.810
35.56000 307.710
35.57000 308.289
35.58000 304.844
35.59000 298.589
35.60000 292.511
35.61000 291.766
35.62000 293.512
35.63000 295.165
35.64000 301.008
35.65000 307.597
35.66000 313.663
35.67000 315.747
35.68000 317.003
35.69000 317.405
35.70000 313.717
35.71000 309.495
35.72000 306.234
35.73000 298.836
35.74000 292.729
35.75000 287.747
35.76000 285.163
35.77000 282.658
35.78000 285.556
35.79000 296.145
35.80000 306.788
35.81000 311.483
35.82000 310.730
35.83000 309.961
35.84000 308.177
35.85000 305.784
35.86000 303.339
35.87000 299.767
35.88000 295.741
35.89000 291.991
35.90000 293.304
35.91000 295.730
35.92000 297.912
35.93000 298.538
35.94000 298.891
35.95000 299.988
35.96000 304.127
35.97000 308.591
35.98000 311.906
35.99000 303.703
36.00000 296.823
36.01000 288.343
36.02000 276.928
36.03000 265.448
36.04000 263.118
36.05000 271.898
36.06000 280.685
36.07000 287.279
36.08000 292.141
36.09000 296.886
36.10000 297.065
36.11000 294.885
36.12000 292.863
36.13000 293.381
36.14000 294.782
36.15000 296.063
36.16000 296.592
36.17000 296.908
36.18000 296.264
36.19000 290.489
36.20000 283.954
36.21000 279.551
36.22000 282.612
36.23000 286.317
36.24000 288.949
36.25000 288.887
36.26000 288.755
36.27000 290.176
36.28000 294.054
36.29000 297.962
36.30000 296.099
36.31000 288.300
36.32000 280.546
36.33000 277.009
36.34000 276.284
36.35000 275.973
36.36000 286.695
36.37000 302.332
36.38000 316.250
36.39000 308.701
36.40000 294.714
36.41000 282.185
36.42000 285.191
36.43000 290.492
36.44000 294.423
36.45000 292.125
36.46000 289.062
36.47000 287.463
36.48000 290.272
36.49000 293.381
36.50000 295.484
36.51000 294.134
36.52000 293.053
36.53000 291.469
36.54000 289.201
36.55000 286.932
36.56000 287.354
36.57000 290.112
36.58000 292.837
36.59000 297.309
36.60000 302.645
36.61000 307.629
36.62000 305.793
36.63000 301.331
36.64000 297.083
36.65000 294.961
36.66000 293.387
36.67000 292.009
36.68000 289.481
36.69000 287.149
36.70000 285.857
36.71000 288.599
36.72000 291.745
36.73000 292.204
36.74000 285.676
36.75000 278.787
36.76000 274.372
36.77000 283.533
36.78000 290.390
36.79000 293.548
36.80000 292.441
36.81000 291.343
36.82000 292.765
36.83000 296.051
36.84000 299.274
36.85000 292.836
36.86000 282.048
36.87000 272.094
36.88000 274.420
36.89000 280.824
36.90000 286.781
36.91000 289.087
36.92000 290.589
36.93000 291.870
36.94000 286.760
36.95000 281.711
36.96000 278.521
36.97000 281.529
36.98000 285.034
36.99000 287.866
37.00000 289.184
37.01000 290.445
37.02000 291.206
37.03000 282.310
37.04000 275.910
37.05000 275.341
37.06000 280.448
37.07000 285.571
37.08000 291.951
37.09000 299.127
37.10000 306.099
37.11000 300.506
37.12000 290.118
37.13000 280.685
37.14000 282.317
37.15000 287.113
37.16000 291.164
37.17000 290.176
37.18000 288.245
37.19000 286.646
37.20000 297.628
37.21000 307.889
37.22000 312.945
37.23000 303.038
37.24000 292.196
37.25000 284.622
37.26000 283.381
37.27000 282.301
37.28000 281.693
37.29000 286.371
37.30000 289.632
37.31000 291.679
37.32000 292.727
37.33000 293.703
37.34000 291.407
37.35000 287.328
37.36000 283.411
37.37000 286.307
37.38000 291.357
37.39000 295.720
37.40000 293.660
37.41000 290.026
37.42000 286.917
37.43000 286.795
37.44000 287.145
37.45000 287.425
37.46000 286.047
37.47000 284.807
37.48000 284.190
37.49000 285.124
37.50000 286.130
37.51000 288.542
37.52000 293.300
37.53000 298.094
37.54000 300.598
37.55000 277.866
37.56000 262.577
37.57000 260.543
37.58000 267.828
37.59000 275.000
37.60000 278.708
37.61000 280.789
37.62000 282.759
37.63000 278.990
37.64000 273.847
37.65000 269.766
37.66000 273.834
37.67000 279.608
37.68000 284.134
37.69000 282.646
37.70000 280.368
37.71000 278.606
37.72000 278.336
37.73000 278.210
37.74000 278.239
37.75000 278.602
37.76000 278.976
37.77000 280.517
37.78000 283.730
37.79000 286.955
37.80000 291.620
37.81000 297.609
37.82000 303.470
37.83000 300.838
37.84000 293.083
37.85000 285.447
37.86000 280.402
37.87000 276.408
37.88000 272.685
37.89000 276.648
37.90000 282.130
37.91000 287.016
37.92000 288.092
37.93000 288.492
37.94000 288.842
37.95000 288.991
37.96000 289.117
37.97000 289.212
37.98000 293.840
37.99000 297.642
38.00000 298.589
38.01000 294.259
38.02000 289.812
38.03000 286.090
38.04000 283.253
38.05000 280.424
38.06000 278.559
38.07000 277.455
38.08000 276.487
38.09000 280.947
38.10000 288.227
38.11000 295.118
38.12000 295.703
38.13000 294.081
38.14000 292.596
38.15000 296.918
38.16000 301.968
38.17000 306.119
38.18000 305.428
38.19000 304.017
38.20000 302.895
38.21000 302.791
38.22000 302.777
38.23000 302.766
38.24000 294.613
38.25000 288.140
38.26000 288.363
38.27000 299.236
38.28000 310.244
38.29000 314.012
38.30000 310.282
38.31000 306.572
38.32000 305.659
38.33000 306.603
38.34000 307.629
38.35000 310.873
38.36000 315.111
38.37000 319.481
38.38000 325.510
38.39000 332.040
38.40000 337.895
38.41000 345.935
38.42000 353.338
38.43000 357.753
38.44000 348.498
38.45000 337.553
38.46000 335.155
38.47000 358.680
38.48000 383.983
38.49000 401.136
38.50000 407.279
38.51000 411.616
38.52000 415.449
38.53000 418.594
38.54000 421.745
38.55000 434.290
38.56000 455.045
38.57000 475.565
38.58000 489.416
38.59000 499.197
38.60000 508.931
38.61000 517.758
38.62000 526.233
38.63000 534.950
38.64000 546.089
38.65000 557.856
38.66000 568.164
38.67000 571.970
38.68000 574.299
38.69000 575.870
38.70000 574.480
38.71000 572.791
38.72000 572.382
38.73000 575.324
38.74000 578.441
38.75000 580.443
38.76000 580.094
38.77000 579.808
38.78000 574.349
38.79000 562.888
38.80000 551.469
38.81000 549.767
38.82000 555.292
38.83000 560.714
38.84000 544.672
38.85000 518.954
38.86000 493.710
38.87000 475.531
38.88000 459.711
38.89000 444.981
38.90000 439.214
38.91000 435.434
38.92000 432.207
38.93000 420.077
38.94000 408.811
38.95000 396.699
38.96000 381.747
38.97000 366.564
38.98000 355.096
38.99000 352.019
39.00000 349.262
39.01000 347.594
39.02000 329.117
39.03000 315.827
39.04000 312.451
39.05000 318.789
39.06000 324.981
39.07000 319.037
39.08000 305.361
39.09000 292.069
39.10000 289.484
39.11000 291.378
39.12000 292.810
39.13000 288.820
39.14000 283.271
39.15000 278.567
39.16000 279.624
39.17000 281.768
39.18000 283.545
39.19000 284.621
39.20000 285.442
39.21000 284.636
39.22000 279.121
39.23000 273.308
39.24000 268.773
39.25000 266.731
39.26000 264.753
39.27000 263.635
39.28000 266.672
39.29000 268.793
39.30000 269.565
39.31000 269.217
39.32000 268.928
39.33000 271.388
39.34000 275.356
39.35000 279.168
39.36000 275.634
39.37000 269.787
39.38000 264.713
39.39000 266.929
39.40000 270.943
39.41000 274.369
39.42000 274.437
39.43000 273.971
39.44000 273.596
39.45000 266.349
39.46000 259.952
39.47000 255.430
39.48000 255.589
39.49000 255.971
39.50000 257.704
39.51000 261.707
39.52000 265.746
39.53000 267.863
39.54000 265.633
39.55000 264.155
39.56000 267.444
39.57000 274.105
39.58000 280.482
39.59000 278.092
39.60000 271.558
39.61000 265.365
39.62000 265.921
39.63000 268.413
39.64000 270.429
39.65000 268.754
39.66000 266.302
39.67000 263.408
39.68000 258.371
39.69000 253.050
39.70000 248.927
39.71000 261.830
39.72000 273.094
39.73000 277.922
39.74000 268.877
39.75000 259.362
39.76000 254.424
39.77000 256.084
39.78000 257.796
39.79000 261.767
39.80000 267.830
39.81000 273.756
39.82000 270.375
39.83000 261.345
39.84000 252.565
39.85000 249.264
39.86000 248.199
39.87000 247.206
39.88000 251.341
39.89000 256.359
39.90000 261.247
39.91000 265.298
39.92000 269.200
39.93000 271.340
39.94000 266.198
39.95000 260.262
39.96000 255.841
39.97000 254.162
39.98000 252.979
39.99000 253.956
40.00000 258.947
40.01000 264.028
40.02000 266.662
40.03000 266.285
40.04000 265.901
40.05000 262.652
40.06000 257.173
40.07000 251.740
40.08000 248.132
40.09000 245.478
40.10000 243.071
40.11000 244.695
40.12000 247.738
40.13000 250.527
40.14000 255.453
40.15000 260.284
40.16000 263.353
40.17000 256.863
40.18000 248.939
40.19000 243.931
40.20000 249.262
40.21000 255.503
40.22000 259.952
40.23000 255.562
40.24000 251.926
40.25000 250.286
40.26000 251.840
40.27000 253.436
40.28000 255.509
40.29000 258.079
40.30000 260.635
40.31000 258.482
40.32000 253.227
40.33000 248.051
40.34000 245.062
40.35000 243.057
40.36000 241.365
40.37000 243.633
40.38000 247.105
40.39000 250.220
40.40000 253.174
40.41000 255.729
40.42000 258.226
40.43000 260.453
40.44000 262.646
40.45000 263.059
40.46000 258.041
40.47000 252.646
40.48000 248.981
40.49000 250.094
40.50000 251.031
40.51000 251.456
40.52000 251.179
40.53000 250.898
40.54000 251.739
40.55000 253.567
40.56000 255.375
40.57000 253.124
40.58000 248.632
40.59000 244.282
40.60000 242.733
40.61000 242.275
40.62000 242.438
40.63000 248.904
40.64000 257.014
40.65000 264.125
40.66000 256.257
40.67000 247.328
40.68000 240.086
40.69000 239.480
40.70000 239.549
40.71000 239.773
40.72000 240.404
40.73000 241.057
40.74000 241.477
40.75000 246.083
40.76000 249.504
40.77000 252.117
40.78000 253.786
40.79000 255.443
40.80000 255.113
40.81000 253.296
40.82000 251.513
40.83000 249.874
40.84000 248.364
40.85000 246.811
40.86000 244.617
40.87000 242.209
40.88000 240.390
40.89000 243.457
40.90000 247.614
40.91000 251.166
40.92000 248.495
40.93000 245.502
40.94000 244.458
40.95000 249.996
40.96000 256.073
40.97000 259.403
40.98000 256.491
40.99000 253.338
41.00000 251.426
41.01000 250.665
41.02000 250.131
41.03000 245.869
41.04000 237.927
41.05000 230.100
41.06000 231.990
41.07000 240.111
41.08000 248.008
41.09000 250.960
41.10000 251.745
41.11000 251.808
41.12000 243.360
41.13000 232.450
41.14000 223.396
41.15000 227.090
41.16000 233.202
41.17000 238.276
41.18000 242.776
41.19000 246.441
41.20000 248.554
41.21000 246.150
41.22000 243.457
41.23000 242.664
41.24000 245.598
41.25000 248.630
41.26000 250.349
41.27000 246.022
41.28000 242.995
41.29000 241.013
41.30000 239.904
41.31000 238.740
41.32000 234.921
41.33000 229.639
41.34000 224.561
41.35000 229.219
41.36000 236.969
41.37000 244.078
41.38000 245.090
41.39000 244.589
41.40000 244.264
41.41000 244.961
41.42000 245.821
41.43000 246.513
41.44000 245.128
41.45000 243.845
41.46000 241.577
41.47000 236.837
41.48000 231.977
41.49000 230.862
41.50000 236.074
41.51000 241.389
41.52000 244.183
41.53000 235.198
41.54000 229.143
41.55000 229.235
41.56000 233.702
41.57000 238.051
41.58000 238.688
41.59000 237.559
41.60000 236.488
41.61000 237.701
41.62000 239.493
41.63000 240.739
41.64000 237.733
41.65000 233.825
41.66000 230.443
41.67000 229.623
41.68000 229.146
41.69000 228.775
41.70000 227.716
41.71000 226.833
41.72000 227.630
41.73000 232.072
41.74000 236.640
41.75000 237.757
41.76000 233.869
41.77000 229.940
41.78000 231.958
41.79000 239.531
41.80000 247.026
41.81000 249.064
41.82000 247.769
41.83000 246.416
41.84000 243.764
41.85000 240.579
41.86000 237.606
41.87000 234.165
41.88000 230.930
41.89000 228.307
41.90000 229.647
41.91000 231.699
41.92000 233.644
41.93000 235.141
41.94000 236.589
41.95000 237.669
41.96000 243.299
41.97000 247.892
41.98000 250.002
41.99000 247.468
42.00000 244.827
42.01000 242.503
42.02000 240.569
42.03000 238.639
42.04000 234.522
42.05000 228.697
42.06000 223.078
42.07000 226.000
42.08000 233.413
42.09000 240.388
42.10000 240.092
42.11000 237.221
42.12000 234.589
42.13000 231.272
42.14000 228.173
42.15000 225.570
42.16000 225.672
42.17000 226.183
42.18000 228.347
42.19000 236.409
42.20000 244.994
42.21000 251.126
42.22000 244.573
42.23000 239.152
42.24000 235.506
42.25000 234.719
42.26000 233.971
42.27000 234.858
42.28000 237.463
42.29000 240.055
42.30000 238.804
42.31000 234.999
42.32000 231.311
42.33000 230.893
42.34000 231.960
42.35000 232.791
42.36000 230.594
42.37000 227.471
42.38000 224.667
42.39000 224.702
42.40000 225.232
42.41000 225.962
42.42000 227.619
42.43000 229.393
42.44000 230.790
42.45000 231.031
42.46000 231.191
42.47000 231.300
42.48000 235.056
42.49000 237.945
42.50000 239.513
42.51000 239.261
42.52000 238.997
42.53000 238.460
42.54000 237.683
42.55000 236.914
42.56000 237.769
42.57000 239.529
42.58000 241.073
42.59000 238.286
42.60000 233.803
42.61000 229.691
42.62000 229.374
42.63000 230.053
42.64000 230.649
42.65000 229.210
42.66000 227.677
42.67000 226.182
42.68000 224.839
42.69000 223.512
42.70000 222.735
42.71000 223.414
42.72000 224.171
42.73000 224.660
42.74000 228.600
42.75000 231.529
42.76000 233.482
42.77000 234.290
42.78000 235.099
42.79000 236.343
42.80000 237.917
42.81000 239.463
42.82000 234.563
42.83000 226.714
42.84000 219.566
42.85000 223.065
42.86000 230.163
42.87000 236.344
42.88000 234.867
42.89000 231.670
42.90000 228.936
42.91000 225.725
42.92000 222.959
42.93000 222.004
42.94000 227.199
42.95000 232.901
42.96000 235.520
42.97000 231.091
42.98000 226.385
42.99000 223.524
43.00000 222.076
43.01000 221.053
43.02000 220.245
43.03000 219.651
43.04000 219.067
43.05000 219.376
43.06000 220.260
43.07000 221.121
43.08000 222.982
43.09000 225.165
43.10000 227.043
43.11000 225.285
43.12000 222.469
43.13000 219.429
43.14000 214.846
43.15000 209.968
43.16000 205.914
43.17000 220.830
43.18000 235.023
43.19000 244.092
43.20000 238.165
43.21000 231.271
43.22000 224.899
43.23000 219.559
43.24000 214.246
43.25000 211.226
43.26000 219.134
43.27000 224.672
43.28000 227.023
43.29000 226.696
43.30000 226.346
43.31000 224.855
43.32000 222.732
43.33000 220.690
43.34000 220.391
43.35000 220.721
43.36000 220.768
43.37000 218.098
43.38000 214.750
43.39000 212.482
43.40000 216.478
43.41000 221.483
43.42000 225.512
43.43000 223.426
43.44000 221.257
43.45000 218.495
43.46000 214.235
43.47000 209.903
43.48000 208.537
43.49000 212.215
43.50000 215.976
43.51000 217.960
43.52000 218.043
43.53000 218.105
43.54000 219.257
43.55000 221.189
43.56000 223.060
43.57000 223.011
43.58000 222.043
43.59000 221.124
43.60000 220.198
43.61000 219.341
43.62000 218.153
43.63000 214.355
43.64000 210.000
43.65000 206.353
43.66000 206.176
43.67000 206.466
43.68000 206.692
43.69000 215.342
43.70000 222.736
43.71000 227.411
43.72000 226.156
43.73000 224.693
43.74000 225.286
43.75000 228.880
43.76000 232.499
43.77000 233.048
43.78000 230.708
43.79000 228.347
43.80000 224.553
43.81000 219.877
43.82000 215.445
43.83000 216.494
43.84000 219.807
43.85000 222.901
43.86000 222.044
43.87000 220.274
43.88000 219.122
43.89000 222.008
43.90000 225.626
43.91000 227.581
43.92000 222.580
43.93000 216.809
43.94000 212.496
43.95000 214.442
43.96000 216.249
43.97000 216.426
43.98000 213.533
43.99000 210.570
44.00000 209.979
44.01000 212.346
44.02000 214.718
44.03000 215.096
44.04000 213.889
44.05000 212.750
44.06000 214.524
44.07000 217.838
44.08000 220.811
44.09000 218.067
44.10000 213.285
44.11000 208.897
44.12000 211.212
44.13000 214.695
44.14000 218.006
44.15000 220.372
44.16000 222.594
44.17000 224.374
44.18000 224.565
44.19000 224.614
44.20000 224.649
44.21000 218.946
44.22000 214.397
44.23000 211.951
44.24000 212.909
44.25000 213.914
44.26000 214.464
44.27000 214.532
44.28000 214.600
44.29000 215.627
44.30000 217.288
44.31000 218.883
44.32000 218.623
44.33000 217.515
44.34000 216.824
44.35000 221.528
44.36000 227.891
44.37000 233.610
44.38000 229.313
44.39000 223.774
44.40000 219.920
44.41000 223.926
44.42000 228.926
44.43000 231.002
44.44000 224.044
44.45000 216.448
44.46000 211.266
44.47000 216.552
44.48000 220.746
44.49000 221.560
44.50000 217.681
44.51000 213.774
44.52000 213.455
44.53000 216.336
44.54000 219.186
44.55000 223.070
44.56000 227.457
44.57000 231.664
44.58000 232.185
44.59000 231.256
44.60000 230.409
44.61000 230.428
44.62000 230.675
44.63000 230.893
44.64000 231.501
44.65000 232.082
44.66000 232.169
44.67000 230.289
44.68000 228.205
44.69000 229.539
44.70000 239.979
44.71000 250.912
44.72000 257.981
44.73000 252.454
44.74000 248.228
44.75000 245.717
44.76000 245.237
44.77000 244.778
44.78000 248.208
44.79000 254.587
44.80000 260.853
44.81000 261.530
44.82000 259.460
44.83000 257.398
44.84000 255.459
44.85000 253.561
44.86000 252.412
44.87000 257.560
44.88000 264.131
44.89000 269.757
44.90000 272.511
44.91000 274.487
44.92000 276.767
44.93000 280.091
44.94000 283.502
44.95000 288.879
44.96000 298.779
44.97000 308.859
44.98000 315.001
44.99000 305.344
45.00000 298.317
45.01000 298.032
45.02000 304.494
45.03000 310.925
45.04000 314.553
45.05000 316.361
45.06000 318.120
45.07000 323.175
45.08000 329.355
45.09000 335.117
45.10000 335.857
45.11000 335.125
45.12000 333.706
45.13000 327.494
45.14000 320.360
45.15000 314.425
45.16000 320.486
45.17000 326.687
45.18000 331.113
45.19000 330.313
45.20000 329.172
45.21000 329.180
45.22000 331.469
45.23000 333.819
45.24000 335.159
45.25000 337.715
45.26000 339.488
45.27000 333.293
45.28000 320.357
45.29000 307.548
45.30000 301.082
45.31000 298.157
45.32000 295.342
45.33000 299.589
45.34000 306.061
45.35000 311.495
45.36000 306.886
45.37000 299.753
45.38000 292.487
45.39000 284.448
45.40000 276.283
45.41000 269.700
45.42000 263.267
45.43000 258.054
45.44000 255.034
45.45000 257.584
45.46000 260.410
45.47000 260.950
45.48000 257.582
45.49000 254.148
45.50000 252.331
45.51000 249.840
45.52000 248.153
45.53000 247.289
45.54000 247.018
45.55000 246.623
45.56000 242.235
45.57000 235.926
45.58000 229.936
45.59000 228.327
45.60000 228.153
45.61000 228.742
45.62000 235.370
45.63000 243.296
45.64000 250.127
45.65000 251.546
45.66000 252.233
45.67000 252.767
45.68000 245.131
45.69000 238.548
45.70000 234.068
45.71000 234.199
45.72000 234.495
45.73000 233.033
45.74000 228.993
45.75000 224.930
45.76000 221.239
45.77000 217.901
45.78000 214.560
45.79000 210.968
45.80000 207.221
45.81000 203.696
45.82000 205.223
45.83000 208.849
45.84000 212.239
45.85000 214.809
45.86000 216.934
45.87000 218.641
45.88000 217.605
45.89000 216.068
45.90000 213.047
45.91000 203.771
45.92000 193.798
45.93000 186.333
45.94000 192.761
45.95000 198.425
45.96000 202.896
45.97000 205.106
45.98000 207.262
45.99000 209.272
46.00000 211.100
46.01000 212.924
46.02000 213.280
46.03000 212.461
46.04000 211.651
46.05000 211.292
46.06000 211.171
46.07000 210.891
46.08000 207.907
46.09000 203.954
46.10000 200.324
46.11000 203.035
46.12000 206.806
46.13000 209.559
46.14000 206.678
46.15000 202.933
46.16000 199.670
46.17000 198.146
46.18000 196.779
46.19000 195.799
46.20000 195.269
46.21000 194.879
46.22000 194.704
46.23000 194.880
46.24000 195.061
46.25000 195.856
46.26000 197.305
46.27000 198.746
46.28000 202.308
46.29000 207.266
46.30000 212.062
46.31000 212.220
46.32000 210.247
46.33000 208.480
46.34000 209.400
46.35000 211.151
46.36000 212.726
46.37000 214.750
46.38000 216.604
46.39000 217.701
46.40000 215.248
46.41000 212.342
46.42000 209.374
46.43000 206.211
46.44000 203.035
46.45000 200.865
46.46000 200.858
46.47000 200.903
46.48000 201.812
46.49000 203.927
46.50000 206.049
46.51000 207.894
46.52000 209.489
46.53000 211.068
46.54000 209.108
46.55000 205.152
46.56000 201.225
46.57000 197.883
46.58000 194.773
46.59000 192.301
46.60000 196.488
46.61000 202.444
46.62000 207.682
46.63000 202.761
46.64000 197.018
46.65000 192.041
46.66000 190.137
46.67000 188.554
46.68000 189.373
46.69000 196.630
46.70000 204.239
46.71000 209.171
46.72000 201.223
46.73000 195.212
46.74000 193.400
46.75000 196.588
46.76000 199.777
46.77000 201.042
46.78000 200.838
46.79000 200.639
46.80000 197.548
46.81000 193.145
46.82000 188.811
46.83000 185.554
46.84000 182.665
46.85000 180.286
46.86000 182.239
46.87000 185.177
46.88000 187.696
46.89000 186.499
46.90000 185.033
46.91000 184.541
46.92000 187.395
46.93000 190.531
46.94000 192.796
46.95000 193.049
46.96000 193.220
46.97000 193.325
46.98000 197.014
46.99000 199.683
47.00000 197.823
47.01000 191.400
47.02000 185.027
47.03000 183.262
47.04000 184.506
47.05000 185.717
47.06000 183.283
47.07000 179.444
47.08000 175.998
47.09000 177.333
47.10000 180.077
47.11000 182.618
47.12000 183.742
47.13000 184.592
47.14000 185.300
47.15000 184.770
47.16000 184.208
47.17000 184.524
47.18000 187.438
47.19000 190.524
47.20000 191.081
47.21000 186.590
47.22000 181.958
47.23000 179.310
47.24000 186.039
47.25000 190.763
47.26000 191.871
47.27000 189.900
47.28000 187.965
47.29000 187.900
47.30000 188.883
47.31000 189.831
47.32000 185.167
47.33000 178.800
47.34000 173.143
47.35000 174.409
47.36000 177.428
47.37000 180.052
47.38000 180.360
47.39000 180.289
47.40000 180.232
47.41000 179.260
47.42000 178.396
47.43000 178.357
47.44000 180.423
47.45000 182.593
47.46000 185.172
47.47000 188.452
47.48000 191.744
47.49000 193.491
47.50000 191.335
47.51000 189.884
47.52000 191.377
47.53000 195.006
47.54000 198.401
47.55000 194.082
47.56000 186.031
47.57000 178.382
47.58000 179.483
47.59000 183.135
47.60000 186.454
47.61000 187.110
47.62000 187.190
47.63000 187.640
47.64000 189.927
47.65000 192.464
47.66000 194.442
47.67000 189.786
47.68000 185.663
47.69000 181.507
47.70000 177.278
47.71000 173.046
47.72000 173.268
47.73000 180.071
47.74000 186.934
47.75000 188.882
47.76000 186.143
47.77000 183.465
47.78000 185.337
47.79000 190.038
47.80000 194.378
47.81000 190.405
47.82000 182.957
47.83000 175.991
47.84000 178.479
47.85000 183.150
47.86000 187.316
47.87000 188.137
47.88000 188.343
47.89000 189.285
47.90000 193.344
47.91000 197.753
47.92000 201.059
47.93000 187.290
47.94000 175.730
47.95000 168.669
47.96000 170.175
47.97000 171.888
47.98000 174.855
47.99000 179.404
48.00000 183.951
48.01000 186.407
48.02000 187.168
48.03000 187.816
48.04000 183.487
48.05000 176.494
48.06000 169.887
48.07000 169.881
48.08000 172.256
48.09000 174.439
48.10000 176.663
48.11000 178.657
48.12000 180.560
48.13000 181.955
48.14000 183.271
48.15000 183.901
48.16000 182.036
48.17000 179.944
48.18000 178.442
48.19000 181.614
48.20000 184.203
48.21000 185.200
48.22000 183.590
48.23000 181.942
48.24000 183.349
48.25000 188.030
48.26000 192.688
48.27000 191.438
48.28000 186.170
48.29000 181.014
48.30000 179.091
48.31000 178.661
48.32000 178.123
48.33000 176.146
48.34000 173.722
48.35000 171.539
48.36000 174.124
48.37000 177.249
48.38000 179.874
48.39000 180.140
48.40000 180.103
48.41000 180.279
48.42000 181.124
48.43000 182.017
48.44000 182.629
48.45000 180.854
48.46000 179.468
48.47000 179.879
48.48000 182.815
48.49000 185.767
48.50000 185.190
48.51000 181.424
48.52000 177.696
48.53000 176.540
48.54000 176.899
48.55000 177.206
48.56000 176.420
48.57000 175.198
48.58000 174.161
48.59000 175.080
48.60000 176.521
48.61000 177.789
48.62000 175.655
48.63000 173.309
48.64000 172.238
48.65000 176.311
48.66000 180.926
48.67000 183.149
48.68000 178.921
48.69000 174.336
48.70000 171.358
48.71000 177.705
48.72000 182.497
48.73000 184.978
48.74000 184.688
48.75000 184.389
48.76000 183.101
48.77000 181.053
48.78000 179.040
48.79000 172.912
48.80000 164.958
48.81000 157.686
48.82000 161.115
48.83000 168.226
48.84000 174.565
48.85000 174.299
48.86000 172.520
48.87000 170.994
48.88000 175.841
48.89000 180.724
48.90000 184.283
48.91000 183.265
48.92000 181.859
48.93000 180.934
48.94000 181.130
48.95000 181.372
48.96000 181.520
48.97000 177.860
48.98000 175.207
48.99000 174.175
49.00000 174.787
49.01000 175.368
49.02000 173.012
49.03000 168.726
49.04000 164.552
49.05000 165.976
49.06000 169.685
49.07000 172.977
49.08000 171.146
49.09000 167.797
49.10000 165.902
49.11000 174.296
49.12000 184.695
49.13000 193.370
49.14000 182.172
49.15000 170.895
49.16000 162.997
49.17000 165.168
49.18000 168.009
49.19000 170.901
49.20000 173.894
49.21000 176.889
49.22000 178.607
49.23000 175.767
49.24000 173.765
49.25000 170.801
49.26000 167.012
49.27000 163.403
49.28000 169.197
49.29000 180.301
49.30000 190.997
49.31000 190.035
49.32000 184.967
49.33000 180.565
49.34000 182.701
49.35000 186.502
49.36000 189.050
49.37000 184.180
49.38000 178.089
49.39000 173.166
49.40000 167.817
49.41000 163.433
49.42000 161.753
49.43000 167.029
49.44000 172.656
49.45000 176.232
49.46000 176.259
49.47000 176.223
49.48000 176.204
49.49000 176.114
49.50000 176.037
49.51000 173.349
49.52000 168.755
49.53000 164.411
49.54000 168.414
49.55000 176.481
49.56000 184.149
49.57000 182.122
49.58000 177.309
49.59000 173.128
49.60000 174.017
49.61000 176.011
49.62000 177.511
49.63000 176.541
49.64000 175.231
49.65000 174.209
49.66000 177.367
49.67000 180.148
49.68000 181.855
49.69000 181.178
49.70000 180.413
49.71000 179.208
49.72000 177.347
49.73000 175.480
49.74000 174.745
49.75000 175.094
49.76000 175.412
49.77000 173.215
49.78000 169.446
49.79000 165.906
49.80000 167.727
49.81000 171.801
49.82000 175.614
49.83000 175.328
49.84000 174.016
49.85000 173.004
49.86000 174.002
49.87000 175.371
49.88000 175.755
49.89000 171.937
49.90000 167.643
49.91000 164.418
49.92000 163.784
49.93000 163.412
49.94000 165.265
49.95000 171.380
49.96000 177.600
49.97000 179.270
49.98000 175.159
49.99000 171.033
50.00000 170.067
50.01000 171.665
50.02000 173.240
50.03000 173.790
50.04000 173.789
50.05000 173.855
50.06000 175.093
50.07000 176.757
50.08000 178.286
50.09000 172.178
50.10000 165.069
50.11000 159.690
50.12000 164.019
50.13000 169.858
50.14000 174.302
50.15000 173.651
50.16000 172.530
50.17000 171.724
50.18000 169.042
50.19000 166.922
50.20000 166.766
50.21000 169.851
50.22000 172.984
50.23000 174.723
50.24000 174.960
50.25000 175.195
50.26000 177.282
50.27000 180.619
50.28000 183.792
50.29000 182.162
50.30000 178.300
50.31000 174.879
50.32000 177.358
50.33000 181.681
50.34000 185.578
50.35000 188.100
50.36000 190.063
50.37000 191.529
50.38000 190.634
50.39000 189.434
50.40000 188.315
50.41000 187.451
50.42000 186.605
50.43000 186.025
50.44000 186.106
50.45000 186.182
50.46000 185.237
50.47000 182.849
50.48000 180.453
50.49000 183.718
50.50000 192.133
50.51000 200.467
50.52000 203.616
50.53000 203.673
50.54000 203.858
50.55000 206.743
50.56000 210.709
50.57000 214.762
50.58000 219.723
50.59000 224.928
50.60000 229.514
50.61000 227.959
50.62000 225.693
50.63000 224.789
50.64000 229.413
50.65000 234.624
50.66000 239.150
50.67000 241.821
50.68000 244.388
50.69000 246.059
50.70000 239.880
50.71000 235.226
50.72000 234.778
50.73000 239.408
50.74000 244.032
50.75000 244.787
50.76000 242.549
50.77000 240.350
50.78000 239.874
50.79000 240.270
50.80000 240.359
50.81000 235.582
50.82000 229.120
50.83000 223.093
50.84000 220.821
50.85000 219.415
50.86000 218.206
50.87000 216.873
50.88000 215.730
50.89000 214.721
50.90000 214.179
50.91000 213.678
50.92000 211.345
50.93000 204.727
50.94000 197.931
50.95000 193.758
50.96000 199.521
50.97000 203.736
50.98000 202.757
50.99000 196.468
51.00000 190.240
51.01000 189.902
51.02000 193.460
51.03000 196.926
51.04000 190.878
51.05000 181.086
51.06000 172.388
51.07000 177.218
51.08000 186.082
51.09000 193.713
51.10000 192.551
51.11000 189.665
51.12000 187.255
51.13000 183.893
51.14000 181.007
51.15000 179.312
51.16000 181.192
51.17000 183.312
51.18000 185.108
51.19000 186.251
51.20000 187.374
51.21000 188.020
51.22000 191.666
51.23000 194.222
51.24000 191.720
51.25000 184.856
51.26000 178.011
51.27000 172.223
51.28000 167.035
51.29000 162.036
51.30000 163.486
51.31000 167.167
51.32000 170.533
51.33000 170.771
51.34000 170.208
51.35000 169.940
51.36000 171.439
51.37000 173.230
51.38000 174.679
51.39000 170.599
51.40000 166.830
51.41000 164.915
51.42000 167.792
51.43000 170.914
51.44000 170.071
51.45000 162.322
51.46000 154.449
51.47000 150.243
51.48000 156.699
51.49000 161.101
51.50000 164.129
51.51000 166.146
51.52000 168.072
51.53000 166.884
51.54000 164.171
51.55000 161.590
51.56000 156.426
51.57000 150.860
51.58000 146.507
51.59000 151.976
51.60000 159.595
51.61000 165.420
51.62000 162.205
51.63000 157.736
51.64000 154.243
51.65000 154.629
51.66000 155.184
51.67000 155.361
51.68000 154.694
51.69000 153.995
51.70000 153.236
51.71000 152.385
51.72000 151.533
51.73000 153.669
51.74000 158.695
51.75000 163.690
51.76000 166.241
51.77000 167.252
51.78000 168.174
51.79000 166.976
51.80000 164.881
51.81000 162.918
51.82000 163.164
51.83000 163.958
51.84000 164.012
51.85000 159.092
51.86000 153.248
51.87000 148.961
51.88000 151.363
51.89000 154.529
51.90000 156.911
51.91000 162.428
51.92000 166.894
51.93000 169.536
51.94000 168.661
51.95000 167.697
51.96000 165.127
51.97000 160.503
51.98000 155.878
51.99000 154.753
52.00000 156.488
52.01000 158.156
52.02000 156.786
52.03000 153.769
52.04000 151.032
52.05000 153.185
52.06000 157.123
52.07000 160.746
52.08000 161.466
52.09000 161.476
52.10000 161.223
52.11000 159.483
52.12000 157.510
52.13000 156.225
52.14000 157.470
52.15000 158.950
52.16000 160.017
52.17000 162.722
52.18000 164.854
52.19000 165.659
52.20000 164.263
52.21000 162.835
52.22000 162.032
52.23000 161.909
52.24000 161.787
52.25000 164.217
52.26000 168.388
52.27000 172.363
52.28000 170.479
52.29000 165.858
52.30000 161.144
52.31000 155.163
52.32000 148.785
52.33000 143.032
52.34000 148.351
52.35000 155.045
52.36000 159.841
52.37000 155.554
52.38000 150.082
52.39000 147.951
52.40000 156.385
52.41000 165.597
52.42000 171.932
52.43000 165.146
52.44000 159.730
52.45000 155.470
52.46000 152.855
52.47000 150.253
52.48000 148.926
52.49000 148.767
52.50000 148.610
52.51000 149.941
52.52000 152.118
52.53000 154.371
52.54000 158.234
52.55000 162.747
52.56000 166.874
52.57000 166.871
52.58000 165.750
52.59000 164.762
52.60000 161.433
52.61000 158.207
52.62000 155.166
52.63000 152.881
52.64000 150.678
52.65000 149.888
52.66000 152.953
52.67000 156.236
52.68000 158.378
52.69000 152.776
52.70000 148.542
52.71000 148.761
52.72000 154.390
52.73000 160.023
52.74000 163.168
52.75000 164.379
52.76000 165.569
52.77000 162.712
52.78000 157.923
52.79000 153.392
52.80000 153.000
52.81000 154.050
52.82000 154.902
52.83000 154.044
52.84000 152.790
52.85000 151.710
52.86000 151.932
52.87000 152.282
52.88000 152.678
52.89000 153.233
52.90000 153.802
52.91000 155.185
52.92000 158.483
52.93000 161.861
52.94000 163.940
52.95000 159.205
52.96000 155.748
52.97000 153.630
52.98000 152.890
52.99000 152.170
53.00000 153.465
53.01000 156.101
53.02000 158.671
53.03000 159.602
53.04000 159.795
53.05000 159.800
53.06000 157.470
53.07000 154.439
53.08000 152.064
53.09000 154.390
53.10000 157.644
53.11000 160.366
53.12000 157.043
53.13000 153.667
53.14000 151.277
53.15000 151.862
53.16000 152.649
53.17000 153.153
53.18000 153.081
53.19000 152.992
53.20000 152.941
53.21000 155.538
53.22000 157.363
53.23000 155.812
53.24000 151.328
53.25000 146.953
53.26000 148.482
53.27000 153.387
53.28000 158.116
53.29000 160.783
53.30000 162.544
53.31000 163.801
53.32000 160.021
53.33000 154.942
53.34000 151.058
53.35000 154.341
53.36000 158.821
53.37000 162.452
53.38000 162.120
53.39000 161.526
53.40000 160.640
53.41000 158.994
53.42000 157.309
53.43000 156.786
53.44000 158.299
53.45000 159.849
53.46000 160.680
53.47000 157.511
53.48000 155.368
53.49000 157.504
53.50000 162.806
53.51000 167.834
53.52000 163.428
53.53000 154.374
53.54000 145.759
53.55000 148.113
53.56000 153.662
53.57000 158.568
53.58000 158.207
53.59000 156.687
53.60000 155.078
53.61000 153.021
53.62000 150.903
53.63000 149.244
53.64000 151.804
53.65000 154.119
53.66000 154.983
53.67000 152.585
53.68000 150.064
53.69000 149.297
53.70000 151.171
53.71000 153.071
53.72000 152.580
53.73000 149.759
53.74000 146.972
53.75000 146.837
53.76000 148.382
53.77000 150.016
53.78000 153.767
53.79000 158.418
53.80000 162.777
53.81000 159.848
53.82000 155.286
53.83000 151.166
53.84000 150.052
53.85000 149.500
53.86000 149.961
53.87000 154.801
53.88000 160.146
53.89000 164.173
53.90000 164.174
53.91000 163.978
53.92000 161.297
53.93000 153.799
53.94000 146.179
53.95000 143.450
53.96000 147.019
53.97000 150.609
53.98000 152.172
53.99000 152.066
54.00000 151.953
54.01000 151.556
54.02000 151.005
54.03000 150.382
54.04000 148.509
54.05000 146.176
54.06000 144.027
54.07000 144.979
54.08000 146.510
54.09000 147.819
54.10000 147.858
54.11000 147.698
54.12000 149.026
54.13000 155.865
54.14000 163.219
54.15000 168.530
54.16000 163.682
54.17000 159.597
54.18000 156.621
54.19000 155.495
54.20000 154.397
54.21000 152.313
54.22000 149.153
54.23000 146.005
54.24000 145.393
54.25000 146.553
54.26000 147.701
54.27000 148.475
54.28000 149.073
54.29000 149.607
54.30000 149.264
54.31000 148.644
54.32000 148.084
54.33000 149.504
54.34000 151.116
54.35000 152.809
54.36000 154.893
54.37000 157.029
54.38000 157.516
54.39000 152.754
54.40000 147.602
54.41000 144.052
54.42000 149.168
54.43000 153.226
54.44000 154.258
54.45000 150.951
54.46000 147.614
54.47000 149.879
54.48000 157.311
54.49000 164.674
54.50000 162.980
54.51000 155.964
54.52000 149.161
54.53000 146.972
54.54000 146.656
54.55000 146.635
54.56000 149.791
54.57000 153.813
54.58000 157.364
54.59000 158.019
54.60000 158.141
54.61000 158.543
54.62000 160.098
54.63000 161.777
54.64000 162.384
54.65000 160.045
54.66000 157.538
54.67000 155.899
54.68000 152.042
54.69000 149.173
54.70000 148.301
54.71000 149.870
54.72000 151.441
54.73000 151.701
54.74000 150.934
54.75000 150.180
54.76000 150.715
54.77000 151.882
54.78000 152.948
54.79000 152.382
54.80000 151.244
54.81000 150.288
54.82000 150.919
54.83000 151.920
54.84000 152.782
54.85000 153.043
54.86000 153.188
54.87000 153.547
54.88000 154.659
54.89000 155.838
54.90000 156.064
54.91000 154.036
54.92000 151.912
54.93000 150.601
54.94000 152.691
54.95000 154.223
54.96000 153.337
54.97000 149.947
54.98000 146.602
54.99000 147.918
55.00000 152.356
55.01000 156.683
55.02000 159.144
55.03000 160.695
55.04000 161.966
55.05000 159.706
55.06000 156.380
55.07000 153.406
55.08000 152.974
55.09000 153.048
55.10000 153.110
55.11000 148.723
55.12000 144.620
55.13000 142.771
55.14000 147.759
55.15000 153.216
55.16000 156.492
55.17000 155.308
55.18000 153.992
55.19000 153.231
55.20000 151.800
55.21000 150.798
55.22000 152.947
55.23000 157.851
55.24000 162.711
55.25000 165.043
55.26000 165.922
55.27000 166.770
55.28000 164.902
55.29000 162.155
55.30000 159.744
55.31000 160.720
55.32000 162.573
55.33000 163.545
55.34000 159.191
55.35000 153.942
55.36000 149.682
55.37000 156.026
55.38000 162.072
55.39000 165.659
55.40000 162.808
55.41000 159.619
55.42000 159.936
55.43000 166.429
55.44000 173.038
55.45000 176.591
55.46000 179.661
55.47000 181.736
55.48000 179.747
55.49000 174.733
55.50000 169.903
55.51000 171.496
55.52000 176.275
55.53000 180.825
55.54000 182.784
55.55000 183.796
55.56000 185.366
55.57000 191.523
55.58000 198.698
55.59000 205.008
55.60000 206.895
55.61000 208.160
55.62000 209.152
55.63000 213.997
55.64000 218.120
55.65000 223.344
55.66000 231.055
55.67000 238.862
55.68000 243.949
55.69000 244.914
55.70000 245.838
55.71000 253.135
55.72000 266.682
55.73000 280.182
55.74000 289.807
55.75000 296.963
55.76000 304.219
55.77000 313.911
55.78000 324.645
55.79000 334.711
55.80000 342.365
55.81000 348.704
55.82000 353.628
55.83000 348.903
55.84000 342.360
55.85000 341.304
55.86000 364.108
55.87000 389.685
55.88000 408.988
55.89000 400.943
55.90000 393.285
55.91000 391.514
55.92000 401.223
55.93000 411.230
55.94000 416.167
55.95000 414.534
55.96000 412.876
55.97000 412.651
55.98000 413.612
55.99000 414.492
56.00000 411.531
56.01000 406.464
56.02000 401.535
56.03000 399.082
56.04000 397.544
56.05000 396.126
56.06000 390.749
56.07000 385.061
56.08000 378.970
56.09000 370.574
56.10000 361.813
56.11000 354.241
56.12000 351.101
56.13000 348.380
56.14000 346.411
56.15000 328.130
56.16000 313.502
56.17000 302.257
56.18000 296.694
56.19000 291.222
56.20000 288.961
56.21000 290.236
56.22000 291.508
56.23000 282.990
56.24000 267.697
56.25000 252.613
56.26000 244.001
56.27000 238.450
56.28000 232.925
56.29000 227.756
56.30000 222.701
56.31000 218.133
56.32000 216.244
56.33000 215.078
56.34000 213.620
56.35000 210.743
56.36000 207.678
56.37000 202.950
56.38000 192.898
56.39000 182.446
56.40000 175.231
56.41000 179.086
56.42000 182.266
56.43000 181.310
56.44000 174.388
56.45000 167.420
56.46000 164.789
56.47000 166.185
56.48000 167.569
56.49000 165.407
56.50000 161.177
56.51000 157.137
56.52000 157.238
56.53000 159.030
56.54000 160.739
56.55000 161.555
56.56000 162.124
56.57000 162.628
56.58000 162.656
56.59000 162.607
56.60000 162.296
56.61000 160.900
56.62000 159.387
56.63000 157.770
56.64000 155.865
56.65000 153.943
56.66000 152.684
56.67000 153.488
56.68000 154.114
56.69000 152.481
56.70000 148.067
56.71000 143.660
56.72000 143.157
56.73000 145.732
56.74000 148.267
56.75000 150.254
56.76000 151.901
56.77000 153.568
56.78000 155.555
56.79000 157.655
56.80000 159.306
56.81000 156.995
56.82000 153.755
56.83000 150.962
56.84000 150.190
56.85000 149.793
56.86000 149.277
56.87000 148.341
56.88000 147.367
56.89000 146.843
56.90000 147.391
56.91000 147.986
56.92000 148.353
56.93000 143.560
56.94000 140.066
56.95000 139.605
56.96000 142.307
56.97000 145.006
56.98000 147.330
56.99000 149.401
57.00000 151.422
57.01000 146.817
57.02000 139.561
57.03000 132.961
57.04000 134.714
57.05000 139.003
57.06000 142.596
57.07000 141.115
57.08000 138.619
57.09000 136.528
57.10000 133.952
57.11000 131.759
57.12000 131.208
57.13000 135.671
57.14000 140.482
57.15000 143.815
57.16000 144.105
57.17000 144.304
57.18000 144.420
57.19000 143.571
57.20000 142.970
57.21000 141.435
57.22000 139.079
57.23000 136.724
57.24000 134.515
57.25000 132.388
57.26000 130.336
57.27000 131.325
57.28000 133.370
57.29000 135.220
57.30000 135.087
57.31000 134.436
57.32000 134.063
57.33000 135.375
57.34000 136.973
57.35000 138.271
57.36000 138.092
57.37000 137.822
57.38000 138.081
57.39000 139.734
57.40000 141.460
57.41000 142.470
57.42000 142.209
57.43000 141.924
57.44000 141.770
57.45000 145.023
57.46000 147.233
57.47000 145.756
57.48000 141.518
57.49000 137.356
57.50000 135.910
57.51000 135.818
57.52000 135.730
57.53000 138.020
57.54000 140.882
57.55000 143.011
57.56000 139.065
57.57000 133.763
57.58000 130.071
57.59000 134.658
57.60000 140.417
57.61000 144.939
57.62000 137.894
57.63000 131.500
57.64000 129.427
57.65000 137.178
57.66000 145.308
57.67000 148.827
57.68000 145.317
57.69000 141.732
57.70000 139.195
57.71000 137.690
57.72000 136.185
57.73000 134.558
57.74000 132.852
57.75000 131.343
57.76000 134.645
57.77000 140.019
57.78000 145.061
57.79000 143.004
57.80000 139.256
57.81000 136.226
57.82000 138.134
57.83000 140.979
57.84000 142.673
57.85000 139.334
57.86000 135.405
57.87000 132.436
57.88000 134.259
57.89000 135.928
57.90000 136.791
57.91000 136.069
57.92000 135.306
57.93000 136.216
57.94000 139.309
57.95000 142.408
57.96000 143.022
57.97000 141.565
57.98000 140.112
57.99000 138.844
58.00000 137.678
58.01000 136.522
58.02000 135.549
58.03000 134.643
58.04000 133.807
58.05000 135.437
58.06000 137.445
58.07000 138.620
58.08000 134.995
58.09000 130.602
58.10000 127.819
58.11000 131.069
58.12000 134.894
58.13000 137.666
58.14000 134.827
58.15000 132.438
58.16000 130.892
58.17000 130.771
58.18000 130.674
58.19000 131.414
58.20000 133.083
58.21000 134.745
58.22000 135.674
58.23000 136.076
58.24000 136.426
58.25000 135.164
58.26000 133.136
58.27000 131.314
58.28000 132.373
58.29000 134.355
58.30000 136.148
58.31000 138.989
58.32000 141.684
58.33000 143.578
58.34000 141.562
58.35000 139.023
58.36000 136.790
58.37000 135.545
58.38000 134.374
58.39000 133.564
58.40000 132.190
58.41000 131.142
58.42000 132.400
58.43000 137.005
58.44000 141.637
58.45000 141.228
58.46000 136.107
58.47000 131.031
58.48000 131.341
58.49000 134.873
58.50000 138.311
58.51000 139.667
58.52000 140.169
58.53000 140.484
58.54000 138.755
58.55000 136.462
58.56000 134.434
58.57000 132.407
58.58000 130.654
58.59000 129.492
58.60000 130.787
58.61000 132.352
58.62000 133.708
58.63000 134.483
58.64000 135.225
58.65000 135.711
58.66000 138.869
58.67000 141.237
58.68000 141.780
58.69000 140.061
58.70000 138.337
58.71000 137.062
58.72000 136.143
58.73000 135.238
58.74000 132.048
58.75000 127.792
58.76000 123.925
58.77000 126.516
58.78000 131.396
58.79000 135.590
58.80000 133.676
58.81000 130.319
58.82000 127.423
58.83000 125.702
58.84000 124.392
58.85000 124.031
58.86000 127.051
58.87000 130.371
58.88000 132.757
58.89000 132.903
58.90000 132.951
58.91000 132.981
58.92000 133.177
58.93000 133.320
58.94000 131.969
58.95000 129.050
58.96000 126.181
58.97000 128.948
58.98000 135.535
58.99000 141.963
59.00000 140.566
59.01000 135.836
59.02000 131.429
59.03000 131.191
59.04000 132.227
59.05000 132.951
59.06000 131.389
59.07000 129.367
59.08000 127.671
59.09000 130.741
59.10000 133.796
59.11000 135.220
59.12000 131.636
59.13000 127.701
59.14000 126.092
59.15000 129.295
59.16000 132.645
59.17000 134.593
59.18000 131.809
59.19000 129.834
59.20000 129.664
59.21000 131.092
59.22000 132.487
59.23000 131.950
59.24000 130.288
59.25000 128.683
59.26000 129.329
59.27000 130.769
59.28000 132.232
59.29000 133.946
59.30000 135.724
59.31000 137.097
59.32000 135.976
59.33000 134.431
59.34000 133.174
59.35000 137.638
59.36000 141.763
59.37000 144.199
59.38000 142.160
59.39000 139.881
59.40000 137.725
59.41000 135.788
59.42000 133.855
59.43000 132.809
59.44000 132.162
59.45000 131.720
59.46000 131.407
59.47000 131.191
59.48000 130.982
59.49000 131.023
59.50000 131.190
59.51000 131.349
59.52000 130.014
59.53000 128.307
59.54000 127.057
59.55000 129.621
59.56000 133.043
59.57000 135.938
59.58000 136.104
59.59000 135.882
59.60000 135.707
59.61000 131.071
59.62000 127.064
59.63000 124.837
59.64000 126.679
59.65000 128.681
59.66000 130.004
59.67000 130.287
59.68000 130.559
59.69000 131.311
59.70000 132.541
59.71000 133.753
59.72000 133.309
59.73000 131.798
59.74000 130.276
59.75000 128.455
59.76000 126.507
59.77000 124.677
59.78000 125.784
59.79000 127.574
59.80000 129.185
59.81000 129.560
59.82000 129.699
59.83000 130.183
59.84000 132.185
59.85000 134.366
59.86000 136.018
59.87000 138.882
59.88000 141.190
59.89000 140.173
59.90000 132.589
59.91000 124.828
59.92000 122.177
59.93000 126.233
59.94000 130.314
59.95000 132.032
59.96000 131.764
59.97000 131.458
59.98000 129.299
59.99000 126.111
60.00000 123.004
60.01000 121.363
60.02000 120.269
60.03000 119.259
60.04000 124.587
60.05000 130.784
60.06000 136.585
60.07000 140.098
60.08000 143.241
60.09000 144.500
60.10000 138.655
60.11000 132.126
60.12000 127.386
60.13000 128.783
60.14000 130.087
60.15000 132.006
60.16000 134.970
60.17000 137.952
60.18000 138.492
60.19000 136.307
60.20000 134.128
60.21000 132.223
60.22000 130.531
60.23000 128.967
60.24000 131.500
60.25000 135.992
60.26000 140.087
60.27000 138.604
60.28000 135.322
60.29000 132.352
60.30000 131.429
60.31000 131.001
60.32000 130.293
60.33000 128.213
60.34000 125.947
60.35000 125.240
60.36000 129.580
60.37000 134.307
60.38000 137.584
60.39000 130.456
60.40000 124.815
60.41000 122.965
60.42000 126.650
60.43000 130.381
60.44000 132.093
60.45000 131.903
60.46000 131.715
60.47000 132.332
60.48000 133.422
60.49000 134.406
60.50000 133.004
60.51000 130.616
60.52000 128.872
60.53000 134.270
60.54000 141.649
60.55000 148.182
60.56000 138.359
60.57000 127.302
60.58000 118.507
60.59000 119.186
60.60000 120.914
60.61000 124.366
60.62000 132.630
60.63000 141.181
60.64000 146.809
60.65000 139.124
60.66000 133.234
60.67000 131.250
60.68000 134.137
60.69000 137.036
60.70000 139.028
60.71000 140.298
60.72000 141.548
60.73000 140.913
60.74000 139.330
60.75000 137.656
60.76000 134.471
60.77000 130.747
60.78000 127.208
60.79000 125.339
60.80000 123.867
60.81000 122.595
60.82000 126.395
60.83000 130.276
60.84000 132.176
60.85000 126.958
60.86000 121.103
60.87000 118.310
60.88000 122.900
60.89000 127.816
60.90000 130.872
60.91000 137.488
60.92000 142.287
60.93000 142.990
60.94000 139.361
60.95000 135.740
60.96000 133.142
60.97000 131.241
60.98000 129.386
60.99000 128.203
61.00000 127.366
61.01000 126.639
61.02000 127.337
61.03000 128.474
61.04000 129.888
61.05000 133.352
61.06000 137.231
61.07000 140.490
61.08000 138.334
61.09000 135.967
61.10000 134.829
61.11000 137.486
61.12000 140.413
61.13000 143.512
61.14000 146.971
61.15000 150.441
61.16000 152.464
61.17000 145.124
61.18000 139.923
61.19000 136.896
61.20000 135.809
61.21000 134.774
61.22000 136.896
61.23000 140.866
61.24000 144.700
61.25000 142.354
61.26000 137.845
61.27000 133.747
61.28000 133.887
61.29000 135.147
61.30000 135.994
61.31000 134.295
61.32000 132.159
61.33000 130.418
61.34000 132.976
61.35000 135.431
61.36000 137.253
61.37000 137.386
61.38000 137.428
61.39000 136.035
61.40000 132.069
61.41000 128.051
61.42000 125.871
61.43000 131.898
61.44000 136.026
61.45000 137.132
61.46000 135.946
61.47000 134.830
61.48000 136.295
61.49000 139.063
61.50000 141.703
61.51000 150.084
61.52000 159.672
61.53000 169.430
61.54000 180.616
61.55000 192.126
61.56000 203.294
61.57000 212.686
61.58000 221.822
61.59000 229.016
61.60000 229.870
61.61000 230.130
61.62000 232.737
61.63000 240.741
61.64000 248.959
61.65000 254.983
61.66000 257.622
61.67000 260.224
61.68000 261.525
61.69000 261.368
61.70000 261.237
61.71000 258.818
61.72000 254.914
61.73000 251.112
61.74000 249.925
61.75000 249.877
61.76000 249.832
61.77000 236.989
61.78000 221.846
61.79000 207.485
61.80000 198.570
61.81000 190.702
61.82000 183.297
61.83000 177.940
61.84000 172.827
61.85000 168.949
61.86000 160.048
61.87000 152.800
61.88000 148.051
61.89000 148.267
61.90000 148.618
61.91000 146.684
61.92000 141.731
61.93000 136.769
61.94000 137.548
61.95000 143.172
61.96000 148.688
61.97000 148.790
61.98000 145.870
61.99000 143.208
62.00000 145.337
62.01000 149.267
62.02000 152.898
62.03000 149.753
62.04000 145.404
62.05000 141.706
62.06000 141.808
62.07000 142.528
62.08000 142.756
62.09000 141.120
62.10000 139.304
62.11000 137.983
62.12000 142.391
62.13000 146.000
62.14000 146.311
62.15000 140.976
62.16000 135.545
62.17000 132.210
62.18000 131.230
62.19000 130.255
62.20000 133.454
62.21000 139.606
62.22000 145.603
62.23000 146.555
62.24000 145.079
62.25000 143.613
62.26000 142.279
62.27000 140.989
62.28000 139.820
62.29000 135.391
62.30000 130.869
62.31000 127.477
62.32000 129.670
62.33000 132.620
62.34000 135.329
62.35000 137.253
62.36000 139.115
62.37000 140.409
62.38000 144.095
62.39000 146.936
62.40000 146.979
62.41000 142.909
62.42000 138.803
62.43000 135.809
62.44000 133.869
62.45000 131.945
62.46000 131.814
62.47000 132.774
62.48000 133.821
62.49000 136.842
62.50000 140.683
62.51000 144.173
62.52000 143.730
62.53000 142.190
62.54000 140.825
62.55000 146.151
62.56000 151.816
62.57000 156.607
62.58000 157.710
62.59000 158.400
62.60000 157.868
62.61000 153.900
62.62000 149.726
62.63000 146.973
62.64000 149.049
62.65000 150.664
62.66000 149.905
62.67000 146.165
62.68000 142.422
62.69000 140.868
62.70000 141.073
62.71000 141.275
62.72000 144.364
62.73000 148.851
62.74000 152.965
62.75000 150.751
62.76000 146.266
62.77000 142.225
62.78000 142.202
62.79000 143.140
62.80000 143.951
62.81000 141.826
62.82000 139.638
62.83000 137.528
62.84000 135.704
62.85000 133.905
62.86000 134.027
62.87000 138.807
62.88000 143.795
62.89000 146.903
62.90000 144.640
62.91000 142.954
62.92000 142.105
62.93000 142.148
62.94000 142.200
62.95000 143.251
62.96000 144.989
62.97000 146.686
62.98000 146.232
62.99000 144.850
63.00000 143.638
63.01000 144.634
63.02000 146.314
63.03000 147.550
63.04000 145.479
63.05000 142.733
63.06000 140.423
63.07000 143.275
63.08000 146.202
63.09000 148.428
63.10000 148.476
63.11000 148.368
63.12000 146.800
63.13000 142.176
63.14000 137.456
63.15000 134.697
63.16000 141.853
63.17000 146.934
63.18000 147.751
63.19000 144.739
63.20000 141.842
63.21000 145.992
63.22000 154.294
63.23000 162.317
63.24000 159.264
63.25000 152.242
63.26000 145.788
63.27000 145.261
63.28000 146.311
63.29000 146.916
63.30000 144.749
63.31000 142.104
63.32000 139.946
63.33000 138.338
63.34000 137.069
63.35000 137.854
63.36000 144.144
63.37000 150.735
63.38000 153.557
63.39000 149.572
63.40000 145.447
63.41000 143.202
63.42000 146.244
63.43000 148.329
63.44000 148.411
63.45000 146.964
63.46000 145.559
63.47000 145.782
63.48000 146.829
63.49000 147.829
63.50000 146.408
63.51000 144.320
63.52000 142.444
63.53000 142.374
63.54000 142.716
63.55000 144.003
63.56000 150.256
63.57000 157.228
63.58000 162.726
63.59000 153.835
63.60000 145.735
63.61000 139.892
63.62000 139.275
63.63000 138.868
63.64000 140.595
63.65000 145.635
63.66000 150.714
63.67000 153.264
63.68000 147.952
63.69000 144.460
63.70000 146.047
63.71000 150.952
63.72000 155.683
63.73000 155.970
63.74000 154.311
63.75000 152.750
63.76000 156.689
63.77000 161.765
63.78000 165.862
63.79000 163.075
63.80000 158.955
63.81000 156.005
63.82000 158.274
63.83000 161.170
63.84000 163.370
63.85000 158.064
63.86000 153.504
63.87000 150.687
63.88000 151.351
63.89000 152.111
63.90000 152.884
63.91000 153.671
63.92000 154.459
63.93000 153.305
63.94000 150.505
63.95000 147.748
63.96000 147.223
63.97000 147.951
63.98000 148.629
63.99000 148.372
64.00000 147.763
64.01000 147.200
64.02000 151.009
64.03000 155.423
64.04000 159.048
64.05000 158.037
64.06000 156.267
64.07000 154.836
64.08000 154.701
64.09000 154.692
64.10000 154.685
64.11000 156.701
64.12000 158.332
64.13000 159.002
64.14000 158.021
64.15000 157.011
64.16000 155.990
64.17000 154.959
64.18000 153.932
64.19000 154.674
64.20000 156.684
64.21000 158.575
64.22000 156.593
64.23000 152.733
64.24000 149.455
64.25000 154.486
64.26000 162.228
64.27000 169.248
64.28000 169.374
64.29000 168.170
64.30000 167.453
64.31000 169.160
64.32000 171.199
64.33000 172.375
64.34000 170.724
64.35000 168.853
64.36000 167.551
64.37000 167.326
64.38000 167.185
64.39000 165.670
64.40000 162.122
64.41000 158.556
64.42000 159.262
64.43000 164.047
64.44000 168.792
64.45000 168.474
64.46000 165.068
64.47000 161.697
64.48000 159.133
64.49000 156.905
64.50000 154.585
64.51000 151.204
64.52000 147.526
64.53000 144.264
64.54000 152.430
64.55000 161.321
64.56000 167.778
64.57000 163.916
64.58000 158.892
64.59000 156.075
64.60000 159.497
64.61000 163.297
64.62000 165.810
64.63000 170.018
64.64000 173.154
64.65000 174.264
64.66000 172.814
64.67000 171.357
64.68000 170.363
64.69000 169.744
64.70000 169.135
64.71000 168.386
64.72000 167.587
64.73000 167.140
64.74000 172.733
64.75000 180.506
64.76000 187.285
64.77000 184.990
64.78000 180.511
64.79000 176.634
64.80000 178.284
64.81000 180.414
64.82000 181.776
64.83000 180.350
64.84000 178.669
64.85000 178.522
64.86000 182.112
64.87000 185.872
64.88000 188.221
64.89000 185.465
64.90000 183.424
64.91000 182.902
64.92000 184.008
64.93000 185.109
64.94000 185.474
64.95000 185.332
64.96000 185.193
64.97000 185.301
64.98000 185.514
64.99000 185.821
65.00000 187.373
65.01000 189.311
65.02000 190.854
65.03000 189.425
65.04000 187.386
65.05000 185.669
65.06000 194.030
65.07000 202.087
65.08000 208.644
65.09000 210.512
65.10000 212.040
65.11000 212.866
65.12000 212.212
65.13000 211.511
65.14000 211.100
65.15000 211.014
65.16000 210.956
65.17000 212.517
65.18000 215.540
65.19000 218.585
65.20000 222.895
65.21000 227.957
65.22000 232.851
65.23000 235.083
65.24000 236.188
65.25000 237.253
65.26000 237.898
65.27000 238.431
65.28000 239.413
65.29000 243.204
65.30000 247.484
65.31000 250.981
65.32000 265.444
65.33000 278.229
65.34000 286.546
65.35000 282.814
65.36000 278.415
65.37000 279.273
65.38000 289.684
65.39000 300.293
65.40000 306.086
65.41000 311.222
65.42000 314.740
65.43000 316.250
65.44000 316.217
65.45000 316.303
65.46000 320.933
65.47000 327.882
65.48000 334.517
65.49000 338.752
65.50000 341.919
65.51000 345.191
65.52000 349.362
65.53000 353.740
65.54000 358.381
65.55000 364.417
65.56000 370.656
65.57000 375.583
65.58000 393.706
65.59000 409.151
65.60000 417.908
65.61000 411.099
65.62000 403.654
65.63000 406.202
65.64000 424.363
65.65000 442.709
65.66000 451.951
65.67000 474.087
65.68000 488.998
65.69000 515.084
65.70000 548.516
65.71000 582.334
65.72000 626.180
65.73000 674.446
65.74000 719.857
65.75000 768.249
65.76000 813.282
65.77000 857.257
65.78000 893.744
65.79000 928.772
65.80000 959.581
65.81000 971.447
65.82000 981.023
65.83000 988.309
65.84000 1001.610
65.85000 1012.389
65.86000 1016.037
65.87000 1005.352
65.88000 994.263
65.89000 987.370
65.90000 986.090
65.91000 984.840
65.92000 963.744
65.93000 925.709
65.94000 887.469
65.95000 838.511
65.96000 783.495
65.97000 728.600
65.98000 675.974
65.99000 624.212
66.00000 576.331
66.01000 523.053
66.02000 473.956
66.03000 428.942
66.04000 408.121
66.05000 391.282
66.06000 374.950
66.07000 360.565
66.08000 346.372
66.09000 336.013
66.10000 327.062
66.11000 320.218
66.12000 313.898
66.13000 308.485
66.14000 303.088
66.15000 299.857
66.16000 299.093
66.17000 298.334
66.18000 295.857
66.19000 292.157
66.20000 288.647
66.21000 291.466
66.22000 297.367
66.23000 303.414
66.24000 311.560
66.25000 320.395
66.26000 328.411
66.27000 334.348
66.28000 339.188
66.29000 344.406
66.30000 351.511
66.31000 358.876
66.32000 367.534
66.33000 380.462
66.34000 393.725
66.35000 402.973
66.36000 408.780
66.37000 413.068
66.38000 417.338
66.39000 421.579
66.40000 425.820
66.41000 427.500
66.42000 426.720
66.43000 425.946
66.44000 423.635
66.45000 420.420
66.46000 417.171
66.47000 413.163
66.48000 408.835
66.49000 404.180
66.50000 395.795
66.51000 386.356
66.52000 377.976
66.53000 365.207
66.54000 353.436
66.55000 342.863
66.56000 337.405
66.57000 332.527
66.58000 326.189
66.59000 315.699
66.60000 304.955
66.61000 297.835
66.62000 296.806
66.63000 296.156
66.64000 295.716
66.65000 295.541
66.66000 295.371
66.67000 296.619
66.68000 299.021
66.69000 301.389
66.70000 300.080
66.71000 296.886
66.72000 293.942
66.73000 295.328
66.74000 298.287
66.75000 301.071
66.76000 302.252
66.77000 303.044
66.78000 303.730
66.79000 305.758
66.80000 307.660
66.81000 309.020
66.82000 308.396
66.83000 307.589
66.84000 308.656
66.85000 314.319
66.86000 320.193
66.87000 323.871
66.88000 327.260
66.89000 329.704
66.90000 331.955
66.91000 333.998
66.92000 336.016
66.93000 334.831
66.94000 331.421
66.95000 328.087
66.96000 327.945
66.97000 329.230
66.98000 330.741
66.99000 335.270
67.00000 340.745
67.01000 345.543
67.02000 345.226
67.03000 343.851
67.04000 342.691
67.05000 346.313
67.06000 349.855
67.07000 352.543
67.08000 352.545
67.09000 352.350
67.10000 352.636
67.11000 353.938
67.12000 355.274
67.13000 356.059
67.14000 358.039
67.15000 359.442
67.16000 362.904
67.17000 368.239
67.18000 373.451
67.19000 370.823
67.20000 363.519
67.21000 356.453
67.22000 352.530
67.23000 350.015
67.24000 348.093
67.25000 352.470
67.26000 358.542
67.27000 364.176
67.28000 367.045
67.29000 369.430
67.30000 371.380
67.31000 375.618
67.32000 379.289
67.33000 380.603
67.34000 375.525
67.35000 370.088
67.36000 370.015
67.37000 379.744
67.38000 389.682
67.39000 395.124
67.40000 392.060
67.41000 389.952
67.42000 390.561
67.43000 393.272
67.44000 396.023
67.45000 400.325
67.46000 405.423
67.47000 410.294
67.48000 408.871
67.49000 405.522
67.50000 402.676
67.51000 404.173
67.52000 406.672
67.53000 410.014
67.54000 417.844
67.55000 426.333
67.56000 433.047
67.57000 423.474
67.58000 414.664
67.59000 408.031
67.60000 406.494
67.61000 405.168
67.62000 412.236
67.63000 432.503
67.64000 452.930
67.65000 463.256
67.66000 449.329
67.67000 440.120
67.68000 441.682
67.69000 450.369
67.70000 458.787
67.71000 460.098
67.72000 458.258
67.73000 456.526
67.74000 456.160
67.75000 456.198
67.76000 456.857
67.77000 461.948
67.78000 467.909
67.79000 473.130
67.80000 475.011
67.81000 476.484
67.82000 477.607
67.83000 485.721
67.84000 492.480
67.85000 496.029
67.86000 493.088
67.87000 489.961
67.88000 486.993
67.89000 484.239
67.90000 481.488
67.91000 486.361
67.92000 497.794
67.93000 509.065
67.94000 511.737
67.95000 509.520
67.96000 507.534
67.97000 509.983
67.98000 514.128
67.99000 517.966
68.00000 526.746
68.01000 535.777
68.02000 543.272
68.03000 541.602
68.04000 538.413
68.05000 537.958
68.06000 548.065
68.07000 559.222
68.08000 567.380
68.09000 568.127
68.10000 568.410
68.11000 569.406
68.12000 571.645
68.13000 573.907
68.14000 575.164
68.15000 575.270
68.16000 575.373
68.17000 573.760
68.18000 570.906
68.19000 568.105
68.20000 567.098
68.21000 566.971
68.22000 567.446
68.23000 576.723
68.24000 588.906
68.25000 599.970
68.26000 613.567
68.27000 626.067
68.28000 635.142
68.29000 626.942
68.30000 616.348
68.31000 608.745
68.32000 611.073
68.33000 614.191
68.34000 616.369
68.35000 634.778
68.36000 649.139
68.37000 657.469
68.38000 656.772
68.39000 655.986
68.40000 659.839
68.41000 668.180
68.42000 676.457
68.43000 686.413
68.44000 697.238
68.45000 707.868
68.46000 713.897
68.47000 717.980
68.48000 722.721
68.49000 735.036
68.50000 749.505
68.51000 762.362
68.52000 765.032
68.53000 765.703
68.54000 772.554
68.55000 805.947
68.56000 842.376
68.57000 874.477
68.58000 894.197
68.59000 913.151
68.60000 925.736
68.61000 981.170
68.62000 1022.942
68.63000 1065.964
68.64000 1110.587
68.65000 1155.213
68.66000 1198.564
68.67000 1240.871
68.68000 1282.584
68.69000 1332.657
68.70000 1385.710
68.71000 1438.469
68.72000 1486.078
68.73000 1531.807
68.74000 1578.845
68.75000 1638.037
68.76000 1700.194
68.77000 1754.100
68.78000 1806.807
68.79000 1851.529
68.80000 1902.689
68.81000 1977.539
68.82000 2054.588
68.83000 2140.287
68.84000 2247.342
68.85000 2355.390
68.86000 2423.205
68.87000 2683.854
68.88000 2874.345
68.89000 3217.195
68.90000 3725.618
68.91000 4238.293
68.92000 5296.088
68.93000 6735.109
68.94000 8142.181
68.95000 10890.778
68.96000 14127.444
68.97000 17440.609
68.98000 21786.166
68.99000 26456.818
69.00000 31090.057
69.01000 35438.031
69.02000 39726.648
69.03000 43346.477
69.04000 46688.840
69.05000 49451.629
69.06000 51778.844
69.07000 52727.719
69.08000 53575.051
69.09000 54206.637
69.10000 54378.301
69.11000 54534.773
69.12000 54626.996
69.13000 55182.707
69.14000 55577.438
69.15000 56059.652
69.16000 56622.051
69.17000 57173.840
69.18000 57036.387
69.19000 56485.313
69.20000 55952.008
69.21000 53752.895
69.22000 51039.594
69.23000 48306.699
69.24000 45363.898
69.25000 42364.250
69.26000 39462.406
69.27000 37181.996
69.28000 35011.152
69.29000 33233.309
69.30000 31531.619
69.31000 30143.326
69.32000 28940.441
69.33000 28243.463
69.34000 27575.186
69.35000 26848.943
69.36000 26016.135
69.37000 25181.012
69.38000 24722.322
69.39000 22261.281
69.40000 20562.762
69.41000 18504.793
69.42000 16167.045
69.43000 13836.406
69.44000 11786.262
69.45000 9881.083
69.46000 8060.059
69.47000 6624.452
69.48000 5413.842
69.49000 4254.489
69.50000 3541.067
69.51000 2931.072
69.52000 2379.888
69.53000 2143.518
69.54000 1953.748
69.55000 1803.449
69.56000 1690.708
69.57000 1602.687
69.58000 1514.355
69.59000 1425.289
69.60000 1336.194
69.61000 1267.443
69.62000 1230.872
69.63000 1194.703
69.64000 1176.356
69.65000 1128.646
69.66000 1096.727
69.67000 1068.965
69.68000 1043.970
69.69000 1019.132
69.70000 998.453
69.71000 979.629
69.72000 961.896
69.73000 941.752
69.74000 922.657
69.75000 902.861
69.76000 878.035
69.77000 852.216
69.78000 829.118
69.79000 818.392
69.80000 809.186
69.81000 802.161
69.82000 795.107
69.83000 789.548
69.84000 782.820
69.85000 773.717
69.86000 764.545
69.87000 752.589
69.88000 736.862
69.89000 721.123
69.90000 711.257
69.91000 706.503
69.92000 701.737
69.93000 696.366
69.94000 690.648
69.95000 684.510
69.96000 670.205
69.97000 652.755
69.98000 636.589
69.99000 640.097
70.00000 647.817
