20.00000 563.966
20.01000 568.336
20.02000 573.331
20.03000 575.810
20.04000 568.524
20.05000 560.259
20.06000 554.207
20.07000 565.908
20.08000 575.647
20.09000 578.470
20.10000 569.184
20.11000 559.675
20.12000 559.579
20.13000 570.329
20.14000 581.058
20.15000 577.350
20.16000 563.087
20.17000 549.341
20.18000 553.359
20.19000 566.123
20.20000 578.147
20.21000 579.256
20.22000 576.743
20.23000 574.460
20.24000 571.895
20.25000 569.572
20.26000 566.863
20.27000 562.190
20.28000 557.243
20.29000 553.726
20.30000 554.979
20.31000 556.615
20.32000 557.759
20.33000 549.157
20.34000 542.378
20.35000 542.836
20.36000 554.183
20.37000 565.637
20.38000 570.962
20.39000 570.324
20.40000 569.691
20.41000 565.914
20.42000 560.244
20.43000 554.724
20.44000 552.777
20.45000 552.350
20.46000 552.097
20.47000 553.860
20.48000 556.200
20.49000 558.281
20.50000 565.584
20.51000 572.771
20.52000 577.635
20.53000 572.471
20.54000 566.152
20.55000 562.594
20.56000 566.968
20.57000 571.838
20.58000 575.077
20.59000 562.260
20.60000 552.477
20.61000 549.194
20.62000 554.271
20.63000 559.370
20.64000 560.155
20.65000 557.386
20.66000 554.655
20.67000 553.999
20.68000 554.461
20.69000 554.879
20.70000 554.548
20.71000 553.941
20.72000 552.721
20.73000 545.773
20.74000 537.421
20.75000 530.171
20.76000 533.873
20.77000 538.498
20.78000 543.682
20.79000 550.931
20.80000 558.374
20.81000 563.507
20.82000 562.911
20.83000 562.047
20.84000 561.504
20.85000 562.203
20.86000 562.723
20.87000 561.094
20.88000 557.116
20.89000 553.171
20.90000 553.859
20.91000 557.804
20.92000 561.663
20.93000 562.371
20.94000 561.630
20.95000 560.781
20.96000 558.450
20.97000 555.649
20.98000 553.333
20.99000 554.731
21.00000 556.905
21.01000 558.742
21.02000 560.958
21.03000 562.851
21.04000 564.646
21.05000 566.124
21.06000 567.578
21.07000 568.283
21.08000 567.382
21.09000 566.428
21.10000 565.865
21.11000 570.462
21.12000 573.736
21.13000 574.009
21.14000 571.517
21.15000 569.044
21.16000 567.803
21.17000 567.304
21.18000 566.821
21.19000 560.922
21.20000 553.269
21.21000 546.632
21.22000 550.959
21.23000 558.271
21.24000 564.822
21.25000 566.513
21.26000 567.342
21.27000 568.022
21.28000 569.259
21.29000 570.324
21.30000 568.870
21.31000 560.512
21.32000 551.758
21.33000 548.031
21.34000 553.591
21.35000 559.355
21.36000 562.529
21.37000 564.712
21.38000 566.209
21.39000 566.302
21.40000 565.298
21.41000 564.437
21.42000 569.303
21.43000 577.143
21.44000 584.640
21.45000 576.317
21.46000 563.418
21.47000 551.433
21.48000 547.456
21.49000 545.347
21.50000 544.253
21.51000 548.626
21.52000 553.812
21.53000 557.925
21.54000 571.753
21.55000 583.556
21.56000 591.283
21.57000 589.359
21.58000 587.027
21.59000 587.135
21.60000 591.125
21.61000 595.164
21.62000 597.218
21.63000 603.926
21.64000 608.443
21.65000 614.976
21.66000 622.856
21.67000 630.573
21.68000 633.847
21.69000 635.130
21.70000 636.340
21.71000 646.837
21.72000 659.014
21.73000 671.781
21.74000 688.815
21.75000 706.696
21.76000 724.377
21.77000 741.138
21.78000 757.785
21.79000 770.506
21.80000 795.795
21.81000 816.415
21.82000 833.777
21.83000 844.482
21.84000 854.990
21.85000 874.719
21.86000 907.008
21.87000 939.349
21.88000 962.131
21.89000 976.536
21.90000 991.091
21.91000 1013.921
21.92000 1041.508
21.93000 1067.937
21.94000 1071.683
21.95000 1066.653
21.96000 1061.991
21.97000 1068.214
21.98000 1076.355
21.99000 1081.889
22.00000 1071.674
22.01000 1058.816
22.02000 1045.870
22.03000 1032.578
22.04000 1019.252
22.05000 1009.477
22.06000 986.362
22.07000 967.966
22.08000 948.094
22.09000 925.625
22.10000 903.107
22.11000 879.156
22.12000 853.543
22.13000 828.006
22.14000 806.345
22.15000 787.709
22.16000 768.915
22.17000 744.627
22.18000 717.617
22.19000 691.363
22.20000 676.361
22.21000 665.115
22.22000 654.887
22.23000 639.343
22.24000 624.553
22.25000 611.808
22.26000 609.498
22.27000 608.653
22.28000 604.687
22.29000 590.243
22.30000 574.951
22.31000 564.232
22.32000 567.304
22.33000 570.024
22.34000 573.675
22.35000 578.736
22.36000 583.810
22.37000 582.716
22.38000 575.578
22.39000 568.492
22.40000 560.250
22.41000 551.421
22.42000 542.753
22.43000 537.994
22.44000 534.907
22.45000 532.184
22.46000 533.728
22.47000 536.497
22.48000 538.963
22.49000 540.879
22.50000 542.454
22.51000 543.522
22.52000 542.389
22.53000 541.000
22.54000 540.470
22.55000 542.421
22.56000 544.528
22.57000 545.932
22.58000 542.008
22.59000 539.001
22.60000 537.631
22.61000 538.382
22.62000 539.144
22.63000 541.033
22.64000 543.858
22.65000 546.644
22.66000 540.528
22.67000 529.839
22.68000 520.064
22.69000 526.640
22.70000 539.250
22.71000 550.010
22.72000 543.343
22.73000 532.378
22.74000 522.851
22.75000 523.618
22.76000 525.664
22.77000 527.252
22.78000 527.134
22.79000 526.856
22.80000 526.000
22.81000 523.705
22.82000 521.341
22.83000 519.852
22.84000 527.359
22.85000 532.896
22.86000 535.265
22.87000 534.148
22.88000 533.002
22.89000 527.962
22.90000 520.168
22.91000 512.542
22.92000 511.594
22.93000 513.714
22.94000 515.667
22.95000 515.340
22.96000 514.286
22.97000 513.140
22.98000 511.283
22.99000 509.277
23.00000 507.581
23.01000 505.724
23.02000 504.152
23.03000 504.122
23.04000 509.020
23.05000 514.288
23.06000 519.576
23.07000 524.908
23.08000 530.240
23.09000 533.399
23.10000 517.346
23.11000 505.889
23.12000 502.086
23.13000 505.382
23.14000 508.609
23.15000 507.150
23.16000 502.846
23.17000 498.678
23.18000 500.110
23.19000 503.625
23.20000 507.056
23.21000 509.556
23.22000 511.802
23.23000 513.746
23.24000 513.749
23.25000 513.405
23.26000 513.123
23.27000 514.933
23.28000 516.605
23.29000 517.758
23.30000 517.477
23.31000 517.114
23.32000 516.062
23.33000 513.732
23.34000 511.374
23.35000 510.071
23.36000 510.425
23.37000 510.678
23.38000 512.445
23.39000 515.406
23.40000 518.146
23.41000 511.881
23.42000 500.912
23.43000 490.417
23.44000 491.411
23.45000 496.105
23.46000 500.737
23.47000 504.823
23.48000 508.781
23.49000 511.783
23.50000 509.609
23.51000 506.657
23.52000 504.314
23.53000 508.960
23.54000 513.195
23.55000 514.899
23.56000 510.576
23.57000 505.995
23.58000 505.930
23.59000 513.088
23.60000 520.340
23.61000 524.042
23.62000 523.581
23.63000 523.273
23.64000 523.091
23.65000 522.993
23.66000 522.762
23.67000 518.866
23.68000 513.317
23.69000 508.084
23.70000 506.147
23.71000 505.289
23.72000 504.224
23.73000 501.658
23.74000 498.793
23.75000 497.079
23.76000 500.666
23.77000 504.913
23.78000 508.163
23.79000 513.088
23.80000 517.065
23.81000 518.533
23.82000 514.842
23.83000 510.996
23.84000 507.283
23.85000 503.752
23.86000 500.224
23.87000 500.517
23.88000 504.165
23.89000 507.713
23.90000 505.607
23.91000 500.232
23.92000 495.165
23.93000 496.196
23.94000 499.600
23.95000 502.758
23.96000 502.735
23.97000 501.967
23.98000 501.012
23.99000 498.914
24.00000 496.622
24.01000 494.756
24.02000 494.562
24.03000 494.538
24.04000 494.521
24.05000 500.742
24.06000 505.808
24.07000 507.793
24.08000 504.320
24.09000 500.743
24.10000 496.525
24.11000 491.559
24.12000 486.607
24.13000 484.580
24.14000 484.742
24.15000 484.816
24.16000 481.775
24.17000 477.183
24.18000 473.540
24.19000 484.168
24.20000 499.589
24.21000 513.625
24.22000 506.544
24.23000 496.108
24.24000 486.458
24.25000 480.846
24.26000 475.805
24.27000 473.340
24.28000 479.574
24.29000 486.518
24.30000 491.396
24.31000 498.055
24.32000 503.149
24.33000 501.676
24.34000 490.202
24.35000 478.622
24.36000 474.004
24.37000 476.251
24.38000 478.483
24.39000 480.182
24.40000 481.519
24.41000 483.113
24.42000 491.047
24.43000 501.708
24.44000 511.464
24.45000 510.531
24.46000 506.508
24.47000 502.923
24.48000 499.329
24.49000 496.202
24.50000 492.549
24.51000 486.588
24.52000 480.358
24.53000 477.069
24.54000 482.332
24.55000 488.141
24.56000 492.022
24.57000 488.731
24.58000 486.152
24.59000 485.315
24.60000 486.749
24.61000 488.184
24.62000 485.782
24.63000 480.178
24.64000 474.648
24.65000 475.423
24.66000 479.557
24.67000 483.377
24.68000 481.522
24.69000 477.559
24.70000 474.667
24.71000 481.937
24.72000 491.729
24.73000 500.245
24.74000 496.374
24.75000 491.380
24.76000 486.444
24.77000 481.723
24.78000 477.023
24.79000 473.414
24.80000 472.545
24.81000 471.807
24.82000 471.341
24.83000 476.902
24.84000 481.003
24.85000 480.569
24.86000 475.114
24.87000 469.716
24.88000 473.061
24.89000 482.628
24.90000 491.993
24.91000 494.468
24.92000 493.701
24.93000 492.795
24.94000 489.955
24.95000 486.495
24.96000 483.216
24.97000 481.335
24.98000 479.750
24.99000 478.409
25.00000 477.019
25.01000 475.849
25.02000 476.260
25.03000 481.756
25.04000 487.637
25.05000 489.902
25.06000 484.331
25.07000 478.490
25.08000 475.021
25.09000 474.062
25.10000 473.398
25.11000 475.761
25.12000 480.952
25.13000 486.069
25.14000 486.026
25.15000 482.833
25.16000 479.739
25.17000 481.739
25.18000 485.610
25.19000 488.800
25.20000 484.516
25.21000 478.172
25.22000 472.993
25.23000 475.359
25.24000 479.081
25.25000 482.140
25.26000 479.612
25.27000 477.032
25.28000 473.704
25.29000 468.301
25.30000 462.777
25.31000 461.307
25.32000 467.415
25.33000 473.696
25.34000 477.175
25.35000 470.082
25.36000 465.177
25.37000 464.059
25.38000 465.943
25.39000 467.750
25.40000 466.375
25.41000 463.328
25.42000 460.411
25.43000 459.629
25.44000 459.604
25.45000 459.755
25.46000 461.470
25.47000 463.553
25.48000 466.526
25.49000 474.355
25.50000 482.918
25.51000 489.727
25.52000 482.474
25.53000 475.627
25.54000 470.757
25.55000 470.622
25.56000 470.692
25.57000 470.590
25.58000 470.209
25.59000 469.825
25.60000 469.628
25.61000 481.160
25.62000 488.858
25.63000 490.677
25.64000 488.516
25.65000 486.073
25.66000 475.794
25.67000 461.962
25.68000 448.909
25.69000 456.032
25.70000 468.211
25.71000 478.928
25.72000 478.921
25.73000 476.756
25.74000 475.931
25.75000 481.309
25.76000 487.465
25.77000 492.184
25.78000 479.723
25.79000 468.932
25.80000 463.726
25.81000 470.068
25.82000 476.762
25.83000 477.608
25.84000 470.386
25.85000 463.118
25.86000 461.817
25.87000 465.794
25.88000 469.657
25.89000 466.863
25.90000 460.197
25.91000 453.800
25.92000 452.802
25.93000 453.918
25.94000 454.953
25.95000 462.849
25.96000 471.589
25.97000 478.200
25.98000 471.768
25.99000 463.117
26.00000 456.469
26.01000 457.743
26.02000 459.831
26.03000 461.368
26.04000 473.400
26.05000 483.146
26.06000 487.307
26.07000 481.510
26.08000 475.519
26.09000 472.177
26.10000 471.947
26.11000 471.724
26.12000 465.611
26.13000 455.136
26.14000 444.949
26.15000 445.172
26.16000 450.612
26.17000 455.865
26.18000 458.277
26.19000 459.730
26.20000 461.053
26.21000 469.096
26.22000 477.555
26.23000 484.582
26.24000 484.200
26.25000 482.761
26.26000 480.576
26.27000 475.858
26.28000 470.931
26.29000 467.464
26.30000 473.369
26.31000 478.122
26.32000 480.699
26.33000 479.943
26.34000 479.151
26.35000 478.370
26.36000 477.602
26.37000 476.839
26.38000 473.427
26.39000 468.387
26.40000 463.499
26.41000 462.415
26.42000 462.975
26.43000 463.348
26.44000 461.489
26.45000 458.981
26.46000 456.745
26.47000 463.430
26.48000 470.727
26.49000 475.803
26.50000 471.102
26.51000 465.248
26.52000 462.269
26.53000 467.703
26.54000 473.679
26.55000 477.680
26.56000 475.015
26.57000 472.905
26.58000 470.654
26.59000 468.217
26.60000 465.778
26.61000 463.073
26.62000 460.146
26.63000 457.256
26.64000 453.855
26.65000 450.269
26.66000 446.910
26.67000 447.695
26.68000 450.027
26.69000 452.923
26.70000 461.205
26.71000 470.832
26.72000 479.215
26.73000 467.142
26.74000 454.020
26.75000 442.296
26.76000 435.836
26.77000 429.881
26.78000 429.131
26.79000 441.525
26.80000 454.559
26.81000 462.814
26.82000 468.923
26.83000 473.328
26.84000 475.651
26.85000 475.652
26.86000 475.634
26.87000 472.838
26.88000 468.053
26.89000 463.368
26.90000 457.792
26.91000 452.023
26.92000 447.273
26.93000 456.797
26.94000 470.919
26.95000 483.269
26.96000 481.716
26.97000 477.196
26.98000 473.365
26.99000 469.460
27.00000 466.178
27.01000 463.160
27.02000 460.993
27.03000 458.892
27.04000 458.119
27.05000 460.241
27.06000 462.464
27.07000 463.788
27.08000 452.702
27.09000 444.775
27.10000 442.578
27.11000 445.772
27.12000 448.886
27.13000 446.355
27.14000 440.357
27.15000 434.542
27.16000 445.429
27.17000 462.271
27.18000 477.217
27.19000 471.159
27.20000 459.279
27.21000 449.299
27.22000 451.725
27.23000 456.395
27.24000 460.237
27.25000 466.489
27.26000 471.849
27.27000 472.710
27.28000 461.020
27.29000 448.586
27.30000 440.425
27.31000 440.301
27.32000 440.364
27.33000 440.399
27.34000 448.671
27.35000 454.385
27.36000 453.882
27.37000 448.420
27.38000 443.217
27.39000 448.932
27.40000 460.420
27.41000 471.423
27.42000 468.721
27.43000 461.647
27.44000 455.111
27.45000 453.403
27.46000 452.841
27.47000 450.863
27.48000 441.106
27.49000 430.165
27.50000 421.453
27.51000 433.087
27.52000 443.935
27.53000 451.563
27.54000 451.436
27.55000 450.966
27.56000 449.710
27.57000 447.181
27.58000 444.634
27.59000 443.325
27.60000 439.799
27.61000 437.460
27.62000 438.942
27.63000 443.028
27.64000 446.963
27.65000 446.633
27.66000 444.357
27.67000 442.208
27.68000 446.324
27.69000 451.865
27.70000 456.661
27.71000 455.949
27.72000 454.122
27.73000 451.188
27.74000 443.093
27.75000 434.346
27.76000 427.630
27.77000 435.149
27.78000 441.888
27.79000 446.920
27.80000 448.400
27.81000 449.770
27.82000 449.730
27.83000 447.733
27.84000 445.724
27.85000 443.658
27.86000 441.542
27.87000 439.431
27.88000 437.565
27.89000 435.842
27.90000 433.899
27.91000 427.476
27.92000 419.290
27.93000 411.686
27.94000 419.191
27.95000 429.559
27.96000 438.450
27.97000 438.233
27.98000 436.454
27.99000 435.178
28.00000 435.905
28.01000 436.840
28.02000 437.529
28.03000 437.600
28.04000 437.629
28.05000 436.677
28.06000 433.964
28.07000 431.216
28.08000 429.879
28.09000 430.212
28.10000 430.546
28.11000 433.652
28.12000 438.824
28.13000 443.971
28.14000 448.211
28.15000 451.995
28.16000 455.418
28.17000 453.322
28.18000 449.350
28.19000 445.729
28.20000 446.933
28.21000 448.965
28.22000 450.140
28.23000 446.851
28.24000 442.922
28.25000 440.396
28.26000 442.665
28.27000 445.334
28.28000 447.215
28.29000 444.161
28.30000 441.696
28.31000 440.368
28.32000 440.792
28.33000 441.236
28.34000 440.281
28.35000 437.927
28.36000 435.588
28.37000 432.756
28.38000 429.652
28.39000 426.828
28.40000 431.090
28.41000 438.435
28.42000 445.155
28.43000 444.365
28.44000 441.375
28.45000 438.707
28.46000 436.233
28.47000 434.111
28.48000 432.306
28.49000 431.910
28.50000 431.680
28.51000 430.963
28.52000 428.811
28.53000 426.565
28.54000 425.058
28.55000 433.143
28.56000 439.339
28.57000 443.763
28.58000 445.847
28.59000 447.909
28.60000 443.338
28.61000 433.161
28.62000 423.112
28.63000 427.525
28.64000 439.681
28.65000 450.931
28.66000 445.418
28.67000 433.606
28.68000 422.953
28.69000 423.487
28.70000 426.832
28.71000 429.748
28.72000 430.050
28.73000 429.946
28.74000 430.339
28.75000 432.617
28.76000 435.077
28.77000 436.086
28.78000 433.406
28.79000 430.545
28.80000 428.729
28.81000 424.557
28.82000 421.500
28.83000 422.785
28.84000 428.945
28.85000 435.063
28.86000 434.049
28.87000 427.895
28.88000 421.867
28.89000 419.425
28.90000 418.736
28.91000 418.464
28.92000 424.096
28.93000 431.643
28.94000 437.478
28.95000 429.773
28.96000 419.162
28.97000 410.157
28.98000 420.886
28.99000 432.126
29.00000 440.330
29.01000 438.647
29.02000 436.201
29.03000 434.532
29.04000 434.569
29.05000 434.666
29.06000 434.723
29.07000 428.265
29.08000 423.645
29.09000 421.082
29.10000 420.469
29.11000 419.806
29.12000 415.480
29.13000 408.891
29.14000 402.501
29.15000 405.468
29.16000 411.962
29.17000 418.205
29.18000 421.636
29.19000 424.282
29.20000 426.480
29.21000 425.729
29.22000 424.441
29.23000 423.380
29.24000 429.171
29.25000 434.565
29.26000 437.896
29.27000 435.435
29.28000 432.626
29.29000 430.846
29.30000 431.012
29.31000 431.223
29.32000 431.341
29.33000 413.863
29.34000 401.770
29.35000 401.977
29.36000 412.057
29.37000 421.943
29.38000 423.484
29.39000 420.587
29.40000 417.810
29.41000 417.550
29.42000 418.149
29.43000 419.146
29.44000 423.745
29.45000 429.206
29.46000 433.234
29.47000 429.339
29.48000 424.230
29.49000 420.156
29.50000 423.272
29.51000 426.311
29.52000 426.299
29.53000 418.894
29.54000 411.160
29.55000 406.692
29.56000 407.546
29.57000 408.475
29.58000 408.954
29.59000 411.650
29.60000 413.478
29.61000 416.727
29.62000 420.950
29.63000 425.190
29.64000 429.874
29.65000 434.762
29.66000 439.381
29.67000 437.647
29.68000 434.253
29.69000 431.178
29.70000 430.481
29.71000 430.270
29.72000 430.679
29.73000 434.003
29.74000 437.697
29.75000 440.538
29.76000 441.644
29.77000 442.420
29.78000 442.774
29.79000 442.243
29.80000 441.685
29.81000 441.378
29.82000 441.424
29.83000 441.473
29.84000 438.695
29.85000 433.385
29.86000 428.273
29.87000 435.047
29.88000 448.819
29.89000 461.838
29.90000 459.379
29.91000 450.788
29.92000 442.802
29.93000 446.926
29.94000 453.551
29.95000 459.129
29.96000 458.198
29.97000 456.144
29.98000 455.874
29.99000 462.753
30.00000 470.377
30.01000 476.009
30.02000 460.168
30.03000 446.978
30.04000 439.264
30.05000 441.430
30.06000 443.797
30.07000 444.472
30.08000 443.131
30.09000 441.790
30.10000 440.122
30.11000 438.217
30.12000 436.291
30.13000 433.550
30.14000 430.395
30.15000 427.760
30.16000 433.183
30.17000 441.362
30.18000 448.824
30.19000 444.928
30.20000 439.183
30.21000 434.664
30.22000 436.573
30.23000 439.412
30.24000 441.795
30.25000 442.609
30.26000 443.290
30.27000 443.772
30.28000 438.590
30.29000 434.482
30.30000 430.547
30.31000 426.878
30.32000 423.212
30.33000 424.816
30.34000 431.730
30.35000 438.598
30.36000 440.579
30.37000 439.389
30.38000 438.121
30.39000 434.873
30.40000 430.758
30.41000 426.914
30.42000 426.356
30.43000 426.766
30.44000 427.132
30.45000 438.708
30.46000 450.681
30.47000 459.399
30.48000 453.612
30.49000 446.086
30.50000 438.618
30.51000 431.320
30.52000 424.033
30.53000 419.134
30.54000 424.654
30.55000 428.970
30.56000 433.472
30.57000 438.222
30.58000 442.966
30.59000 443.674
30.60000 440.944
30.61000 438.248
30.62000 440.890
30.63000 446.383
30.64000 451.769
30.65000 455.163
30.66000 457.803
30.67000 460.068
30.68000 458.672
30.69000 456.350
30.70000 454.324
30.71000 463.904
30.72000 473.718
30.73000 481.429
30.74000 481.121
30.75000 480.030
30.76000 478.667
30.77000 476.611
30.78000 474.521
30.79000 473.191
30.80000 493.227
30.81000 508.054
30.82000 514.976
30.83000 512.965
30.84000 510.976
30.85000 513.876
30.86000 520.323
30.87000 526.641
30.88000 531.599
30.89000 535.735
30.90000 540.546
30.91000 554.998
30.92000 572.593
30.93000 590.886
30.94000 614.747
30.95000 639.810
30.96000 661.104
30.97000 707.677
30.98000 749.662
30.99000 789.977
31.00000 824.814
31.01000 859.224
31.02000 908.160
31.03000 989.144
31.04000 1071.282
31.05000 1120.440
31.06000 1241.889
31.07000 1328.566
31.08000 1437.612
31.09000 1567.987
31.10000 1698.297
31.11000 1823.836
31.12000 1946.407
31.13000 2065.334
31.14000 2220.963
31.15000 2383.076
31.16000 2543.997
31.17000 2691.478
31.18000 2835.187
31.19000 2976.715
31.20000 3103.798
31.21000 3228.233
31.22000 3330.891
31.23000 3423.857
31.24000 3499.515
31.25000 3563.751
31.26000 3595.726
31.27000 3625.749
31.28000 3641.547
31.29000 3630.267
31.30000 3618.333
31.31000 3611.664
31.32000 3509.509
31.33000 3438.501
31.34000 3349.024
31.35000 3244.622
31.36000 3139.667
31.37000 3010.503
31.38000 2868.386
31.39000 2732.127
31.40000 2591.934
31.41000 2459.703
31.42000 2323.973
31.43000 2156.337
31.44000 1981.024
31.45000 1813.698
31.46000 1690.832
31.47000 1574.828
31.48000 1482.202
31.49000 1368.261
31.50000 1274.675
31.51000 1185.034
31.52000 1105.014
31.53000 1025.428
31.54000 951.888
31.55000 888.257
31.56000 824.769
31.57000 791.931
31.58000 742.887
31.59000 709.845
31.60000 680.538
31.61000 653.808
31.62000 627.310
31.63000 607.521
31.64000 590.830
31.65000 575.049
31.66000 563.196
31.67000 553.427
31.68000 542.814
31.69000 525.863
31.70000 507.612
31.71000 491.587
31.72000 486.072
31.73000 481.906
31.74000 478.698
31.75000 473.718
31.76000 469.673
31.77000 466.310
31.78000 464.380
31.79000 462.495
31.80000 459.195
31.81000 453.905
31.82000 448.603
31.83000 447.155
31.84000 449.188
31.85000 451.192
31.86000 451.335
31.87000 450.376
31.88000 449.153
31.89000 442.419
31.90000 433.490
31.91000 425.184
31.92000 423.738
31.93000 424.089
31.94000 424.967
31.95000 429.148
31.96000 433.903
31.97000 437.140
31.98000 434.258
31.99000 430.731
32.00000 428.122
32.01000 424.963
32.02000 422.488
32.03000 424.103
32.04000 433.141
32.05000 442.334
32.06000 442.427
32.07000 431.613
32.08000 420.803
32.09000 414.541
32.10000 411.790
32.11000 409.053
32.12000 406.901
32.13000 405.048
32.14000 403.177
32.15000 401.018
32.16000 398.760
32.17000 396.699
32.18000 403.291
32.19000 410.899
32.20000 417.519
32.21000 418.922
32.22000 419.564
32.23000 418.146
32.24000 409.599
32.25000 400.449
32.26000 393.973
32.27000 402.052
32.28000 408.642
32.29000 410.163
32.30000 403.772
32.31000 397.288
32.32000 393.351
32.33000 391.995
32.34000 390.649
32.35000 391.305
32.36000 393.249
32.37000 394.978
32.38000 391.118
32.39000 384.796
32.40000 379.601
32.41000 388.216
32.42000 400.923
32.43000 412.285
32.44000 406.220
32.45000 397.974
32.46000 393.639
32.47000 406.845
32.48000 422.170
32.49000 429.739
32.50000 414.205
32.51000 397.133
32.52000 385.632
32.53000 382.538
32.54000 380.413
32.55000 381.538
32.56000 387.008
32.57000 392.492
32.58000 393.229
32.59000 389.898
32.60000 386.607
32.61000 383.004
32.62000 379.319
32.63000 375.836
32.64000 376.180
32.65000 377.978
32.66000 379.693
32.67000 380.594
32.68000 381.287
32.69000 381.893
32.70000 378.470
32.71000 374.972
32.72000 372.924
32.73000 376.433
32.74000 380.489
32.75000 382.215
32.76000 377.949
32.77000 373.381
32.78000 370.467
32.79000 375.591
32.80000 379.421
32.81000 377.961
32.82000 370.485
32.83000 363.039
32.84000 361.778
32.85000 365.031
32.86000 368.219
32.87000 368.354
32.88000 367.053
32.89000 366.034
32.90000 369.087
32.91000 373.477
32.92000 376.805
32.93000 371.609
32.94000 364.558
32.95000 358.561
32.96000 356.510
32.97000 355.243
32.98000 355.051
32.99000 358.402
33.00000 362.031
33.01000 364.224
33.02000 363.226
33.03000 362.112
33.04000 361.444
33.05000 365.779
33.06000 368.891
33.07000 371.404
33.08000 373.341
33.09000 375.216
33.10000 372.272
33.11000 366.314
33.12000 360.531
33.13000 360.507
33.14000 362.780
33.15000 364.821
33.16000 364.219
33.17000 362.871
33.18000 361.553
33.19000 360.438
33.20000 359.362
33.21000 358.473
33.22000 362.142
33.23000 365.591
33.24000 366.087
33.25000 358.193
33.26000 349.786
33.27000 343.290
33.28000 340.456
33.29000 337.712
33.30000 336.174
33.31000 343.055
33.32000 347.834
33.33000 348.416
33.34000 345.584
33.35000 342.816
33.36000 342.873
33.37000 344.452
33.38000 345.966
33.39000 346.263
33.40000 346.127
33.41000 346.199
33.42000 348.176
33.43000 350.614
33.44000 353.645
33.45000 360.000
33.46000 366.872
33.47000 372.367
33.48000 371.320
33.49000 369.988
33.50000 364.749
33.51000 349.927
33.52000 334.667
33.53000 326.847
33.54000 331.292
33.55000 335.920
33.56000 338.321
33.57000 330.367
33.58000 325.064
33.59000 328.527
33.60000 338.076
33.61000 347.452
33.62000 351.730
33.63000 353.641
33.64000 355.448
33.65000 355.237
33.66000 354.463
33.67000 353.607
33.68000 352.134
33.69000 350.534
33.70000 348.713
33.71000 345.845
33.72000 342.841
33.73000 340.525
33.74000 347.400
33.75000 353.378
33.76000 357.585
33.77000 358.040
33.78000 358.373
33.79000 356.306
33.80000 350.842
33.81000 345.356
33.82000 340.869
33.83000 337.293
33.84000 333.765
33.85000 333.275
33.86000 334.597
33.87000 335.751
33.88000 333.377
33.89000 329.590
33.90000 326.064
33.91000 326.387
33.92000 327.614
33.93000 329.487
33.94000 335.423
33.95000 342.071
33.96000 347.757
33.97000 349.545
33.98000 350.918
33.99000 351.935
34.00000 341.644
34.01000 333.161
34.02000 327.457
34.03000 326.829
34.04000 326.308
34.05000 329.208
34.06000 336.236
34.07000 343.257
34.08000 346.195
34.09000 345.979
34.10000 345.781
34.11000 346.273
34.12000 347.118
34.13000 347.723
34.14000 344.507
34.15000 339.969
34.16000 335.822
34.17000 326.895
34.18000 317.989
34.19000 311.773
34.20000 319.849
34.21000 330.023
34.22000 339.145
34.23000 344.604
34.24000 349.749
34.25000 353.397
34.26000 335.493
34.27000 321.202
34.28000 316.284
34.29000 326.087
34.30000 336.068
34.31000 339.443
34.32000 336.071
34.33000 332.719
34.34000 331.974
34.35000 332.937
34.36000 333.787
34.37000 331.670
34.38000 328.238
34.39000 325.511
34.40000 331.484
34.41000 340.052
34.42000 347.720
34.43000 336.831
34.44000 324.158
34.45000 314.484
34.46000 318.350
34.47000 323.865
34.48000 327.632
34.49000 326.162
34.50000 324.340
34.51000 323.111
34.52000 321.874
34.53000 320.954
34.54000 319.672
34.55000 317.904
34.56000 316.136
34.57000 315.950
34.58000 317.128
34.59000 318.293
34.60000 319.585
34.61000 320.917
34.62000 322.459
34.63000 328.025
34.64000 335.131
34.65000 341.298
34.66000 338.159
34.67000 332.638
34.68000 327.811
34.69000 324.524
34.70000 321.926
34.71000 320.789
34.72000 325.292
34.73000 330.355
34.74000 332.914
34.75000 328.998
34.76000 324.751
34.77000 322.036
34.78000 309.279
34.79000 299.861
34.80000 302.148
34.81000 317.841
34.82000 333.471
34.83000 335.526
34.84000 327.611
34.85000 319.849
34.86000 317.914
34.87000 318.799
34.88000 319.742
34.89000 321.547
34.90000 323.636
34.91000 326.215
34.92000 332.764
34.93000 340.182
34.94000 346.498
34.95000 335.636
34.96000 324.504
34.97000 316.908
34.98000 321.038
34.99000 326.099
35.00000 327.462
35.01000 320.570
35.02000 313.373
35.03000 309.042
35.04000 312.357
35.05000 314.766
35.06000 315.449
35.07000 314.464
35.08000 313.506
35.09000 314.624
35.10000 317.051
35.11000 319.407
35.12000 321.250
35.13000 322.795
35.14000 324.150
35.15000 323.326
35.16000 321.882
35.17000 320.736
35.18000 321.590
35.19000 322.815
35.20000 323.829
35.21000 325.292
35.22000 326.542
35.23000 326.100
35.24000 320.826
35.25000 315.254
35.26000 311.153
35.27000 309.888
35.28000 308.693
35.29000 308.022
35.30000 310.213
35.31000 311.740
35.32000 312.601
35.33000 312.917
35.34000 313.222
35.35000 312.987
35.36000 312.461
35.37000 311.956
35.38000 311.168
35.39000 310.334
35.40000 309.957
35.41000 313.813
35.42000 318.702
35.43000 321.709
35.44000 314.101
35.45000 304.830
35.46000 297.408
35.47000 303.634
35.48000 309.694
35.49000 312.758
35.50000 308.432
35.51000 303.763
35.52000 301.630
35.53000 303.704
35.54000 305.842
35.55000 306.955
35.56000 314.169
35.57000 319.011
35.58000 319.247
35.59000 316.265
35.60000 313.388
35.61000 313.645
35.62000 315.366
35.63000 316.995
35.64000 314.341
35.65000 310.661
35.66000 307.240
35.67000 305.802
35.68000 304.775
35.69000 303.870
35.70000 303.544
35.71000 303.293
35.72000 303.100
35.73000 298.391
35.74000 294.394
35.75000 298.274
35.76000 318.935
35.77000 340.149
35.78000 348.101
35.79000 337.173
35.80000 326.108
35.81000 318.995
35.82000 315.504
35.83000 312.028
35.84000 309.472
35.85000 307.467
35.86000 305.573
35.87000 306.049
35.88000 307.482
35.89000 308.816
35.90000 306.499
35.91000 303.509
35.92000 301.132
35.93000 302.641
35.94000 304.835
35.95000 306.896
35.96000 308.415
35.97000 309.876
35.98000 310.960
35.99000 303.366
36.00000 297.083
36.01000 291.754
36.02000 288.178
36.03000 284.640
36.04000 286.793
36.05000 295.858
36.06000 304.920
36.07000 306.922
36.08000 303.454
36.09000 300.078
36.10000 300.313
36.11000 302.413
36.12000 304.096
36.13000 299.093
36.14000 291.762
36.15000 285.057
36.16000 288.051
36.17000 292.709
36.18000 296.974
36.19000 299.136
36.20000 300.988
36.21000 304.013
36.22000 311.144
36.23000 318.629
36.24000 323.947
36.25000 319.372
36.26000 315.575
36.27000 310.212
36.28000 302.374
36.29000 294.505
36.30000 295.404
36.31000 305.318
36.32000 315.175
36.33000 320.594
36.34000 323.029
36.35000 325.399
36.36000 326.041
36.37000 325.914
36.38000 325.509
36.39000 321.629
36.40000 316.708
36.41000 312.300
36.42000 308.163
36.43000 304.598
36.44000 301.279
36.45000 299.080
36.46000 297.019
36.47000 296.787
36.48000 302.068
36.49000 307.724
36.50000 311.550
36.51000 307.803
36.52000 304.847
36.53000 304.785
36.54000 308.642
36.55000 312.513
36.56000 310.483
36.57000 303.328
36.58000 296.257
36.59000 294.719
36.60000 296.305
36.61000 297.785
36.62000 297.225
36.63000 295.879
36.64000 294.598
36.65000 293.967
36.66000 293.503
36.67000 293.098
36.68000 300.430
36.69000 307.821
36.70000 314.122
36.71000 316.191
36.72000 317.836
36.73000 316.611
36.74000 307.918
36.75000 298.841
36.76000 293.024
36.77000 302.502
36.78000 309.613
36.79000 313.558
36.80000 313.853
36.81000 314.132
36.82000 312.422
36.83000 309.242
36.84000 306.123
36.85000 307.154
36.86000 310.118
36.87000 312.966
36.88000 314.110
36.89000 314.688
36.90000 314.961
36.91000 312.743
36.92000 309.976
36.93000 307.616
36.94000 311.777
36.95000 316.042
36.96000 317.722
36.97000 310.778
36.98000 303.143
36.99000 299.113
37.00000 303.181
37.01000 307.554
37.02000 310.191
37.03000 303.406
37.04000 298.509
37.05000 300.202
37.06000 308.310
37.07000 316.311
37.08000 315.741
37.09000 309.743
37.10000 303.916
37.11000 297.276
37.12000 290.639
37.13000 284.390
37.14000 282.627
37.15000 282.146
37.16000 282.348
37.17000 287.170
37.18000 292.856
37.19000 297.565
37.20000 304.217
37.21000 309.891
37.22000 313.877
37.23000 313.007
37.24000 311.833
37.25000 310.473
37.26000 308.750
37.27000 307.018
37.28000 306.042
37.29000 300.865
37.30000 297.274
37.31000 300.859
37.32000 310.358
37.33000 319.644
37.34000 319.040
37.35000 313.048
37.36000 307.294
37.37000 303.747
37.38000 301.185
37.39000 299.050
37.40000 300.898
37.41000 303.723
37.42000 304.945
37.43000 297.062
37.44000 287.743
37.45000 280.271
37.46000 282.948
37.47000 285.884
37.48000 289.038
37.49000 292.734
37.50000 296.455
37.51000 300.464
37.52000 304.954
37.53000 309.450
37.54000 311.799
37.55000 307.018
37.56000 303.769
37.57000 299.037
37.58000 293.262
37.59000 287.649
37.60000 286.957
37.61000 288.578
37.62000 290.113
37.63000 293.992
37.64000 298.246
37.65000 302.183
37.66000 303.678
37.67000 304.663
37.68000 305.446
37.69000 305.254
37.70000 304.935
37.71000 304.688
37.72000 308.073
37.73000 310.974
37.74000 312.481
37.75000 310.999
37.76000 309.416
37.77000 308.166
37.78000 307.390
37.79000 306.618
37.80000 303.366
37.81000 297.831
37.82000 292.405
37.83000 294.252
37.84000 300.487
37.85000 306.191
37.86000 300.397
37.87000 289.939
37.88000 280.191
37.89000 283.540
37.90000 289.799
37.91000 294.564
37.92000 289.783
37.93000 283.309
37.94000 279.566
37.95000 287.042
37.96000 295.730
37.97000 302.190
37.98000 304.413
37.99000 305.952
38.00000 304.919
38.01000 299.133
38.02000 293.242
38.03000 290.389
38.04000 291.251
38.05000 292.120
38.06000 295.679
38.07000 301.314
38.08000 306.871
38.09000 309.302
38.10000 310.109
38.11000 310.794
38.12000 309.510
38.13000 307.537
38.14000 305.731
38.15000 303.264
38.16000 300.933
38.17000 298.752
38.18000 297.378
38.19000 296.125
38.20000 296.195
38.21000 300.929
38.22000 306.069
38.23000 309.727
38.24000 311.224
38.25000 312.294
38.26000 316.036
38.27000 324.025
38.28000 332.068
38.29000 337.986
38.30000 341.705
38.31000 345.402
38.32000 348.831
38.33000 352.038
38.34000 355.498
38.35000 365.776
38.36000 379.111
38.37000 392.074
38.38000 400.344
38.39000 407.197
38.40000 413.342
38.41000 411.666
38.42000 408.846
38.43000 407.808
38.44000 414.926
38.45000 423.051
38.46000 431.922
38.47000 443.050
38.48000 454.334
38.49000 461.983
38.50000 464.703
38.51000 466.623
38.52000 470.820
38.53000 478.118
38.54000 485.422
38.55000 481.787
38.56000 468.591
38.57000 455.544
38.58000 457.903
38.59000 468.854
38.60000 479.430
38.61000 482.639
38.62000 482.997
38.63000 482.549
38.64000 473.981
38.65000 463.309
38.66000 453.961
38.67000 451.942
38.68000 451.266
38.69000 450.480
38.70000 449.259
38.71000 447.995
38.72000 443.666
38.73000 431.317
38.74000 418.548
38.75000 410.348
38.76000 408.610
38.77000 407.431
38.78000 402.749
38.79000 394.000
38.80000 385.244
38.81000 376.170
38.82000 366.860
38.83000 357.723
38.84000 354.246
38.85000 353.597
38.86000 352.433
38.87000 343.595
38.88000 332.194
38.89000 321.815
38.90000 319.839
38.91000 319.726
38.92000 319.630
38.93000 313.748
38.94000 308.112
38.95000 303.277
38.96000 301.133
38.97000 299.207
38.98000 299.662
38.99000 305.493
39.00000 311.530
39.01000 315.181
39.02000 304.677
39.03000 297.089
39.04000 289.547
39.05000 282.051
39.06000 274.631
39.07000 273.480
39.08000 276.324
39.09000 279.088
39.10000 281.632
39.11000 283.961
39.12000 285.833
39.13000 282.353
39.14000 277.333
39.15000 272.661
39.16000 270.354
39.17000 268.493
39.18000 266.950
39.19000 271.645
39.20000 276.122
39.21000 280.001
39.22000 282.150
39.23000 284.191
39.24000 284.283
39.25000 280.578
39.26000 276.775
39.27000 274.625
39.28000 273.305
39.29000 272.387
39.30000 270.482
39.31000 267.759
39.32000 265.129
39.33000 266.878
39.34000 271.028
39.35000 275.015
39.36000 278.483
39.37000 281.550
39.38000 284.089
39.39000 281.660
39.40000 278.005
39.41000 275.647
39.42000 280.707
39.43000 286.946
39.44000 291.955
39.45000 289.197
39.46000 286.369
39.47000 283.109
39.48000 278.770
39.49000 274.380
39.50000 272.284
39.51000 274.042
39.52000 275.861
39.53000 276.815
39.54000 272.344
39.55000 269.305
39.56000 264.933
39.57000 259.618
39.58000 254.457
39.59000 254.018
39.60000 255.813
39.61000 257.513
39.62000 260.356
39.63000 263.310
39.64000 266.101
39.65000 267.638
39.66000 268.911
39.67000 268.347
39.68000 258.885
39.69000 248.243
39.70000 239.999
39.71000 251.724
39.72000 262.226
39.73000 268.532
39.74000 265.792
39.75000 262.744
39.76000 263.467
39.77000 269.625
39.78000 275.825
39.79000 278.256
39.80000 277.187
39.81000 276.104
39.82000 274.107
39.83000 271.553
39.84000 268.879
39.85000 263.575
39.86000 257.198
39.87000 251.249
39.88000 254.168
39.89000 259.011
39.90000 263.275
39.91000 263.810
39.92000 263.679
39.93000 263.951
39.94000 265.888
39.95000 268.007
39.96000 269.584
39.97000 273.576
39.98000 276.791
39.99000 277.870
40.00000 274.977
40.01000 271.995
40.02000 269.252
40.03000 266.806
40.04000 264.364
40.05000 261.298
40.06000 257.756
40.07000 254.371
40.08000 257.347
40.09000 263.649
40.10000 269.483
40.11000 267.658
40.12000 263.135
40.13000 258.991
40.14000 261.686
40.15000 265.512
40.16000 267.838
40.17000 262.030
40.18000 255.001
40.19000 252.011
40.20000 263.341
40.21000 275.930
40.22000 284.906
40.23000 277.536
40.24000 271.382
40.25000 268.065
40.26000 269.284
40.27000 270.563
40.28000 270.652
40.29000 269.499
40.30000 268.353
40.31000 268.251
40.32000 268.845
40.33000 269.241
40.34000 264.200
40.35000 256.708
40.36000 249.632
40.37000 247.853
40.38000 247.681
40.39000 247.527
40.40000 244.523
40.41000 241.399
40.42000 239.628
40.43000 244.087
40.44000 249.322
40.45000 254.164
40.46000 257.804
40.47000 261.361
40.48000 263.777
40.49000 262.690
40.50000 261.800
40.51000 260.500
40.52000 258.639
40.53000 256.774
40.54000 255.608
40.55000 255.056
40.56000 254.511
40.57000 256.216
40.58000 259.154
40.59000 261.817
40.60000 259.023
40.61000 254.102
40.62000 249.551
40.63000 248.746
40.64000 248.919
40.65000 249.071
40.66000 252.903
40.67000 256.728
40.68000 260.579
40.69000 264.531
40.70000 268.493
40.71000 269.303
40.72000 261.814
40.73000 253.886
40.74000 248.783
40.75000 242.859
40.76000 238.523
40.77000 239.387
40.78000 246.325
40.79000 253.252
40.80000 256.176
40.81000 256.102
40.82000 256.030
40.83000 259.090
40.84000 263.546
40.85000 267.590
40.86000 265.421
40.87000 261.164
40.88000 257.051
40.89000 254.132
40.90000 251.479
40.91000 249.212
40.92000 250.597
40.93000 252.200
40.94000 253.520
40.95000 253.885
40.96000 254.172
40.97000 254.307
40.98000 254.096
40.99000 253.871
41.00000 253.735
41.01000 249.807
41.02000 246.977
41.03000 249.625
41.04000 257.679
41.05000 265.621
41.06000 263.950
41.07000 256.116
41.08000 248.499
41.09000 250.515
41.10000 256.375
41.11000 261.563
41.12000 258.806
41.13000 253.751
41.14000 249.839
41.15000 253.773
41.16000 259.196
41.17000 263.697
41.18000 260.963
41.19000 258.003
41.20000 255.073
41.21000 252.234
41.22000 249.399
41.23000 246.890
41.24000 245.019
41.25000 243.165
41.26000 242.114
41.27000 239.315
41.28000 237.367
41.29000 238.189
41.30000 241.324
41.31000 244.479
41.32000 248.587
41.33000 253.221
41.34000 257.676
41.35000 252.671
41.36000 244.690
41.37000 237.519
41.38000 238.043
41.39000 240.478
41.40000 243.372
41.41000 248.913
41.42000 254.876
41.43000 259.671
41.44000 253.781
41.45000 248.181
41.46000 243.528
41.47000 241.256
41.48000 239.099
41.49000 237.806
41.50000 237.976
41.51000 238.169
41.52000 238.270
41.53000 247.611
41.54000 253.918
41.55000 255.764
41.56000 254.434
41.57000 252.950
41.58000 246.615
41.59000 237.975
41.60000 229.781
41.61000 230.608
41.62000 234.034
41.63000 237.486
41.64000 241.141
41.65000 244.839
41.66000 247.969
41.67000 248.333
41.68000 248.328
41.69000 248.324
41.70000 247.872
41.71000 247.486
41.72000 247.702
41.73000 249.221
41.74000 250.786
41.75000 251.122
41.76000 249.675
41.77000 248.214
41.78000 246.167
41.79000 243.574
41.80000 240.963
41.81000 237.148
41.82000 232.596
41.83000 228.296
41.84000 229.575
41.85000 233.143
41.86000 236.475
41.87000 239.705
41.88000 242.608
41.89000 244.648
41.90000 241.092
41.91000 236.530
41.92000 232.701
41.93000 231.919
41.94000 231.472
41.95000 231.138
41.96000 231.633
41.97000 232.057
41.98000 233.450
41.99000 236.657
42.00000 239.906
42.01000 241.819
42.02000 242.078
42.03000 242.331
42.04000 240.588
42.05000 237.278
42.06000 234.043
42.07000 233.955
42.08000 235.523
42.09000 237.052
42.10000 237.954
42.11000 238.634
42.12000 239.257
42.13000 237.553
42.14000 235.546
42.15000 233.710
42.16000 232.812
42.17000 232.054
42.18000 231.697
42.19000 232.766
42.20000 233.962
42.21000 234.816
42.22000 230.678
42.23000 227.354
42.24000 228.344
42.25000 236.280
42.26000 244.308
42.27000 244.922
42.28000 237.750
42.29000 230.616
42.30000 228.740
42.31000 230.408
42.32000 232.157
42.33000 236.196
42.34000 241.274
42.35000 246.074
42.36000 247.316
42.37000 247.471
42.38000 247.611
42.39000 244.181
42.40000 240.552
42.41000 237.722
42.42000 238.598
42.43000 239.938
42.44000 240.208
42.45000 237.192
42.46000 233.947
42.47000 231.737
42.48000 234.354
42.49000 236.418
42.50000 236.640
42.51000 234.319
42.52000 231.986
42.53000 233.112
42.54000 237.303
42.55000 241.449
42.56000 239.934
42.57000 235.235
42.58000 230.886
42.59000 233.580
42.60000 239.032
42.61000 244.043
42.62000 244.530
42.63000 243.831
42.64000 243.216
42.65000 241.749
42.66000 240.364
42.67000 238.231
42.68000 233.137
42.69000 227.739
42.70000 225.526
42.71000 231.747
42.72000 238.419
42.73000 242.723
42.74000 238.368
42.75000 235.062
42.76000 233.229
42.77000 233.130
42.78000 233.046
42.79000 235.711
42.80000 240.448
42.81000 245.099
42.82000 244.053
42.83000 240.288
42.84000 236.463
42.85000 231.737
42.86000 226.707
42.87000 223.166
42.88000 232.069
42.89000 243.766
42.90000 253.771
42.91000 241.425
42.92000 228.325
42.93000 219.963
42.94000 227.695
42.95000 236.755
42.96000 241.540
42.97000 236.549
42.98000 231.176
42.99000 227.911
43.00000 234.330
43.01000 238.988
43.02000 241.602
43.03000 242.186
43.04000 242.746
43.05000 241.347
43.06000 238.684
43.07000 236.093
43.08000 235.572
43.09000 235.928
43.10000 236.207
43.11000 235.562
43.12000 234.647
43.13000 233.757
43.14000 233.035
43.15000 232.345
43.16000 231.771
43.17000 226.037
43.18000 220.789
43.19000 218.572
43.20000 225.225
43.21000 232.451
43.22000 237.253
43.23000 237.271
43.24000 237.162
43.25000 237.100
43.26000 235.709
43.27000 234.738
43.28000 234.294
43.29000 234.294
43.30000 234.317
43.31000 235.449
43.32000 237.196
43.33000 238.876
43.34000 238.427
43.35000 237.261
43.36000 236.034
43.37000 234.220
43.38000 232.259
43.39000 230.396
43.40000 229.103
43.41000 227.901
43.42000 226.933
43.43000 231.575
43.44000 235.778
43.45000 237.360
43.46000 232.320
43.47000 226.957
43.48000 225.941
43.49000 232.311
43.50000 238.804
43.51000 242.229
43.52000 230.635
43.53000 222.799
43.54000 221.187
43.55000 224.036
43.56000 226.802
43.57000 226.925
43.58000 225.783
43.59000 224.699
43.60000 224.698
43.61000 225.018
43.62000 225.536
43.63000 227.604
43.64000 230.002
43.65000 232.673
43.66000 236.680
43.67000 240.867
43.68000 244.121
43.69000 238.027
43.70000 232.610
43.71000 229.849
43.72000 232.884
43.73000 236.121
43.74000 238.000
43.75000 237.896
43.76000 237.775
43.77000 233.269
43.78000 224.641
43.79000 216.124
43.80000 215.560
43.81000 219.883
43.82000 224.129
43.83000 226.656
43.84000 228.474
43.85000 230.171
43.86000 233.858
43.87000 237.702
43.88000 240.579
43.89000 237.139
43.90000 232.555
43.91000 228.516
43.92000 226.760
43.93000 225.256
43.94000 224.133
43.95000 224.540
43.96000 224.929
43.97000 226.158
43.98000 228.968
43.99000 231.815
44.00000 234.993
44.01000 238.585
44.02000 242.172
44.03000 240.034
44.04000 233.358
44.05000 226.841
44.06000 227.095
44.07000 230.929
44.08000 234.283
44.09000 229.601
44.10000 222.055
44.11000 215.131
44.12000 222.495
44.13000 232.086
44.14000 240.079
44.15000 239.298
44.16000 237.180
44.17000 235.599
44.18000 235.945
44.19000 236.464
44.20000 236.836
44.21000 239.409
44.22000 241.448
44.23000 242.435
44.24000 241.719
44.25000 240.979
44.26000 241.284
44.27000 242.693
44.28000 244.095
44.29000 242.970
44.30000 240.156
44.31000 237.580
44.32000 241.763
44.33000 249.030
44.34000 256.093
44.35000 260.524
44.36000 264.146
44.37000 267.402
44.38000 266.789
44.39000 265.565
44.40000 265.598
44.41000 271.489
44.42000 278.122
44.43000 280.583
44.44000 270.163
44.45000 258.832
44.46000 251.104
44.47000 267.983
44.48000 281.172
44.49000 289.551
44.50000 291.249
44.51000 292.907
44.52000 297.526
44.53000 304.785
44.54000 311.968
44.55000 319.822
44.56000 327.884
44.57000 335.948
44.58000 344.054
44.59000 352.176
44.60000 360.640
44.61000 372.644
44.62000 385.581
44.63000 396.948
44.64000 414.099
44.65000 429.697
44.66000 444.807
44.67000 457.972
44.68000 470.935
44.69000 484.083
44.70000 497.723
44.71000 511.390
44.72000 520.227
44.73000 550.559
44.74000 573.054
44.75000 588.989
44.76000 597.158
44.77000 605.315
44.78000 614.016
44.79000 623.128
44.80000 632.079
44.81000 641.914
44.82000 651.842
44.83000 661.765
44.84000 671.624
44.85000 681.460
44.86000 690.933
44.87000 697.351
44.88000 703.079
44.89000 707.983
44.90000 705.322
44.91000 702.160
44.92000 699.840
44.93000 700.399
44.94000 701.198
44.95000 697.443
44.96000 683.216
44.97000 668.573
44.98000 659.651
44.99000 653.222
45.00000 648.649
45.01000 637.856
45.02000 620.840
45.03000 603.868
45.04000 590.938
45.05000 580.632
45.06000 570.601
45.07000 555.940
45.08000 540.059
45.09000 524.519
45.10000 513.083
45.11000 502.849
45.12000 492.773
45.13000 483.801
45.14000 475.041
45.15000 467.752
45.16000 452.782
45.17000 439.631
45.18000 425.053
45.19000 406.276
45.20000 387.226
45.21000 371.695
45.22000 363.153
45.23000 354.801
45.24000 350.039
45.25000 338.833
45.26000 330.999
45.27000 324.820
45.28000 320.042
45.29000 315.275
45.30000 311.095
45.31000 307.243
45.32000 303.536
45.33000 302.769
45.34000 303.086
45.35000 302.785
45.36000 296.508
45.37000 288.727
45.38000 281.244
45.39000 275.494
45.40000 270.025
45.41000 265.617
45.42000 256.135
45.43000 248.036
45.44000 241.998
45.45000 241.199
45.46000 240.657
45.47000 241.588
45.48000 245.037
45.49000 248.528
45.50000 250.376
45.51000 246.518
45.52000 243.888
45.53000 240.485
45.54000 236.525
45.55000 232.581
45.56000 229.160
45.57000 225.989
45.58000 222.979
45.59000 229.934
45.60000 239.336
45.61000 247.197
45.62000 242.862
45.63000 235.907
45.64000 230.208
45.65000 230.713
45.66000 232.058
45.67000 233.105
45.68000 229.468
45.69000 226.284
45.70000 224.914
45.71000 227.522
45.72000 230.271
45.73000 231.174
45.74000 229.365
45.75000 227.532
45.76000 225.713
45.77000 223.909
45.78000 222.095
45.79000 219.591
45.80000 216.659
45.81000 213.816
45.82000 212.972
45.83000 212.959
45.84000 212.947
45.85000 215.603
45.86000 218.690
45.87000 221.758
45.88000 224.702
45.89000 227.624
45.90000 228.953
45.91000 223.570
45.92000 217.439
45.93000 212.850
45.94000 219.400
45.95000 225.032
45.96000 227.036
45.97000 222.174
45.98000 217.149
45.99000 215.259
46.00000 217.301
46.01000 219.352
46.02000 217.438
46.03000 212.360
46.04000 207.437
46.05000 209.150
46.06000 214.396
46.07000 219.300
46.08000 218.432
46.09000 215.493
46.10000 212.795
46.11000 220.646
46.12000 229.900
46.13000 236.513
46.14000 228.522
46.15000 218.291
46.16000 210.364
46.17000 210.750
46.18000 211.887
46.19000 212.703
46.20000 207.860
46.21000 203.966
46.22000 203.547
46.23000 208.789
46.24000 214.112
46.25000 216.326
46.26000 215.232
46.27000 214.142
46.28000 211.831
46.29000 208.720
46.30000 205.712
46.31000 205.659
46.32000 206.964
46.33000 208.311
46.34000 210.221
46.35000 212.306
46.36000 214.181
46.37000 214.329
46.38000 214.150
46.39000 214.027
46.40000 214.165
46.41000 214.336
46.42000 213.993
46.43000 212.056
46.44000 210.005
46.45000 208.602
46.46000 205.144
46.47000 202.508
46.48000 203.583
46.49000 209.845
46.50000 216.136
46.51000 214.848
46.52000 206.755
46.53000 198.744
46.54000 199.221
46.55000 204.576
46.56000 209.561
46.57000 206.912
46.58000 201.237
46.59000 196.394
46.60000 200.223
46.61000 206.356
46.62000 211.749
46.63000 208.625
46.64000 204.672
46.65000 202.054
46.66000 204.789
46.67000 208.083
46.68000 209.524
46.69000 205.999
46.70000 202.202
46.71000 199.741
46.72000 204.509
46.73000 208.106
46.74000 208.625
46.75000 205.477
46.76000 202.337
46.77000 202.584
46.78000 205.416
46.79000 208.199
46.80000 208.657
46.81000 207.959
46.82000 207.270
46.83000 206.716
46.84000 206.208
46.85000 205.501
46.86000 203.117
46.87000 200.350
46.88000 197.979
46.89000 198.621
46.90000 199.532
46.91000 199.341
46.92000 195.359
46.93000 191.057
46.94000 188.731
46.95000 190.973
46.96000 193.398
46.97000 194.880
46.98000 200.034
46.99000 203.750
47.00000 202.603
47.01000 196.556
47.02000 190.569
47.03000 190.084
47.04000 193.194
47.05000 196.221
47.06000 196.589
47.07000 195.830
47.08000 195.368
47.09000 198.511
47.10000 202.715
47.11000 206.418
47.12000 206.591
47.13000 206.081
47.14000 205.656
47.15000 205.536
47.16000 205.467
47.17000 204.899
47.18000 202.849
47.19000 200.701
47.20000 199.363
47.21000 199.643
47.22000 199.969
47.23000 200.154
47.24000 193.431
47.25000 188.716
47.26000 185.121
47.27000 182.480
47.28000 179.870
47.29000 178.876
47.30000 178.790
47.31000 178.707
47.32000 185.243
47.33000 193.727
47.34000 201.471
47.35000 202.002
47.36000 200.708
47.37000 199.940
47.38000 202.262
47.39000 205.088
47.40000 207.370
47.41000 202.879
47.42000 198.690
47.43000 195.279
47.44000 193.853
47.45000 192.527
47.46000 191.776
47.47000 192.014
47.48000 192.270
47.49000 192.406
47.50000 194.260
47.51000 195.513
47.52000 195.370
47.53000 194.212
47.54000 193.113
47.55000 193.906
47.56000 195.615
47.57000 197.238
47.58000 195.169
47.59000 192.146
47.60000 189.676
47.61000 191.619
47.62000 194.517
47.63000 196.906
47.64000 196.765
47.65000 196.278
47.66000 195.898
47.67000 192.891
47.68000 190.331
47.69000 188.594
47.70000 188.671
47.71000 188.814
47.72000 188.994
47.73000 189.231
47.74000 189.469
47.75000 186.856
47.76000 181.526
47.77000 176.303
47.78000 179.164
47.79000 187.053
47.80000 194.627
47.81000 194.953
47.82000 192.250
47.83000 189.722
47.84000 188.920
47.85000 188.632
47.86000 188.086
47.87000 185.827
47.88000 183.254
47.89000 181.316
47.90000 182.072
47.91000 183.131
47.92000 183.925
47.93000 186.830
47.94000 189.199
47.95000 190.916
47.96000 191.392
47.97000 191.838
47.98000 190.228
47.99000 186.021
48.00000 181.811
48.01000 184.782
48.02000 193.522
48.03000 202.043
48.04000 200.956
48.05000 194.727
48.06000 188.812
48.07000 188.288
48.08000 189.707
48.09000 191.012
48.10000 192.984
48.11000 194.888
48.12000 196.117
48.13000 193.587
48.14000 190.477
48.15000 188.012
48.16000 187.893
48.17000 187.987
48.18000 188.055
48.19000 186.041
48.20000 184.429
48.21000 185.503
48.22000 190.980
48.23000 196.521
48.24000 196.836
48.25000 191.552
48.26000 186.293
48.27000 184.640
48.28000 185.468
48.29000 186.281
48.30000 186.669
48.31000 186.859
48.32000 187.061
48.33000 187.406
48.34000 187.796
48.35000 188.147
48.36000 189.685
48.37000 191.247
48.38000 192.051
48.39000 189.276
48.40000 186.041
48.41000 184.556
48.42000 188.541
48.43000 192.921
48.44000 195.921
48.45000 193.145
48.46000 190.928
48.47000 190.204
48.48000 191.580
48.49000 192.969
48.50000 190.870
48.51000 185.617
48.52000 180.418
48.53000 179.360
48.54000 180.726
48.55000 182.048
48.56000 182.449
48.57000 182.483
48.58000 182.766
48.59000 185.669
48.60000 189.272
48.61000 192.443
48.62000 188.080
48.63000 183.195
48.64000 179.240
48.65000 179.033
48.66000 179.222
48.67000 180.701
48.68000 185.656
48.69000 190.803
48.70000 194.147
48.71000 186.673
48.72000 181.032
48.73000 179.431
48.74000 182.673
48.75000 185.918
48.76000 187.491
48.77000 187.781
48.78000 188.065
48.79000 187.983
48.80000 187.724
48.81000 187.466
48.82000 187.238
48.83000 187.020
48.84000 186.850
48.85000 187.091
48.86000 187.425
48.87000 187.712
48.88000 187.619
48.89000 187.492
48.90000 187.809
48.91000 189.659
48.92000 191.640
48.93000 192.344
48.94000 190.080
48.95000 187.695
48.96000 186.234
48.97000 186.872
48.98000 187.346
48.99000 186.449
49.00000 184.159
49.01000 181.868
49.02000 179.555
49.03000 177.227
49.04000 174.960
49.05000 173.091
49.06000 171.477
49.07000 170.279
49.08000 174.183
49.09000 179.599
49.10000 184.435
49.11000 185.171
49.12000 185.109
49.13000 185.056
49.14000 189.409
49.15000 193.460
49.16000 195.576
49.17000 191.923
49.18000 187.887
49.19000 185.560
49.20000 186.667
49.21000 187.871
49.22000 188.561
49.23000 183.419
49.24000 179.810
49.25000 179.864
49.26000 183.057
49.27000 186.277
49.28000 190.858
49.29000 196.208
49.30000 201.361
49.31000 199.054
49.32000 194.223
49.33000 189.293
49.34000 183.388
49.35000 177.235
49.36000 172.322
49.37000 174.750
49.38000 178.386
49.39000 181.326
49.40000 183.482
49.41000 185.173
49.42000 185.941
49.43000 184.335
49.44000 182.609
49.45000 180.242
49.46000 176.766
49.47000 173.270
49.48000 171.409
49.49000 179.429
49.50000 184.863
49.51000 184.307
49.52000 179.377
49.53000 174.598
49.54000 174.851
49.55000 177.554
49.56000 180.123
49.57000 179.770
49.58000 178.557
49.59000 177.619
49.60000 178.886
49.61000 180.632
49.62000 181.774
49.63000 179.889
49.64000 177.588
49.65000 175.793
49.66000 177.665
49.67000 179.389
49.68000 180.980
49.69000 182.277
49.70000 183.563
49.71000 184.104
49.72000 183.537
49.73000 182.960
49.74000 183.347
49.75000 184.660
49.76000 185.978
49.77000 187.658
49.78000 189.564
49.79000 191.296
49.80000 188.963
49.81000 184.922
49.82000 181.139
49.83000 182.481
49.84000 185.015
49.85000 187.061
49.86000 185.841
49.87000 184.018
49.88000 182.924
49.89000 184.941
49.90000 187.310
49.91000 189.090
49.92000 186.423
49.93000 184.127
49.94000 182.698
49.95000 182.932
49.96000 183.206
49.97000 185.378
49.98000 189.963
49.99000 194.550
50.00000 193.276
50.01000 187.257
50.02000 181.348
50.03000 180.348
50.04000 181.991
50.05000 183.493
50.06000 182.558
50.07000 180.738
50.08000 179.065
50.09000 183.450
50.10000 188.677
50.11000 193.818
50.12000 198.473
50.13000 203.052
50.14000 205.873
50.15000 202.268
50.16000 198.072
50.17000 195.053
50.18000 197.257
50.19000 199.127
50.20000 200.469
50.21000 200.940
50.22000 201.399
50.23000 201.987
50.24000 202.716
50.25000 203.442
50.26000 210.421
50.27000 221.619
50.28000 232.539
50.29000 235.239
50.30000 234.121
50.31000 232.968
50.32000 231.345
50.33000 229.577
50.34000 227.983
50.35000 231.443
50.36000 235.397
50.37000 240.543
50.38000 251.363
50.39000 262.918
50.40000 272.017
50.41000 273.394
50.42000 274.208
50.43000 274.767
50.44000 271.769
50.45000 269.435
50.46000 271.674
50.47000 280.384
50.48000 289.138
50.49000 292.306
50.50000 290.391
50.51000 288.495
50.52000 288.039
50.53000 288.433
50.54000 288.741
50.55000 287.216
50.56000 284.957
50.57000 282.959
50.58000 283.726
50.59000 285.237
50.60000 286.569
50.61000 282.279
50.62000 277.734
50.63000 274.042
50.64000 273.811
50.65000 273.948
50.66000 274.466
50.67000 276.017
50.68000 277.627
50.69000 278.674
50.70000 268.622
50.71000 261.078
50.72000 257.605
50.73000 259.047
50.74000 260.480
50.75000 257.035
50.76000 249.822
50.77000 242.729
50.78000 237.259
50.79000 232.775
50.80000 228.323
50.81000 224.361
50.82000 220.570
50.83000 217.066
50.84000 216.044
50.85000 215.593
50.86000 215.207
50.87000 212.707
50.88000 210.330
50.89000 207.909
50.90000 205.334
50.91000 202.745
50.92000 199.958
50.93000 196.705
50.94000 193.432
50.95000 191.423
50.96000 192.348
50.97000 193.036
50.98000 190.254
50.99000 183.926
51.00000 177.651
51.01000 176.478
51.02000 178.680
51.03000 180.826
51.04000 182.036
51.05000 182.794
51.06000 183.343
51.07000 181.296
51.08000 178.476
51.09000 176.078
51.10000 176.683
51.11000 177.877
51.12000 178.875
51.13000 173.830
51.14000 169.033
51.15000 166.517
51.16000 170.838
51.17000 175.620
51.18000 180.113
51.19000 184.024
51.20000 187.918
51.21000 190.157
51.22000 182.339
51.23000 176.837
51.24000 175.528
51.25000 177.835
51.26000 180.059
51.27000 177.781
51.28000 172.945
51.29000 168.285
51.30000 168.125
51.31000 169.592
51.32000 171.048
51.33000 172.393
51.34000 173.708
51.35000 173.883
51.36000 167.253
51.37000 159.496
51.38000 153.217
51.39000 160.814
51.40000 168.121
51.41000 173.663
51.42000 174.642
51.43000 175.387
51.44000 175.980
51.45000 176.307
51.46000 176.629
51.47000 176.802
51.48000 172.050
51.49000 168.801
51.50000 164.356
51.51000 159.034
51.52000 153.899
51.53000 155.102
51.54000 159.411
51.55000 163.508
51.56000 162.526
51.57000 160.066
51.58000 158.204
51.59000 161.174
51.60000 165.204
51.61000 168.872
51.62000 170.722
51.63000 172.321
51.64000 173.571
51.65000 172.962
51.66000 172.359
51.67000 170.380
51.68000 165.327
51.69000 160.160
51.70000 157.594
51.71000 158.921
51.72000 160.285
51.73000 163.759
51.74000 169.273
51.75000 174.721
51.76000 175.053
51.77000 172.164
51.78000 169.376
51.79000 169.011
51.80000 169.670
51.81000 170.287
51.82000 166.649
51.83000 162.240
51.84000 158.280
51.85000 157.346
51.86000 156.975
51.87000 157.883
51.88000 164.290
51.89000 171.324
51.90000 176.616
51.91000 172.732
51.92000 169.249
51.93000 166.886
51.94000 166.681
51.95000 166.529
51.96000 166.050
51.97000 165.152
51.98000 164.254
51.99000 161.917
52.00000 158.414
52.01000 155.027
52.02000 156.941
52.03000 161.727
52.04000 166.333
52.05000 167.783
52.06000 168.082
52.07000 168.358
52.08000 164.426
52.09000 159.995
52.10000 156.642
52.11000 159.378
52.12000 163.067
52.13000 165.777
52.14000 164.884
52.15000 163.658
52.16000 162.773
52.17000 168.442
52.18000 173.018
52.19000 172.989
52.20000 165.315
52.21000 157.526
52.22000 153.758
52.23000 154.356
52.24000 154.954
52.25000 155.467
52.26000 155.917
52.27000 156.317
52.28000 155.202
52.29000 153.379
52.30000 152.048
52.31000 157.342
52.32000 164.721
52.33000 171.377
52.34000 167.911
52.35000 163.019
52.36000 158.929
52.37000 158.678
52.38000 158.928
52.39000 160.271
52.40000 165.068
52.41000 170.119
52.42000 173.592
52.43000 163.684
52.44000 155.919
52.45000 151.244
52.46000 150.966
52.47000 150.723
52.48000 154.033
52.49000 160.599
52.50000 167.102
52.51000 169.019
52.52000 168.202
52.53000 167.356
52.54000 165.878
52.55000 164.145
52.56000 162.385
52.57000 160.334
52.58000 158.205
52.59000 156.327
52.60000 153.628
52.61000 151.176
52.62000 150.694
52.63000 158.254
52.64000 166.676
52.65000 172.466
52.66000 171.079
52.67000 169.285
52.68000 168.115
52.69000 164.813
52.70000 162.357
52.71000 159.323
52.72000 155.590
52.73000 151.878
52.74000 154.363
52.75000 161.670
52.76000 168.856
52.77000 167.028
52.78000 160.754
52.79000 154.777
52.80000 153.583
52.81000 154.053
52.82000 154.597
52.83000 155.785
52.84000 157.121
52.85000 158.271
52.86000 158.012
52.87000 157.618
52.88000 158.379
52.89000 163.189
52.90000 168.348
52.91000 171.185
52.92000 168.549
52.93000 165.684
52.94000 163.921
52.95000 162.435
52.96000 161.371
52.97000 161.375
52.98000 162.479
52.99000 163.584
53.00000 164.857
53.01000 166.242
53.02000 167.593
53.03000 167.046
53.04000 165.718
53.05000 164.612
53.06000 166.290
53.07000 168.803
53.08000 171.055
53.09000 171.432
53.10000 171.439
53.11000 171.445
53.12000 166.421
53.13000 161.735
53.14000 158.523
53.15000 159.753
53.16000 161.284
53.17000 162.172
53.18000 161.752
53.19000 161.293
53.20000 161.029
53.21000 161.000
53.22000 160.980
53.23000 160.055
53.24000 158.343
53.25000 156.654
53.26000 156.200
53.27000 156.451
53.28000 156.693
53.29000 158.796
53.30000 161.447
53.31000 164.052
53.32000 166.201
53.33000 168.232
53.34000 169.724
53.35000 167.981
53.36000 165.698
53.37000 163.847
53.38000 166.739
53.39000 169.482
53.40000 171.200
53.41000 170.253
53.42000 169.167
53.43000 166.885
53.44000 162.506
53.45000 158.089
53.46000 155.722
53.47000 151.691
53.48000 148.953
53.49000 148.819
53.50000 150.610
53.51000 152.437
53.52000 155.479
53.53000 159.118
53.54000 162.582
53.55000 163.594
53.56000 163.778
53.57000 163.662
53.58000 161.089
53.59000 157.975
53.60000 155.224
53.61000 154.318
53.62000 153.670
53.63000 153.162
53.64000 153.111
53.65000 153.099
53.66000 152.898
53.67000 152.271
53.68000 151.628
53.69000 152.512
53.70000 155.692
53.71000 158.895
53.72000 159.662
53.73000 158.057
53.74000 156.449
53.75000 154.622
53.76000 152.656
53.77000 150.858
53.78000 153.093
53.79000 157.043
53.80000 160.745
53.81000 160.257
53.82000 158.722
53.83000 157.035
53.84000 154.316
53.85000 151.404
53.86000 149.371
53.87000 151.138
53.88000 153.344
53.89000 155.006
53.90000 151.372
53.91000 148.269
53.92000 147.449
53.93000 151.056
53.94000 154.777
53.95000 156.820
53.96000 156.705
53.97000 156.582
53.98000 156.097
53.99000 155.316
54.00000 154.600
54.01000 156.943
54.02000 160.953
54.03000 164.860
54.04000 166.940
54.05000 168.350
54.06000 169.649
54.07000 163.063
54.08000 155.442
54.09000 149.655
54.10000 154.290
54.11000 160.570
54.12000 164.983
54.13000 162.487
54.14000 159.346
54.15000 157.077
54.16000 162.208
54.17000 166.410
54.18000 165.923
54.19000 157.606
54.20000 149.168
54.21000 146.765
54.22000 150.962
54.23000 155.144
54.24000 158.251
54.25000 160.577
54.26000 162.765
54.27000 160.744
54.28000 156.743
54.29000 153.131
54.30000 154.803
54.31000 158.148
54.32000 161.168
54.33000 162.383
54.34000 163.118
54.35000 164.066
54.36000 166.031
54.37000 168.131
54.38000 168.787
54.39000 164.848
54.40000 160.567
54.41000 157.617
54.42000 157.605
54.43000 157.671
54.44000 158.374
54.45000 159.992
54.46000 161.615
54.47000 161.726
54.48000 160.441
54.49000 159.168
54.50000 159.602
54.51000 161.037
54.52000 162.384
54.53000 161.826
54.54000 160.496
54.55000 159.407
54.56000 160.930
54.57000 163.164
54.58000 165.136
54.59000 160.890
54.60000 156.275
54.61000 152.671
54.62000 153.224
54.63000 154.226
54.64000 155.583
54.65000 157.915
54.66000 160.303
54.67000 161.865
54.68000 163.782
54.69000 165.197
54.70000 164.914
54.71000 162.554
54.72000 160.187
54.73000 156.994
54.74000 153.155
54.75000 149.378
54.76000 153.224
54.77000 160.782
54.78000 167.969
54.79000 169.135
54.80000 168.193
54.81000 167.315
54.82000 167.010
54.83000 166.838
54.84000 166.689
54.85000 164.855
54.86000 163.088
54.87000 162.053
54.88000 163.602
54.89000 165.377
54.90000 165.218
54.91000 160.483
54.92000 155.553
54.93000 152.511
54.94000 156.355
54.95000 159.178
54.96000 160.530
54.97000 160.359
54.98000 160.211
54.99000 162.392
55.00000 166.133
55.01000 169.781
55.02000 168.952
55.03000 166.243
55.04000 163.740
55.05000 163.832
55.06000 164.708
55.07000 165.694
55.08000 167.475
55.09000 169.415
55.10000 171.039
55.11000 168.250
55.12000 165.478
55.13000 164.531
55.14000 169.123
55.15000 174.094
55.16000 178.977
55.17000 183.678
55.18000 188.373
55.19000 191.088
55.20000 192.434
55.21000 193.371
55.22000 193.217
55.23000 192.110
55.24000 191.017
55.25000 190.737
55.26000 190.925
55.27000 191.106
55.28000 194.790
55.29000 199.533
55.30000 203.929
55.31000 204.826
55.32000 204.816
55.33000 204.956
55.34000 206.006
55.35000 207.209
55.36000 208.185
55.37000 214.743
55.38000 220.549
55.39000 227.430
55.40000 237.123
55.41000 246.963
55.42000 258.555
55.43000 273.235
55.44000 287.972
55.45000 295.895
55.46000 301.447
55.47000 305.292
55.48000 319.409
55.49000 341.171
55.50000 362.569
55.51000 371.189
55.52000 373.477
55.53000 375.655
55.54000 387.605
55.55000 401.694
55.56000 415.518
55.57000 427.154
55.58000 438.305
55.59000 450.884
55.60000 470.756
55.61000 491.654
55.62000 508.040
55.63000 521.004
55.64000 531.145
55.65000 536.610
55.66000 531.503
55.67000 525.993
55.68000 530.291
55.69000 549.448
55.70000 568.758
55.71000 580.975
55.72000 586.238
55.73000 591.444
55.74000 591.993
55.75000 589.573
55.76000 586.993
55.77000 580.539
55.78000 572.427
55.79000 564.819
55.80000 558.345
55.81000 552.746
55.82000 546.835
55.83000 538.795
55.84000 530.354
55.85000 522.770
55.86000 518.912
55.87000 515.487
55.88000 512.902
55.89000 497.703
55.90000 485.170
55.91000 470.821
55.92000 452.931
55.93000 434.950
55.94000 422.252
55.95000 416.402
55.96000 410.586
55.97000 400.420
55.98000 386.687
55.99000 372.958
56.00000 359.415
56.01000 345.973
56.02000 332.763
56.03000 323.683
56.04000 316.130
56.05000 309.169
56.06000 297.699
56.07000 286.436
56.08000 275.668
56.09000 267.734
56.10000 260.252
56.11000 253.233
56.12000 247.941
56.13000 242.812
56.14000 239.101
56.15000 231.889
56.16000 226.226
56.17000 220.662
56.18000 215.264
56.19000 209.870
56.20000 206.668
56.21000 205.880
56.22000 205.097
56.23000 202.636
56.24000 199.024
56.25000 195.323
56.26000 188.906
56.27000 181.204
56.28000 174.351
56.29000 179.178
56.30000 187.727
56.31000 195.452
56.32000 188.181
56.33000 179.008
56.34000 171.044
56.35000 168.943
56.36000 167.619
56.37000 166.924
56.38000 168.245
56.39000 169.718
56.40000 170.734
56.41000 169.915
56.42000 169.253
56.43000 169.194
56.44000 170.004
56.45000 170.820
56.46000 168.220
56.47000 162.448
56.48000 156.728
56.49000 154.911
56.50000 155.454
56.51000 155.936
56.52000 155.099
56.53000 153.723
56.54000 152.548
56.55000 153.558
56.56000 155.166
56.57000 156.588
56.58000 155.723
56.59000 154.623
56.60000 153.459
56.61000 152.028
56.62000 150.568
56.63000 150.504
56.64000 154.294
56.65000 158.308
56.66000 160.938
56.67000 161.885
56.68000 162.553
56.69000 161.864
56.70000 159.504
56.71000 157.138
56.72000 154.323
56.73000 151.153
56.74000 148.034
56.75000 147.680
56.76000 148.738
56.77000 149.658
56.78000 148.312
56.79000 146.167
56.80000 144.181
56.81000 143.591
56.82000 143.328
56.83000 143.102
56.84000 146.136
56.85000 149.122
56.86000 151.501
56.87000 151.728
56.88000 151.766
56.89000 151.485
56.90000 150.443
56.91000 149.368
56.92000 148.703
56.93000 149.773
56.94000 150.558
56.95000 150.765
56.96000 150.370
56.97000 149.960
56.98000 148.052
56.99000 145.135
57.00000 142.289
57.01000 144.608
57.02000 149.051
57.03000 153.042
57.04000 151.263
57.05000 147.732
57.06000 144.524
57.07000 143.673
57.08000 143.294
57.09000 142.976
57.10000 144.416
57.11000 145.796
57.12000 146.622
57.13000 145.755
57.14000 144.771
57.15000 144.267
57.16000 144.751
57.17000 145.265
57.18000 145.563
57.19000 150.386
57.20000 153.786
57.21000 154.660
57.22000 153.308
57.23000 151.938
57.24000 149.472
57.25000 146.372
57.26000 143.381
57.27000 142.245
57.28000 141.856
57.29000 141.608
57.30000 142.791
57.31000 144.347
57.32000 145.881
57.33000 147.281
57.34000 148.659
57.35000 149.778
57.36000 147.563
57.37000 145.478
57.38000 144.396
57.39000 145.954
57.40000 147.652
57.41000 148.693
57.42000 148.567
57.43000 148.419
57.44000 148.340
57.45000 146.336
57.46000 144.974
57.47000 145.589
57.48000 147.683
57.49000 149.675
57.50000 148.011
57.51000 144.525
57.52000 141.204
57.53000 143.543
57.54000 147.473
57.55000 151.095
57.56000 152.158
57.57000 152.650
57.58000 152.783
57.59000 151.070
57.60000 149.097
57.61000 147.547
57.62000 142.591
57.63000 138.404
57.64000 135.093
57.65000 133.775
57.66000 132.534
57.67000 133.804
57.68000 138.902
57.69000 144.040
57.70000 146.002
57.71000 144.827
57.72000 143.705
57.73000 147.035
57.74000 153.220
57.75000 159.017
57.76000 155.274
57.77000 147.426
57.78000 140.060
57.79000 140.798
57.80000 143.608
57.81000 145.361
57.82000 139.850
57.83000 132.960
57.84000 128.100
57.85000 132.127
57.86000 137.194
57.87000 141.024
57.88000 144.463
57.89000 147.140
57.90000 148.864
57.91000 148.719
57.92000 148.524
57.93000 147.251
57.94000 144.572
57.95000 141.890
57.96000 138.278
57.97000 133.903
57.98000 129.610
57.99000 129.264
58.00000 131.096
58.01000 132.953
58.02000 135.285
58.03000 137.794
58.04000 140.108
58.05000 138.041
58.06000 135.215
58.07000 133.715
58.08000 139.859
58.09000 147.228
58.10000 152.303
58.11000 148.791
58.12000 144.460
58.13000 141.321
58.14000 141.472
58.15000 141.710
58.16000 142.511
58.17000 144.262
58.18000 146.028
58.19000 145.615
58.20000 142.787
58.21000 139.968
58.22000 140.173
58.23000 142.510
58.24000 144.776
58.25000 144.867
58.26000 143.923
58.27000 142.797
58.28000 139.157
58.29000 134.712
58.30000 130.691
58.31000 132.436
58.32000 135.049
58.33000 137.614
58.34000 139.949
58.35000 142.254
58.36000 144.219
58.37000 145.088
58.38000 145.874
58.39000 146.418
58.40000 145.521
58.41000 144.809
58.42000 143.195
58.43000 140.271
58.44000 137.337
58.45000 138.709
58.46000 144.105
58.47000 149.453
58.48000 148.657
58.49000 144.194
58.50000 139.986
58.51000 141.409
58.52000 145.144
58.53000 148.504
58.54000 147.740
58.55000 145.838
58.56000 144.156
58.57000 142.540
58.58000 141.153
58.59000 139.736
58.60000 138.197
58.61000 136.644
58.62000 135.216
58.63000 134.136
58.64000 133.077
58.65000 132.382
58.66000 134.069
58.67000 135.352
58.68000 135.202
58.69000 133.279
58.70000 131.354
58.71000 130.442
58.72000 130.333
58.73000 130.225
58.74000 134.427
58.75000 140.694
58.76000 146.439
58.77000 143.517
58.78000 137.523
58.79000 132.193
58.80000 132.772
58.81000 134.748
58.82000 136.452
58.83000 136.717
58.84000 136.758
58.85000 136.974
58.86000 137.816
58.87000 138.715
58.88000 137.599
58.89000 131.658
58.90000 125.505
58.91000 121.691
58.92000 130.968
58.93000 137.768
58.94000 141.543
58.95000 142.140
58.96000 142.750
58.97000 144.964
58.98000 148.263
58.99000 151.483
59.00000 148.568
59.01000 143.119
59.02000 137.882
59.03000 135.376
59.04000 133.703
59.05000 133.028
59.06000 139.677
59.07000 147.800
59.08000 154.617
59.09000 150.757
59.10000 146.428
59.11000 141.791
59.12000 136.213
59.13000 130.569
59.14000 127.570
59.15000 130.045
59.16000 132.688
59.17000 134.224
59.18000 133.929
59.19000 133.715
59.20000 134.923
59.21000 137.393
59.22000 139.822
59.23000 139.907
59.24000 138.626
59.25000 137.390
59.26000 136.930
59.27000 136.783
59.28000 136.540
59.29000 135.312
59.30000 133.826
59.31000 132.911
59.32000 135.498
59.33000 138.682
59.34000 141.272
59.35000 140.040
59.36000 138.712
59.37000 137.288
59.38000 135.607
59.39000 133.911
59.40000 133.515
59.41000 135.437
59.42000 137.405
59.43000 138.469
59.44000 141.719
59.45000 143.933
59.46000 143.430
59.47000 140.878
59.48000 138.325
59.49000 135.779
59.50000 133.235
59.51000 130.811
59.52000 132.139
59.53000 134.547
59.54000 136.958
59.55000 139.399
59.56000 141.846
59.57000 143.733
59.58000 142.719
59.59000 141.292
59.60000 140.169
59.61000 137.211
59.62000 134.721
59.63000 134.123
59.64000 137.855
59.65000 141.756
59.66000 140.890
59.67000 132.712
59.68000 124.455
59.69000 122.434
59.70000 126.614
59.71000 130.767
59.72000 132.569
59.73000 132.854
59.74000 133.096
59.75000 132.269
59.76000 130.980
59.77000 129.770
59.78000 131.836
59.79000 134.590
59.80000 136.755
59.81000 134.837
59.82000 132.140
59.83000 130.432
59.84000 133.082
59.85000 136.246
59.86000 138.642
59.87000 133.582
59.88000 129.234
59.89000 128.251
59.90000 133.910
59.91000 139.747
59.92000 141.419
59.93000 137.623
59.94000 133.806
59.95000 133.033
59.96000 134.814
59.97000 136.582
59.98000 137.720
59.99000 138.507
60.00000 139.208
60.01000 138.347
60.02000 136.902
60.03000 135.567
60.04000 134.985
60.05000 134.630
60.06000 134.522
60.07000 135.840
60.08000 137.388
60.09000 138.406
60.10000 137.428
60.11000 136.257
60.12000 135.407
60.13000 137.859
60.14000 139.868
60.15000 142.213
60.16000 145.130
60.17000 148.056
60.18000 146.520
60.19000 140.003
60.20000 133.508
60.21000 133.491
60.22000 138.075
60.23000 142.458
60.24000 140.435
60.25000 135.347
60.26000 130.669
60.27000 131.731
60.28000 134.643
60.29000 137.280
60.30000 136.875
60.31000 135.947
60.32000 135.004
60.33000 133.990
60.34000 132.965
60.35000 132.188
60.36000 132.213
60.37000 132.299
60.38000 132.359
60.39000 136.461
60.40000 139.655
60.41000 138.843
60.42000 132.179
60.43000 125.466
60.44000 123.859
60.45000 127.058
60.46000 130.230
60.47000 133.825
60.48000 137.608
60.49000 141.117
60.50000 138.459
60.51000 133.254
60.52000 128.815
60.53000 132.881
60.54000 139.307
60.55000 144.996
60.56000 144.112
60.57000 142.318
60.58000 139.922
60.59000 135.008
60.60000 129.816
60.61000 126.244
60.62000 127.197
60.63000 128.419
60.64000 129.223
60.65000 132.907
60.66000 135.671
60.67000 135.282
60.68000 130.962
60.69000 126.648
60.70000 128.244
60.71000 134.559
60.72000 140.778
60.73000 142.319
60.74000 141.413
60.75000 140.435
60.76000 138.246
60.77000 135.624
60.78000 133.298
60.79000 133.617
60.80000 134.566
60.81000 135.385
60.82000 135.605
60.83000 135.715
60.84000 135.999
60.85000 136.905
60.86000 137.868
60.87000 137.441
60.88000 133.665
60.89000 129.741
60.90000 127.302
60.91000 137.723
60.92000 145.354
60.93000 148.412
60.94000 146.633
60.95000 144.838
60.96000 141.326
60.97000 136.643
60.98000 132.072
60.99000 132.911
61.00000 136.077
61.01000 139.080
61.02000 139.960
61.03000 140.189
61.04000 140.477
61.05000 141.209
61.06000 142.031
61.07000 142.721
61.08000 142.575
61.09000 142.365
61.10000 142.671
61.11000 144.569
61.12000 146.580
61.13000 148.241
61.14000 149.174
61.15000 150.083
61.16000 150.614
61.17000 152.553
61.18000 153.921
61.19000 151.577
61.20000 145.923
61.21000 140.336
61.22000 138.749
61.23000 139.506
61.24000 140.236
61.25000 140.428
61.26000 140.410
61.27000 140.340
61.28000 139.742
61.29000 139.004
61.30000 138.132
61.31000 136.430
61.32000 134.586
61.33000 133.083
61.34000 136.195
61.35000 139.129
61.36000 141.680
61.37000 143.211
61.38000 144.685
61.39000 146.347
61.40000 148.346
61.41000 150.351
61.42000 151.439
61.43000 143.129
61.44000 137.453
61.45000 138.547
61.46000 144.776
61.47000 151.030
61.48000 158.194
61.49000 165.818
61.50000 173.089
61.51000 181.032
61.52000 188.613
61.53000 197.207
61.54000 214.336
61.55000 233.396
61.56000 252.454
61.57000 271.512
61.58000 290.570
61.59000 305.577
61.60000 314.227
61.61000 320.735
61.62000 328.290
61.63000 338.258
61.64000 348.322
61.65000 355.433
61.66000 357.986
61.67000 360.489
61.68000 361.741
61.69000 357.650
61.70000 354.958
61.71000 355.373
61.72000 357.806
61.73000 359.842
61.74000 351.839
61.75000 339.462
61.76000 327.832
61.77000 312.339
61.78000 297.166
61.79000 281.584
61.80000 263.147
61.81000 244.161
61.82000 225.870
61.83000 210.661
61.84000 195.819
61.85000 184.563
61.86000 182.009
61.87000 180.450
61.88000 176.312
61.89000 167.055
61.90000 157.658
61.91000 150.998
61.92000 147.951
61.93000 144.924
61.94000 146.253
61.95000 151.255
61.96000 156.147
61.97000 155.496
61.98000 151.751
61.99000 148.024
62.00000 144.629
62.01000 141.359
62.02000 138.339
62.03000 137.133
62.04000 136.460
62.05000 136.826
62.06000 143.257
62.07000 150.672
62.08000 155.806
62.09000 152.290
62.10000 147.936
62.11000 144.769
62.12000 146.522
62.13000 148.057
62.14000 148.591
62.15000 147.412
62.16000 146.203
62.17000 143.498
62.18000 139.113
62.19000 134.742
62.20000 137.717
62.21000 145.917
62.22000 153.941
62.23000 156.249
62.24000 155.806
62.25000 155.242
62.26000 152.968
62.27000 150.140
62.28000 147.578
62.29000 145.375
62.30000 143.503
62.31000 142.654
62.32000 146.870
62.33000 151.772
62.34000 154.290
62.35000 149.038
62.36000 143.185
62.37000 139.120
62.38000 141.440
62.39000 143.360
62.40000 144.800
62.41000 145.538
62.42000 146.270
62.43000 147.486
62.44000 149.160
62.45000 150.820
62.46000 152.452
62.47000 154.036
62.48000 155.515
62.49000 154.590
62.50000 152.666
62.51000 151.084
62.52000 153.333
62.53000 156.651
62.54000 159.591
62.55000 150.772
62.56000 141.282
62.57000 133.905
62.58000 135.431
62.59000 137.951
62.60000 139.842
62.61000 139.966
62.62000 139.985
62.63000 139.997
62.64000 150.253
62.65000 157.994
62.66000 160.136
62.67000 155.250
62.68000 150.343
62.69000 145.790
62.70000 141.522
62.71000 137.317
62.72000 138.401
62.73000 142.184
62.74000 145.736
62.75000 145.381
62.76000 143.624
62.77000 142.065
62.78000 142.301
62.79000 142.966
62.80000 143.541
62.81000 142.752
62.82000 141.905
62.83000 142.061
62.84000 145.842
62.85000 149.951
62.86000 152.334
62.87000 150.529
62.88000 148.537
62.89000 147.295
62.90000 147.374
62.91000 147.445
62.92000 149.363
62.93000 153.249
62.94000 157.081
62.95000 154.529
62.96000 147.597
62.97000 140.826
62.98000 138.710
62.99000 138.731
63.00000 138.936
63.01000 141.560
63.02000 144.932
63.03000 147.514
63.04000 144.208
63.05000 139.701
63.06000 135.910
63.07000 143.737
63.08000 151.498
63.09000 157.477
63.10000 157.919
63.11000 157.965
63.12000 156.461
63.13000 151.710
63.14000 146.857
63.15000 144.020
63.16000 147.184
63.17000 149.437
63.18000 149.589
63.19000 147.854
63.20000 146.135
63.21000 145.371
63.22000 145.171
63.23000 144.977
63.24000 146.869
63.25000 149.434
63.26000 151.783
63.27000 151.871
63.28000 151.358
63.29000 150.567
63.30000 148.045
63.31000 145.224
63.32000 142.922
63.33000 145.667
63.34000 148.344
63.35000 150.061
63.36000 149.206
63.37000 148.209
63.38000 149.286
63.39000 154.105
63.40000 159.001
63.41000 161.665
63.42000 157.063
63.43000 153.903
63.44000 152.249
63.45000 151.744
63.46000 151.231
63.47000 150.385
63.48000 149.370
63.49000 148.401
63.50000 147.801
63.51000 147.362
63.52000 147.605
63.53000 153.640
63.54000 160.994
63.55000 166.527
63.56000 162.511
63.57000 157.112
63.58000 152.853
63.59000 150.909
63.60000 149.506
63.61000 148.563
63.62000 148.685
63.63000 148.849
63.64000 148.801
63.65000 148.420
63.66000 148.035
63.67000 147.842
63.68000 143.531
63.69000 140.692
63.70000 141.461
63.71000 144.589
63.72000 147.613
63.73000 147.987
63.74000 147.199
63.75000 146.458
63.76000 148.874
63.77000 151.932
63.78000 154.575
63.79000 154.311
63.80000 153.484
63.81000 153.364
63.82000 156.394
63.83000 159.801
63.84000 162.390
63.85000 161.564
63.86000 160.738
63.87000 160.466
63.88000 161.299
63.89000 162.164
63.90000 162.865
63.91000 163.350
63.92000 163.833
63.93000 163.158
63.94000 161.501
63.95000 159.877
63.96000 159.907
63.97000 160.865
63.98000 161.614
63.99000 158.437
64.00000 153.776
64.01000 149.467
64.02000 153.754
64.03000 159.556
64.04000 165.058
64.05000 168.794
64.06000 172.241
64.07000 173.800
64.08000 168.153
64.09000 161.801
64.10000 157.173
64.11000 163.278
64.12000 168.393
64.13000 170.865
64.14000 168.789
64.15000 166.634
64.16000 165.021
64.17000 164.021
64.18000 163.026
64.19000 163.038
64.20000 163.777
64.21000 164.532
64.22000 165.848
64.23000 167.436
64.24000 168.666
64.25000 164.773
64.26000 159.209
64.27000 154.164
64.28000 158.439
64.29000 163.986
64.30000 167.999
64.31000 164.373
64.32000 159.704
64.33000 156.744
64.34000 159.388
64.35000 162.468
64.36000 164.612
64.37000 165.059
64.38000 165.349
64.39000 167.413
64.40000 172.099
64.41000 176.808
64.42000 177.900
64.43000 175.540
64.44000 173.199
64.45000 173.521
64.46000 175.464
64.47000 177.271
64.48000 175.969
64.49000 173.367
64.50000 171.017
64.51000 171.519
64.52000 172.823
64.53000 173.980
64.54000 174.784
64.55000 175.425
64.56000 176.305
64.57000 178.198
64.58000 180.205
64.59000 181.534
64.60000 180.947
64.61000 180.245
64.62000 179.780
64.63000 181.026
64.64000 181.977
64.65000 182.525
64.66000 182.565
64.67000 182.605
64.68000 183.143
64.69000 184.084
64.70000 185.012
64.71000 184.516
64.72000 183.294
64.73000 182.065
64.74000 180.713
64.75000 179.317
64.76000 178.571
64.77000 183.771
64.78000 190.403
64.79000 196.142
64.80000 197.181
64.81000 197.447
64.82000 196.897
64.83000 193.382
64.84000 189.596
64.85000 188.335
64.86000 193.236
64.87000 198.416
64.88000 201.651
64.89000 206.223
64.90000 209.535
64.91000 210.952
64.92000 210.338
64.93000 209.747
64.94000 212.135
64.95000 216.579
64.96000 220.922
64.97000 230.261
64.98000 241.416
64.99000 252.182
65.00000 257.810
65.01000 261.839
65.02000 265.667
65.03000 267.995
65.04000 270.015
65.05000 271.716
65.06000 277.293
65.07000 282.362
65.08000 287.464
65.09000 292.668
65.10000 297.880
65.11000 304.274
65.12000 313.162
65.13000 322.129
65.14000 327.385
65.15000 335.787
65.16000 341.722
65.17000 349.536
65.18000 359.047
65.19000 368.467
65.20000 372.192
65.21000 372.541
65.22000 372.878
65.23000 382.469
65.24000 395.004
65.25000 406.717
65.26000 409.772
65.27000 410.511
65.28000 411.590
65.29000 414.802
65.30000 418.385
65.31000 421.311
65.32000 418.910
65.33000 416.485
65.34000 413.710
65.35000 409.994
65.36000 406.226
65.37000 406.229
65.38000 413.085
65.39000 420.083
65.40000 423.904
65.41000 414.599
65.42000 408.199
65.43000 404.163
65.44000 401.944
65.45000 399.754
65.46000 398.708
65.47000 398.245
65.48000 397.803
65.49000 389.467
65.50000 379.199
65.51000 370.592
65.52000 376.217
65.53000 385.101
65.54000 392.001
65.55000 388.421
65.56000 383.313
65.57000 379.279
65.58000 380.477
65.59000 381.795
65.60000 386.018
65.61000 397.005
65.62000 408.268
65.63000 417.382
65.64000 423.138
65.65000 428.855
65.66000 431.735
65.67000 474.554
65.68000 503.354
65.69000 549.547
65.70000 607.174
65.71000 665.027
65.72000 728.762
65.73000 795.091
65.74000 857.495
65.75000 948.852
65.76000 1040.186
65.77000 1127.548
65.78000 1186.801
65.79000 1240.575
65.80000 1292.800
65.81000 1338.069
65.82000 1382.498
65.83000 1416.298
65.84000 1428.495
65.85000 1436.959
65.86000 1446.017
65.87000 1456.272
65.88000 1466.559
65.89000 1462.545
65.90000 1439.394
65.91000 1416.163
65.92000 1374.910
65.93000 1318.322
65.94000 1261.610
65.95000 1198.452
65.96000 1131.650
65.97000 1064.006
65.98000 980.397
65.99000 890.713
66.00000 807.752
66.01000 737.010
66.02000 676.254
66.03000 615.833
66.04000 557.395
66.05000 499.283
66.06000 449.022
66.07000 428.914
66.08000 411.779
66.09000 399.271
66.10000 374.937
66.11000 355.720
66.12000 344.182
66.13000 345.945
66.14000 347.943
66.15000 344.795
66.16000 335.788
66.17000 326.806
66.18000 325.722
66.19000 330.370
66.20000 334.947
66.21000 337.162
66.22000 338.228
66.23000 339.966
66.24000 351.442
66.25000 366.115
66.26000 379.428
66.27000 394.444
66.28000 408.023
66.29000 421.509
66.30000 434.525
66.31000 447.477
66.32000 460.148
66.33000 471.895
66.34000 483.569
66.35000 491.709
66.36000 514.933
66.37000 532.878
66.38000 542.026
66.39000 538.090
66.40000 534.032
66.41000 539.395
66.42000 553.812
66.43000 568.114
66.44000 569.459
66.45000 562.810
66.46000 556.142
66.47000 549.023
66.48000 541.713
66.49000 533.449
66.50000 514.302
66.51000 492.081
66.52000 472.354
66.53000 460.224
66.54000 450.928
66.55000 440.708
66.56000 426.547
66.57000 411.938
66.58000 397.470
66.59000 383.403
66.60000 369.360
66.61000 360.056
66.62000 350.982
66.63000 344.285
66.64000 345.584
66.65000 357.050
66.66000 368.524
66.67000 369.113
66.68000 360.841
66.69000 352.688
66.70000 347.091
66.71000 342.994
66.72000 339.072
66.73000 338.184
66.74000 338.399
66.75000 339.231
66.76000 345.754
66.77000 353.655
66.78000 360.501
66.79000 360.869
66.80000 360.324
66.81000 359.112
66.82000 355.455
66.83000 351.574
66.84000 348.964
66.85000 349.472
66.86000 350.124
66.87000 350.532
66.88000 355.309
66.89000 358.805
66.90000 364.100
66.91000 371.337
66.92000 378.532
66.93000 380.394
66.94000 378.550
66.95000 376.748
66.96000 376.689
66.97000 377.408
66.98000 378.134
66.99000 378.943
67.00000 379.778
67.01000 380.730
67.02000 382.567
67.03000 384.587
67.04000 386.289
67.05000 392.024
67.06000 397.249
67.07000 399.929
67.08000 394.603
67.09000 388.693
67.10000 386.325
67.11000 391.466
67.12000 396.851
67.13000 400.016
67.14000 413.769
67.15000 423.517
67.16000 425.542
67.17000 420.538
67.18000 415.646
67.19000 417.814
67.20000 424.193
67.21000 430.364
67.22000 430.456
67.23000 428.239
67.24000 426.590
67.25000 430.974
67.26000 436.983
67.27000 442.742
67.28000 446.925
67.29000 450.832
67.30000 454.028
67.31000 447.490
67.32000 441.288
67.33000 435.692
67.34000 431.743
67.35000 427.887
67.36000 427.240
67.37000 432.458
67.38000 437.801
67.39000 440.727
67.40000 437.515
67.41000 435.331
67.42000 441.437
67.43000 453.955
67.44000 466.197
67.45000 467.706
67.46000 463.702
67.47000 459.877
67.48000 467.951
67.49000 479.289
67.50000 489.850
67.51000 493.710
67.52000 496.026
67.53000 497.116
67.54000 491.695
67.55000 485.318
67.56000 480.274
67.57000 494.918
67.58000 508.037
67.59000 517.307
67.60000 517.567
67.61000 517.453
67.62000 517.818
67.63000 518.935
67.64000 520.061
67.65000 520.630
67.66000 525.651
67.67000 528.986
67.68000 529.858
67.69000 529.099
67.70000 528.326
67.71000 527.163
67.72000 525.826
67.73000 524.568
67.74000 531.152
67.75000 539.312
67.76000 545.965
67.77000 541.873
67.78000 535.672
67.79000 530.500
67.80000 529.971
67.81000 530.008
67.82000 530.036
67.83000 548.192
67.84000 563.449
67.85000 573.397
67.86000 572.613
67.87000 571.521
67.88000 571.744
67.89000 573.737
67.90000 575.739
67.91000 579.040
67.92000 583.454
67.93000 587.845
67.94000 591.003
67.95000 593.461
67.96000 596.045
67.97000 601.073
67.98000 607.036
67.99000 612.555
68.00000 618.346
68.01000 623.614
68.02000 628.816
68.03000 633.623
68.04000 638.366
68.05000 643.074
68.06000 647.655
68.07000 652.222
68.08000 655.562
68.09000 650.867
68.10000 646.927
68.11000 647.025
68.12000 654.157
68.13000 661.416
68.14000 662.891
68.15000 657.738
68.16000 652.594
68.17000 659.201
68.18000 674.325
68.19000 689.042
68.20000 689.931
68.21000 684.045
68.22000 678.912
68.23000 684.792
68.24000 694.308
68.25000 702.950
68.26000 713.641
68.27000 723.480
68.28000 732.195
68.29000 735.246
68.30000 737.511
68.31000 744.990
68.32000 769.776
68.33000 795.939
68.34000 814.215
68.35000 813.182
68.36000 811.860
68.37000 813.956
68.38000 821.167
68.39000 828.428
68.40000 837.226
68.41000 847.511
68.42000 857.716
68.43000 862.393
68.44000 863.567
68.45000 865.573
68.46000 887.269
68.47000 917.293
68.48000 945.964
68.49000 959.060
68.50000 967.728
68.51000 975.431
68.52000 997.366
68.53000 1018.690
68.54000 1039.042
68.55000 1055.218
68.56000 1070.917
68.57000 1097.179
68.58000 1153.655
68.59000 1212.002
68.60000 1250.746
68.61000 1325.359
68.62000 1381.178
68.63000 1446.164
68.64000 1522.885
68.65000 1599.654
68.66000 1678.045
68.67000 1757.766
68.68000 1836.368
68.69000 1906.400
68.70000 1969.929
68.71000 2034.314
68.72000 2113.681
68.73000 2198.521
68.74000 2283.363
68.75000 2368.232
68.76000 2453.108
68.77000 2526.719
68.78000 2646.538
68.79000 2754.736
68.80000 2872.496
68.81000 3025.438
68.82000 3181.647
68.83000 3376.309
68.84000 3665.912
68.85000 3959.923
68.86000 4144.456
68.87000 4898.468
68.88000 5449.654
68.89000 6268.517
68.90000 7378.272
68.91000 8494.735
68.92000 10469.249
68.93000 13043.837
68.94000 15561.264
68.95000 19965.602
68.96000 25034.254
68.97000 30209.365
68.98000 36821.188
68.99000 43885.426
69.00000 50961.680
69.01000 58129.563
69.02000 65316.508
69.03000 71382.680
69.04000 76863.773
69.05000 81380.234
69.06000 85284.625
69.07000 87252.156
69.08000 89076.992
69.09000 90554.820
69.10000 91292.891
69.11000 92006.531
69.12000 92427.133
69.13000 93174.891
69.14000 93704.336
69.15000 94086.820
69.16000 94334.602
69.17000 94568.766
69.18000 93918.141
69.19000 92736.547
69.20000 91593.055
69.21000 88978.008
69.22000 85945.758
69.23000 82803.961
69.24000 78488.344
69.25000 73854.844
69.26000 69282.789
69.27000 65101.164
69.28000 60988.371
69.29000 57620.141
69.30000 54521.379
69.31000 52004.813
69.32000 49730.164
69.33000 48115.645
69.34000 46538.574
69.35000 44907.543
69.36000 43177.305
69.37000 41444.914
69.38000 40493.402
69.39000 36651.430
69.40000 34001.090
69.41000 31016.836
69.42000 27772.680
69.43000 24529.504
69.44000 21324.938
69.45000 18140.324
69.46000 15096.380
69.47000 12498.534
69.48000 10226.381
69.49000 8052.763
69.50000 6736.369
69.51000 5618.796
69.52000 4580.057
69.53000 3963.312
69.54000 3409.032
69.55000 2970.040
69.56000 2668.608
69.57000 2435.852
69.58000 2235.254
69.59000 2110.411
69.60000 1988.744
69.61000 1885.847
69.62000 1812.641
69.63000 1739.804
69.64000 1702.858
69.65000 1612.962
69.66000 1552.792
69.67000 1497.769
69.68000 1446.172
69.69000 1395.267
69.70000 1362.869
69.71000 1338.726
69.72000 1315.981
69.73000 1279.459
69.74000 1242.252
69.75000 1206.229
69.76000 1178.716
69.77000 1152.883
69.78000 1126.648
69.79000 1098.586
69.80000 1070.299
69.81000 1048.712
69.82000 1017.705
69.83000 992.767
69.84000 971.398
69.85000 957.286
69.86000 943.386
69.87000 935.591
69.88000 936.072
69.89000 936.598
69.90000 930.758
69.91000 919.406
69.92000 908.088
69.93000 898.668
69.94000 890.334
69.95000 881.571
69.96000 864.498
69.97000 844.226
69.98000 825.446
69.99000 816.378
70.00000 810.472
