20.00000 552.169
20.01000 565.063
20.02000 579.798
20.03000 588.134
20.04000 571.616
20.05000 552.609
20.06000 538.693
20.07000 545.945
20.08000 552.386
20.09000 557.721
20.10000 561.116
20.11000 564.476
20.12000 562.410
20.13000 554.093
20.14000 545.794
20.15000 552.100
20.16000 569.064
20.17000 585.505
20.18000 583.941
20.19000 573.512
20.20000 563.591
20.21000 561.148
20.22000 561.187
20.23000 561.223
20.24000 554.572
20.25000 547.393
20.26000 541.271
20.27000 540.504
20.28000 540.485
20.29000 539.836
20.30000 537.087
20.31000 534.170
20.32000 532.129
20.33000 541.975
20.34000 549.754
20.35000 555.135
20.36000 556.911
20.37000 558.650
20.38000 561.336
20.39000 564.943
20.40000 568.522
20.41000 564.585
20.42000 556.036
20.43000 548.041
20.44000 553.310
20.45000 564.216
20.46000 574.236
20.47000 573.996
20.48000 570.824
20.49000 568.003
20.50000 547.174
20.51000 526.172
20.52000 512.352
20.53000 529.537
20.54000 550.291
20.55000 564.596
20.56000 560.365
20.57000 554.976
20.58000 551.391
20.59000 548.001
20.60000 545.497
20.61000 545.397
20.62000 548.387
20.63000 551.386
20.64000 553.055
20.65000 553.628
20.66000 554.193
20.67000 552.552
20.68000 549.788
20.69000 547.510
20.70000 553.808
20.71000 563.251
20.72000 570.580
20.73000 558.148
20.74000 540.874
20.75000 525.880
20.76000 529.421
20.77000 534.926
20.78000 538.594
20.79000 535.467
20.80000 531.705
20.81000 529.426
20.82000 530.827
20.83000 532.401
20.84000 533.390
20.85000 532.534
20.86000 531.895
20.87000 532.866
20.88000 535.596
20.89000 538.345
20.90000 543.608
20.91000 550.637
20.92000 557.511
20.93000 556.409
20.94000 551.757
20.95000 547.268
20.96000 545.001
20.97000 543.438
20.98000 542.392
20.99000 545.321
21.00000 549.081
21.01000 552.257
21.02000 548.975
21.03000 545.521
21.04000 541.746
21.05000 536.949
21.06000 532.076
21.07000 530.637
21.08000 536.551
21.09000 542.712
21.10000 546.351
21.11000 548.526
21.12000 550.056
21.13000 553.763
21.14000 559.476
21.15000 565.089
21.16000 564.038
21.17000 558.968
21.18000 554.060
21.19000 547.397
21.20000 540.425
21.21000 534.467
21.22000 539.458
21.23000 547.428
21.24000 554.193
21.25000 553.262
21.26000 550.967
21.27000 549.085
21.28000 529.999
21.29000 512.820
21.30000 504.739
21.31000 521.600
21.32000 539.890
21.33000 548.823
21.34000 540.473
21.35000 531.742
21.36000 526.935
21.37000 532.897
21.38000 537.001
21.39000 535.038
21.40000 528.328
21.41000 521.760
21.42000 520.845
21.43000 522.866
21.44000 524.799
21.45000 530.152
21.46000 536.249
21.47000 541.851
21.48000 543.123
21.49000 543.385
21.50000 543.029
21.51000 539.343
21.52000 535.161
21.53000 531.846
21.54000 542.597
21.55000 552.232
21.56000 558.391
21.57000 556.326
21.58000 553.913
21.59000 553.098
21.60000 554.822
21.61000 556.579
21.62000 557.473
21.63000 550.068
21.64000 545.123
21.65000 542.314
21.66000 540.934
21.67000 539.663
21.68000 541.366
21.69000 544.402
21.70000 547.262
21.71000 542.089
21.72000 535.134
21.73000 529.491
21.74000 533.334
21.75000 539.061
21.76000 544.734
21.77000 550.163
21.78000 555.562
21.79000 559.687
21.80000 552.885
21.81000 546.930
21.82000 545.303
21.83000 552.517
21.84000 559.993
21.85000 565.339
21.86000 567.783
21.87000 570.210
21.88000 570.623
21.89000 569.279
21.90000 567.976
21.91000 568.972
21.92000 571.290
21.93000 573.625
21.94000 576.304
21.95000 579.117
21.96000 581.723
21.97000 569.360
21.98000 554.740
21.99000 543.444
22.00000 552.232
22.01000 564.391
22.02000 576.053
22.03000 585.774
22.04000 595.298
22.05000 602.283
22.06000 593.905
22.07000 586.811
22.08000 582.172
22.09000 581.856
22.10000 581.621
22.11000 580.413
22.12000 578.074
22.13000 575.741
22.14000 574.686
22.15000 574.582
22.16000 574.502
22.17000 575.265
22.18000 576.447
22.19000 577.799
22.20000 581.695
22.21000 586.442
22.22000 590.758
22.23000 581.791
22.24000 571.257
22.25000 561.347
22.26000 554.625
22.27000 548.350
22.28000 544.760
22.29000 550.174
22.30000 556.318
22.31000 560.624
22.32000 544.209
22.33000 531.194
22.34000 523.583
22.35000 524.153
22.36000 524.807
22.37000 531.055
22.38000 542.781
22.39000 554.422
22.40000 553.972
22.41000 545.956
22.42000 538.098
22.43000 534.094
22.44000 531.737
22.45000 529.562
22.46000 529.508
22.47000 530.063
22.48000 530.557
22.49000 526.919
22.50000 523.082
22.51000 520.509
22.52000 523.420
22.53000 526.968
22.54000 530.244
22.55000 532.733
22.56000 535.173
22.57000 536.799
22.58000 534.937
22.59000 533.491
22.60000 530.379
22.61000 525.109
22.62000 519.833
22.63000 515.962
22.64000 513.255
22.65000 510.585
22.66000 509.546
22.67000 509.403
22.68000 509.244
22.69000 508.783
22.70000 508.210
22.71000 508.290
22.72000 514.516
22.73000 522.257
22.74000 528.983
22.75000 521.756
22.76000 513.705
22.77000 507.183
22.78000 506.347
22.79000 506.047
22.80000 506.863
22.81000 510.465
22.82000 514.199
22.83000 516.553
22.84000 514.392
22.85000 512.776
22.86000 515.902
22.87000 524.243
22.88000 532.528
22.89000 532.582
22.90000 526.816
22.91000 521.174
22.92000 515.997
22.93000 511.239
22.94000 506.832
22.95000 507.237
22.96000 509.174
22.97000 510.913
22.98000 511.124
22.99000 511.013
23.00000 510.919
23.01000 503.189
23.02000 495.874
23.03000 491.948
23.04000 498.859
23.05000 506.584
23.06000 511.095
23.07000 508.685
23.08000 506.039
23.09000 504.472
23.10000 503.713
23.11000 503.182
23.12000 507.757
23.13000 517.068
23.14000 526.184
23.15000 522.082
23.16000 509.961
23.17000 498.221
23.18000 493.081
23.19000 490.766
23.20000 489.189
23.21000 495.650
23.22000 504.311
23.23000 511.884
23.24000 512.457
23.25000 511.781
23.26000 511.227
23.27000 503.867
23.28000 497.217
23.29000 490.859
23.30000 485.301
23.31000 479.790
23.32000 481.180
23.33000 495.398
23.34000 509.903
23.35000 517.913
23.36000 509.782
23.37000 504.150
23.38000 500.029
23.39000 497.097
23.40000 494.176
23.41000 491.733
23.42000 489.541
23.43000 487.443
23.44000 492.768
23.45000 500.161
23.46000 505.680
23.47000 494.647
23.48000 479.732
23.49000 469.256
23.50000 482.833
23.51000 500.017
23.52000 513.661
23.53000 510.079
23.54000 505.977
23.55000 500.589
23.56000 492.140
23.57000 483.560
23.58000 483.760
23.59000 498.001
23.60000 512.426
23.61000 519.788
23.62000 509.956
23.63000 503.413
23.64000 503.081
23.65000 506.930
23.66000 510.614
23.67000 509.795
23.68000 506.947
23.69000 504.260
23.70000 501.990
23.71000 500.025
23.72000 498.014
23.73000 495.662
23.74000 493.243
23.75000 491.295
23.76000 491.519
23.77000 492.013
23.78000 492.391
23.79000 498.694
23.80000 503.992
23.81000 509.783
23.82000 516.589
23.83000 523.425
23.84000 524.492
23.85000 517.653
23.86000 510.771
23.87000 505.336
23.88000 501.179
23.89000 497.088
23.90000 496.746
23.91000 498.572
23.92000 500.385
23.93000 501.949
23.94000 503.416
23.95000 504.777
23.96000 507.457
23.97000 510.180
23.98000 512.556
23.99000 512.818
24.00000 512.724
24.01000 510.283
24.02000 498.618
24.03000 486.013
24.04000 476.751
24.05000 482.621
24.06000 487.778
24.07000 492.101
24.08000 494.947
24.09000 497.764
24.10000 500.171
24.11000 502.098
24.12000 504.019
24.13000 507.521
24.14000 512.174
24.15000 516.543
24.16000 510.865
24.17000 500.180
24.18000 489.866
24.19000 485.130
24.20000 482.266
24.21000 479.659
24.22000 480.792
24.23000 482.532
24.24000 483.800
24.25000 482.636
24.26000 481.128
24.27000 479.077
24.28000 475.188
24.29000 471.150
24.30000 468.313
24.31000 471.586
24.32000 474.242
24.33000 478.009
24.34000 483.469
24.35000 488.947
24.36000 495.310
24.37000 502.546
24.38000 509.730
24.39000 504.021
24.40000 490.272
24.41000 476.773
24.42000 469.408
24.43000 464.682
24.44000 460.457
24.45000 462.143
24.46000 465.539
24.47000 468.564
24.48000 471.306
24.49000 473.643
24.50000 475.159
24.51000 473.088
24.52000 470.597
24.53000 469.639
24.54000 473.138
24.55000 476.921
24.56000 479.448
24.57000 483.479
24.58000 486.495
24.59000 489.326
24.60000 491.916
24.61000 494.499
24.62000 493.372
24.63000 489.150
24.64000 484.984
24.65000 479.438
24.66000 473.302
24.67000 467.566
24.68000 469.071
24.69000 473.265
24.70000 477.013
24.71000 476.529
24.72000 474.996
24.73000 473.662
24.74000 474.708
24.75000 475.926
24.76000 476.372
24.77000 473.929
24.78000 471.211
24.79000 470.271
24.80000 473.792
24.81000 477.527
24.82000 479.888
24.83000 479.363
24.84000 478.949
24.85000 479.667
24.86000 481.639
24.87000 483.562
24.88000 478.315
24.89000 467.965
24.90000 457.833
24.91000 465.656
24.92000 481.362
24.93000 495.697
24.94000 491.002
24.95000 480.213
24.96000 470.243
24.97000 466.656
24.98000 464.422
24.99000 462.529
25.00000 470.071
25.01000 477.440
25.02000 481.343
25.03000 474.096
25.04000 466.004
25.05000 461.321
25.06000 464.029
25.07000 466.991
25.08000 468.750
25.09000 468.711
25.10000 468.672
25.11000 464.696
25.12000 457.043
25.13000 449.587
25.14000 455.810
25.15000 470.383
25.16000 484.504
25.17000 480.829
25.18000 470.439
25.19000 460.749
25.20000 458.753
25.21000 458.877
25.22000 459.795
25.23000 465.859
25.24000 472.847
25.25000 478.590
25.26000 474.011
25.27000 469.318
25.28000 465.950
25.29000 466.256
25.30000 466.777
25.31000 465.763
25.32000 461.880
25.33000 457.932
25.34000 455.745
25.35000 453.803
25.36000 452.485
25.37000 458.198
25.38000 469.483
25.39000 480.417
25.40000 476.762
25.41000 465.441
25.42000 454.603
25.43000 450.969
25.44000 449.960
25.45000 449.783
25.46000 457.008
25.47000 465.980
25.48000 473.574
25.49000 473.648
25.50000 472.587
25.51000 471.743
25.52000 465.946
25.53000 460.921
25.54000 457.375
25.55000 457.372
25.56000 457.522
25.57000 456.645
25.58000 454.113
25.59000 451.559
25.60000 450.252
25.61000 452.023
25.62000 453.190
25.63000 451.790
25.64000 448.652
25.65000 445.553
25.66000 443.549
25.67000 442.043
25.68000 440.622
25.69000 443.330
25.70000 446.969
25.71000 451.052
25.72000 458.390
25.73000 466.383
25.74000 471.471
25.75000 463.108
25.76000 453.057
25.77000 445.352
25.78000 447.589
25.79000 449.906
25.80000 450.917
25.81000 449.230
25.82000 447.461
25.83000 449.536
25.84000 456.915
25.85000 464.323
25.86000 461.631
25.87000 450.011
25.88000 438.643
25.89000 441.884
25.90000 453.621
25.91000 464.817
25.92000 465.132
25.93000 461.187
25.94000 457.525
25.95000 459.502
25.96000 462.618
25.97000 463.903
25.98000 453.979
25.99000 442.146
26.00000 434.695
26.01000 444.575
26.02000 456.236
26.03000 464.818
26.04000 459.212
26.05000 454.286
26.06000 452.566
26.07000 456.559
26.08000 460.664
26.09000 461.661
26.10000 459.004
26.11000 456.348
26.12000 457.557
26.13000 461.648
26.14000 465.575
26.15000 463.587
26.16000 458.633
26.17000 453.459
26.18000 444.931
26.19000 435.271
26.20000 426.472
26.21000 425.968
26.22000 427.172
26.23000 428.788
26.24000 432.539
26.25000 436.595
26.26000 438.777
26.27000 434.595
26.28000 429.888
26.29000 426.576
26.30000 437.777
26.31000 446.696
26.32000 450.871
26.33000 447.776
26.34000 444.602
26.35000 441.548
26.36000 438.615
26.37000 435.702
26.38000 438.941
26.39000 446.037
26.40000 452.647
26.41000 447.197
26.42000 436.530
26.43000 427.240
26.44000 434.371
26.45000 446.280
26.46000 456.899
26.47000 449.943
26.48000 440.974
26.49000 434.819
26.50000 441.040
26.51000 448.722
26.52000 455.240
26.53000 458.353
26.54000 461.247
26.55000 463.184
26.56000 459.667
26.57000 456.950
26.58000 453.112
26.59000 447.804
26.60000 442.497
26.61000 440.919
26.62000 442.473
26.63000 444.007
26.64000 447.858
26.65000 452.856
26.66000 457.127
26.67000 448.093
26.68000 434.090
26.69000 421.947
26.70000 427.617
26.71000 437.737
26.72000 446.547
26.73000 448.488
26.74000 449.200
26.75000 448.556
26.76000 442.800
26.77000 436.553
26.78000 431.470
26.79000 429.326
26.80000 427.325
26.81000 426.058
26.82000 445.548
26.83000 459.932
26.84000 459.845
26.85000 443.622
26.86000 427.479
26.87000 425.004
26.88000 432.318
26.89000 439.479
26.90000 439.454
26.91000 436.128
26.92000 432.821
26.93000 429.772
26.94000 426.806
26.95000 424.462
26.96000 427.001
26.97000 430.581
26.98000 433.616
26.99000 429.417
27.00000 425.084
27.01000 421.937
27.02000 422.633
27.03000 423.622
27.04000 425.825
27.05000 430.674
27.06000 435.616
27.07000 438.558
27.08000 439.993
27.09000 440.999
27.10000 438.578
27.11000 432.934
27.12000 427.348
27.13000 425.955
27.14000 427.136
27.15000 428.282
27.16000 430.775
27.17000 433.663
27.18000 436.462
27.19000 438.271
27.20000 439.807
27.21000 440.898
27.22000 439.084
27.23000 436.745
27.24000 434.819
27.25000 439.128
27.26000 443.237
27.27000 444.221
27.28000 436.479
27.29000 428.220
27.30000 424.579
27.31000 429.622
27.32000 434.868
27.33000 437.782
27.34000 435.374
27.35000 433.687
27.36000 427.842
27.37000 418.679
27.38000 409.743
27.39000 410.351
27.40000 416.005
27.41000 421.421
27.42000 423.682
27.43000 424.743
27.44000 425.670
27.45000 425.402
27.46000 424.850
27.47000 424.762
27.48000 427.223
27.49000 430.072
27.50000 432.341
27.51000 430.924
27.52000 429.517
27.53000 428.465
27.54000 428.270
27.55000 428.114
27.56000 427.686
27.57000 426.818
27.58000 425.944
27.59000 425.494
27.60000 421.268
27.61000 418.420
27.62000 415.049
27.63000 411.322
27.64000 407.832
27.65000 411.024
27.66000 417.265
27.67000 423.158
27.68000 424.324
27.69000 424.062
27.70000 423.780
27.71000 423.347
27.72000 422.884
27.73000 421.190
27.74000 413.758
27.75000 405.600
27.76000 399.338
27.77000 405.471
27.78000 411.011
27.79000 415.620
27.80000 418.291
27.81000 420.902
27.82000 423.293
27.83000 425.377
27.84000 427.459
27.85000 425.159
27.86000 418.963
27.87000 412.835
27.88000 410.759
27.89000 411.055
27.90000 411.548
27.91000 416.042
27.92000 422.112
27.93000 427.750
27.94000 424.509
27.95000 419.472
27.96000 415.015
27.97000 414.135
27.98000 413.868
27.99000 412.644
28.00000 407.606
28.01000 402.174
28.02000 398.169
28.03000 405.167
28.04000 411.048
28.05000 414.509
28.06000 413.630
28.07000 412.665
28.08000 412.569
28.09000 413.502
28.10000 414.435
28.11000 417.192
28.12000 421.304
28.13000 425.312
28.14000 425.471
28.15000 423.690
28.16000 421.770
28.17000 417.734
28.18000 412.978
28.19000 408.642
28.20000 405.049
28.21000 402.013
28.22000 399.978
28.23000 403.162
28.24000 407.095
28.25000 410.407
28.26000 411.601
28.27000 412.618
28.28000 413.335
28.29000 416.974
28.30000 419.822
28.31000 422.511
28.32000 424.953
28.33000 427.392
28.34000 424.099
28.35000 415.072
28.36000 406.105
28.37000 404.648
28.38000 408.011
28.39000 411.189
28.40000 409.703
28.41000 406.187
28.42000 402.794
28.43000 400.885
28.44000 399.411
28.45000 398.095
28.46000 404.726
28.47000 411.827
28.48000 418.271
28.49000 421.807
28.50000 424.998
28.51000 428.679
28.52000 433.806
28.53000 439.027
28.54000 442.530
28.55000 425.069
28.56000 411.683
28.57000 406.957
28.58000 413.659
28.59000 420.401
28.60000 419.619
28.61000 412.473
28.62000 405.418
28.63000 405.508
28.64000 409.477
28.65000 413.409
28.66000 416.668
28.67000 419.673
28.68000 422.234
28.69000 420.506
28.70000 417.699
28.71000 415.253
28.72000 414.992
28.73000 415.072
28.74000 415.224
28.75000 415.644
28.76000 416.091
28.77000 417.768
28.78000 422.567
28.79000 427.521
28.80000 430.665
28.81000 426.919
28.82000 424.115
28.83000 419.147
28.84000 411.753
28.85000 404.421
28.86000 407.124
28.87000 417.059
28.88000 426.791
28.89000 424.896
28.90000 417.698
28.91000 411.144
28.92000 413.706
28.93000 419.222
28.94000 423.043
28.95000 413.455
28.96000 400.990
28.97000 390.410
28.98000 394.722
28.99000 400.029
29.00000 404.812
29.01000 407.889
29.02000 410.833
29.03000 409.827
29.04000 400.156
29.05000 390.177
29.06000 384.220
29.07000 390.468
29.08000 394.974
29.09000 397.658
29.10000 398.617
29.11000 399.547
29.12000 398.365
29.13000 395.879
29.14000 393.468
29.15000 398.776
29.16000 406.844
29.17000 414.167
29.18000 413.157
29.19000 409.824
29.20000 406.770
29.21000 405.555
29.22000 404.675
29.23000 403.950
29.24000 399.712
29.25000 395.902
29.26000 396.745
29.27000 410.652
29.28000 425.341
29.29000 433.219
29.30000 428.212
29.31000 422.900
29.32000 419.940
29.33000 413.371
29.34000 408.828
29.35000 407.471
29.36000 408.671
29.37000 409.775
29.38000 406.711
29.39000 401.432
29.40000 396.372
29.41000 390.916
29.42000 385.692
29.43000 381.138
29.44000 382.657
29.45000 385.628
29.46000 388.894
29.47000 393.790
29.48000 398.935
29.49000 403.038
29.50000 397.230
29.51000 391.821
29.52000 389.022
29.53000 392.552
29.54000 396.364
29.55000 399.629
29.56000 402.005
29.57000 404.368
29.58000 405.586
29.59000 399.856
29.60000 396.009
29.61000 393.817
29.62000 392.758
29.63000 391.770
29.64000 392.778
29.65000 394.703
29.66000 396.522
29.67000 398.262
29.68000 399.836
29.69000 400.449
29.70000 393.905
29.71000 385.902
29.72000 378.341
29.73000 372.853
29.74000 367.630
29.75000 363.614
29.76000 380.460
29.77000 394.965
29.78000 403.343
29.79000 398.899
29.80000 394.051
29.81000 393.686
29.82000 399.581
29.83000 405.517
29.84000 406.064
29.85000 401.779
29.86000 397.565
29.87000 397.645
29.88000 400.253
29.89000 402.688
29.90000 401.575
29.91000 399.056
29.92000 396.714
29.93000 394.816
29.94000 393.208
29.95000 391.550
29.96000 389.577
29.97000 387.551
29.98000 386.167
29.99000 387.358
30.00000 388.819
30.01000 389.898
30.02000 387.248
30.03000 385.036
30.04000 386.895
30.05000 396.098
30.06000 405.451
30.07000 406.625
30.08000 398.061
30.09000 389.499
30.10000 390.041
30.11000 397.479
30.12000 404.589
30.13000 399.466
30.14000 388.136
30.15000 377.447
30.16000 376.698
30.17000 379.347
30.18000 381.764
30.19000 387.305
30.20000 392.848
30.21000 397.080
30.22000 394.433
30.23000 390.792
30.24000 387.465
30.25000 385.221
30.26000 383.069
30.27000 381.549
30.28000 378.039
30.29000 375.314
30.30000 376.870
30.31000 385.070
30.32000 393.346
30.33000 397.955
30.34000 398.869
30.35000 399.777
30.36000 397.628
30.37000 393.546
30.38000 389.604
30.39000 389.276
30.40000 390.531
30.41000 391.454
30.42000 388.360
30.43000 384.082
30.44000 380.261
30.45000 384.285
30.46000 389.113
30.47000 393.635
30.48000 396.790
30.49000 399.782
30.50000 400.878
30.51000 396.361
30.52000 391.475
30.53000 388.190
30.54000 385.734
30.55000 383.927
30.56000 385.535
30.57000 391.679
30.58000 397.836
30.59000 398.791
30.60000 395.318
30.61000 391.887
30.62000 392.876
30.63000 396.255
30.64000 399.416
30.65000 398.492
30.66000 396.024
30.67000 393.388
30.68000 389.112
30.69000 384.422
30.70000 380.331
30.71000 383.221
30.72000 386.668
30.73000 390.912
30.74000 398.197
30.75000 405.779
30.76000 409.294
30.77000 402.418
30.78000 395.023
30.79000 390.318
30.80000 401.628
30.81000 410.047
30.82000 411.971
30.83000 406.555
30.84000 401.179
30.85000 403.445
30.86000 411.254
30.87000 418.906
30.88000 422.536
30.89000 424.157
30.90000 425.671
30.91000 425.663
30.92000 425.158
30.93000 424.744
30.94000 425.053
30.95000 425.517
30.96000 425.912
30.97000 431.105
30.98000 436.013
30.99000 441.887
31.00000 450.924
31.01000 460.207
31.02000 467.318
31.03000 469.634
31.04000 471.777
31.05000 473.060
31.06000 490.858
31.07000 503.597
31.08000 509.765
31.09000 509.667
31.10000 509.727
31.11000 521.565
31.12000 540.726
31.13000 559.317
31.14000 576.544
31.15000 592.339
31.16000 607.711
31.17000 618.305
31.18000 627.559
31.19000 638.583
31.20000 661.333
31.21000 686.233
31.22000 706.776
31.23000 709.297
31.24000 709.704
31.25000 712.888
31.26000 723.912
31.27000 735.411
31.28000 745.101
31.29000 751.348
31.30000 757.512
31.31000 760.956
31.32000 770.227
31.33000 776.661
31.34000 783.604
31.35000 790.958
31.36000 797.991
31.37000 790.975
31.38000 776.440
31.39000 762.505
31.40000 748.189
31.41000 734.693
31.42000 721.540
31.43000 711.514
31.44000 702.241
31.45000 692.682
31.46000 681.535
31.47000 670.143
31.48000 661.046
31.49000 635.111
31.50000 612.927
31.51000 595.371
31.52000 589.099
31.53000 583.338
31.54000 573.011
31.55000 555.203
31.56000 537.287
31.57000 528.021
31.58000 521.772
31.59000 517.497
31.60000 505.649
31.61000 488.576
31.62000 471.860
31.63000 465.544
31.64000 464.028
31.65000 462.595
31.66000 450.268
31.67000 435.832
31.68000 422.807
31.69000 420.372
31.70000 420.111
31.71000 419.168
31.72000 415.011
31.73000 410.441
31.74000 406.921
31.75000 408.291
31.76000 409.655
31.77000 409.414
31.78000 405.796
31.79000 402.070
31.80000 398.992
31.81000 396.827
31.82000 394.668
31.83000 391.510
31.84000 387.453
31.85000 383.423
31.86000 381.088
31.87000 379.757
31.88000 378.494
31.89000 378.671
31.90000 379.421
31.91000 380.118
31.92000 377.438
31.93000 374.202
31.94000 371.483
31.95000 372.000
31.96000 373.079
31.97000 374.013
31.98000 374.357
31.99000 374.639
32.00000 374.848
32.01000 385.250
32.02000 393.757
32.03000 396.504
32.04000 388.797
32.05000 380.872
32.06000 374.151
32.07000 368.872
32.08000 363.609
32.09000 362.294
32.10000 364.001
32.11000 365.608
32.12000 363.405
32.13000 359.257
32.14000 355.340
32.15000 355.046
32.16000 356.000
32.17000 356.870
32.18000 355.294
32.19000 353.398
32.20000 351.978
32.21000 353.064
32.22000 354.516
32.23000 355.691
32.24000 355.910
32.25000 356.047
32.26000 356.144
32.27000 362.348
32.28000 367.251
32.29000 367.562
32.30000 360.704
32.31000 353.762
32.32000 350.590
32.33000 351.242
32.34000 351.890
32.35000 352.361
32.36000 352.709
32.37000 353.256
32.38000 358.955
32.39000 366.921
32.40000 373.671
32.41000 365.509
32.42000 352.928
32.43000 341.678
32.44000 347.830
32.45000 356.147
32.46000 362.323
32.47000 358.890
32.48000 354.298
32.49000 351.323
32.50000 353.169
32.51000 355.335
32.52000 356.794
32.53000 357.710
32.54000 358.380
32.55000 357.710
32.56000 355.247
32.57000 352.778
32.58000 352.385
32.59000 353.770
32.60000 355.139
32.61000 358.323
32.62000 362.427
32.63000 366.046
32.64000 360.494
32.65000 351.455
32.66000 343.424
32.67000 345.284
32.68000 349.661
32.69000 353.484
32.70000 350.771
32.71000 347.529
32.72000 344.418
32.73000 341.805
32.74000 339.241
32.75000 336.482
32.76000 333.222
32.77000 329.937
32.78000 327.841
32.79000 337.870
32.80000 345.320
32.81000 347.772
32.82000 344.538
32.83000 341.311
32.84000 340.229
32.85000 340.713
32.86000 341.188
32.87000 338.483
32.88000 334.391
32.89000 330.658
32.90000 332.116
32.91000 335.277
32.92000 339.070
32.93000 347.941
32.94000 357.916
32.95000 366.401
32.96000 357.537
32.97000 348.088
32.98000 340.964
32.99000 341.507
33.00000 342.652
33.01000 342.006
33.02000 337.385
33.03000 332.620
33.04000 329.760
33.05000 328.185
33.06000 327.076
33.07000 330.258
33.08000 337.561
33.09000 344.743
33.10000 342.632
33.11000 334.708
33.12000 327.016
33.13000 326.036
33.14000 327.782
33.15000 329.601
33.16000 332.245
33.17000 335.122
33.18000 337.841
33.19000 339.500
33.20000 340.964
33.21000 342.173
33.22000 335.433
33.23000 329.136
33.24000 324.867
33.25000 326.363
33.26000 328.210
33.27000 330.075
33.28000 331.972
33.29000 333.870
33.30000 334.934
33.31000 330.717
33.32000 327.783
33.33000 325.322
33.34000 323.245
33.35000 321.388
33.36000 329.351
33.37000 342.598
33.38000 355.307
33.39000 351.777
33.40000 342.976
33.41000 334.925
33.42000 333.775
33.43000 334.295
33.44000 334.290
33.45000 331.346
33.46000 327.944
33.47000 325.225
33.48000 337.271
33.49000 348.104
33.50000 353.440
33.51000 345.291
33.52000 336.526
33.53000 331.056
33.54000 331.019
33.55000 331.063
33.56000 331.086
33.57000 335.397
33.58000 338.292
33.59000 338.978
33.60000 338.132
33.61000 337.455
33.62000 341.784
33.63000 348.437
33.64000 354.730
33.65000 347.072
33.66000 336.020
33.67000 326.468
33.68000 328.250
33.69000 332.373
33.70000 337.185
33.71000 345.272
33.72000 353.782
33.73000 360.346
33.74000 348.238
33.75000 337.566
33.76000 331.108
33.77000 333.575
33.78000 336.332
33.79000 336.211
33.80000 332.019
33.81000 327.798
33.82000 327.009
33.83000 329.340
33.84000 331.630
33.85000 331.429
33.86000 329.743
33.87000 328.053
33.88000 326.283
33.89000 324.481
33.90000 322.804
33.91000 327.127
33.92000 332.494
33.93000 336.618
33.94000 332.907
33.95000 327.827
33.96000 323.749
33.97000 323.737
33.98000 324.158
33.99000 324.470
34.00000 335.525
34.01000 344.575
34.02000 348.962
34.03000 344.833
34.04000 340.524
34.05000 335.403
34.06000 329.303
34.07000 323.215
34.08000 319.731
34.09000 318.267
34.10000 316.905
34.11000 319.518
34.12000 324.171
34.13000 328.632
34.14000 330.062
34.15000 330.442
34.16000 330.790
34.17000 330.632
34.18000 330.389
34.19000 330.675
34.20000 333.772
34.21000 337.282
34.22000 339.090
34.23000 334.975
34.24000 330.354
34.25000 327.077
34.26000 326.501
34.27000 326.149
34.28000 325.557
34.29000 324.589
34.30000 323.617
34.31000 328.348
34.32000 338.903
34.33000 349.393
34.34000 350.507
34.35000 345.493
34.36000 340.659
34.37000 340.514
34.38000 342.448
34.39000 343.831
34.40000 338.400
34.41000 330.939
34.42000 324.261
34.43000 324.767
34.44000 326.437
34.45000 328.719
34.46000 333.768
34.47000 339.153
34.48000 340.977
34.49000 332.127
34.50000 322.561
34.51000 316.103
34.52000 315.972
34.53000 316.009
34.54000 317.992
34.55000 322.593
34.56000 327.198
34.57000 325.238
34.58000 317.613
34.59000 310.078
34.60000 311.286
34.61000 317.306
34.62000 323.007
34.63000 322.570
34.64000 319.785
34.65000 317.124
34.66000 315.688
34.67000 314.565
34.68000 313.584
34.69000 316.841
34.70000 320.233
34.71000 322.028
34.72000 317.659
34.73000 312.678
34.74000 310.201
34.75000 314.200
34.76000 318.529
34.77000 321.297
34.78000 323.693
34.79000 325.432
34.80000 324.577
34.81000 320.752
34.82000 316.931
34.83000 314.432
34.84000 312.904
34.85000 311.406
34.86000 309.971
34.87000 308.618
34.88000 307.396
34.89000 308.073
34.90000 309.376
34.91000 310.252
34.92000 307.657
34.93000 304.303
34.94000 301.446
34.95000 302.231
34.96000 303.314
34.97000 303.633
34.98000 301.417
34.99000 298.999
35.00000 299.240
35.01000 305.419
35.02000 311.818
35.03000 315.667
35.04000 314.901
35.05000 314.325
35.06000 315.906
35.07000 319.572
35.08000 323.269
35.09000 329.316
35.10000 336.844
35.11000 344.154
35.12000 335.610
35.13000 321.137
35.14000 307.527
35.15000 303.841
35.16000 302.975
35.17000 302.198
35.18000 302.023
35.19000 301.960
35.20000 301.908
35.21000 302.672
35.22000 303.379
35.23000 303.208
35.24000 300.526
35.25000 297.689
35.26000 294.939
35.27000 292.357
35.28000 289.780
35.29000 288.331
35.30000 290.171
35.31000 291.463
35.32000 295.552
35.33000 301.929
35.34000 308.169
35.35000 308.166
35.36000 304.782
35.37000 301.535
35.38000 298.135
35.39000 294.905
35.40000 292.152
35.41000 293.822
35.42000 296.571
35.43000 298.965
35.44000 299.357
35.45000 299.435
35.46000 299.498
35.47000 300.144
35.48000 300.711
35.49000 300.219
35.50000 297.118
35.51000 293.896
35.52000 293.675
35.53000 298.432
35.54000 303.265
35.55000 305.782
35.56000 306.093
35.57000 306.273
35.58000 302.493
35.59000 295.947
35.60000 289.709
35.61000 292.679
35.62000 299.950
35.63000 306.833
35.64000 305.757
35.65000 302.463
35.66000 299.797
35.67000 301.905
35.68000 305.007
35.69000 307.642
35.70000 308.046
35.71000 308.160
35.72000 308.248
35.73000 306.187
35.74000 304.428
35.75000 302.588
35.76000 300.575
35.77000 298.557
35.78000 295.341
35.79000 290.420
35.80000 285.488
35.81000 285.267
35.82000 289.359
35.83000 293.405
35.84000 294.466
35.85000 293.739
35.86000 293.110
35.87000 294.584
35.88000 296.906
35.89000 299.069
35.90000 298.193
35.91000 296.657
35.92000 295.779
35.93000 299.068
35.94000 303.092
35.95000 305.920
35.96000 303.871
35.97000 301.300
35.98000 299.391
35.99000 300.107
36.00000 300.779
36.01000 300.014
36.02000 296.610
36.03000 293.149
36.04000 293.104
36.05000 297.206
36.06000 301.310
36.07000 303.651
36.08000 304.617
36.09000 305.572
36.10000 306.081
36.11000 306.360
36.12000 306.327
36.13000 301.313
36.14000 294.564
36.15000 288.392
36.16000 293.914
36.17000 301.230
36.18000 306.876
36.19000 303.587
36.20000 298.978
36.21000 294.882
36.22000 292.583
36.23000 290.439
36.24000 288.916
36.25000 296.358
36.26000 302.307
36.27000 303.148
36.28000 295.917
36.29000 288.586
36.30000 287.478
36.31000 292.770
36.32000 298.032
36.33000 296.706
36.34000 291.077
36.35000 285.650
36.36000 285.605
36.37000 287.960
36.38000 290.524
36.39000 295.703
36.40000 301.667
36.41000 307.009
36.42000 304.902
36.43000 301.779
36.44000 298.540
36.45000 294.775
36.46000 290.945
36.47000 287.073
36.48000 283.074
36.49000 279.067
36.50000 276.357
36.51000 276.162
36.52000 276.072
36.53000 274.454
36.54000 270.769
36.55000 267.078
36.56000 267.893
36.57000 272.621
36.58000 277.294
36.59000 282.779
36.60000 288.584
36.61000 294.069
36.62000 293.358
36.63000 290.262
36.64000 287.178
36.65000 284.210
36.66000 281.271
36.67000 278.699
36.68000 283.548
36.69000 288.765
36.70000 291.307
36.71000 283.455
36.72000 274.562
36.73000 270.994
36.74000 281.281
36.75000 292.284
36.76000 299.334
36.77000 292.220
36.78000 286.846
36.79000 283.306
36.80000 281.881
36.81000 280.472
36.82000 281.532
36.83000 284.416
36.84000 287.245
36.85000 291.933
36.86000 297.333
36.87000 302.487
36.88000 304.028
36.89000 304.369
36.90000 303.933
36.91000 297.146
36.92000 288.961
36.93000 281.983
36.94000 278.463
36.95000 275.908
36.96000 276.069
36.97000 285.293
36.98000 295.245
36.99000 301.157
37.00000 298.000
37.01000 294.502
37.02000 292.392
37.03000 271.399
37.04000 256.322
37.05000 258.880
37.06000 278.604
37.07000 298.116
37.08000 300.481
37.09000 291.988
37.10000 283.736
37.11000 279.522
37.12000 277.148
37.13000 275.049
37.14000 276.131
37.15000 278.122
37.16000 280.632
37.17000 286.661
37.18000 293.348
37.19000 298.886
37.20000 289.231
37.21000 279.817
37.22000 273.633
37.23000 276.736
37.24000 280.420
37.25000 279.338
37.26000 269.019
37.27000 258.465
37.28000 252.515
37.29000 268.665
37.30000 279.934
37.31000 287.143
37.32000 291.009
37.33000 294.668
37.34000 288.741
37.35000 277.590
37.36000 266.883
37.37000 268.325
37.38000 273.845
37.39000 278.876
37.40000 279.328
37.41000 278.657
37.42000 277.878
37.43000 276.482
37.44000 274.988
37.45000 273.791
37.46000 281.468
37.47000 288.355
37.48000 292.054
37.49000 287.840
37.50000 283.256
37.51000 279.637
37.52000 277.631
37.53000 275.650
37.54000 274.616
37.55000 278.993
37.56000 281.942
37.57000 282.975
37.58000 282.659
37.59000 282.453
37.60000 285.565
37.61000 290.235
37.62000 294.658
37.63000 286.000
37.64000 274.217
37.65000 264.404
37.66000 269.708
37.67000 278.176
37.68000 285.074
37.69000 284.415
37.70000 282.763
37.71000 281.484
37.72000 284.794
37.73000 287.691
37.74000 287.941
37.75000 282.517
37.76000 276.904
37.77000 274.383
37.78000 276.293
37.79000 278.236
37.80000 279.637
37.81000 280.536
37.82000 281.468
37.83000 284.525
37.84000 288.863
37.85000 292.953
37.86000 291.665
37.87000 288.195
37.88000 284.960
37.89000 284.632
37.90000 285.052
37.91000 284.800
37.92000 280.256
37.93000 274.950
37.94000 269.808
37.95000 265.335
37.96000 260.934
37.97000 257.662
37.98000 268.911
37.99000 278.307
38.00000 286.169
38.01000 291.199
38.02000 296.166
38.03000 294.845
38.04000 285.837
38.05000 276.829
38.06000 275.355
38.07000 279.757
38.08000 284.053
38.09000 284.115
38.10000 281.977
38.11000 279.746
38.12000 276.009
38.13000 271.743
38.14000 267.839
38.15000 276.196
38.16000 286.172
38.17000 293.805
38.18000 288.819
38.19000 281.953
38.20000 276.757
38.21000 277.443
38.22000 278.640
38.23000 279.492
38.24000 283.319
38.25000 286.331
38.26000 287.333
38.27000 285.140
38.28000 282.907
38.29000 284.615
38.30000 290.405
38.31000 296.163
38.32000 291.166
38.33000 279.135
38.34000 267.510
38.35000 266.897
38.36000 271.220
38.37000 275.815
38.38000 283.846
38.39000 292.914
38.40000 301.044
38.41000 306.231
38.42000 310.253
38.43000 314.262
38.44000 318.209
38.45000 322.148
38.46000 324.741
38.47000 323.251
38.48000 321.481
38.49000 320.280
38.50000 339.814
38.51000 354.836
38.52000 364.218
38.53000 365.914
38.54000 367.573
38.55000 374.986
38.56000 387.429
38.57000 399.732
38.58000 405.009
38.59000 406.218
38.60000 407.361
38.61000 407.190
38.62000 406.512
38.63000 406.179
38.64000 409.331
38.65000 413.386
38.66000 416.938
38.67000 433.672
38.68000 449.925
38.69000 460.359
38.70000 448.044
38.71000 433.429
38.72000 420.869
38.73000 413.683
38.74000 406.779
38.75000 402.345
38.76000 406.810
38.77000 410.189
38.78000 403.764
38.79000 385.962
38.80000 368.197
38.81000 360.415
38.82000 360.061
38.83000 359.713
38.84000 355.622
38.85000 349.891
38.86000 344.001
38.87000 335.747
38.88000 326.705
38.89000 317.699
38.90000 308.991
38.91000 300.350
38.92000 292.975
38.93000 296.086
38.94000 299.947
38.95000 300.781
38.96000 291.453
38.97000 281.303
38.98000 274.106
38.99000 273.580
39.00000 273.307
39.01000 273.143
39.02000 280.687
39.03000 286.119
39.04000 286.464
39.05000 281.824
39.06000 277.229
39.07000 276.320
39.08000 277.761
39.09000 279.161
39.10000 274.719
39.11000 268.122
39.12000 262.617
39.13000 269.905
39.14000 280.871
39.15000 289.979
39.16000 286.420
39.17000 280.474
39.18000 275.545
39.19000 271.535
39.20000 268.312
39.21000 267.148
39.22000 271.944
39.23000 277.115
39.24000 279.402
39.25000 276.064
39.26000 272.581
39.27000 270.612
39.28000 262.792
39.29000 257.355
39.30000 259.618
39.31000 268.267
39.32000 276.703
39.33000 275.044
39.34000 267.852
39.35000 260.942
39.36000 262.787
39.37000 267.541
39.38000 271.527
39.39000 268.291
39.40000 263.272
39.41000 258.635
39.42000 256.183
39.43000 254.078
39.44000 252.388
39.45000 251.915
39.46000 251.625
39.47000 252.822
39.48000 257.730
39.49000 262.815
39.50000 266.216
39.51000 266.790
39.52000 267.319
39.53000 267.596
39.54000 256.085
39.55000 248.357
39.56000 250.772
39.57000 260.365
39.58000 269.614
39.59000 268.254
39.60000 261.880
39.61000 255.840
39.62000 256.743
39.63000 259.613
39.64000 262.483
39.65000 265.355
39.66000 268.229
39.67000 269.734
39.68000 264.607
39.69000 258.602
39.70000 253.949
39.71000 249.346
39.72000 245.693
39.73000 246.046
39.74000 255.035
39.75000 264.317
39.76000 268.991
39.77000 267.024
39.78000 265.004
39.79000 259.142
39.80000 249.720
39.81000 240.377
39.82000 236.378
39.83000 235.624
39.84000 235.199
39.85000 242.000
39.86000 251.748
39.87000 260.842
39.88000 256.546
39.89000 249.332
39.90000 242.932
39.91000 241.769
39.92000 241.541
39.93000 242.458
39.94000 248.107
39.95000 254.272
39.96000 258.864
39.97000 260.888
39.98000 262.348
39.99000 261.594
40.00000 256.725
40.01000 251.763
40.02000 249.968
40.03000 252.071
40.04000 254.181
40.05000 253.843
40.06000 251.588
40.07000 249.361
40.08000 248.254
40.09000 247.732
40.10000 247.341
40.11000 249.080
40.12000 251.569
40.13000 253.849
40.14000 249.242
40.15000 243.702
40.16000 239.492
40.17000 242.489
40.18000 246.568
40.19000 249.954
40.20000 250.886
40.21000 251.602
40.22000 252.112
40.23000 245.509
40.24000 240.243
40.25000 237.050
40.26000 237.175
40.27000 237.343
40.28000 240.877
40.29000 247.919
40.30000 254.922
40.31000 254.190
40.32000 248.325
40.33000 242.669
40.34000 242.729
40.35000 245.367
40.36000 248.066
40.37000 251.549
40.38000 255.270
40.39000 258.609
40.40000 254.064
40.41000 248.712
40.42000 243.864
40.43000 241.337
40.44000 239.099
40.45000 237.540
40.46000 238.054
40.47000 238.712
40.48000 239.158
40.49000 241.235
40.50000 242.821
40.51000 245.341
40.52000 249.140
40.53000 252.940
40.54000 250.789
40.55000 243.400
40.56000 236.092
40.57000 238.624
40.58000 246.656
40.59000 254.026
40.60000 248.258
40.61000 237.374
40.62000 227.346
40.63000 226.023
40.64000 226.971
40.65000 227.802
40.66000 232.481
40.67000 237.056
40.68000 240.513
40.69000 239.573
40.70000 238.183
40.71000 237.197
40.72000 237.272
40.73000 237.403
40.74000 237.488
40.75000 241.711
40.76000 244.851
40.77000 241.659
40.78000 231.071
40.79000 220.526
40.80000 220.677
40.81000 228.835
40.82000 236.844
40.83000 242.792
40.84000 247.538
40.85000 251.779
40.86000 248.416
40.87000 242.498
40.88000 236.995
40.89000 234.929
40.90000 233.631
40.91000 232.521
40.92000 238.299
40.93000 243.990
40.94000 248.978
40.95000 251.598
40.96000 254.024
40.97000 256.004
40.98000 256.969
40.99000 257.895
41.00000 258.457
41.01000 249.717
41.02000 243.413
41.03000 239.821
41.04000 238.904
41.05000 237.996
41.06000 237.859
41.07000 238.216
41.08000 238.564
41.09000 238.901
41.10000 239.217
41.11000 239.775
41.12000 243.188
41.13000 247.426
41.14000 250.972
41.15000 249.757
41.16000 247.640
41.17000 245.882
41.18000 240.578
41.19000 235.851
41.20000 233.507
41.21000 238.098
41.22000 243.132
41.23000 245.083
41.24000 240.990
41.25000 236.737
41.26000 234.325
41.27000 231.578
41.28000 229.667
41.29000 228.812
41.30000 228.839
41.31000 228.899
41.32000 230.509
41.33000 232.973
41.34000 235.342
41.35000 240.038
41.36000 245.248
41.37000 249.767
41.38000 247.722
41.39000 244.047
41.40000 240.914
41.41000 240.895
41.42000 241.374
41.43000 241.760
41.44000 240.873
41.45000 240.055
41.46000 239.393
41.47000 239.123
41.48000 238.871
41.49000 238.918
41.50000 239.469
41.51000 240.028
41.52000 240.322
41.53000 238.231
41.54000 236.822
41.55000 236.807
41.56000 237.785
41.57000 238.696
41.58000 237.490
41.59000 235.278
41.60000 233.180
41.61000 235.969
41.62000 239.984
41.63000 243.261
41.64000 240.792
41.65000 237.104
41.66000 234.246
41.67000 235.431
41.68000 237.155
41.69000 238.493
41.70000 235.622
41.71000 233.086
41.72000 230.582
41.73000 228.145
41.74000 225.710
41.75000 225.444
41.76000 228.323
41.77000 231.227
41.78000 230.264
41.79000 225.689
41.80000 221.207
41.81000 223.150
41.82000 229.017
41.83000 234.612
41.84000 234.165
41.85000 231.237
41.86000 228.504
41.87000 234.344
41.88000 241.778
41.89000 247.680
41.90000 243.653
41.91000 237.840
41.92000 232.900
41.93000 231.594
41.94000 230.686
41.95000 230.009
41.96000 232.339
41.97000 234.292
41.98000 235.432
41.99000 235.053
42.00000 234.640
42.01000 235.950
42.02000 239.394
42.03000 242.838
42.04000 242.966
42.05000 240.478
42.06000 238.008
42.07000 236.321
42.08000 235.046
42.09000 233.829
42.10000 233.584
42.11000 233.684
42.12000 233.775
42.13000 233.259
42.14000 232.671
42.15000 231.751
42.16000 229.014
42.17000 226.003
42.18000 223.910
42.19000 225.092
42.20000 226.565
42.21000 227.617
42.22000 241.496
42.23000 252.513
42.24000 252.242
42.25000 233.801
42.26000 215.115
42.27000 209.776
42.28000 218.449
42.29000 227.077
42.30000 233.326
42.31000 237.906
42.32000 242.302
42.33000 241.576
42.34000 238.526
42.35000 235.672
42.36000 235.336
42.37000 235.768
42.38000 236.156
42.39000 243.309
42.40000 250.758
42.41000 256.315
42.42000 253.102
42.43000 248.787
42.44000 244.754
42.45000 241.583
42.46000 238.473
42.47000 236.356
42.48000 227.744
42.49000 221.163
42.50000 219.685
42.51000 225.248
42.52000 230.851
42.53000 232.424
42.54000 230.426
42.55000 228.450
42.56000 229.588
42.57000 232.470
42.58000 235.242
42.59000 235.818
42.60000 235.533
42.61000 234.806
42.62000 229.555
42.63000 223.116
42.64000 217.465
42.65000 220.877
42.66000 225.134
42.67000 228.643
42.68000 229.194
42.69000 229.441
42.70000 229.093
42.71000 227.169
42.72000 225.161
42.73000 223.866
42.74000 226.917
42.75000 229.208
42.76000 227.399
42.77000 220.766
42.78000 214.157
42.79000 213.793
42.80000 218.136
42.81000 222.400
42.82000 218.789
42.83000 211.493
42.84000 204.970
42.85000 210.192
42.86000 219.384
42.87000 227.675
42.88000 228.440
42.89000 227.515
42.90000 226.723
42.91000 233.860
42.92000 240.832
42.93000 245.191
42.94000 240.668
42.95000 235.412
42.96000 231.159
42.97000 229.200
42.98000 227.330
42.99000 226.193
43.00000 219.706
43.01000 215.033
43.02000 215.107
43.03000 219.897
43.04000 224.653
43.05000 226.415
43.06000 226.248
43.07000 226.085
43.08000 224.989
43.09000 223.563
43.10000 222.305
43.11000 223.059
43.12000 224.398
43.13000 225.274
43.14000 222.943
43.15000 219.999
43.16000 217.552
43.17000 215.797
43.18000 214.412
43.19000 214.201
43.20000 217.426
43.21000 220.873
43.22000 222.264
43.23000 219.598
43.24000 216.824
43.25000 215.247
43.26000 221.013
43.27000 225.052
43.28000 228.841
43.29000 232.420
43.30000 235.808
43.31000 229.792
43.32000 218.559
43.33000 207.756
43.34000 205.250
43.35000 205.807
43.36000 207.118
43.37000 215.654
43.38000 225.996
43.39000 234.646
43.40000 233.486
43.41000 230.746
43.42000 228.541
43.43000 217.545
43.44000 207.938
43.45000 202.528
43.46000 207.722
43.47000 213.432
43.48000 217.171
43.49000 217.561
43.50000 217.895
43.51000 218.072
43.52000 220.206
43.53000 221.649
43.54000 222.147
43.55000 221.967
43.56000 221.871
43.57000 224.421
43.58000 228.237
43.59000 231.858
43.60000 228.724
43.61000 223.825
43.62000 219.516
43.63000 219.839
43.64000 221.150
43.65000 222.398
43.66000 223.330
43.67000 224.220
43.68000 224.912
43.69000 221.753
43.70000 219.006
43.71000 215.735
43.72000 211.323
43.73000 206.870
43.74000 207.358
43.75000 215.056
43.76000 222.814
43.77000 225.036
43.78000 222.050
43.79000 219.070
43.80000 216.543
43.81000 214.293
43.82000 212.211
43.83000 213.874
43.84000 217.085
43.85000 220.084
43.86000 223.180
43.87000 226.012
43.88000 227.665
43.89000 221.613
43.90000 214.166
43.91000 208.970
43.92000 213.194
43.93000 218.461
43.94000 222.397
43.95000 211.932
43.96000 203.107
43.97000 199.465
43.98000 205.574
43.99000 211.910
44.00000 216.659
44.01000 219.428
44.02000 222.186
44.03000 222.042
44.04000 219.593
44.05000 217.148
44.06000 214.921
44.07000 212.807
44.08000 211.015
44.09000 214.606
44.10000 220.115
44.11000 225.169
44.12000 222.925
44.13000 219.379
44.14000 217.106
44.15000 221.829
44.16000 227.616
44.17000 231.102
44.18000 226.329
44.19000 220.816
44.20000 216.872
44.21000 216.284
44.22000 215.948
44.23000 213.712
44.24000 208.400
44.25000 203.045
44.26000 199.841
44.27000 198.910
44.28000 197.984
44.29000 202.009
44.30000 209.322
44.31000 216.414
44.32000 217.310
44.33000 215.379
44.34000 213.599
44.35000 213.797
44.36000 214.602
44.37000 215.326
44.38000 218.201
44.39000 221.100
44.40000 222.873
44.41000 219.391
44.42000 215.245
44.43000 211.411
44.44000 208.544
44.45000 205.744
44.46000 203.835
44.47000 212.380
44.48000 219.010
44.49000 223.677
44.50000 225.619
44.51000 227.541
44.52000 228.321
44.53000 228.082
44.54000 227.846
44.55000 227.835
44.56000 227.954
44.57000 227.931
44.58000 225.004
44.59000 220.933
44.60000 217.427
44.61000 219.758
44.62000 223.631
44.63000 227.033
44.64000 228.984
44.65000 230.447
44.66000 232.126
44.67000 234.667
44.68000 237.296
44.69000 240.239
44.70000 244.015
44.71000 247.836
44.72000 250.307
44.73000 249.230
44.74000 248.391
44.75000 247.749
44.76000 247.342
44.77000 246.911
44.78000 241.351
44.79000 231.902
44.80000 222.622
44.81000 225.708
44.82000 234.711
44.83000 243.478
44.84000 248.620
44.85000 252.530
44.86000 256.161
44.87000 257.453
44.88000 258.216
44.89000 258.870
44.90000 258.953
44.91000 258.954
44.92000 258.837
44.93000 258.317
44.94000 257.763
44.95000 257.159
44.96000 256.443
44.97000 255.722
44.98000 255.283
44.99000 247.073
45.00000 241.143
45.01000 240.202
45.02000 244.253
45.03000 248.304
45.04000 252.388
45.05000 256.493
45.06000 260.488
45.07000 252.466
45.08000 239.845
45.09000 228.597
45.10000 233.863
45.11000 243.964
45.12000 252.559
45.13000 250.655
45.14000 246.732
45.15000 243.468
45.16000 246.230
45.17000 249.110
45.18000 250.279
45.19000 246.411
45.20000 242.214
45.21000 238.736
45.22000 236.682
45.23000 234.668
45.24000 233.520
45.25000 235.075
45.26000 236.169
45.27000 237.934
45.28000 240.265
45.29000 242.531
45.30000 241.516
45.31000 238.671
45.32000 235.933
45.33000 234.802
45.34000 234.308
45.35000 233.478
45.36000 229.407
45.37000 224.521
45.38000 220.322
45.39000 220.133
45.40000 220.594
45.41000 220.965
45.42000 217.379
45.43000 214.155
45.44000 212.568
45.45000 215.138
45.46000 217.914
45.47000 221.036
45.48000 224.751
45.49000 228.475
45.50000 230.446
45.51000 226.951
45.52000 224.546
45.53000 218.038
45.54000 208.571
45.55000 199.446
45.56000 201.390
45.57000 208.660
45.58000 215.561
45.59000 217.581
45.60000 217.984
45.61000 217.874
45.62000 213.703
45.63000 208.660
45.64000 204.347
45.65000 203.647
45.66000 203.436
45.67000 203.273
45.68000 207.721
45.69000 211.546
45.70000 213.527
45.71000 211.459
45.72000 209.247
45.73000 206.384
45.74000 202.564
45.75000 198.736
45.76000 198.603
45.77000 201.969
45.78000 205.308
45.79000 206.736
45.80000 206.981
45.81000 207.096
45.82000 204.240
45.83000 200.151
45.84000 196.329
45.85000 199.130
45.86000 203.350
45.87000 207.309
45.88000 209.551
45.89000 211.480
45.90000 212.729
45.91000 211.115
45.92000 209.182
45.93000 207.734
45.94000 201.731
45.95000 196.833
45.96000 195.771
45.97000 201.970
45.98000 208.341
45.99000 212.808
46.00000 214.885
46.01000 216.951
46.02000 214.444
46.03000 208.291
46.04000 202.275
46.05000 202.145
46.06000 205.147
46.07000 207.837
46.08000 205.245
46.09000 200.760
46.10000 196.643
46.11000 194.522
46.12000 193.057
46.13000 192.204
46.14000 194.735
46.15000 197.785
46.16000 199.131
46.17000 194.322
46.18000 188.956
46.19000 185.110
46.20000 182.963
46.21000 181.380
46.22000 182.565
46.23000 188.258
46.24000 194.014
46.25000 198.589
46.26000 201.906
46.27000 205.205
46.28000 202.773
46.29000 196.483
46.30000 190.497
46.31000 193.197
46.32000 199.884
46.33000 205.984
46.34000 204.399
46.35000 200.438
46.36000 196.874
46.37000 197.622
46.38000 199.048
46.39000 199.841
46.40000 197.663
46.41000 195.105
46.42000 192.092
46.43000 187.665
46.44000 183.137
46.45000 180.042
46.46000 180.268
46.47000 180.516
46.48000 181.247
46.49000 182.654
46.50000 184.066
46.51000 187.305
46.52000 192.183
46.53000 197.011
46.54000 196.750
46.55000 193.564
46.56000 190.519
46.57000 190.389
46.58000 191.415
46.59000 192.007
46.60000 188.077
46.61000 182.945
46.62000 178.432
46.63000 183.030
46.64000 188.340
46.65000 193.752
46.66000 199.572
46.67000 205.435
46.68000 207.675
46.69000 200.204
46.70000 192.202
46.71000 187.015
46.72000 190.779
46.73000 193.668
46.74000 194.121
46.75000 191.673
46.76000 189.212
46.77000 185.096
46.78000 179.716
46.79000 174.431
46.80000 174.720
46.81000 177.733
46.82000 181.066
46.83000 189.385
46.84000 199.409
46.85000 208.423
46.86000 208.865
46.87000 207.358
46.88000 206.067
46.89000 201.791
46.90000 197.815
46.91000 194.044
46.92000 190.980
46.93000 187.976
46.94000 186.146
46.95000 187.034
46.96000 188.031
46.97000 188.640
46.98000 184.727
46.99000 181.891
47.00000 184.250
47.01000 191.843
47.02000 199.370
47.03000 200.649
47.04000 197.850
47.05000 195.125
47.06000 192.627
47.07000 190.344
47.08000 188.159
47.09000 187.183
47.10000 186.563
47.11000 185.894
47.12000 184.883
47.13000 183.807
47.14000 182.910
47.15000 186.814
47.16000 190.526
47.17000 192.718
47.18000 190.407
47.19000 187.800
47.20000 186.292
47.21000 186.976
47.22000 187.721
47.23000 188.147
47.24000 187.236
47.25000 186.595
47.26000 185.878
47.27000 185.097
47.28000 184.311
47.29000 183.237
47.30000 182.001
47.31000 180.811
47.32000 184.007
47.33000 188.562
47.34000 192.452
47.35000 189.846
47.36000 185.598
47.37000 182.310
47.38000 184.667
47.39000 187.947
47.40000 190.595
47.41000 191.730
47.42000 192.533
47.43000 191.879
47.44000 187.501
47.45000 182.938
47.46000 180.404
47.47000 181.359
47.48000 182.375
47.49000 182.914
47.50000 188.859
47.51000 192.893
47.52000 194.815
47.53000 195.202
47.54000 195.491
47.55000 192.509
47.56000 187.945
47.57000 183.609
47.58000 183.427
47.59000 184.511
47.60000 185.347
47.61000 184.218
47.62000 182.663
47.63000 181.088
47.64000 179.412
47.65000 177.721
47.66000 176.403
47.67000 182.559
47.68000 187.928
47.69000 191.374
47.70000 190.576
47.71000 189.625
47.72000 189.668
47.73000 191.180
47.74000 192.706
47.75000 189.909
47.76000 182.989
47.77000 176.157
47.78000 175.775
47.79000 179.406
47.80000 182.882
47.81000 182.770
47.82000 181.158
47.83000 179.651
47.84000 182.885
47.85000 187.031
47.86000 189.944
47.87000 184.683
47.88000 177.922
47.89000 172.730
47.90000 174.187
47.91000 176.392
47.92000 178.045
47.93000 179.113
47.94000 179.919
47.95000 180.491
47.96000 180.617
47.97000 180.732
47.98000 181.158
47.99000 181.977
48.00000 182.797
48.01000 183.975
48.02000 185.437
48.03000 186.814
48.04000 184.428
48.05000 180.027
48.06000 175.769
48.07000 173.952
48.08000 173.015
48.09000 172.154
48.10000 172.954
48.11000 174.025
48.12000 175.116
48.13000 176.319
48.14000 177.540
48.15000 178.417
48.16000 178.040
48.17000 177.549
48.18000 177.197
48.19000 182.613
48.20000 186.955
48.21000 188.181
48.22000 184.298
48.23000 180.340
48.24000 178.303
48.25000 178.322
48.26000 178.342
48.27000 179.035
48.28000 180.179
48.29000 181.272
48.30000 180.885
48.31000 179.814
48.32000 178.642
48.33000 176.150
48.34000 173.246
48.35000 170.631
48.36000 171.098
48.37000 172.063
48.38000 172.835
48.39000 172.693
48.40000 172.435
48.41000 171.672
48.42000 169.334
48.43000 166.881
48.44000 165.201
48.45000 162.477
48.46000 160.413
48.47000 164.798
48.48000 178.252
48.49000 191.762
48.50000 194.283
48.51000 186.872
48.52000 179.535
48.53000 178.320
48.54000 180.681
48.55000 182.939
48.56000 183.051
48.57000 182.307
48.58000 181.455
48.59000 179.470
48.60000 177.181
48.61000 175.166
48.62000 180.353
48.63000 185.897
48.64000 190.562
48.65000 191.684
48.66000 192.431
48.67000 190.078
48.68000 179.364
48.69000 168.186
48.70000 160.926
48.71000 169.831
48.72000 176.602
48.73000 176.271
48.74000 167.423
48.75000 158.603
48.76000 160.816
48.77000 171.504
48.78000 182.008
48.79000 184.430
48.80000 182.783
48.81000 181.231
48.82000 181.162
48.83000 181.603
48.84000 181.832
48.85000 180.241
48.86000 178.233
48.87000 176.510
48.88000 178.325
48.89000 180.296
48.90000 182.104
48.91000 183.350
48.92000 184.548
48.93000 183.811
48.94000 178.574
48.95000 173.154
48.96000 169.834
48.97000 168.878
48.98000 168.214
48.99000 169.867
49.00000 173.871
49.01000 177.852
49.02000 179.650
49.03000 180.012
49.04000 180.366
49.05000 180.016
49.06000 179.387
49.07000 178.844
49.08000 179.350
49.09000 180.167
49.10000 180.907
49.11000 181.110
49.12000 181.208
49.13000 181.290
49.14000 178.260
49.15000 175.436
49.16000 174.090
49.17000 177.151
49.18000 180.506
49.19000 182.574
49.20000 182.059
49.21000 181.472
49.22000 181.135
49.23000 178.589
49.24000 176.803
49.25000 175.246
49.26000 173.885
49.27000 172.565
49.28000 173.307
49.29000 175.213
49.30000 177.050
49.31000 179.187
49.32000 181.301
49.33000 183.260
49.34000 183.683
49.35000 183.716
49.36000 183.744
49.37000 183.748
49.38000 183.748
49.39000 183.748
49.40000 180.825
49.41000 178.214
49.42000 175.746
49.43000 173.651
49.44000 171.575
49.45000 170.688
49.46000 171.860
49.47000 173.068
49.48000 173.711
49.49000 176.458
49.50000 178.330
49.51000 180.059
49.52000 181.686
49.53000 183.278
49.54000 183.743
49.55000 183.659
49.56000 183.580
49.57000 185.228
49.58000 187.274
49.59000 188.097
49.60000 179.081
49.61000 167.924
49.62000 158.769
49.63000 159.641
49.64000 161.892
49.65000 163.649
49.66000 165.819
49.67000 167.575
49.68000 169.886
49.69000 173.428
49.70000 177.016
49.71000 179.352
49.72000 179.829
49.73000 180.288
49.74000 177.972
49.75000 172.992
49.76000 168.044
49.77000 165.602
49.78000 164.728
49.79000 163.956
49.80000 165.584
49.81000 168.219
49.82000 170.686
49.83000 167.621
49.84000 163.415
49.85000 160.039
49.86000 162.204
49.87000 165.392
49.88000 168.078
49.89000 168.627
49.90000 168.934
49.91000 169.164
49.92000 168.304
49.93000 167.579
49.94000 167.800
49.95000 169.834
49.96000 171.912
49.97000 171.973
49.98000 169.469
49.99000 166.960
50.00000 166.601
50.01000 167.986
50.02000 169.435
50.03000 173.775
50.04000 179.672
50.05000 185.112
50.06000 182.656
50.07000 177.335
50.08000 172.441
50.09000 167.147
50.10000 162.331
50.11000 158.460
50.12000 159.884
50.13000 162.133
50.14000 164.578
50.15000 167.742
50.16000 170.971
50.17000 173.295
50.18000 167.772
50.19000 163.268
50.20000 160.973
50.21000 162.322
50.22000 163.725
50.23000 166.893
50.24000 171.967
50.25000 177.017
50.26000 174.868
50.27000 167.796
50.28000 161.057
50.29000 164.139
50.30000 171.783
50.31000 178.823
50.32000 177.785
50.33000 174.219
50.34000 171.006
50.35000 168.927
50.36000 167.308
50.37000 166.576
50.38000 170.058
50.39000 174.086
50.40000 178.005
50.41000 181.581
50.42000 185.132
50.43000 187.568
50.44000 184.712
50.45000 182.443
50.46000 179.039
50.47000 174.031
50.48000 169.013
50.49000 168.965
50.50000 173.440
50.51000 177.870
50.52000 178.783
50.53000 177.624
50.54000 176.514
50.55000 176.436
50.56000 176.771
50.57000 176.996
50.58000 176.037
50.59000 174.760
50.60000 173.634
50.61000 179.697
50.62000 186.004
50.63000 190.172
50.64000 185.655
50.65000 180.215
50.66000 177.202
50.67000 180.768
50.68000 184.703
50.69000 187.265
50.70000 186.464
50.71000 185.824
50.72000 183.137
50.73000 177.980
50.74000 172.833
50.75000 171.508
50.76000 173.138
50.77000 174.740
50.78000 174.714
50.79000 173.881
50.80000 173.064
50.81000 172.506
50.82000 172.038
50.83000 171.609
50.84000 171.524
50.85000 171.518
50.86000 171.513
50.87000 168.684
50.88000 165.940
50.89000 164.317
50.90000 166.596
50.91000 169.210
50.92000 170.224
50.93000 167.497
50.94000 164.615
50.95000 162.846
50.96000 165.531
50.97000 167.495
50.98000 169.950
50.99000 172.910
51.00000 175.835
51.01000 175.493
51.02000 172.989
51.03000 170.549
51.04000 167.830
51.05000 165.117
51.06000 162.674
51.07000 163.564
51.08000 165.450
51.09000 167.061
51.10000 166.722
51.11000 166.001
51.12000 165.398
51.13000 163.107
51.14000 161.035
51.15000 160.766
51.16000 165.902
51.17000 171.401
51.18000 174.054
51.19000 170.955
51.20000 167.691
51.21000 165.815
51.22000 166.488
51.23000 166.966
51.24000 165.644
51.25000 162.768
51.26000 159.965
51.27000 160.994
51.28000 164.200
51.29000 167.290
51.30000 170.189
51.31000 172.844
51.32000 174.946
51.33000 171.555
51.34000 166.756
51.35000 162.047
51.36000 157.872
51.37000 153.785
51.38000 150.478
51.39000 149.488
51.40000 148.871
51.41000 150.665
51.42000 158.700
51.43000 167.053
51.44000 170.150
51.45000 164.094
51.46000 157.872
51.47000 154.548
51.48000 157.730
51.49000 159.885
51.50000 158.701
51.51000 155.062
51.52000 151.600
51.53000 154.122
51.54000 159.574
51.55000 164.759
51.56000 164.214
51.57000 161.962
51.58000 159.641
51.59000 156.767
51.60000 153.772
51.61000 151.376
51.62000 151.992
51.63000 153.027
51.64000 153.835
51.65000 156.365
51.66000 158.494
51.67000 160.573
51.68000 162.542
51.69000 164.507
51.70000 163.979
51.71000 159.719
51.72000 155.423
51.73000 153.831
51.74000 154.852
51.75000 155.865
51.76000 156.214
51.77000 156.145
51.78000 156.070
51.79000 155.845
51.80000 155.558
51.81000 155.289
51.82000 156.754
51.83000 158.534
51.84000 159.655
51.85000 156.338
51.86000 152.195
51.87000 149.599
51.88000 153.640
51.89000 158.440
51.90000 162.051
51.91000 163.161
51.92000 163.909
51.93000 162.215
51.94000 155.813
51.95000 149.294
51.96000 149.644
51.97000 158.782
51.98000 167.941
51.99000 170.474
52.00000 167.592
52.01000 164.678
52.02000 160.261
52.03000 155.032
52.04000 150.202
52.05000 152.365
52.06000 157.082
52.07000 161.423
52.08000 160.884
52.09000 159.338
52.10000 158.009
52.11000 157.894
52.12000 157.970
52.13000 157.060
52.14000 152.520
52.15000 147.643
52.16000 144.128
52.17000 148.602
52.18000 152.314
52.19000 154.913
52.20000 155.665
52.21000 156.389
52.22000 157.102
52.23000 157.802
52.24000 158.500
52.25000 159.088
52.26000 159.595
52.27000 160.137
52.28000 161.749
52.29000 163.861
52.30000 165.698
52.31000 163.825
52.32000 160.785
52.33000 158.043
52.34000 158.073
52.35000 158.606
52.36000 159.041
52.37000 159.007
52.38000 158.912
52.39000 158.734
52.40000 158.293
52.41000 157.832
52.42000 157.515
52.43000 155.485
52.44000 153.920
52.45000 152.390
52.46000 150.912
52.47000 149.433
52.48000 146.738
52.49000 142.928
52.50000 139.154
52.51000 141.009
52.52000 146.132
52.53000 151.094
52.54000 152.588
52.55000 152.684
52.56000 152.796
52.57000 153.092
52.58000 153.437
52.59000 153.741
52.60000 151.900
52.61000 149.987
52.62000 149.252
52.63000 153.334
52.64000 157.932
52.65000 159.722
52.66000 153.852
52.67000 147.547
52.68000 143.434
52.69000 146.673
52.70000 149.168
52.71000 152.228
52.72000 155.977
52.73000 159.717
52.74000 160.997
52.75000 160.362
52.76000 159.738
52.77000 159.348
52.78000 159.087
52.79000 158.828
52.80000 158.606
52.81000 158.395
52.82000 158.148
52.83000 157.575
52.84000 156.926
52.85000 156.368
52.86000 159.231
52.87000 162.082
52.88000 163.435
52.89000 159.540
52.90000 155.192
52.91000 152.962
52.92000 155.721
52.93000 158.690
52.94000 160.517
52.95000 149.884
52.96000 142.145
52.97000 140.950
52.98000 146.487
52.99000 151.979
53.00000 152.808
53.01000 150.536
53.02000 148.320
53.03000 146.966
53.04000 146.040
53.05000 145.313
53.06000 147.073
53.07000 149.579
53.08000 151.547
53.09000 149.647
53.10000 146.984
53.11000 144.757
53.12000 150.691
53.13000 156.452
53.14000 160.073
53.15000 157.235
53.16000 153.959
53.17000 152.770
53.18000 155.821
53.19000 158.996
53.20000 160.827
53.21000 162.055
53.22000 162.911
53.23000 161.976
53.24000 159.486
53.25000 157.033
53.26000 156.611
53.27000 157.350
53.28000 158.063
53.29000 157.793
53.30000 157.184
53.31000 156.776
53.32000 158.384
53.33000 160.511
53.34000 162.084
53.35000 160.329
53.36000 158.019
53.37000 156.148
53.38000 158.748
53.39000 161.231
53.40000 162.329
53.41000 159.823
53.42000 157.130
53.43000 156.641
53.44000 160.014
53.45000 163.458
53.46000 165.304
53.47000 160.131
53.48000 156.591
53.49000 152.567
53.50000 148.185
53.51000 143.969
53.52000 145.484
53.53000 149.823
53.54000 153.953
53.55000 148.034
53.56000 139.469
53.57000 132.202
53.58000 135.543
53.59000 141.221
53.60000 145.648
53.61000 143.728
53.62000 140.922
53.63000 138.725
53.64000 147.866
53.65000 155.894
53.66000 160.895
53.67000 159.093
53.68000 157.036
53.69000 154.210
53.70000 150.226
53.71000 146.230
53.72000 146.106
53.73000 149.752
53.74000 153.346
53.75000 152.854
53.76000 149.774
53.77000 146.612
53.78000 141.532
53.79000 135.635
53.80000 130.108
53.81000 135.114
53.82000 142.411
53.83000 148.694
53.84000 148.112
53.85000 146.243
53.86000 145.524
53.87000 149.766
53.88000 154.581
53.89000 158.209
53.90000 151.538
53.91000 145.812
53.92000 142.354
53.93000 143.294
53.94000 144.347
53.95000 146.074
53.96000 148.671
53.97000 151.268
53.98000 151.464
53.99000 149.685
54.00000 147.951
54.01000 148.274
54.02000 149.718
54.03000 151.222
54.04000 153.803
54.05000 156.779
54.06000 159.519
54.07000 155.448
54.08000 150.312
54.09000 146.175
54.10000 147.712
54.11000 150.144
54.12000 151.453
54.13000 148.605
54.14000 145.367
54.15000 143.030
54.16000 142.728
54.17000 142.570
54.18000 143.248
54.19000 145.323
54.20000 147.420
54.21000 148.426
54.22000 148.239
54.23000 148.053
54.24000 148.250
54.25000 148.711
54.26000 149.130
54.27000 148.298
54.28000 146.876
54.29000 145.583
54.30000 146.034
54.31000 147.038
54.32000 147.944
54.33000 146.982
54.34000 145.794
54.35000 145.091
54.36000 146.726
54.37000 148.668
54.38000 149.531
54.39000 146.960
54.40000 144.133
54.41000 142.186
54.42000 148.041
54.43000 152.635
54.44000 154.449
54.45000 152.280
54.46000 150.082
54.47000 149.071
54.48000 149.156
54.49000 149.241
54.50000 150.151
54.51000 151.532
54.52000 152.724
54.53000 149.833
54.54000 145.284
54.55000 141.317
54.56000 143.649
54.57000 147.696
54.58000 151.269
54.59000 152.446
54.60000 153.094
54.61000 152.758
54.62000 148.376
54.63000 143.557
54.64000 141.799
54.65000 148.437
54.66000 155.557
54.67000 160.214
54.68000 153.263
54.69000 147.969
54.70000 148.142
54.71000 155.003
54.72000 161.843
54.73000 158.688
54.74000 147.706
54.75000 136.901
54.76000 136.339
54.77000 140.949
54.78000 145.538
54.79000 149.790
54.80000 153.923
54.81000 157.509
54.82000 156.294
54.83000 153.959
54.84000 151.949
54.85000 152.412
54.86000 153.117
54.87000 152.768
54.88000 148.706
54.89000 144.321
54.90000 140.876
54.91000 139.659
54.92000 138.536
54.93000 137.843
54.94000 142.777
54.95000 146.370
54.96000 147.545
54.97000 146.215
54.98000 144.896
54.99000 144.845
55.00000 145.643
55.01000 146.421
55.02000 148.569
55.03000 151.207
55.04000 153.607
55.05000 153.002
55.06000 151.490
55.07000 149.994
55.08000 148.611
55.09000 147.249
55.10000 146.110
55.11000 148.915
55.12000 151.652
55.13000 152.929
55.14000 149.777
55.15000 146.321
55.16000 145.033
55.17000 148.180
55.18000 151.459
55.19000 153.355
55.20000 155.391
55.21000 156.814
55.22000 154.547
55.23000 149.053
55.24000 143.654
55.25000 143.616
55.26000 146.659
55.27000 149.595
55.28000 150.103
55.29000 149.695
55.30000 149.429
55.31000 150.586
55.32000 152.113
55.33000 152.876
55.34000 149.029
55.35000 144.407
55.36000 140.656
55.37000 143.649
55.38000 146.644
55.39000 149.022
55.40000 149.784
55.41000 150.461
55.42000 152.803
55.43000 158.079
55.44000 163.410
55.45000 166.276
55.46000 165.633
55.47000 165.192
55.48000 165.033
55.49000 165.083
55.50000 165.192
55.51000 167.382
55.52000 170.602
55.53000 173.668
55.54000 173.612
55.55000 172.595
55.56000 171.393
55.57000 168.681
55.58000 165.634
55.59000 164.243
55.60000 171.310
55.61000 179.567
55.62000 186.041
55.63000 188.937
55.64000 191.020
55.65000 192.754
55.66000 193.699
55.67000 194.613
55.68000 196.276
55.69000 199.074
55.70000 201.884
55.71000 203.841
55.72000 204.962
55.73000 206.141
55.74000 212.123
55.75000 221.166
55.76000 229.642
55.77000 224.350
55.78000 213.168
55.79000 202.681
55.80000 206.894
55.81000 214.582
55.82000 221.999
55.83000 227.577
55.84000 232.807
55.85000 235.930
55.86000 229.894
55.87000 222.794
55.88000 217.435
55.89000 218.787
55.90000 220.178
55.91000 220.377
55.92000 218.249
55.93000 216.060
55.94000 216.772
55.95000 221.243
55.96000 225.725
55.97000 226.393
55.98000 223.905
55.99000 221.391
56.00000 217.674
56.01000 213.296
56.02000 209.221
56.03000 210.554
56.04000 213.884
56.05000 216.954
56.06000 205.106
56.07000 191.204
56.08000 179.837
56.09000 182.981
56.10000 188.430
56.11000 192.753
56.12000 192.878
56.13000 192.606
56.14000 192.410
56.15000 188.904
56.16000 186.092
56.17000 180.603
56.18000 170.617
56.19000 160.559
56.20000 156.495
56.21000 159.030
56.22000 161.557
56.23000 159.868
56.24000 155.241
56.25000 150.837
56.26000 153.342
56.27000 159.114
56.28000 164.510
56.29000 164.746
56.30000 163.338
56.31000 162.065
56.32000 160.057
56.33000 158.154
56.34000 156.011
56.35000 152.700
56.36000 149.234
56.37000 146.457
56.38000 145.883
56.39000 145.476
56.40000 145.194
56.41000 145.322
56.42000 145.428
56.43000 146.369
56.44000 148.512
56.45000 150.664
56.46000 151.263
56.47000 150.419
56.48000 149.582
56.49000 148.307
56.50000 146.795
56.51000 145.358
56.52000 145.538
56.53000 146.379
56.54000 147.079
56.55000 146.246
56.56000 144.994
56.57000 143.886
56.58000 142.529
56.59000 141.319
56.60000 139.754
56.61000 136.727
56.62000 133.541
56.63000 132.704
56.64000 138.353
56.65000 144.379
56.66000 148.328
56.67000 148.954
56.68000 149.359
56.69000 149.103
56.70000 148.032
56.71000 146.953
56.72000 144.074
56.73000 139.776
56.74000 135.546
56.75000 136.356
56.76000 139.693
56.77000 142.774
56.78000 141.649
56.79000 139.042
56.80000 136.926
56.81000 139.143
56.82000 142.378
56.83000 145.165
56.84000 143.664
56.85000 141.846
56.86000 139.940
56.87000 137.726
56.88000 135.484
56.89000 133.096
56.90000 130.359
56.91000 127.608
56.92000 125.905
56.93000 134.592
56.94000 140.932
56.95000 144.562
56.96000 145.364
56.97000 146.129
56.98000 143.047
56.99000 137.373
57.00000 131.837
57.01000 129.937
57.02000 129.688
57.03000 129.480
57.04000 129.772
57.05000 130.217
57.06000 130.883
57.07000 133.160
57.08000 135.758
57.09000 137.937
57.10000 139.675
57.11000 141.076
57.12000 142.551
57.13000 144.250
57.14000 145.965
57.15000 146.782
57.16000 145.750
57.17000 144.663
57.18000 144.032
57.19000 142.155
57.20000 140.832
57.21000 138.954
57.22000 136.588
57.23000 134.255
57.24000 133.852
57.25000 134.565
57.26000 135.253
57.27000 136.097
57.28000 136.949
57.29000 137.629
57.30000 136.554
57.31000 135.020
57.32000 133.666
57.33000 133.403
57.34000 133.323
57.35000 133.259
57.36000 137.333
57.37000 141.003
57.38000 143.839
57.39000 144.483
57.40000 145.010
57.41000 142.858
57.42000 135.952
57.43000 128.955
57.44000 125.182
57.45000 138.409
57.46000 147.430
57.47000 147.964
57.48000 142.142
57.49000 136.496
57.50000 137.160
57.51000 140.968
57.52000 144.597
57.53000 142.149
57.54000 137.987
57.55000 134.189
57.56000 133.399
57.57000 133.280
57.58000 133.628
57.59000 136.378
57.60000 139.468
57.61000 141.894
57.62000 141.470
57.63000 140.945
57.64000 139.988
57.65000 138.052
57.66000 136.078
57.67000 134.976
57.68000 135.204
57.69000 135.445
57.70000 137.059
57.71000 140.028
57.72000 142.954
57.73000 142.159
57.74000 138.977
57.75000 135.797
57.76000 132.628
57.77000 129.465
57.78000 126.496
57.79000 125.870
57.80000 125.917
57.81000 125.762
57.82000 124.223
57.83000 122.421
57.84000 121.776
57.85000 126.193
57.86000 131.203
57.87000 134.990
57.88000 137.347
57.89000 139.124
57.90000 138.429
57.91000 132.883
57.92000 127.210
57.93000 124.368
57.94000 125.220
57.95000 126.086
57.96000 127.107
57.97000 128.255
57.98000 129.408
57.99000 130.885
58.00000 132.540
58.01000 134.173
58.02000 135.393
58.03000 136.461
58.04000 137.445
58.05000 136.862
58.06000 135.990
58.07000 135.296
58.08000 135.629
58.09000 136.126
58.10000 136.840
58.11000 138.367
58.12000 139.972
58.13000 141.134
58.14000 140.887
58.15000 140.644
58.16000 141.193
58.17000 143.078
58.18000 144.985
58.19000 145.144
58.20000 143.366
58.21000 141.593
58.22000 138.279
58.23000 133.910
58.24000 129.706
58.25000 130.665
58.26000 134.081
58.27000 137.340
58.28000 138.415
58.29000 138.790
58.30000 139.129
58.31000 139.322
58.32000 139.464
58.33000 139.440
58.34000 138.603
58.35000 137.657
58.36000 137.113
58.37000 137.865
58.38000 138.714
58.39000 139.302
58.40000 138.964
58.41000 138.685
58.42000 138.317
58.43000 137.818
58.44000 137.318
58.45000 136.144
58.46000 134.340
58.47000 132.551
58.48000 132.621
58.49000 133.802
58.50000 135.026
58.51000 137.209
58.52000 139.787
58.53000 141.832
58.54000 138.034
58.55000 132.624
58.56000 127.839
58.57000 124.313
58.58000 121.462
58.59000 119.865
58.60000 123.487
58.61000 127.682
58.62000 131.733
58.63000 135.382
58.64000 139.008
58.65000 141.389
58.66000 137.776
58.67000 135.016
58.68000 134.536
58.69000 136.883
58.70000 139.228
58.71000 138.470
58.72000 135.250
58.73000 132.080
58.74000 133.211
58.75000 136.499
58.76000 139.583
58.77000 139.282
58.78000 137.780
58.79000 136.594
58.80000 138.213
58.81000 140.496
58.82000 142.465
58.83000 139.469
58.84000 136.291
58.85000 133.366
58.86000 131.344
58.87000 129.403
58.88000 127.812
58.89000 127.061
58.90000 126.347
58.91000 125.904
58.92000 136.705
58.93000 144.584
58.94000 148.670
58.95000 148.772
58.96000 148.822
58.97000 143.305
58.98000 134.014
58.99000 124.946
59.00000 122.133
59.01000 122.156
59.02000 122.455
59.03000 126.293
59.04000 131.212
59.05000 135.736
59.06000 137.362
59.07000 138.405
59.08000 139.280
59.09000 136.607
59.10000 134.010
59.11000 132.794
59.12000 135.816
59.13000 139.135
59.14000 140.587
59.15000 138.172
59.16000 135.640
59.17000 134.167
59.18000 133.133
59.19000 132.410
59.20000 133.291
59.21000 135.593
59.22000 137.889
59.23000 139.863
59.24000 141.650
59.25000 143.375
59.26000 136.908
59.27000 127.792
59.28000 119.696
59.29000 122.055
59.30000 127.160
59.31000 132.242
59.32000 137.187
59.33000 142.108
59.34000 146.112
59.35000 140.772
59.36000 135.627
59.37000 132.015
59.38000 132.464
59.39000 133.131
59.40000 133.350
59.41000 132.769
59.42000 132.171
59.43000 131.848
59.44000 127.943
59.45000 125.289
59.46000 127.450
59.47000 133.240
59.48000 138.915
59.49000 140.433
59.50000 139.866
59.51000 139.326
59.52000 138.669
59.53000 138.023
59.54000 137.109
59.55000 133.953
59.56000 130.293
59.57000 127.654
59.58000 130.299
59.59000 133.697
59.60000 136.369
59.61000 135.104
59.62000 133.830
59.63000 132.551
59.64000 131.258
59.65000 129.965
59.66000 128.780
59.67000 127.761
59.68000 126.744
59.69000 125.625
59.70000 124.404
59.71000 123.214
59.72000 124.635
59.73000 127.742
59.74000 130.677
59.75000 129.338
59.76000 126.148
59.77000 123.153
59.78000 124.382
59.79000 126.624
59.80000 128.702
59.81000 129.642
59.82000 130.364
59.83000 131.825
59.84000 136.539
59.85000 141.636
59.86000 145.495
59.87000 144.683
59.88000 143.809
59.89000 140.873
59.90000 133.868
59.91000 126.753
59.92000 124.352
59.93000 128.141
59.94000 131.954
59.95000 133.964
59.96000 134.457
59.97000 134.938
59.98000 134.864
59.99000 134.482
60.00000 134.153
60.01000 134.804
60.02000 135.822
60.03000 136.761
60.04000 135.813
60.05000 134.541
60.06000 133.331
60.07000 132.477
60.08000 131.681
60.09000 130.054
60.10000 125.298
60.11000 120.240
60.12000 116.568
60.13000 121.023
60.14000 124.752
60.15000 126.820
60.16000 126.063
60.17000 125.259
60.18000 126.357
60.19000 129.580
60.20000 132.792
60.21000 134.349
60.22000 134.716
60.23000 135.045
60.24000 134.170
60.25000 132.720
60.26000 131.660
60.27000 136.083
60.28000 142.273
60.29000 147.876
60.30000 144.725
60.31000 140.305
60.32000 136.615
60.33000 136.515
60.34000 136.897
60.35000 136.624
60.36000 134.228
60.37000 131.668
60.38000 129.894
60.39000 134.207
60.40000 137.615
60.41000 137.272
60.42000 131.454
60.43000 125.590
60.44000 122.726
60.45000 122.686
60.46000 122.646
60.47000 121.709
60.48000 120.248
60.49000 118.962
60.50000 121.599
60.51000 125.855
60.52000 129.873
60.53000 131.234
60.54000 131.858
60.55000 132.411
60.56000 129.908
60.57000 127.264
60.58000 125.816
60.59000 129.373
60.60000 133.484
60.61000 135.695
60.62000 132.598
60.63000 129.187
60.64000 126.941
60.65000 135.135
60.66000 141.351
60.67000 142.894
60.68000 138.609
60.69000 134.306
60.70000 129.612
60.71000 124.606
60.72000 119.677
60.73000 123.863
60.74000 132.599
60.75000 140.802
60.76000 140.080
60.77000 136.175
60.78000 133.037
60.79000 136.777
60.80000 142.152
60.81000 146.795
60.82000 142.765
60.83000 138.222
60.84000 134.372
60.85000 133.010
60.86000 131.870
60.87000 130.880
60.88000 130.251
60.89000 129.638
60.90000 129.256
60.91000 131.649
60.92000 133.399
60.93000 135.836
60.94000 139.000
60.95000 142.153
60.96000 144.045
60.97000 145.076
60.98000 146.083
60.99000 142.164
61.00000 136.265
61.01000 130.857
61.02000 131.832
61.03000 134.769
61.04000 137.441
61.05000 138.156
61.06000 138.475
61.07000 138.742
61.08000 139.753
61.09000 140.674
61.10000 142.359
61.11000 146.403
61.12000 150.615
61.13000 151.280
61.14000 144.559
61.15000 137.609
61.16000 133.557
61.17000 136.065
61.18000 137.855
61.19000 136.753
61.20000 133.070
61.21000 129.459
61.22000 130.073
61.23000 133.162
61.24000 136.147
61.25000 138.356
61.26000 140.152
61.27000 141.449
61.28000 137.594
61.29000 132.377
61.30000 128.375
61.31000 131.878
61.32000 136.668
61.33000 140.571
61.34000 137.957
61.35000 135.268
61.36000 133.883
61.37000 135.972
61.38000 138.250
61.39000 139.498
61.40000 138.898
61.41000 138.261
61.42000 137.916
61.43000 136.376
61.44000 135.332
61.45000 137.237
61.46000 141.379
61.47000 145.462
61.48000 147.384
61.49000 148.215
61.50000 149.009
61.51000 153.187
61.52000 158.132
61.53000 163.474
61.54000 172.168
61.55000 181.618
61.56000 190.562
61.57000 196.865
61.58000 202.787
61.59000 207.451
61.60000 221.009
61.61000 232.467
61.62000 242.241
61.63000 248.140
61.64000 253.884
61.65000 255.158
61.66000 249.530
61.67000 243.825
61.68000 240.971
61.69000 250.812
61.70000 257.322
61.71000 259.048
61.72000 257.669
61.73000 256.459
61.74000 259.536
61.75000 264.479
61.76000 269.124
61.77000 261.715
61.78000 251.731
61.79000 240.695
61.80000 222.324
61.81000 202.542
61.82000 184.832
61.83000 176.307
61.84000 168.875
61.85000 163.239
61.86000 163.245
61.87000 163.539
61.88000 162.721
61.89000 159.697
61.90000 156.613
61.91000 151.801
61.92000 144.705
61.93000 137.606
61.94000 135.997
61.95000 139.027
61.96000 142.016
61.97000 142.900
61.98000 142.610
61.99000 142.273
62.00000 141.086
62.01000 139.579
62.02000 138.187
62.03000 140.225
62.04000 142.827
62.05000 144.603
62.06000 141.546
62.07000 137.705
62.08000 135.424
62.09000 139.057
62.10000 143.264
62.11000 146.323
62.12000 142.201
62.13000 138.755
62.14000 137.707
62.15000 140.761
62.16000 143.883
62.17000 144.058
62.18000 140.922
62.19000 137.794
62.20000 138.115
62.21000 140.898
62.22000 143.556
62.23000 142.149
62.24000 138.785
62.25000 135.721
62.26000 136.913
62.27000 139.485
62.28000 141.814
62.29000 141.654
62.30000 141.042
62.31000 140.127
62.32000 137.714
62.33000 135.099
62.34000 133.085
62.35000 133.032
62.36000 133.130
62.37000 133.198
62.38000 138.018
62.39000 141.776
62.40000 142.655
62.41000 139.302
62.42000 135.912
62.43000 133.884
62.44000 133.147
62.45000 132.416
62.46000 134.046
62.47000 137.080
62.48000 140.015
62.49000 140.690
62.50000 140.427
62.51000 140.012
62.52000 137.892
62.53000 135.297
62.54000 132.997
62.55000 135.881
62.56000 139.195
62.57000 142.092
62.58000 143.234
62.59000 144.180
62.60000 144.349
62.61000 142.335
62.62000 140.191
62.63000 138.776
62.64000 140.315
62.65000 141.501
62.66000 142.036
62.67000 141.754
62.68000 141.473
62.69000 142.385
62.70000 144.254
62.71000 146.095
62.72000 143.654
62.73000 139.076
62.74000 134.756
62.75000 134.807
62.76000 136.427
62.77000 138.094
62.78000 140.186
62.79000 142.380
62.80000 144.276
62.81000 143.100
62.82000 141.700
62.83000 140.921
62.84000 142.389
62.85000 144.060
62.86000 146.717
62.87000 151.765
62.88000 156.920
62.89000 160.132
62.90000 144.818
62.91000 133.592
62.92000 131.019
62.93000 137.659
62.94000 144.261
62.95000 146.194
62.96000 144.921
62.97000 143.677
62.98000 145.421
62.99000 148.404
63.00000 151.000
63.01000 148.539
63.02000 144.513
63.03000 141.511
63.04000 146.139
63.05000 152.324
63.06000 157.526
63.07000 149.152
63.08000 140.726
63.09000 135.107
63.10000 138.216
63.11000 141.948
63.12000 145.621
63.13000 149.169
63.14000 152.714
63.15000 154.787
63.16000 143.645
63.17000 135.747
63.18000 134.005
63.19000 137.793
63.20000 141.522
63.21000 141.619
63.22000 139.577
63.23000 137.603
63.24000 140.081
63.25000 144.084
63.26000 148.093
63.27000 152.169
63.28000 156.263
63.29000 159.118
63.30000 154.269
63.31000 148.089
63.32000 143.048
63.33000 146.274
63.34000 149.621
63.35000 151.729
63.36000 150.519
63.37000 149.127
63.38000 147.576
63.39000 145.739
63.40000 143.896
63.41000 142.893
63.42000 148.195
63.43000 151.824
63.44000 151.473
63.45000 148.083
63.46000 144.757
63.47000 143.783
63.48000 144.003
63.49000 144.214
63.50000 147.820
63.51000 152.247
63.52000 156.746
63.53000 161.858
63.54000 167.110
63.55000 170.497
63.56000 164.104
63.57000 156.295
63.58000 150.136
63.59000 147.548
63.60000 145.713
63.61000 145.477
63.62000 148.940
63.63000 152.552
63.64000 155.353
63.65000 156.894
63.66000 158.420
63.67000 159.186
63.68000 149.519
63.69000 143.109
63.70000 140.851
63.71000 141.304
63.72000 141.819
63.73000 143.905
63.74000 146.680
63.75000 149.288
63.76000 152.051
63.77000 154.616
63.78000 156.824
63.79000 156.524
63.80000 155.738
63.81000 154.384
63.82000 150.490
63.83000 146.292
63.84000 143.104
63.85000 149.385
63.86000 154.813
63.87000 157.715
63.88000 155.572
63.89000 153.288
63.90000 152.434
63.91000 153.478
63.92000 154.531
63.93000 154.415
63.94000 153.306
63.95000 152.248
63.96000 153.822
63.97000 156.875
63.98000 159.772
63.99000 159.755
64.00000 158.635
64.01000 157.600
64.02000 158.848
64.03000 160.487
64.04000 161.562
64.05000 159.318
64.06000 156.532
64.07000 154.857
64.08000 157.423
64.09000 160.403
64.10000 162.574
64.11000 162.636
64.12000 162.603
64.13000 162.583
64.14000 162.587
64.15000 162.591
64.16000 162.389
64.17000 161.954
64.18000 161.519
64.19000 160.271
64.20000 158.447
64.21000 156.660
64.22000 156.091
64.23000 156.111
64.24000 156.245
64.25000 158.009
64.26000 160.306
64.27000 162.388
64.28000 167.448
64.29000 172.479
64.30000 176.636
64.31000 176.440
64.32000 175.650
64.33000 174.070
64.34000 169.896
64.35000 165.519
64.36000 162.474
64.37000 160.471
64.38000 158.990
64.39000 157.967
64.40000 157.624
64.41000 157.287
64.42000 157.868
64.43000 159.323
64.44000 160.767
64.45000 165.742
64.46000 172.785
64.47000 179.466
64.48000 177.774
64.49000 172.584
64.50000 167.796
64.51000 167.563
64.52000 168.610
64.53000 169.538
64.54000 170.793
64.55000 171.932
64.56000 172.203
64.57000 168.790
64.58000 164.962
64.59000 161.571
64.60000 159.412
64.61000 157.329
64.62000 155.951
64.63000 166.335
64.64000 174.206
64.65000 177.143
64.66000 173.844
64.67000 170.536
64.68000 171.293
64.69000 175.339
64.70000 179.326
64.71000 177.291
64.72000 172.186
64.73000 167.315
64.74000 166.459
64.75000 167.051
64.76000 167.768
64.77000 169.613
64.78000 171.729
64.79000 173.561
64.80000 170.287
64.81000 166.832
64.82000 164.994
64.83000 169.031
64.84000 173.603
64.85000 177.136
64.86000 178.131
64.87000 179.012
64.88000 179.562
64.89000 182.585
64.90000 184.792
64.91000 182.877
64.92000 176.543
64.93000 170.262
64.94000 170.662
64.95000 175.677
64.96000 180.578
64.97000 183.679
64.98000 185.853
64.99000 187.976
65.00000 189.407
65.01000 190.623
65.02000 191.701
65.03000 191.738
65.04000 191.561
65.05000 191.413
65.06000 198.997
65.07000 206.156
65.08000 210.180
65.09000 204.404
65.10000 197.920
65.11000 192.614
65.12000 189.792
65.13000 187.048
65.14000 185.440
65.15000 183.586
65.16000 182.282
65.17000 186.267
65.18000 195.034
65.19000 203.683
65.20000 205.050
65.21000 202.100
65.22000 199.247
65.23000 197.621
65.24000 196.549
65.25000 195.730
65.26000 197.572
65.27000 200.127
65.28000 202.569
65.29000 204.306
65.30000 205.921
65.31000 207.240
65.32000 210.490
65.33000 213.318
65.34000 215.346
65.35000 215.220
65.36000 214.975
65.37000 216.412
65.38000 220.904
65.39000 225.461
65.40000 227.948
65.41000 219.048
65.42000 212.948
65.43000 213.562
65.44000 219.334
65.45000 225.016
65.46000 227.228
65.47000 227.667
65.48000 228.086
65.49000 230.094
65.50000 232.468
65.51000 234.547
65.52000 234.102
65.53000 233.077
65.54000 232.930
65.55000 237.410
65.56000 242.566
65.57000 246.637
65.58000 246.609
65.59000 246.307
65.60000 248.486
65.61000 256.439
65.62000 264.628
65.63000 272.063
65.64000 278.317
65.65000 284.557
65.66000 287.701
65.67000 304.668
65.68000 316.135
65.69000 339.765
65.70000 371.390
65.71000 403.385
65.72000 445.026
65.73000 490.918
65.74000 534.095
65.75000 583.391
65.76000 630.099
65.77000 676.118
65.78000 717.256
65.79000 757.443
65.80000 795.075
65.81000 821.238
65.82000 846.014
65.83000 864.864
65.84000 892.770
65.85000 915.200
65.86000 930.526
65.87000 931.579
65.88000 932.229
65.89000 930.119
65.90000 924.316
65.91000 918.499
65.92000 898.493
65.93000 866.386
65.94000 834.249
65.95000 800.527
65.96000 765.911
65.97000 730.657
65.98000 683.324
65.99000 631.394
66.00000 583.357
66.01000 533.580
66.02000 488.464
66.03000 445.980
66.04000 419.094
66.05000 394.775
66.06000 371.671
66.07000 353.232
66.08000 335.254
66.09000 322.132
66.10000 318.458
66.11000 315.994
66.12000 311.822
66.13000 304.693
66.14000 297.510
66.15000 292.955
66.16000 291.390
66.17000 289.834
66.18000 290.386
66.19000 292.461
66.20000 294.496
66.21000 295.164
66.22000 295.165
66.23000 295.176
66.24000 295.309
66.25000 295.483
66.26000 295.641
66.27000 303.671
66.28000 312.270
66.29000 320.748
66.30000 328.618
66.31000 336.404
66.32000 346.552
66.33000 364.497
66.34000 383.056
66.35000 395.995
66.36000 402.200
66.37000 406.698
66.38000 410.557
66.39000 413.465
66.40000 416.365
66.41000 416.532
66.42000 414.073
66.43000 411.634
66.44000 416.361
66.45000 425.413
66.46000 433.893
66.47000 429.017
66.48000 418.524
66.49000 408.332
66.50000 401.563
66.51000 395.761
66.52000 390.610
66.53000 388.436
66.54000 387.030
66.55000 381.835
66.56000 360.474
66.57000 337.278
66.58000 319.873
66.59000 318.935
66.60000 319.005
66.61000 319.052
66.62000 312.449
66.63000 307.452
66.64000 302.461
66.65000 297.480
66.66000 292.515
66.67000 293.745
66.68000 300.018
66.69000 306.201
66.70000 307.170
66.71000 305.385
66.72000 304.107
66.73000 311.622
66.74000 322.329
66.75000 331.790
66.76000 329.779
66.77000 324.988
66.78000 320.837
66.79000 326.932
66.80000 333.474
66.81000 337.692
66.82000 333.411
66.83000 328.349
66.84000 324.564
66.85000 323.916
66.86000 323.412
66.87000 323.096
66.88000 327.517
66.89000 330.760
66.90000 330.483
66.91000 326.407
66.92000 322.376
66.93000 324.069
66.94000 329.741
66.95000 335.285
66.96000 335.869
66.97000 334.218
66.98000 332.706
66.99000 333.041
67.00000 333.955
67.01000 335.124
67.02000 338.235
67.03000 341.747
67.04000 344.708
67.05000 348.681
67.06000 352.107
67.07000 354.244
67.08000 352.324
67.09000 350.107
67.10000 349.116
67.11000 350.719
67.12000 352.408
67.13000 353.400
67.14000 358.549
67.15000 362.200
67.16000 365.020
67.17000 367.085
67.18000 369.194
67.19000 374.119
67.20000 380.723
67.21000 387.111
67.22000 386.873
67.23000 384.138
67.24000 381.812
67.25000 383.819
67.26000 386.993
67.27000 389.121
67.28000 384.653
67.29000 379.030
67.30000 374.430
67.31000 380.083
67.32000 385.607
67.33000 391.383
67.34000 397.846
67.35000 404.348
67.36000 406.308
67.37000 399.968
67.38000 393.452
67.39000 389.884
67.40000 390.043
67.41000 390.181
67.42000 395.831
67.43000 405.743
67.44000 415.492
67.45000 418.876
67.46000 418.991
67.47000 419.102
67.48000 418.114
67.49000 416.842
67.50000 415.689
67.51000 415.563
67.52000 415.674
67.53000 416.677
67.54000 422.427
67.55000 428.873
67.56000 433.972
67.57000 433.403
67.58000 432.557
67.59000 431.777
67.60000 431.152
67.61000 430.535
67.62000 433.475
67.63000 442.010
67.64000 450.613
67.65000 454.962
67.66000 456.045
67.67000 456.767
67.68000 457.224
67.69000 457.507
67.70000 457.990
67.71000 463.758
67.72000 471.869
67.73000 479.504
67.74000 479.677
67.75000 477.798
67.76000 476.071
67.77000 475.424
67.78000 474.990
67.79000 475.544
67.80000 480.564
67.81000 486.127
67.82000 490.367
67.83000 485.341
67.84000 480.894
67.85000 478.341
67.86000 479.619
67.87000 481.006
67.88000 485.758
67.89000 495.041
67.90000 504.341
67.91000 511.350
67.92000 516.371
67.93000 521.339
67.94000 523.445
67.95000 523.926
67.96000 524.550
67.97000 527.921
67.98000 532.345
67.99000 536.440
68.00000 539.324
68.01000 541.638
68.02000 544.955
68.03000 554.259
68.04000 564.556
68.05000 571.267
68.06000 564.124
68.07000 555.604
68.08000 549.373
68.09000 555.504
68.10000 560.720
68.11000 562.289
68.12000 557.500
68.13000 552.597
68.14000 557.314
68.15000 573.057
68.16000 588.762
68.17000 595.022
68.18000 594.344
68.19000 593.591
68.20000 590.315
68.21000 585.804
68.22000 582.503
68.23000 596.896
68.24000 617.133
68.25000 635.510
68.26000 639.678
68.27000 640.611
68.28000 641.564
68.29000 642.618
68.30000 643.686
68.31000 646.778
68.32000 656.592
68.33000 666.941
68.34000 674.170
68.35000 674.403
68.36000 674.383
68.37000 675.537
68.38000 678.449
68.39000 681.379
68.40000 687.003
68.41000 695.235
68.42000 703.404
68.43000 709.854
68.44000 715.130
68.45000 720.534
68.46000 728.981
68.47000 738.716
68.48000 749.101
68.49000 766.980
68.50000 786.990
68.51000 804.771
68.52000 805.729
68.53000 803.844
68.54000 805.479
68.55000 822.229
68.56000 840.708
68.57000 861.608
68.58000 889.432
68.59000 917.685
68.60000 936.446
68.61000 961.225
68.62000 979.653
68.63000 1011.414
68.64000 1060.239
68.65000 1109.134
68.66000 1161.019
68.67000 1215.352
68.68000 1268.924
68.69000 1326.916
68.70000 1385.589
68.71000 1442.769
68.72000 1473.827
68.73000 1495.345
68.74000 1520.315
68.75000 1577.329
68.76000 1642.156
68.77000 1698.380
68.78000 1745.708
68.79000 1784.823
68.80000 1827.761
68.81000 1884.767
68.82000 1943.078
68.83000 2006.912
68.84000 2084.380
68.85000 2162.481
68.86000 2211.500
68.87000 2380.938
68.88000 2504.716
68.89000 2727.237
68.90000 3057.065
68.91000 3389.787
68.92000 4093.648
68.93000 5057.064
68.94000 5999.089
68.95000 8002.757
68.96000 10399.731
68.97000 12894.736
68.98000 16712.721
68.99000 20947.303
69.00000 25213.367
69.01000 29719.475
69.02000 34275.527
69.03000 38121.082
69.04000 42166.082
69.05000 45568.066
69.06000 48539.789
69.07000 50150.008
69.08000 51659.922
69.09000 52782.285
69.10000 53078.492
69.11000 53347.414
69.12000 53505.910
69.13000 53688.699
69.14000 53818.004
69.15000 54285.941
69.16000 55064.246
69.17000 55835.980
69.18000 56181.023
69.19000 56269.996
69.20000 56356.098
69.21000 55017.426
69.22000 53209.098
69.23000 51291.379
69.24000 48201.422
69.25000 44794.020
69.26000 41475.254
69.27000 38719.695
69.28000 36063.438
69.29000 33888.055
69.30000 32020.010
69.31000 30515.664
69.32000 29219.705
69.33000 28492.355
69.34000 27797.266
69.35000 27138.006
69.36000 26544.625
69.37000 25952.674
69.38000 25627.543
69.39000 23846.293
69.40000 22615.852
69.41000 20842.881
69.42000 18647.627
69.43000 16450.543
69.44000 14181.220
69.45000 11874.561
69.46000 9669.789
69.47000 7930.348
69.48000 6462.982
69.49000 5059.331
69.50000 4209.977
69.51000 3489.183
69.52000 2828.729
69.53000 2491.277
69.54000 2201.636
69.55000 1972.239
69.56000 1822.300
69.57000 1707.288
69.58000 1602.406
69.59000 1521.388
69.60000 1441.370
69.61000 1369.523
69.62000 1310.601
69.63000 1251.841
69.64000 1222.035
69.65000 1185.088
69.66000 1160.342
69.67000 1136.054
69.68000 1112.070
69.69000 1087.996
69.70000 1061.506
69.71000 1033.938
69.72000 1007.968
69.73000 982.568
69.74000 959.481
69.75000 937.842
69.76000 926.611
69.77000 917.436
69.78000 906.525
69.79000 887.717
69.80000 867.940
69.81000 852.846
69.82000 845.962
69.83000 840.977
69.84000 831.816
69.85000 814.161
69.86000 796.258
69.87000 782.922
69.88000 775.774
69.89000 768.666
69.90000 758.107
69.91000 744.573
69.92000 731.084
69.93000 720.119
69.94000 710.596
69.95000 700.948
69.96000 688.878
69.97000 675.874
69.98000 663.828
69.99000 662.021
70.00000 662.771
