20.00000 549.852
20.01000 554.678
20.02000 560.193
20.03000 563.750
20.04000 559.704
20.05000 554.897
20.06000 551.378
20.07000 563.159
20.08000 572.863
20.09000 578.209
20.10000 575.925
20.11000 573.500
20.12000 565.487
20.13000 551.036
20.14000 536.623
20.15000 537.759
20.16000 550.286
20.17000 562.534
20.18000 565.162
20.19000 563.054
20.20000 561.500
20.21000 568.107
20.22000 577.423
20.23000 585.888
20.24000 578.471
20.25000 568.827
20.26000 559.411
20.27000 551.154
20.28000 543.058
20.29000 538.007
20.30000 543.113
20.31000 549.032
20.32000 553.173
20.33000 553.126
20.34000 552.971
20.35000 552.874
20.36000 552.861
20.37000 552.849
20.38000 551.667
20.39000 549.347
20.40000 547.045
20.41000 548.397
20.42000 552.001
20.43000 555.584
20.44000 558.655
20.45000 561.509
20.46000 563.676
20.47000 557.870
20.48000 549.788
20.49000 542.600
20.50000 538.710
20.51000 535.868
20.52000 533.970
20.53000 536.142
20.54000 538.783
20.55000 541.942
20.56000 546.589
20.57000 551.329
20.58000 554.482
20.59000 558.016
20.60000 560.637
20.61000 562.986
20.62000 564.985
20.63000 566.960
20.64000 559.184
20.65000 543.376
20.66000 527.787
20.67000 525.773
20.68000 531.002
20.69000 536.334
20.70000 543.488
20.71000 551.311
20.72000 558.062
20.73000 554.794
20.74000 549.071
20.75000 544.103
20.76000 547.715
20.77000 551.944
20.78000 553.954
20.79000 547.757
20.80000 540.793
20.81000 536.029
20.82000 536.723
20.83000 537.674
20.84000 538.271
20.85000 538.493
20.86000 538.650
20.87000 543.583
20.88000 553.735
20.89000 563.815
20.90000 563.843
20.91000 556.805
20.92000 549.922
20.93000 547.179
20.94000 546.413
20.95000 545.820
20.96000 547.569
20.97000 550.060
20.98000 552.000
20.99000 549.721
21.00000 546.559
21.01000 543.888
21.02000 552.254
21.03000 560.461
21.04000 564.697
21.05000 556.303
21.06000 546.971
21.07000 543.089
21.08000 550.876
21.09000 559.053
21.10000 563.883
21.11000 554.261
21.12000 547.388
21.13000 544.147
21.14000 544.256
21.15000 544.361
21.16000 544.251
21.17000 544.012
21.18000 543.781
21.19000 544.871
21.20000 546.410
21.21000 547.671
21.22000 545.943
21.23000 543.403
21.24000 540.998
21.25000 539.457
21.26000 538.070
21.27000 536.933
21.28000 542.463
21.29000 547.589
21.30000 551.678
21.31000 552.928
21.32000 554.014
21.33000 551.852
21.34000 543.686
21.35000 535.388
21.36000 530.820
21.37000 534.487
21.38000 537.013
21.39000 535.433
21.40000 530.642
21.41000 525.865
21.42000 521.641
21.43000 517.704
21.44000 513.939
21.45000 514.902
21.46000 517.339
21.47000 520.445
21.48000 529.417
21.49000 539.756
21.50000 548.351
21.51000 547.559
21.52000 545.369
21.53000 543.633
21.54000 545.440
21.55000 547.141
21.56000 547.550
21.57000 544.901
21.58000 542.123
21.59000 541.380
21.60000 543.870
21.61000 546.402
21.62000 547.690
21.63000 561.805
21.64000 571.192
21.65000 572.594
21.66000 568.654
21.67000 564.768
21.68000 562.334
21.69000 560.552
21.70000 558.872
21.71000 564.109
21.72000 570.814
21.73000 577.905
21.74000 587.785
21.75000 598.218
21.76000 608.828
21.77000 620.241
21.78000 631.755
21.79000 640.552
21.80000 636.889
21.81000 633.327
21.82000 635.636
21.83000 649.943
21.84000 664.604
21.85000 680.622
21.86000 698.488
21.87000 716.353
21.88000 732.559
21.89000 747.290
21.90000 761.823
21.91000 765.381
21.92000 762.631
21.93000 760.634
21.94000 773.376
21.95000 791.821
21.96000 808.919
21.97000 818.466
21.98000 825.298
21.99000 830.970
22.00000 829.630
22.01000 827.113
22.02000 826.712
22.03000 834.582
22.04000 843.286
22.05000 849.671
22.06000 836.048
22.07000 824.714
22.08000 815.310
22.09000 809.302
22.10000 803.357
22.11000 796.877
22.12000 789.776
22.13000 782.695
22.14000 770.714
22.15000 755.204
22.16000 739.764
22.17000 726.802
22.18000 715.066
22.19000 702.961
22.20000 685.362
22.21000 665.929
22.22000 648.255
22.23000 636.219
22.24000 626.678
22.25000 617.931
22.26000 613.237
22.27000 609.113
22.28000 603.596
22.29000 593.409
22.30000 582.844
22.31000 575.438
22.32000 573.981
22.33000 573.049
22.34000 570.211
22.35000 564.488
22.36000 558.735
22.37000 556.886
22.38000 558.862
22.39000 560.824
22.40000 555.331
22.41000 545.259
22.42000 535.473
22.43000 532.619
22.44000 532.728
22.45000 532.874
22.46000 533.443
22.47000 534.133
22.48000 534.748
22.49000 537.202
22.50000 539.634
22.51000 541.904
22.52000 543.472
22.53000 544.958
22.54000 544.230
22.55000 537.099
22.56000 529.564
22.57000 524.542
22.58000 537.974
22.59000 548.272
22.60000 548.221
22.61000 534.770
22.62000 521.281
22.63000 515.558
22.64000 516.274
22.65000 516.980
22.66000 519.252
22.67000 522.296
22.68000 525.144
22.69000 524.495
22.70000 522.556
22.71000 520.717
22.72000 519.822
22.73000 519.160
22.74000 518.584
22.75000 515.414
22.76000 512.360
22.77000 510.395
22.78000 512.483
22.79000 514.953
22.80000 516.259
22.81000 514.660
22.82000 512.922
22.83000 511.827
22.84000 517.367
22.85000 521.454
22.86000 518.849
22.87000 508.883
22.88000 498.975
22.89000 497.594
22.90000 502.245
22.91000 506.796
22.92000 509.922
22.93000 512.276
22.94000 514.052
22.95000 507.898
22.96000 499.221
22.97000 491.706
22.98000 493.180
22.99000 496.546
23.00000 499.392
23.01000 500.285
23.02000 500.815
23.03000 502.042
23.04000 505.495
23.05000 509.116
23.06000 509.521
23.07000 502.999
23.08000 496.243
23.09000 492.241
23.10000 489.137
23.11000 486.949
23.12000 490.880
23.13000 500.486
23.14000 510.028
23.15000 515.182
23.16000 517.673
23.17000 520.086
23.18000 521.439
23.19000 522.310
23.20000 522.570
23.21000 516.166
23.22000 507.937
23.23000 500.147
23.24000 495.177
23.25000 490.711
23.26000 487.044
23.27000 494.416
23.28000 501.454
23.29000 506.031
23.30000 503.822
23.31000 501.221
23.32000 498.046
23.33000 493.805
23.34000 489.540
23.35000 487.184
23.36000 495.868
23.37000 501.869
23.38000 505.933
23.39000 508.471
23.40000 510.845
23.41000 506.542
23.42000 498.750
23.43000 491.295
23.44000 497.627
23.45000 508.046
23.46000 517.176
23.47000 514.937
23.48000 510.030
23.49000 505.913
23.50000 506.069
23.51000 506.866
23.52000 507.498
23.53000 503.257
23.54000 499.498
23.55000 498.040
23.56000 502.060
23.57000 506.315
23.58000 505.252
23.59000 495.683
23.60000 486.004
23.61000 481.064
23.62000 508.069
23.63000 525.999
23.64000 522.641
23.65000 504.954
23.66000 487.958
23.67000 489.945
23.68000 500.488
23.69000 510.431
23.70000 507.016
23.71000 500.174
23.72000 494.662
23.73000 498.837
23.74000 504.949
23.75000 508.236
23.76000 498.532
23.77000 487.209
23.78000 478.543
23.79000 490.397
23.80000 500.874
23.81000 506.433
23.82000 501.887
23.83000 497.038
23.84000 494.648
23.85000 495.631
23.86000 496.632
23.87000 492.493
23.88000 483.844
23.89000 475.370
23.90000 476.767
23.91000 483.871
23.92000 490.583
23.93000 489.529
23.94000 485.452
23.95000 481.670
23.96000 482.756
23.97000 484.877
23.98000 486.653
23.99000 486.328
24.00000 485.649
24.01000 485.153
24.02000 485.377
24.03000 485.675
24.04000 485.893
24.05000 491.016
24.06000 495.177
24.07000 497.937
24.08000 498.212
24.09000 498.439
24.10000 497.848
24.11000 496.301
24.12000 494.757
24.13000 492.025
24.14000 488.429
24.15000 484.963
24.16000 486.081
24.17000 489.483
24.18000 492.379
24.19000 487.655
24.20000 480.372
24.21000 473.743
24.22000 482.855
24.23000 494.027
24.24000 502.048
24.25000 493.882
24.26000 483.426
24.27000 476.178
24.28000 479.757
24.29000 484.221
24.30000 487.356
24.31000 478.571
24.32000 471.570
24.33000 473.922
24.34000 490.518
24.35000 507.265
24.36000 511.902
24.37000 504.595
24.38000 497.340
24.39000 496.210
24.40000 498.959
24.41000 501.509
24.42000 499.166
24.43000 494.718
24.44000 490.196
24.45000 484.788
24.46000 479.124
24.47000 474.078
24.48000 471.065
24.49000 468.782
24.50000 468.138
24.51000 474.669
24.52000 482.038
24.53000 488.232
24.54000 491.009
24.55000 493.567
24.56000 495.276
24.57000 496.954
24.58000 498.197
24.59000 496.918
24.60000 492.352
24.61000 487.781
24.62000 487.856
24.63000 491.809
24.64000 495.710
24.65000 493.745
24.66000 488.688
24.67000 483.635
24.68000 478.641
24.69000 473.669
24.70000 468.909
24.71000 466.163
24.72000 463.918
24.73000 461.964
24.74000 460.496
24.75000 459.309
24.76000 459.207
24.77000 463.169
24.78000 467.518
24.79000 473.224
24.80000 482.336
24.81000 491.611
24.82000 497.472
24.83000 481.275
24.84000 469.280
24.85000 461.518
24.86000 458.443
24.87000 455.400
24.88000 456.526
24.89000 460.620
24.90000 464.628
24.91000 465.337
24.92000 464.512
24.93000 463.708
24.94000 463.188
24.95000 462.759
24.96000 463.433
24.97000 472.702
24.98000 483.792
24.99000 493.183
25.00000 491.557
25.01000 488.965
25.02000 487.052
25.03000 487.328
25.04000 487.770
25.05000 487.216
25.06000 484.505
25.07000 481.718
25.08000 480.064
25.09000 471.086
25.10000 464.691
25.11000 464.129
25.12000 469.014
25.13000 473.826
25.14000 473.457
25.15000 469.926
25.16000 466.505
25.17000 465.504
25.18000 465.496
25.19000 465.389
25.20000 464.196
25.21000 462.704
25.22000 461.496
25.23000 462.129
25.24000 463.094
25.25000 463.886
25.26000 472.116
25.27000 479.548
25.28000 484.074
25.29000 480.539
25.30000 476.533
25.31000 472.462
25.32000 468.270
25.33000 464.075
25.34000 461.751
25.35000 471.822
25.36000 478.786
25.37000 482.144
25.38000 482.644
25.39000 483.128
25.40000 482.988
25.41000 482.518
25.42000 482.069
25.43000 480.944
25.44000 479.671
25.45000 478.503
25.46000 478.259
25.47000 478.233
25.48000 478.497
25.49000 480.344
25.50000 482.431
25.51000 484.090
25.52000 481.573
25.53000 479.248
25.54000 475.214
25.55000 467.089
25.56000 458.787
25.57000 452.902
25.58000 450.908
25.59000 448.966
25.60000 447.971
25.61000 465.109
25.62000 476.537
25.63000 478.019
25.64000 472.766
25.65000 467.671
25.66000 466.987
25.67000 468.304
25.68000 469.546
25.69000 463.577
25.70000 456.086
25.71000 449.341
25.72000 448.068
25.73000 447.895
25.74000 449.430
25.75000 458.876
25.76000 469.314
25.77000 477.315
25.78000 481.667
25.79000 484.902
25.80000 482.904
25.81000 470.085
25.82000 456.936
25.83000 451.203
25.84000 455.698
25.85000 460.256
25.86000 460.944
25.87000 458.210
25.88000 455.552
25.89000 457.272
25.90000 461.541
25.91000 465.449
25.92000 462.139
25.93000 456.004
25.94000 450.308
25.95000 457.161
25.96000 466.306
25.97000 473.745
25.98000 470.728
25.99000 465.932
26.00000 460.555
26.01000 452.884
26.02000 444.977
26.03000 439.157
26.04000 446.356
26.05000 452.465
26.06000 458.066
26.07000 462.761
26.08000 467.438
26.09000 470.123
26.10000 470.465
26.11000 470.802
26.12000 467.065
26.13000 460.306
26.14000 453.589
26.15000 448.347
26.16000 443.845
26.17000 439.708
26.18000 441.127
26.19000 444.422
26.20000 447.424
26.21000 456.332
26.22000 465.395
26.23000 471.082
26.24000 459.301
26.25000 445.031
26.26000 435.061
26.27000 439.698
26.28000 445.539
26.29000 449.649
26.30000 461.009
26.31000 469.834
26.32000 473.991
26.33000 470.995
26.34000 467.922
26.35000 463.495
26.36000 457.724
26.37000 451.993
26.38000 449.918
26.39000 450.197
26.40000 450.566
26.41000 453.192
26.42000 456.794
26.43000 460.351
26.44000 463.358
26.45000 466.206
26.46000 468.745
26.47000 467.823
26.48000 466.447
26.49000 465.224
26.50000 464.680
26.51000 464.216
26.52000 464.723
26.53000 468.073
26.54000 471.606
26.55000 473.971
26.56000 461.329
26.57000 451.654
26.58000 446.636
26.59000 447.725
26.60000 448.838
26.61000 447.631
26.62000 444.476
26.63000 441.362
26.64000 443.517
26.65000 448.458
26.66000 453.091
26.67000 452.089
26.68000 448.983
26.69000 446.222
26.70000 446.760
26.71000 448.122
26.72000 449.308
26.73000 445.236
26.74000 441.036
26.75000 438.854
26.76000 444.268
26.77000 450.412
26.78000 452.857
26.79000 445.961
26.80000 438.610
26.81000 433.954
26.82000 435.402
26.83000 436.525
26.84000 438.921
26.85000 442.738
26.86000 446.566
26.87000 451.875
26.88000 458.247
26.89000 464.485
26.90000 463.233
26.91000 458.589
26.92000 454.119
26.93000 452.102
26.94000 450.876
26.95000 450.150
26.96000 453.361
26.97000 457.411
26.98000 460.845
26.99000 449.625
27.00000 438.572
27.01000 430.522
27.02000 432.200
27.03000 434.621
27.04000 436.142
27.05000 435.704
27.06000 435.197
27.07000 434.895
27.08000 444.355
27.09000 451.115
27.10000 451.029
27.11000 444.505
27.12000 438.008
27.13000 433.497
27.14000 430.204
27.15000 427.012
27.16000 428.954
27.17000 432.801
27.18000 436.764
27.19000 442.022
27.20000 447.638
27.21000 452.333
27.22000 451.016
27.23000 448.611
27.24000 446.631
27.25000 435.900
27.26000 426.280
27.27000 420.589
27.28000 425.866
27.29000 431.791
27.30000 438.184
27.31000 445.455
27.32000 452.747
27.33000 456.798
27.34000 454.441
27.35000 452.791
27.36000 448.302
27.37000 441.548
27.38000 435.083
27.39000 440.804
27.40000 452.968
27.41000 464.618
27.42000 456.710
27.43000 442.838
27.44000 430.558
27.45000 432.572
27.46000 437.982
27.47000 441.573
27.48000 435.170
27.49000 427.247
27.50000 420.939
27.51000 422.488
27.52000 424.304
27.53000 425.095
27.54000 423.414
27.55000 421.624
27.56000 423.547
27.57000 431.480
27.58000 439.496
27.59000 443.615
27.60000 430.827
27.61000 422.303
27.62000 422.994
27.63000 429.964
27.64000 436.762
27.65000 438.684
27.66000 438.384
27.67000 438.099
27.68000 435.353
27.69000 432.140
27.70000 429.007
27.71000 426.465
27.72000 424.044
27.73000 422.605
27.74000 425.749
27.75000 429.471
27.76000 432.329
27.77000 435.284
27.78000 437.626
27.79000 438.957
27.80000 438.186
27.81000 437.350
27.82000 437.846
27.83000 440.192
27.84000 442.549
27.85000 443.075
27.86000 441.970
27.87000 440.870
27.88000 440.008
27.89000 439.286
27.90000 438.456
27.91000 435.429
27.92000 431.536
27.93000 427.920
27.94000 428.874
27.95000 430.823
27.96000 432.795
27.97000 434.908
27.98000 437.045
27.99000 437.214
28.00000 429.550
28.01000 421.075
28.02000 414.826
28.03000 416.762
28.04000 418.605
28.05000 422.799
28.06000 431.213
28.07000 439.711
28.08000 441.534
28.09000 435.461
28.10000 429.391
28.11000 426.743
28.12000 426.690
28.13000 426.670
28.14000 427.899
28.15000 429.757
28.16000 431.135
28.17000 425.144
28.18000 416.648
28.19000 408.903
28.20000 416.960
28.21000 427.264
28.22000 437.304
28.23000 445.968
28.24000 454.434
28.25000 460.900
28.26000 460.531
28.27000 459.593
28.28000 458.931
28.29000 452.595
28.30000 447.618
28.31000 442.248
28.32000 436.271
28.33000 430.288
28.34000 429.789
28.35000 434.777
28.36000 439.730
28.37000 439.554
28.38000 436.103
28.39000 432.604
28.40000 427.924
28.41000 422.730
28.42000 417.962
28.43000 418.327
28.44000 420.194
28.45000 421.860
28.46000 427.248
28.47000 432.561
28.48000 436.253
28.49000 432.766
28.50000 428.425
28.51000 425.374
28.52000 426.118
28.53000 427.110
28.54000 427.775
28.55000 420.342
28.56000 414.660
28.57000 416.758
28.58000 429.126
28.59000 441.523
28.60000 443.197
28.61000 435.806
28.62000 428.508
28.63000 425.877
28.64000 425.851
28.65000 425.985
28.66000 429.084
28.67000 433.299
28.68000 437.589
28.69000 442.620
28.70000 447.837
28.71000 452.383
28.72000 444.419
28.73000 435.878
28.74000 428.374
28.75000 424.795
28.76000 421.596
28.77000 421.231
28.78000 428.062
28.79000 435.247
28.80000 439.809
28.81000 430.882
28.82000 424.236
28.83000 417.158
28.84000 409.594
28.85000 402.084
28.86000 403.071
28.87000 410.181
28.88000 417.146
28.89000 414.053
28.90000 406.429
28.91000 399.265
28.92000 398.600
28.93000 400.042
28.94000 401.543
28.95000 403.520
28.96000 405.598
28.97000 407.362
28.98000 414.681
28.99000 421.450
29.00000 425.970
29.01000 423.160
29.02000 419.785
29.03000 415.268
29.04000 408.246
29.05000 401.136
29.06000 396.892
29.07000 406.858
29.08000 414.013
29.09000 418.258
29.10000 419.747
29.11000 421.250
29.12000 423.773
29.13000 426.926
29.14000 429.985
29.15000 425.440
29.16000 418.141
29.17000 411.288
29.18000 409.428
29.19000 408.961
29.20000 409.131
29.21000 413.501
29.22000 418.636
29.23000 422.867
29.24000 420.140
29.25000 417.258
29.26000 413.718
29.27000 408.329
29.28000 402.830
29.29000 401.326
29.30000 407.383
29.31000 413.620
29.32000 417.095
29.33000 416.566
29.34000 416.190
29.35000 415.509
29.36000 414.583
29.37000 413.681
29.38000 413.819
29.39000 414.511
29.40000 415.174
29.41000 417.944
29.42000 421.235
29.43000 424.394
29.44000 426.362
29.45000 428.045
29.46000 428.758
29.47000 424.105
29.48000 418.631
29.49000 414.265
29.50000 413.173
29.51000 412.530
29.52000 411.834
29.53000 411.011
29.54000 410.182
29.55000 411.209
29.56000 415.259
29.57000 419.352
29.58000 421.462
29.59000 412.896
29.60000 407.182
29.61000 408.193
29.62000 413.816
29.63000 419.134
29.64000 415.728
29.65000 408.319
29.66000 401.318
29.67000 402.486
29.68000 405.877
29.69000 408.877
29.70000 408.978
29.71000 408.488
29.72000 409.788
29.73000 419.482
29.74000 430.247
29.75000 438.524
29.76000 432.981
29.77000 427.815
29.78000 425.220
29.79000 428.004
29.80000 430.957
29.81000 433.953
29.82000 437.008
29.83000 440.063
29.84000 439.902
29.85000 436.860
29.86000 433.848
29.87000 432.647
29.88000 432.512
29.89000 432.636
29.90000 438.099
29.91000 445.675
29.92000 452.718
29.93000 453.750
29.94000 453.240
29.95000 452.977
29.96000 454.251
29.97000 455.790
29.98000 456.828
29.99000 455.858
30.00000 454.677
30.01000 453.806
30.02000 455.130
30.03000 456.250
30.04000 457.639
30.05000 459.517
30.06000 461.404
30.07000 463.266
30.08000 465.096
30.09000 466.922
30.10000 462.391
30.11000 453.068
30.12000 443.939
30.13000 442.031
30.14000 443.787
30.15000 445.469
30.16000 446.020
30.17000 446.185
30.18000 446.334
30.19000 438.476
30.20000 429.891
30.21000 423.515
30.22000 428.715
30.23000 435.590
30.24000 443.194
30.25000 453.304
30.26000 463.624
30.27000 470.914
30.28000 455.736
30.29000 443.528
30.30000 436.766
30.31000 438.452
30.32000 440.236
30.33000 442.847
30.34000 446.293
30.35000 449.716
30.36000 446.270
30.37000 438.458
30.38000 430.821
30.39000 427.650
30.40000 426.435
30.41000 425.192
30.42000 423.623
30.43000 421.958
30.44000 420.470
30.45000 416.846
30.46000 413.328
30.47000 411.297
30.48000 415.889
30.49000 421.275
30.50000 425.572
30.51000 426.643
30.52000 427.501
30.53000 428.079
30.54000 434.737
30.55000 439.809
30.56000 445.763
30.57000 452.890
30.58000 460.004
30.59000 455.341
30.60000 440.655
30.61000 426.150
30.62000 426.976
30.63000 436.163
30.64000 444.724
30.65000 441.571
30.66000 433.991
30.67000 427.764
30.68000 434.728
30.69000 445.028
30.70000 454.013
30.71000 453.938
30.72000 452.608
30.73000 452.090
30.74000 454.664
30.75000 457.540
30.76000 459.819
30.77000 460.571
30.78000 461.247
30.79000 461.677
30.80000 466.346
30.81000 469.791
30.82000 471.996
30.83000 472.798
30.84000 473.657
30.85000 483.978
30.86000 501.162
30.87000 518.001
30.88000 518.739
30.89000 511.957
30.90000 505.821
30.91000 508.944
30.92000 515.085
30.93000 521.784
30.94000 532.928
30.95000 545.033
30.96000 555.318
30.97000 562.204
30.98000 567.594
30.99000 579.115
31.00000 610.730
31.01000 643.910
31.02000 676.005
31.03000 705.707
31.04000 735.322
31.05000 753.046
31.06000 809.879
31.07000 850.474
31.08000 899.290
31.09000 955.944
31.10000 1012.820
31.11000 1086.273
31.12000 1170.032
31.13000 1251.301
31.14000 1362.599
31.15000 1480.030
31.16000 1599.436
31.17000 1741.114
31.18000 1889.043
31.19000 2038.081
31.20000 2194.468
31.21000 2352.203
31.22000 2482.333
31.23000 2688.986
31.24000 2866.245
31.25000 3042.005
31.26000 3213.532
31.27000 3384.803
31.28000 3555.667
31.29000 3725.758
31.30000 3895.830
31.31000 3990.865
31.32000 4126.130
31.33000 4219.742
31.34000 4260.112
31.35000 4257.458
31.36000 4254.464
31.37000 4236.561
31.38000 4210.680
31.39000 4185.865
31.40000 4089.349
31.41000 3975.083
31.42000 3859.964
31.43000 3737.051
31.44000 3612.264
31.45000 3482.291
31.46000 3323.445
31.47000 3160.144
31.48000 3029.752
31.49000 2809.870
31.50000 2625.711
31.51000 2444.560
31.52000 2270.743
31.53000 2097.257
31.54000 1935.993
31.55000 1794.758
31.56000 1653.812
31.57000 1580.910
31.58000 1383.276
31.59000 1250.253
31.60000 1149.193
31.61000 1070.188
31.62000 991.604
31.63000 925.244
31.64000 864.527
31.65000 807.123
31.66000 757.973
31.67000 715.176
31.68000 673.297
31.69000 638.298
31.70000 604.712
31.71000 576.193
31.72000 571.599
31.73000 570.079
31.74000 568.909
31.75000 537.898
31.76000 511.642
31.77000 491.552
31.78000 484.441
31.79000 477.744
31.80000 474.546
31.81000 476.266
31.82000 478.020
31.83000 473.917
31.84000 464.531
31.85000 455.180
31.86000 447.971
31.87000 442.030
31.88000 436.435
31.89000 438.024
31.90000 442.478
31.91000 446.620
31.92000 449.305
31.93000 451.379
31.94000 451.957
31.95000 443.171
31.96000 432.758
31.97000 424.690
31.98000 426.080
31.99000 428.465
32.00000 430.230
32.01000 421.245
32.02000 413.812
32.03000 409.091
32.04000 409.294
32.05000 409.600
32.06000 411.677
32.07000 415.878
32.08000 420.074
32.09000 418.948
32.10000 413.767
32.11000 408.709
32.12000 408.297
32.13000 410.256
32.14000 412.287
32.15000 415.456
32.16000 419.016
32.17000 422.266
32.18000 421.538
32.19000 420.084
32.20000 418.409
32.21000 415.572
32.22000 412.564
32.23000 408.309
32.24000 399.737
32.25000 390.799
32.26000 384.474
32.27000 386.302
32.28000 387.943
32.29000 391.173
32.30000 396.883
32.31000 402.623
32.32000 402.895
32.33000 397.620
32.34000 392.378
32.35000 396.454
32.36000 406.504
32.37000 415.959
32.38000 410.005
32.39000 397.265
32.40000 385.404
32.41000 384.314
32.42000 386.416
32.43000 388.295
32.44000 389.162
32.45000 389.745
32.46000 390.101
32.47000 389.439
32.48000 388.653
32.49000 387.540
32.50000 385.449
32.51000 383.293
32.52000 381.841
32.53000 385.497
32.54000 388.324
32.55000 389.096
32.56000 387.121
32.57000 385.132
32.58000 383.160
32.59000 381.203
32.60000 379.269
32.61000 380.102
32.62000 382.437
32.63000 384.543
32.64000 382.308
32.65000 378.423
32.66000 375.227
32.67000 378.797
32.68000 384.089
32.69000 388.710
32.70000 384.148
32.71000 378.950
32.72000 374.476
32.73000 372.780
32.74000 371.358
32.75000 369.620
32.76000 367.070
32.77000 364.480
32.78000 362.828
32.79000 363.180
32.80000 363.462
32.81000 364.654
32.82000 366.881
32.83000 369.108
32.84000 371.119
32.85000 372.974
32.86000 374.791
32.87000 373.861
32.88000 371.678
32.89000 369.380
32.90000 365.429
32.91000 360.935
32.92000 357.043
32.93000 357.990
32.94000 359.988
32.95000 361.688
32.96000 356.573
32.97000 351.490
32.98000 347.583
32.99000 347.552
33.00000 347.826
33.01000 346.508
33.02000 341.654
33.03000 336.672
33.04000 333.682
33.05000 339.842
33.06000 344.279
33.07000 350.887
33.08000 359.579
33.09000 368.116
33.10000 364.825
33.11000 354.133
33.12000 343.755
33.13000 344.333
33.14000 349.249
33.15000 353.897
33.16000 355.498
33.17000 356.239
33.18000 357.182
33.19000 359.479
33.20000 362.026
33.21000 364.129
33.22000 364.530
33.23000 364.702
33.24000 363.710
33.25000 359.412
33.26000 354.911
33.27000 352.538
33.28000 354.237
33.29000 356.035
33.30000 357.044
33.31000 358.436
33.32000 359.400
33.33000 359.257
33.34000 358.213
33.35000 357.186
33.36000 356.851
33.37000 356.890
33.38000 356.927
33.39000 350.306
33.40000 341.861
33.41000 334.087
33.42000 332.467
33.43000 332.338
33.44000 332.779
33.45000 336.413
33.46000 340.544
33.47000 343.847
33.48000 344.847
33.49000 345.484
33.50000 345.558
33.51000 344.252
33.52000 342.882
33.53000 342.336
33.54000 343.149
33.55000 343.982
33.56000 344.414
33.57000 342.921
33.58000 341.914
33.59000 341.051
33.60000 340.288
33.61000 339.590
33.62000 340.775
33.63000 342.834
33.64000 344.782
33.65000 341.432
33.66000 336.828
33.67000 333.354
33.68000 338.418
33.69000 345.244
33.70000 349.239
33.71000 339.779
33.72000 328.578
33.73000 319.939
33.74000 327.887
33.75000 335.143
33.76000 340.270
33.77000 340.890
33.78000 341.364
33.79000 342.876
33.80000 345.855
33.81000 348.844
33.82000 351.113
33.83000 352.726
33.84000 354.285
33.85000 352.422
33.86000 348.519
33.87000 344.617
33.88000 340.730
33.89000 336.848
33.90000 333.235
33.91000 333.110
33.92000 333.846
33.93000 335.679
33.94000 344.433
33.95000 354.397
33.96000 360.819
33.97000 352.873
33.98000 343.401
33.99000 336.382
34.00000 339.270
34.01000 341.943
34.02000 343.964
34.03000 344.795
34.04000 345.601
34.05000 345.340
34.06000 343.793
34.07000 342.247
34.08000 342.777
34.09000 344.901
34.10000 346.838
34.11000 341.562
34.12000 332.585
34.13000 324.545
34.14000 331.366
34.15000 343.330
34.16000 354.263
34.17000 342.745
34.18000 327.922
34.19000 315.525
34.20000 316.011
34.21000 318.389
34.22000 321.387
34.23000 326.543
34.24000 331.884
34.25000 335.672
34.26000 335.906
34.27000 335.972
34.28000 335.882
34.29000 335.546
34.30000 335.207
34.31000 335.035
34.32000 335.035
34.33000 335.036
34.34000 332.600
34.35000 328.612
34.36000 324.609
34.37000 320.229
34.38000 315.682
34.39000 311.968
34.40000 318.557
34.41000 328.217
34.42000 336.862
34.43000 337.941
34.44000 337.589
34.45000 336.760
34.46000 333.779
34.47000 330.536
34.48000 328.466
34.49000 329.910
34.50000 331.591
34.51000 332.726
34.52000 329.605
34.53000 327.191
34.54000 322.935
34.55000 316.200
34.56000 309.460
34.57000 308.616
34.58000 312.858
34.59000 317.049
34.60000 314.945
34.61000 309.404
34.62000 304.536
34.63000 312.558
34.64000 325.511
34.65000 336.903
34.66000 332.837
34.67000 324.813
34.68000 317.799
34.69000 322.603
34.70000 328.395
34.71000 332.549
34.72000 330.381
34.73000 327.586
34.74000 325.212
34.75000 323.930
34.76000 322.704
34.77000 321.921
34.78000 326.466
34.79000 329.845
34.80000 327.826
34.81000 319.626
34.82000 311.455
34.83000 309.688
34.84000 312.626
34.85000 315.506
34.86000 317.685
34.87000 319.451
34.88000 320.905
34.89000 317.805
34.90000 313.202
34.91000 309.860
34.92000 316.731
34.93000 325.837
34.94000 333.592
34.95000 319.569
34.96000 305.246
34.97000 297.150
34.98000 309.711
34.99000 323.912
35.00000 332.119
35.01000 326.943
35.02000 321.270
35.03000 317.858
35.04000 313.570
35.05000 310.514
35.06000 312.058
35.07000 318.048
35.08000 323.999
35.09000 326.850
35.10000 327.749
35.11000 328.623
35.12000 323.741
35.13000 316.796
35.14000 310.559
35.15000 312.452
35.16000 316.655
35.17000 319.876
35.18000 316.503
35.19000 311.904
35.20000 308.100
35.21000 308.373
35.22000 308.984
35.23000 309.598
35.24000 310.223
35.25000 310.849
35.26000 312.966
35.27000 317.953
35.28000 323.013
35.29000 325.857
35.30000 320.931
35.31000 317.500
35.32000 317.178
35.33000 319.400
35.34000 321.521
35.35000 319.043
35.36000 314.075
35.37000 309.308
35.38000 310.593
35.39000 313.860
35.40000 316.976
35.41000 318.688
35.42000 320.059
35.43000 320.832
35.44000 318.229
35.45000 315.098
35.46000 312.590
35.47000 312.852
35.48000 313.271
35.49000 313.616
35.50000 313.777
35.51000 313.929
35.52000 312.844
35.53000 309.706
35.54000 306.536
35.55000 304.886
35.56000 303.629
35.57000 302.809
35.58000 305.831
35.59000 311.537
35.60000 317.080
35.61000 317.730
35.62000 316.093
35.63000 314.544
35.64000 310.356
35.65000 305.738
35.66000 301.833
35.67000 303.351
35.68000 305.997
35.69000 309.277
35.70000 315.592
35.71000 322.304
35.72000 327.488
35.73000 319.323
35.74000 312.070
35.75000 307.276
35.76000 307.721
35.77000 308.338
35.78000 308.517
35.79000 308.071
35.80000 307.620
35.81000 309.206
35.82000 312.655
35.83000 316.017
35.84000 313.713
35.85000 308.012
35.86000 302.470
35.87000 300.326
35.88000 299.552
35.89000 298.832
35.90000 297.940
35.91000 297.093
35.92000 297.058
35.93000 302.188
35.94000 308.227
35.95000 313.771
35.96000 317.291
35.97000 320.594
35.98000 323.046
35.99000 325.306
36.00000 327.053
36.01000 325.838
36.02000 319.180
36.03000 312.405
36.04000 308.310
36.05000 307.471
36.06000 306.642
36.07000 306.593
36.08000 307.148
36.09000 307.648
36.10000 305.997
36.11000 303.234
36.12000 300.897
36.13000 305.393
36.14000 312.266
36.15000 318.552
36.16000 316.005
36.17000 311.922
36.18000 308.344
36.19000 307.475
36.20000 307.005
36.21000 304.483
36.22000 294.772
36.23000 284.440
36.24000 277.101
36.25000 288.130
36.26000 297.108
36.27000 302.626
36.28000 302.677
36.29000 302.659
36.30000 300.866
36.31000 297.247
36.32000 293.649
36.33000 296.205
36.34000 302.762
36.35000 308.945
36.36000 305.175
36.37000 296.969
36.38000 289.878
36.39000 296.711
36.40000 307.720
36.41000 317.581
36.42000 307.653
36.43000 295.576
36.44000 286.016
36.45000 287.890
36.46000 291.167
36.47000 294.145
36.48000 296.221
36.49000 298.237
36.50000 299.601
36.51000 297.003
36.52000 294.982
36.53000 292.930
36.54000 290.835
36.55000 288.746
36.56000 290.408
36.57000 295.327
36.58000 300.190
36.59000 303.082
36.60000 304.804
36.61000 306.462
36.62000 306.880
36.63000 306.819
36.64000 306.385
36.65000 302.216
36.66000 297.085
36.67000 292.596
36.68000 291.201
36.69000 290.447
36.70000 289.559
36.71000 288.150
36.72000 286.688
36.73000 288.372
36.74000 298.241
36.75000 308.532
36.76000 315.126
36.77000 303.609
36.78000 294.974
36.79000 292.586
36.80000 297.399
36.81000 302.205
36.82000 304.221
36.83000 304.174
36.84000 304.128
36.85000 300.539
36.86000 295.400
36.87000 290.371
36.88000 286.983
36.89000 284.139
36.90000 282.533
36.91000 291.038
36.92000 301.770
36.93000 310.919
36.94000 313.857
36.95000 315.600
36.96000 315.989
36.97000 311.864
36.98000 307.377
36.99000 303.396
37.00000 300.551
37.01000 297.748
37.02000 296.057
37.03000 300.465
37.04000 303.647
37.05000 306.789
37.06000 309.893
37.07000 312.953
37.08000 312.376
37.09000 309.496
37.10000 306.698
37.11000 303.408
37.12000 300.083
37.13000 296.901
37.14000 295.359
37.15000 294.287
37.16000 293.254
37.17000 292.482
37.18000 291.759
37.19000 291.160
37.20000 285.972
37.21000 281.254
37.22000 279.926
37.23000 288.349
37.24000 297.382
37.25000 301.620
37.26000 296.565
37.27000 291.275
37.28000 288.292
37.29000 294.531
37.30000 298.879
37.31000 298.713
37.32000 294.827
37.33000 290.967
37.34000 288.292
37.35000 286.262
37.36000 284.313
37.37000 286.329
37.38000 289.576
37.39000 292.456
37.40000 291.906
37.41000 290.515
37.42000 290.383
37.43000 297.407
37.44000 305.559
37.45000 312.095
37.46000 300.337
37.47000 289.434
37.48000 282.104
37.49000 283.644
37.50000 285.600
37.51000 287.185
37.52000 288.151
37.53000 289.107
37.54000 289.606
37.55000 294.982
37.56000 298.605
37.57000 300.039
37.58000 299.934
37.59000 299.763
37.60000 297.590
37.61000 294.475
37.62000 291.525
37.63000 286.495
37.64000 281.259
37.65000 277.112
37.66000 281.321
37.67000 287.280
37.68000 292.275
37.69000 292.629
37.70000 292.374
37.71000 292.177
37.72000 292.394
37.73000 292.591
37.74000 294.002
37.75000 298.012
37.76000 302.109
37.77000 301.706
37.78000 294.857
37.79000 287.959
37.80000 286.869
37.81000 291.131
37.82000 295.311
37.83000 294.077
37.84000 289.577
37.85000 285.355
37.86000 287.154
37.87000 291.395
37.88000 295.348
37.89000 292.972
37.90000 289.261
37.91000 286.321
37.92000 288.312
37.93000 291.177
37.94000 293.087
37.95000 291.079
37.96000 288.647
37.97000 286.838
37.98000 296.805
37.99000 305.082
38.00000 308.068
38.01000 301.275
38.02000 294.267
38.03000 288.896
38.04000 285.526
38.05000 282.168
38.06000 286.257
38.07000 296.122
38.08000 305.679
38.09000 302.880
38.10000 293.662
38.11000 285.058
38.12000 286.407
38.13000 291.240
38.14000 295.664
38.15000 295.978
38.16000 295.404
38.17000 295.059
38.18000 295.943
38.19000 297.011
38.20000 298.028
38.21000 298.864
38.22000 299.685
38.23000 300.270
38.24000 295.514
38.25000 291.719
38.26000 291.505
38.27000 296.986
38.28000 302.540
38.29000 308.036
38.30000 313.474
38.31000 318.880
38.32000 322.849
38.33000 325.817
38.34000 328.727
38.35000 330.071
38.36000 330.713
38.37000 331.185
38.38000 329.512
38.39000 327.192
38.40000 325.112
38.41000 334.318
38.42000 344.319
38.43000 353.532
38.44000 359.138
38.45000 364.298
38.46000 371.033
38.47000 382.545
38.48000 394.385
38.49000 402.411
38.50000 421.863
38.51000 436.619
38.52000 446.305
38.53000 449.083
38.54000 451.828
38.55000 460.876
38.56000 475.432
38.57000 489.825
38.58000 500.332
38.59000 508.411
38.60000 516.513
38.61000 525.084
38.62000 533.836
38.63000 542.212
38.64000 546.804
38.65000 550.415
38.66000 553.578
38.67000 567.907
38.68000 581.807
38.69000 590.301
38.70000 577.666
38.71000 562.895
38.72000 555.173
38.73000 565.896
38.74000 577.583
38.75000 585.089
38.76000 570.358
38.77000 559.309
38.78000 546.169
38.79000 530.602
38.80000 515.047
38.81000 502.201
38.82000 491.370
38.83000 480.742
38.84000 470.080
38.85000 459.786
38.86000 449.307
38.87000 436.086
38.88000 421.950
38.89000 408.686
38.90000 402.600
38.91000 398.105
38.92000 394.269
38.93000 381.116
38.94000 368.939
38.95000 357.565
38.96000 348.885
38.97000 340.424
38.98000 331.676
38.99000 322.279
39.00000 312.858
39.01000 307.161
39.02000 310.502
39.03000 312.948
39.04000 313.840
39.05000 313.207
39.06000 312.543
39.07000 309.327
39.08000 304.483
39.09000 299.776
39.10000 293.698
39.11000 287.365
39.12000 281.619
39.13000 282.751
39.14000 285.862
39.15000 288.211
39.16000 285.372
39.17000 281.554
39.18000 278.389
39.19000 283.695
39.20000 288.891
39.21000 291.286
39.22000 285.582
39.23000 279.366
39.24000 274.323
39.25000 271.567
39.26000 268.871
39.27000 267.346
39.28000 274.803
39.29000 280.001
39.30000 279.663
39.31000 274.733
39.32000 269.857
39.33000 267.558
39.34000 266.670
39.35000 265.817
39.36000 267.896
39.37000 270.856
39.38000 273.343
39.39000 271.373
39.40000 268.304
39.41000 265.705
39.42000 265.800
39.43000 266.322
39.44000 266.742
39.45000 269.439
39.46000 271.798
39.47000 273.835
39.48000 275.067
39.49000 276.262
39.50000 274.326
39.51000 267.135
39.52000 259.860
39.53000 256.047
39.54000 267.038
39.55000 274.429
39.56000 273.667
39.57000 267.137
39.58000 260.712
39.59000 257.516
39.60000 255.846
39.61000 254.264
39.62000 255.317
39.63000 257.061
39.64000 258.989
39.65000 262.342
39.66000 265.995
39.67000 268.860
39.68000 267.904
39.69000 266.442
39.70000 265.310
39.71000 268.928
39.72000 272.085
39.73000 274.797
39.74000 276.548
39.75000 278.268
39.76000 277.786
39.77000 274.133
39.78000 270.454
39.79000 263.205
39.80000 252.647
39.81000 242.273
39.82000 244.320
39.83000 253.907
39.84000 263.362
39.85000 269.936
39.86000 275.334
39.87000 280.369
39.88000 282.390
39.89000 283.472
39.90000 283.750
39.91000 278.850
39.92000 273.026
39.93000 268.093
39.94000 266.842
39.95000 265.992
39.96000 265.360
39.97000 269.288
39.98000 272.551
39.99000 273.801
40.00000 271.306
40.01000 268.727
40.02000 268.449
40.03000 271.000
40.04000 273.553
40.05000 269.438
40.06000 260.117
40.07000 251.078
40.08000 253.576
40.09000 262.105
40.10000 269.926
40.11000 266.181
40.12000 258.360
40.13000 251.197
40.14000 255.996
40.15000 262.767
40.16000 267.822
40.17000 263.573
40.18000 257.928
40.19000 253.748
40.20000 254.764
40.21000 256.237
40.22000 257.287
40.23000 258.070
40.24000 258.657
40.25000 259.225
40.26000 259.761
40.27000 260.297
40.28000 259.268
40.29000 256.608
40.30000 253.962
40.31000 251.689
40.32000 249.694
40.33000 247.992
40.34000 254.356
40.35000 264.357
40.36000 273.347
40.37000 269.464
40.38000 261.673
40.39000 254.683
40.40000 252.687
40.41000 251.815
40.42000 250.992
40.43000 250.393
40.44000 249.821
40.45000 249.080
40.46000 247.820
40.47000 246.523
40.48000 245.643
40.49000 255.389
40.50000 262.900
40.51000 265.102
40.52000 260.023
40.53000 254.903
40.54000 251.609
40.55000 249.922
40.56000 248.254
40.57000 246.175
40.58000 243.913
40.59000 241.747
40.60000 241.497
40.61000 241.993
40.62000 242.949
40.63000 248.569
40.64000 255.406
40.65000 261.401
40.66000 256.252
40.67000 250.214
40.68000 245.935
40.69000 248.578
40.70000 251.926
40.71000 254.488
40.72000 254.984
40.73000 255.371
40.74000 255.619
40.75000 260.186
40.76000 263.580
40.77000 264.008
40.78000 260.971
40.79000 257.927
40.80000 254.505
40.81000 250.800
40.82000 247.163
40.83000 242.918
40.84000 238.532
40.85000 234.579
40.86000 237.149
40.87000 241.911
40.88000 246.128
40.89000 245.834
40.90000 244.534
40.91000 243.422
40.92000 247.747
40.93000 252.039
40.94000 254.567
40.95000 251.138
40.96000 247.221
40.97000 245.563
40.98000 249.036
40.99000 252.706
41.00000 254.932
41.01000 248.909
41.02000 244.551
41.03000 241.570
41.04000 239.950
41.05000 238.390
41.06000 241.976
41.07000 248.863
41.08000 255.559
41.09000 254.549
41.10000 250.436
41.11000 246.744
41.12000 248.032
41.13000 250.760
41.14000 252.145
41.15000 244.298
41.16000 234.701
41.17000 226.734
41.18000 235.094
41.19000 243.584
41.20000 250.143
41.21000 251.080
41.22000 251.659
41.23000 249.086
41.24000 240.332
41.25000 231.415
41.26000 226.359
41.27000 226.860
41.28000 227.234
41.29000 232.624
41.30000 242.200
41.31000 251.541
41.32000 249.552
41.33000 241.317
41.34000 233.400
41.35000 231.411
41.36000 231.610
41.37000 232.412
41.38000 238.932
41.39000 246.873
41.40000 252.637
41.41000 245.861
41.42000 237.078
41.43000 230.017
41.44000 231.358
41.45000 233.094
41.46000 234.516
41.47000 235.152
41.48000 235.750
41.49000 235.643
41.50000 234.345
41.51000 233.028
41.52000 232.335
41.53000 234.967
41.54000 236.752
41.55000 238.443
41.56000 240.066
41.57000 241.702
41.58000 243.716
41.59000 245.912
41.60000 247.994
41.61000 243.519
41.62000 237.457
41.63000 232.417
41.64000 235.328
41.65000 239.926
41.66000 243.826
41.67000 244.322
41.68000 244.363
41.69000 244.395
41.70000 241.338
41.71000 238.721
41.72000 237.367
41.73000 238.751
41.74000 240.230
41.75000 238.439
41.76000 231.905
41.77000 225.332
41.78000 224.631
41.79000 229.414
41.80000 234.171
41.81000 237.089
41.82000 238.884
41.83000 240.610
41.84000 240.787
41.85000 240.330
41.86000 239.903
41.87000 239.818
41.88000 239.827
41.89000 240.391
41.90000 244.562
41.91000 249.380
41.92000 251.903
41.93000 244.874
41.94000 236.796
41.95000 230.769
41.96000 239.710
41.97000 247.358
41.98000 248.195
41.99000 236.293
42.00000 224.100
42.01000 220.913
42.02000 228.882
42.03000 236.867
42.04000 239.385
42.05000 237.578
42.06000 235.854
42.07000 237.562
42.08000 241.074
42.09000 244.274
42.10000 242.318
42.11000 238.533
42.12000 235.065
42.13000 231.103
42.14000 227.470
42.15000 225.096
42.16000 229.591
42.17000 235.124
42.18000 239.039
42.19000 237.186
42.20000 234.821
42.21000 233.132
42.22000 236.965
42.23000 240.074
42.24000 241.309
42.25000 239.527
42.26000 237.705
42.27000 235.134
42.28000 231.778
42.29000 228.440
42.30000 228.709
42.31000 231.387
42.32000 234.056
42.33000 236.442
42.34000 238.701
42.35000 240.689
42.36000 239.184
42.37000 236.612
42.38000 234.303
42.39000 235.033
42.40000 236.206
42.41000 235.861
42.42000 228.482
42.43000 220.219
42.44000 215.039
42.45000 219.321
42.46000 224.265
42.47000 227.630
42.48000 230.204
42.49000 232.109
42.50000 235.552
42.51000 241.119
42.52000 246.693
42.53000 245.565
42.54000 238.499
42.55000 231.510
42.56000 234.993
42.57000 244.352
42.58000 253.052
42.59000 248.517
42.60000 238.799
42.61000 230.158
42.62000 232.552
42.63000 237.844
42.64000 242.488
42.65000 236.916
42.66000 230.635
42.67000 225.890
42.68000 227.228
42.69000 229.190
42.70000 230.142
42.71000 228.420
42.72000 226.554
42.73000 225.351
42.74000 228.354
42.75000 230.608
42.76000 231.173
42.77000 229.749
42.78000 228.335
42.79000 229.629
42.80000 232.961
42.81000 236.234
42.82000 235.556
42.83000 232.991
42.84000 230.472
42.85000 228.663
42.86000 227.094
42.87000 226.350
42.88000 232.498
42.89000 240.193
42.90000 246.775
42.91000 240.327
42.92000 233.323
42.93000 228.038
42.94000 228.595
42.95000 229.633
42.96000 230.488
42.97000 230.920
42.98000 231.336
42.99000 231.589
43.00000 234.547
43.01000 236.680
43.02000 238.213
43.03000 239.150
43.04000 240.054
43.05000 238.136
43.06000 234.396
43.07000 230.758
43.08000 227.311
43.09000 224.109
43.10000 221.573
43.11000 226.972
43.12000 234.681
43.13000 241.489
43.14000 242.062
43.15000 241.444
43.16000 240.930
43.17000 239.051
43.18000 237.363
43.19000 235.440
43.20000 232.829
43.21000 230.173
43.22000 229.082
43.23000 231.078
43.24000 233.157
43.25000 234.339
43.26000 233.951
43.27000 233.677
43.28000 233.335
43.29000 232.937
43.30000 232.494
43.31000 229.801
43.32000 225.860
43.33000 222.070
43.34000 219.282
43.35000 217.021
43.36000 214.699
43.37000 211.799
43.38000 208.756
43.39000 207.246
43.40000 214.637
43.41000 223.462
43.42000 230.566
43.43000 236.577
43.44000 241.368
43.45000 243.336
43.46000 238.168
43.47000 232.653
43.48000 228.961
43.49000 228.366
43.50000 227.823
43.51000 227.536
43.52000 228.592
43.53000 229.302
43.54000 228.751
43.55000 227.298
43.56000 225.794
43.57000 222.683
43.58000 218.803
43.59000 215.122
43.60000 218.060
43.61000 222.737
43.62000 227.067
43.63000 228.665
43.64000 229.679
43.65000 230.020
43.66000 227.051
43.67000 223.638
43.68000 220.985
43.69000 221.903
43.70000 222.851
43.71000 223.524
43.72000 223.597
43.73000 223.649
43.74000 224.163
43.75000 225.352
43.76000 226.546
43.77000 224.166
43.78000 218.424
43.79000 212.751
43.80000 211.947
43.81000 214.134
43.82000 216.206
43.83000 215.681
43.84000 214.083
43.85000 212.590
43.86000 215.486
43.87000 219.216
43.88000 222.247
43.89000 220.715
43.90000 218.356
43.91000 216.635
43.92000 217.585
43.93000 218.831
43.94000 219.762
43.95000 223.896
43.96000 227.266
43.97000 228.520
43.98000 225.791
43.99000 222.969
44.00000 223.437
44.01000 228.006
44.02000 232.580
44.03000 231.566
44.04000 226.117
44.05000 220.753
44.06000 218.973
44.07000 219.090
44.08000 219.158
44.09000 218.420
44.10000 217.395
44.11000 216.455
44.12000 215.648
44.13000 214.958
44.14000 214.309
44.15000 213.889
44.16000 213.504
44.17000 213.466
44.18000 214.675
44.19000 215.995
44.20000 216.940
44.21000 217.593
44.22000 218.081
44.23000 217.122
44.24000 213.816
44.25000 210.478
44.26000 211.115
44.27000 215.953
44.28000 220.768
44.29000 220.199
44.30000 216.013
44.31000 212.037
44.32000 214.012
44.33000 218.704
44.34000 223.313
44.35000 226.866
44.36000 230.093
44.37000 232.995
44.38000 233.822
44.39000 234.178
44.40000 234.070
44.41000 231.802
44.42000 229.261
44.43000 227.494
44.44000 228.120
44.45000 228.916
44.46000 229.459
44.47000 229.563
44.48000 229.631
44.49000 231.442
44.50000 235.672
44.51000 239.918
44.52000 243.179
44.53000 245.561
44.54000 247.918
44.55000 245.485
44.56000 240.365
44.57000 235.517
44.58000 236.208
44.59000 239.080
44.60000 242.112
44.61000 246.795
44.62000 251.914
44.63000 256.412
44.64000 256.902
44.65000 256.734
44.66000 256.709
44.67000 257.256
44.68000 257.863
44.69000 260.764
44.70000 269.776
44.71000 279.119
44.72000 285.161
44.73000 293.415
44.74000 299.483
44.75000 306.861
44.76000 315.791
44.77000 324.711
44.78000 330.912
44.79000 335.051
44.80000 339.116
44.81000 347.809
44.82000 358.456
44.83000 368.933
44.84000 376.773
44.85000 383.718
44.86000 390.227
44.87000 393.066
44.88000 395.076
44.89000 396.797
44.90000 408.869
44.91000 420.311
44.92000 432.136
44.93000 445.268
44.94000 458.509
44.95000 470.629
44.96000 480.173
44.97000 489.615
44.98000 495.368
44.99000 494.314
45.00000 493.506
45.01000 491.224
45.02000 487.468
45.03000 483.770
45.04000 485.355
45.05000 490.369
45.06000 495.249
45.07000 490.966
45.08000 483.089
45.09000 475.504
45.10000 471.423
45.11000 468.368
45.12000 463.998
45.13000 450.464
45.14000 435.169
45.15000 422.441
45.16000 420.220
45.17000 419.416
45.18000 416.019
45.19000 404.987
45.20000 393.456
45.21000 381.380
45.22000 368.221
45.23000 355.033
45.24000 347.513
45.25000 339.243
45.26000 333.481
45.27000 332.614
45.28000 335.888
45.29000 338.934
45.30000 330.541
45.31000 315.763
45.32000 301.545
45.33000 295.330
45.34000 292.322
45.35000 289.192
45.36000 284.877
45.37000 280.264
45.38000 275.507
45.39000 269.913
45.40000 264.184
45.41000 259.565
45.42000 254.618
45.43000 250.576
45.44000 247.126
45.45000 245.183
45.46000 243.315
45.47000 240.146
45.48000 234.756
45.49000 229.327
45.50000 226.455
45.51000 236.644
45.52000 243.545
45.53000 245.911
45.54000 245.007
45.55000 244.009
45.56000 240.005
45.57000 234.554
45.58000 229.378
45.59000 229.998
45.60000 232.305
45.61000 234.337
45.62000 234.196
45.63000 233.590
45.64000 232.853
45.65000 231.479
45.66000 230.019
45.67000 228.882
45.68000 223.675
45.69000 219.278
45.70000 215.922
45.71000 214.847
45.72000 213.853
45.73000 212.893
45.74000 211.981
45.75000 211.070
45.76000 209.164
45.77000 206.318
45.78000 203.553
45.79000 206.755
45.80000 213.644
45.81000 220.290
45.82000 221.405
45.83000 220.223
45.84000 219.118
45.85000 218.878
45.86000 218.879
45.87000 218.127
45.88000 212.416
45.89000 205.802
45.90000 200.657
45.91000 201.699
45.92000 203.433
45.93000 204.730
45.94000 206.544
45.95000 207.983
45.96000 209.179
45.97000 209.912
45.98000 210.635
45.99000 212.579
46.00000 216.055
46.01000 219.531
46.02000 219.640
46.03000 217.055
46.04000 214.444
46.05000 210.755
46.06000 206.492
46.07000 202.460
46.08000 202.361
46.09000 203.671
46.10000 204.874
46.11000 205.835
46.12000 206.640
46.13000 207.710
46.14000 210.246
46.15000 213.006
46.16000 215.044
46.17000 214.474
46.18000 213.668
46.19000 213.090
46.20000 205.206
46.21000 198.930
46.22000 194.731
46.23000 193.917
46.24000 193.150
46.25000 197.281
46.26000 206.625
46.27000 215.923
46.28000 214.876
46.29000 206.826
46.30000 198.989
46.31000 197.274
46.32000 198.368
46.33000 199.385
46.34000 199.396
46.35000 199.096
46.36000 198.825
46.37000 202.462
46.38000 206.347
46.39000 210.177
46.40000 213.745
46.41000 217.279
46.42000 217.264
46.43000 206.223
46.44000 194.393
46.45000 186.307
46.46000 196.122
46.47000 203.887
46.48000 208.188
46.49000 207.648
46.50000 207.074
46.51000 204.440
46.52000 199.957
46.53000 195.521
46.54000 199.260
46.55000 207.628
46.56000 215.470
46.57000 212.490
46.58000 205.220
46.59000 198.490
46.60000 197.387
46.61000 197.780
46.62000 198.125
46.63000 198.513
46.64000 198.853
46.65000 199.088
46.66000 198.906
46.67000 198.680
46.68000 198.320
46.69000 197.604
46.70000 196.867
46.71000 196.390
46.72000 202.918
46.73000 207.801
46.74000 209.111
46.75000 206.164
46.76000 203.211
46.77000 200.783
46.78000 198.756
46.79000 196.765
46.80000 197.232
46.81000 198.888
46.82000 200.402
46.83000 199.711
46.84000 198.265
46.85000 196.898
46.86000 196.199
46.87000 195.652
46.88000 195.183
46.89000 196.372
46.90000 197.578
46.91000 196.949
46.92000 190.007
46.93000 182.534
46.94000 177.932
46.95000 179.973
46.96000 182.282
46.97000 183.692
46.98000 192.688
46.99000 199.185
47.00000 201.597
47.01000 199.893
47.02000 198.196
47.03000 197.165
47.04000 196.570
47.05000 195.991
47.06000 195.163
47.07000 194.270
47.08000 193.427
47.09000 193.195
47.10000 193.143
47.11000 192.928
47.12000 191.573
47.13000 189.997
47.14000 188.683
47.15000 192.770
47.16000 196.693
47.17000 200.563
47.18000 204.279
47.19000 207.985
47.20000 207.989
47.21000 200.603
47.22000 193.012
47.23000 188.672
47.24000 189.578
47.25000 190.227
47.26000 189.685
47.27000 188.128
47.28000 186.624
47.29000 187.789
47.30000 190.454
47.31000 193.019
47.32000 194.153
47.33000 194.710
47.34000 195.212
47.35000 195.179
47.36000 195.011
47.37000 194.094
47.38000 188.777
47.39000 182.742
47.40000 177.870
47.41000 182.580
47.42000 187.170
47.43000 190.883
47.44000 192.354
47.45000 193.713
47.46000 193.304
47.47000 189.853
47.48000 186.349
47.49000 184.489
47.50000 186.980
47.51000 188.682
47.52000 191.167
47.53000 194.218
47.54000 197.174
47.55000 196.958
47.56000 195.207
47.57000 193.543
47.58000 188.597
47.59000 183.040
47.60000 178.251
47.61000 179.581
47.62000 182.233
47.63000 184.603
47.64000 185.566
47.65000 186.336
47.66000 186.937
47.67000 188.032
47.68000 188.935
47.69000 190.873
47.70000 195.096
47.71000 199.402
47.72000 199.100
47.73000 191.990
47.74000 184.818
47.75000 184.124
47.76000 189.606
47.77000 195.037
47.78000 196.628
47.79000 195.832
47.80000 195.034
47.81000 194.182
47.82000 193.309
47.83000 192.491
47.84000 190.902
47.85000 189.261
47.86000 187.145
47.87000 181.876
47.88000 176.028
47.89000 171.718
47.90000 173.929
47.91000 176.874
47.92000 179.083
47.93000 179.316
47.94000 179.405
47.95000 180.851
47.96000 184.881
47.97000 188.974
47.98000 189.614
47.99000 185.893
48.00000 182.163
48.01000 179.776
48.02000 178.478
48.03000 177.312
48.04000 181.901
48.05000 189.572
48.06000 196.817
48.07000 196.796
48.08000 194.152
48.09000 191.724
48.10000 185.341
48.11000 178.794
48.12000 174.039
48.13000 179.267
48.14000 186.036
48.15000 191.925
48.16000 194.617
48.17000 197.019
48.18000 198.743
48.19000 190.446
48.20000 183.753
48.21000 179.404
48.22000 178.901
48.23000 178.454
48.24000 181.694
48.25000 188.885
48.26000 196.042
48.27000 194.739
48.28000 187.675
48.29000 180.795
48.30000 179.233
48.31000 180.126
48.32000 181.156
48.33000 183.986
48.34000 187.375
48.35000 190.427
48.36000 189.137
48.37000 187.223
48.38000 185.167
48.39000 182.439
48.40000 179.624
48.41000 177.958
48.42000 179.881
48.43000 182.064
48.44000 183.559
48.45000 182.978
48.46000 182.494
48.47000 181.301
48.48000 179.112
48.49000 176.917
48.50000 176.543
48.51000 177.816
48.52000 179.076
48.53000 178.377
48.54000 176.556
48.55000 174.780
48.56000 173.928
48.57000 173.445
48.58000 173.150
48.59000 174.826
48.60000 177.030
48.61000 178.969
48.62000 180.482
48.63000 181.720
48.64000 182.467
48.65000 181.232
48.66000 179.788
48.67000 178.808
48.68000 179.083
48.69000 179.428
48.70000 179.651
48.71000 183.250
48.72000 185.939
48.73000 186.134
48.74000 183.341
48.75000 180.552
48.76000 180.260
48.77000 181.887
48.78000 183.486
48.79000 184.115
48.80000 184.246
48.81000 184.353
48.82000 184.103
48.83000 183.729
48.84000 183.384
48.85000 183.280
48.86000 183.232
48.87000 183.191
48.88000 182.978
48.89000 182.777
48.90000 182.616
48.91000 182.594
48.92000 182.585
48.93000 183.004
48.94000 184.423
48.95000 185.883
48.96000 186.777
48.97000 189.178
48.98000 190.910
48.99000 187.010
49.00000 177.395
49.01000 167.895
49.02000 169.403
49.03000 178.146
49.04000 186.661
49.05000 187.902
49.06000 186.030
49.07000 184.184
49.08000 182.657
49.09000 181.226
49.10000 180.195
49.11000 182.002
49.12000 184.361
49.13000 186.329
49.14000 184.653
49.15000 182.898
49.16000 180.972
49.17000 178.533
49.18000 176.060
49.19000 174.093
49.20000 173.143
49.21000 172.222
49.22000 171.694
49.23000 180.874
49.24000 187.315
49.25000 187.477
49.26000 182.256
49.27000 177.105
49.28000 175.589
49.29000 176.125
49.30000 176.642
49.31000 179.699
49.32000 183.478
49.33000 187.114
49.34000 189.338
49.35000 191.203
49.36000 191.527
49.37000 182.730
49.38000 172.431
49.39000 164.107
49.40000 171.150
49.41000 178.111
49.42000 183.766
49.43000 186.065
49.44000 188.195
49.45000 188.342
49.46000 185.057
49.47000 181.711
49.48000 179.929
49.49000 173.168
49.50000 168.572
49.51000 166.130
49.52000 165.259
49.53000 164.452
49.54000 165.734
49.55000 168.034
49.56000 170.220
49.57000 171.066
49.58000 171.441
49.59000 172.312
49.60000 177.169
49.61000 182.893
49.62000 187.396
49.63000 185.785
49.64000 183.332
49.65000 181.418
49.66000 178.783
49.67000 176.635
49.68000 176.390
49.69000 180.366
49.70000 184.497
49.71000 185.696
49.72000 182.537
49.73000 179.337
49.74000 177.613
49.75000 177.307
49.76000 177.020
49.77000 178.219
49.78000 180.348
49.79000 182.329
49.80000 180.872
49.81000 177.969
49.82000 175.252
49.83000 175.599
49.84000 176.702
49.85000 177.911
49.86000 179.833
49.87000 181.887
49.88000 183.657
49.89000 184.222
49.90000 184.651
49.91000 184.972
49.92000 186.184
49.93000 187.173
49.94000 187.162
49.95000 185.232
49.96000 183.255
49.97000 182.253
49.98000 182.490
49.99000 182.731
50.00000 182.866
50.01000 182.915
50.02000 182.914
50.03000 180.731
50.04000 177.372
50.05000 174.313
50.06000 176.443
50.07000 180.455
50.08000 184.145
50.09000 182.408
50.10000 179.683
50.11000 177.583
50.12000 178.992
50.13000 180.947
50.14000 182.942
50.15000 185.082
50.16000 187.235
50.17000 188.785
50.18000 192.210
50.19000 194.898
50.20000 195.286
50.21000 191.880
50.22000 188.418
50.23000 188.541
50.24000 192.533
50.25000 196.508
50.26000 196.262
50.27000 193.119
50.28000 190.084
50.29000 190.255
50.30000 191.914
50.31000 193.709
50.32000 197.315
50.33000 201.486
50.34000 205.246
50.35000 207.002
50.36000 208.180
50.37000 209.503
50.38000 211.516
50.39000 213.618
50.40000 214.724
50.41000 212.695
50.42000 210.439
50.43000 208.890
50.44000 215.249
50.45000 220.209
50.46000 226.406
50.47000 234.355
50.48000 242.316
50.49000 248.620
50.50000 253.417
50.51000 258.166
50.52000 263.741
50.53000 269.679
50.54000 275.457
50.55000 277.822
50.56000 278.820
50.57000 279.737
50.58000 279.792
50.59000 279.616
50.60000 279.461
50.61000 290.266
50.62000 301.229
50.63000 309.517
50.64000 306.946
50.65000 303.220
50.66000 299.193
50.67000 294.349
50.68000 289.460
50.69000 286.276
50.70000 287.917
50.71000 289.195
50.72000 290.259
50.73000 291.066
50.74000 291.874
50.75000 293.169
50.76000 294.840
50.77000 296.484
50.78000 290.901
50.79000 281.914
50.80000 273.151
50.81000 267.946
50.82000 263.973
50.83000 260.090
50.84000 256.989
50.85000 254.069
50.86000 251.559
50.87000 248.656
50.88000 246.151
50.89000 242.687
50.90000 235.886
50.91000 228.800
50.92000 221.818
50.93000 215.081
50.94000 208.355
50.95000 204.225
50.96000 206.586
50.97000 208.334
50.98000 208.164
50.99000 206.035
51.00000 203.889
51.01000 199.990
51.02000 194.933
51.03000 190.007
51.04000 186.839
51.05000 184.560
51.06000 182.470
51.07000 182.701
51.08000 183.625
51.09000 185.110
51.10000 190.593
51.11000 196.860
51.12000 202.094
51.13000 187.322
51.14000 173.042
51.15000 163.811
51.16000 169.718
51.17000 176.644
51.18000 180.823
51.19000 179.454
51.20000 177.925
51.21000 177.045
51.22000 168.687
51.23000 162.821
51.24000 164.001
51.25000 171.261
51.26000 178.413
51.27000 179.841
51.28000 178.015
51.29000 176.255
51.30000 174.441
51.31000 172.716
51.32000 171.324
51.33000 173.230
51.34000 175.982
51.35000 178.787
51.36000 181.908
51.37000 185.081
51.38000 187.649
51.39000 180.803
51.40000 174.469
51.41000 169.782
51.42000 169.357
51.43000 169.150
51.44000 168.939
51.45000 168.722
51.46000 168.504
51.47000 168.387
51.48000 175.430
51.49000 180.186
51.50000 176.284
51.51000 166.018
51.52000 156.108
51.53000 158.272
51.54000 166.350
51.55000 174.032
51.56000 178.174
51.57000 180.924
51.58000 182.659
51.59000 176.172
51.60000 167.884
51.61000 161.465
51.62000 164.463
51.63000 168.767
51.64000 172.131
51.65000 165.401
51.66000 159.389
51.67000 155.764
51.68000 157.472
51.69000 159.376
51.70000 159.968
51.71000 158.596
51.72000 157.205
51.73000 158.769
51.74000 163.192
51.75000 167.596
51.76000 170.545
51.77000 172.578
51.78000 174.390
51.79000 170.968
51.80000 165.333
51.81000 160.056
51.82000 162.066
51.83000 165.777
51.84000 168.593
51.85000 165.385
51.86000 161.057
51.87000 157.876
51.88000 159.625
51.89000 161.937
51.90000 163.676
51.91000 159.704
51.92000 156.320
51.93000 155.980
51.94000 161.506
51.95000 167.179
51.96000 168.511
51.97000 164.292
51.98000 160.058
51.99000 157.769
52.00000 157.076
52.01000 156.415
52.02000 157.205
52.03000 158.780
52.04000 160.178
52.05000 158.494
52.06000 155.685
52.07000 153.099
52.08000 155.642
52.09000 159.032
52.10000 162.158
52.11000 163.794
52.12000 165.196
52.13000 166.342
52.14000 166.544
52.15000 166.659
52.16000 166.742
52.17000 166.859
52.18000 166.949
52.19000 165.540
52.20000 161.643
52.21000 157.708
52.22000 156.446
52.23000 158.088
52.24000 159.723
52.25000 160.907
52.26000 161.765
52.27000 162.635
52.28000 163.859
52.29000 165.249
52.30000 166.700
52.31000 168.989
52.32000 171.540
52.33000 173.842
52.34000 169.221
52.35000 163.899
52.36000 159.919
52.37000 162.364
52.38000 165.647
52.39000 167.355
52.40000 164.081
52.41000 160.439
52.42000 157.935
52.43000 157.357
52.44000 156.972
52.45000 157.124
52.46000 158.043
52.47000 158.967
52.48000 160.811
52.49000 163.496
52.50000 166.156
52.51000 161.936
52.52000 153.762
52.53000 145.995
52.54000 146.935
52.55000 151.389
52.56000 155.286
52.57000 153.227
52.58000 149.557
52.59000 146.319
52.60000 147.199
52.61000 148.582
52.62000 150.037
52.63000 151.783
52.64000 153.561
52.65000 154.553
52.66000 153.405
52.67000 152.136
52.68000 151.308
52.69000 145.965
52.70000 141.972
52.71000 143.480
52.72000 151.672
52.73000 159.858
52.74000 162.375
52.75000 160.482
52.76000 158.621
52.77000 160.090
52.78000 163.175
52.79000 165.982
52.80000 164.305
52.81000 161.067
52.82000 158.129
52.83000 157.798
52.84000 158.071
52.85000 158.306
52.86000 162.323
52.87000 166.197
52.88000 167.672
52.89000 160.743
52.90000 153.087
52.91000 148.870
52.92000 152.750
52.93000 156.968
52.94000 159.565
52.95000 154.456
52.96000 150.722
52.97000 149.815
52.98000 151.815
52.99000 153.823
53.00000 156.498
53.01000 159.617
53.02000 162.658
53.03000 161.821
53.04000 159.371
53.05000 157.160
53.06000 157.942
53.07000 159.622
53.08000 161.344
53.09000 163.373
53.10000 165.462
53.11000 167.209
53.12000 166.405
53.13000 165.477
53.14000 165.900
53.15000 170.395
53.16000 175.168
53.17000 176.965
53.18000 172.715
53.19000 168.289
53.20000 165.737
53.21000 163.012
53.22000 161.103
53.23000 158.686
53.24000 155.827
53.25000 153.122
53.26000 158.771
53.27000 169.197
53.28000 179.249
53.29000 181.309
53.30000 180.353
53.31000 178.982
53.32000 173.456
53.33000 166.858
53.34000 161.017
53.35000 159.716
53.36000 159.173
53.37000 158.732
53.38000 158.565
53.39000 158.450
53.40000 160.130
53.41000 166.476
53.42000 173.064
53.43000 174.549
53.44000 167.094
53.45000 159.473
53.46000 155.389
53.47000 158.558
53.48000 160.717
53.49000 161.153
53.50000 160.316
53.51000 159.519
53.52000 160.105
53.53000 161.373
53.54000 162.579
53.55000 163.928
53.56000 165.220
53.57000 166.531
53.58000 167.996
53.59000 169.496
53.60000 170.607
53.61000 169.748
53.62000 168.614
53.63000 167.727
53.64000 158.628
53.65000 150.834
53.66000 147.168
53.67000 152.777
53.68000 158.735
53.69000 163.609
53.70000 166.852
53.71000 170.079
53.72000 170.956
53.73000 169.546
53.74000 168.124
53.75000 165.676
53.76000 162.579
53.77000 159.603
53.78000 159.542
53.79000 160.721
53.80000 161.825
53.81000 157.614
53.82000 152.397
53.83000 148.459
53.84000 153.175
53.85000 159.512
53.86000 163.179
53.87000 155.306
53.88000 146.103
53.89000 139.169
53.90000 141.401
53.91000 143.597
53.92000 145.733
53.93000 147.750
53.94000 149.765
53.95000 151.360
53.96000 152.414
53.97000 153.465
53.98000 156.497
53.99000 161.148
54.00000 165.698
54.01000 165.537
54.02000 162.809
54.03000 160.165
54.04000 159.028
54.05000 158.445
54.06000 157.907
54.07000 158.347
54.08000 158.956
54.09000 159.766
54.10000 161.721
54.11000 163.857
54.12000 165.288
54.13000 164.106
54.14000 162.680
54.15000 161.651
54.16000 160.955
54.17000 160.434
54.18000 158.601
54.19000 154.578
54.20000 150.522
54.21000 150.026
54.22000 153.425
54.23000 156.811
54.24000 156.074
54.25000 152.473
54.26000 148.976
54.27000 148.618
54.28000 149.738
54.29000 150.884
54.30000 152.400
54.31000 154.034
54.32000 155.508
54.33000 155.613
54.34000 155.453
54.35000 155.549
54.36000 156.879
54.37000 158.371
54.38000 158.918
54.39000 156.461
54.40000 153.779
54.41000 151.932
54.42000 158.198
54.43000 163.106
54.44000 164.143
54.45000 159.632
54.46000 155.078
54.47000 152.594
54.48000 152.017
54.49000 151.446
54.50000 152.672
54.51000 154.936
54.52000 157.108
54.53000 157.287
54.54000 156.657
54.55000 155.975
54.56000 154.737
54.57000 153.346
54.58000 152.119
54.59000 153.745
54.60000 155.584
54.61000 157.393
54.62000 159.073
54.63000 160.740
54.64000 161.458
54.65000 159.574
54.66000 157.541
54.67000 156.212
54.68000 163.911
54.69000 169.713
54.70000 170.995
54.71000 166.749
54.72000 162.508
54.73000 163.156
54.74000 167.634
54.75000 172.040
54.76000 169.256
54.77000 162.943
54.78000 156.994
54.79000 156.928
54.80000 158.922
54.81000 160.794
54.82000 161.585
54.83000 162.124
54.84000 162.588
54.85000 162.758
54.86000 162.866
54.87000 162.521
54.88000 160.584
54.89000 158.509
54.90000 156.706
54.91000 155.550
54.92000 154.422
54.93000 153.726
54.94000 155.444
54.95000 156.699
54.96000 158.022
54.97000 159.413
54.98000 160.772
54.99000 158.741
55.00000 154.440
55.01000 150.246
55.02000 155.057
55.03000 163.507
55.04000 171.280
55.05000 170.518
55.06000 167.180
55.07000 164.544
55.08000 166.986
55.09000 170.436
55.10000 173.325
55.11000 167.350
55.12000 161.473
55.13000 157.471
55.14000 159.159
55.15000 161.238
55.16000 162.042
55.17000 160.242
55.18000 158.364
55.19000 157.278
55.20000 160.487
55.21000 162.752
55.22000 163.693
55.23000 163.476
55.24000 163.306
55.25000 165.757
55.26000 169.715
55.27000 173.533
55.28000 171.802
55.29000 168.152
55.30000 165.048
55.31000 167.456
55.32000 171.294
55.33000 174.674
55.34000 175.288
55.35000 175.438
55.36000 175.559
55.37000 182.740
55.38000 189.177
55.39000 192.924
55.40000 189.628
55.41000 185.963
55.42000 185.166
55.43000 189.422
55.44000 193.774
55.45000 196.113
55.46000 195.789
55.47000 195.579
55.48000 198.063
55.49000 202.551
55.50000 207.182
55.51000 216.794
55.52000 228.877
55.53000 240.381
55.54000 249.184
55.55000 256.499
55.56000 263.441
55.57000 267.302
55.58000 270.481
55.59000 275.478
55.60000 289.764
55.61000 305.357
55.62000 317.582
55.63000 330.010
55.64000 339.959
55.65000 350.591
55.66000 362.771
55.67000 375.010
55.68000 391.763
55.69000 415.355
55.70000 439.017
55.71000 456.696
55.72000 468.508
55.73000 480.324
55.74000 492.537
55.75000 505.002
55.76000 517.453
55.77000 529.550
55.78000 541.497
55.79000 552.701
55.80000 578.126
55.81000 605.009
55.82000 628.701
55.83000 630.629
55.84000 628.455
55.85000 627.236
55.86000 630.177
55.87000 633.600
55.88000 636.184
55.89000 636.190
55.90000 636.068
55.91000 636.748
55.92000 638.995
55.93000 641.282
55.94000 636.331
55.95000 622.000
55.96000 607.647
55.97000 595.802
55.98000 586.068
55.99000 576.268
56.00000 563.417
56.01000 548.892
56.02000 534.448
56.03000 521.467
56.04000 509.026
56.05000 497.560
56.06000 480.795
56.07000 464.616
56.08000 448.787
56.09000 434.954
56.10000 421.440
56.11000 410.275
56.12000 407.859
56.13000 406.270
56.14000 405.120
56.15000 366.995
56.16000 336.383
56.17000 315.991
56.18000 312.769
56.19000 309.820
56.20000 300.596
56.21000 284.463
56.22000 268.393
56.23000 256.640
56.24000 248.029
56.25000 239.537
56.26000 234.742
56.27000 231.695
56.28000 228.429
56.29000 222.169
56.30000 214.954
56.31000 208.435
56.32000 203.423
56.33000 199.295
56.34000 195.077
56.35000 190.425
56.36000 185.714
56.37000 182.602
56.38000 184.605
56.39000 186.993
56.40000 188.641
56.41000 178.820
56.42000 171.146
56.43000 167.995
56.44000 171.365
56.45000 174.785
56.46000 172.789
56.47000 165.764
56.48000 158.802
56.49000 157.017
56.50000 158.348
56.51000 159.686
56.52000 161.164
56.53000 162.699
56.54000 164.112
56.55000 164.187
56.56000 163.896
56.57000 163.639
56.58000 164.077
56.59000 164.563
56.60000 163.495
56.61000 156.002
56.62000 147.809
56.63000 142.870
56.64000 146.912
56.65000 151.474
56.66000 154.465
56.67000 160.850
56.68000 165.600
56.69000 167.719
56.70000 166.598
56.71000 165.456
56.72000 160.831
56.73000 153.462
56.74000 146.210
56.75000 141.701
56.76000 138.724
56.77000 136.162
56.78000 140.404
56.79000 147.044
56.80000 152.961
56.81000 152.493
56.82000 150.526
56.83000 148.830
56.84000 143.634
56.85000 138.784
56.86000 135.961
56.87000 140.323
56.88000 145.318
56.89000 149.820
56.90000 153.149
56.91000 156.428
56.92000 158.456
56.93000 152.019
56.94000 147.313
56.95000 146.457
56.96000 149.616
56.97000 152.776
56.98000 155.828
56.99000 158.808
57.00000 161.715
57.01000 156.989
57.02000 149.182
57.03000 142.004
57.04000 142.832
57.05000 146.093
57.06000 148.663
57.07000 146.210
57.08000 142.753
57.09000 139.854
57.10000 141.309
57.11000 142.970
57.12000 144.538
57.13000 145.823
57.14000 147.088
57.15000 147.747
57.16000 147.159
57.17000 146.533
57.18000 146.171
57.19000 150.489
57.20000 153.536
57.21000 152.749
57.22000 148.588
57.23000 144.442
57.24000 141.161
57.25000 138.380
57.26000 135.697
57.27000 136.252
57.28000 137.963
57.29000 139.896
57.30000 144.101
57.31000 148.898
57.32000 152.442
57.33000 148.349
57.34000 142.965
57.35000 138.590
57.36000 142.964
57.37000 147.261
57.38000 149.821
57.39000 147.807
57.40000 145.550
57.41000 144.047
57.42000 143.877
57.43000 143.733
57.44000 143.655
57.45000 151.488
57.46000 156.820
57.47000 155.555
57.48000 149.349
57.49000 143.304
57.50000 143.000
57.51000 145.561
57.52000 148.000
57.53000 148.722
57.54000 148.857
57.55000 148.916
57.56000 148.346
57.57000 147.636
57.58000 146.758
57.59000 145.015
57.60000 143.149
57.61000 141.683
57.62000 140.354
57.63000 139.299
57.64000 138.656
57.65000 138.950
57.66000 139.280
57.67000 140.640
57.68000 143.570
57.69000 146.517
57.70000 148.045
57.71000 148.172
57.72000 148.270
57.73000 145.918
57.74000 141.994
57.75000 138.220
57.76000 138.144
57.77000 139.661
57.78000 141.084
57.79000 143.444
57.80000 145.841
57.81000 147.549
57.82000 144.518
57.83000 140.588
57.84000 138.328
57.85000 143.382
57.86000 149.292
57.87000 153.759
57.88000 144.074
57.89000 135.769
57.90000 132.401
57.91000 138.716
57.92000 145.286
57.93000 146.127
57.94000 139.496
57.95000 132.839
57.96000 132.733
57.97000 138.081
57.98000 143.366
57.99000 145.619
58.00000 146.199
58.01000 146.768
58.02000 147.163
58.03000 147.493
58.04000 147.797
58.05000 142.680
58.06000 136.889
58.07000 132.848
58.08000 138.892
58.09000 146.550
58.10000 151.883
58.11000 148.507
58.12000 144.302
58.13000 141.254
58.14000 144.320
58.15000 146.901
58.16000 147.265
58.17000 143.882
58.18000 140.439
58.19000 139.620
58.20000 141.709
58.21000 143.791
58.22000 143.214
58.23000 140.766
58.24000 138.371
58.25000 137.666
58.26000 137.766
58.27000 137.900
58.28000 138.523
58.29000 139.302
58.30000 140.007
58.31000 141.679
58.32000 143.331
58.33000 144.882
58.34000 145.937
58.35000 146.925
58.36000 146.971
58.37000 143.978
58.38000 140.755
58.39000 138.525
58.40000 133.593
58.41000 129.814
58.42000 127.927
58.43000 128.785
58.44000 129.667
58.45000 130.281
58.46000 130.645
58.47000 131.006
58.48000 132.561
58.49000 134.803
58.50000 136.867
58.51000 135.003
58.52000 131.525
58.53000 128.846
58.54000 134.949
58.55000 143.473
58.56000 151.013
58.57000 146.910
58.58000 141.555
58.59000 136.632
58.60000 133.513
58.61000 130.592
58.62000 129.170
58.63000 131.906
58.64000 134.887
58.65000 136.845
58.66000 133.779
58.67000 131.438
58.68000 131.613
58.69000 134.905
58.70000 138.196
58.71000 138.357
58.72000 136.036
58.73000 133.751
58.74000 136.255
58.75000 141.121
58.76000 145.723
58.77000 145.923
58.78000 144.564
58.79000 143.437
58.80000 144.376
58.81000 145.803
58.82000 147.035
58.83000 139.605
58.84000 132.190
58.85000 126.142
58.86000 124.969
58.87000 124.229
58.88000 125.259
58.89000 130.529
58.90000 135.984
58.91000 139.367
58.92000 140.115
58.93000 140.628
58.94000 139.490
58.95000 136.619
58.96000 133.734
58.97000 129.334
58.98000 123.907
58.99000 118.611
59.00000 124.004
59.01000 133.798
59.02000 143.121
59.03000 146.378
59.04000 147.783
59.05000 148.770
59.06000 146.690
59.07000 143.992
59.08000 141.728
59.09000 137.899
59.10000 134.547
59.11000 131.684
59.12000 130.320
59.13000 129.061
59.14000 129.311
59.15000 132.686
59.16000 136.157
59.17000 138.175
59.18000 137.896
59.19000 137.689
59.20000 136.472
59.21000 134.360
59.22000 132.263
59.23000 130.998
59.24000 130.218
59.25000 129.465
59.26000 129.487
59.27000 129.792
59.28000 130.047
59.29000 129.781
59.30000 129.378
59.31000 129.403
59.32000 132.053
59.33000 135.150
59.34000 137.671
59.35000 131.272
59.36000 125.299
59.37000 122.125
59.38000 126.367
59.39000 131.007
59.40000 133.146
59.41000 130.822
59.42000 128.411
59.43000 127.107
59.44000 135.409
59.45000 141.068
59.46000 139.277
59.47000 131.870
59.48000 124.676
59.49000 125.204
59.50000 129.605
59.51000 133.801
59.52000 132.217
59.53000 128.936
59.54000 125.768
59.55000 123.545
59.56000 121.534
59.57000 120.548
59.58000 124.870
59.59000 129.950
59.60000 133.944
59.61000 134.007
59.62000 133.797
59.63000 135.035
59.64000 139.586
59.65000 144.266
59.66000 146.164
59.67000 143.794
59.68000 141.378
59.69000 138.618
59.70000 135.516
59.71000 132.426
59.72000 130.331
59.73000 128.878
59.74000 127.522
59.75000 128.595
59.76000 130.719
59.77000 132.714
59.78000 134.848
59.79000 136.831
59.80000 138.233
59.81000 135.611
59.82000 132.221
59.83000 130.235
59.84000 134.432
59.85000 139.359
59.86000 143.090
59.87000 139.718
59.88000 136.711
59.89000 133.979
59.90000 131.790
59.91000 129.615
59.92000 128.024
59.93000 127.200
59.94000 126.380
59.95000 126.349
59.96000 126.978
59.97000 127.600
59.98000 127.824
59.99000 127.829
60.00000 127.777
60.01000 126.681
60.02000 125.195
60.03000 123.824
60.04000 130.850
60.05000 139.030
60.06000 145.306
60.07000 140.532
60.08000 133.978
60.09000 128.610
60.10000 127.712
60.11000 127.244
60.12000 126.905
60.13000 132.492
60.14000 137.009
60.15000 139.173
60.16000 137.335
60.17000 135.430
60.18000 136.809
60.19000 141.851
60.20000 146.877
60.21000 143.478
60.22000 134.129
60.23000 124.924
60.24000 120.301
60.25000 117.870
60.26000 115.748
60.27000 117.966
60.28000 121.583
60.29000 124.857
60.30000 129.904
60.31000 134.683
60.32000 138.216
60.33000 135.628
60.34000 132.218
60.35000 129.776
60.36000 130.471
60.37000 131.406
60.38000 132.054
60.39000 130.382
60.40000 129.062
60.41000 128.638
60.42000 129.520
60.43000 130.414
60.44000 132.510
60.45000 135.737
60.46000 138.937
60.47000 136.735
60.48000 131.317
60.49000 126.232
60.50000 128.614
60.51000 134.080
60.52000 139.021
60.53000 138.119
60.54000 135.596
60.55000 133.363
60.56000 133.022
60.57000 133.024
60.58000 132.931
60.59000 132.440
60.60000 131.905
60.61000 131.428
60.62000 131.112
60.63000 130.805
60.64000 130.603
60.65000 131.077
60.66000 131.437
60.67000 131.482
60.68000 131.132
60.69000 130.789
60.70000 132.795
60.71000 136.677
60.72000 140.500
60.73000 141.099
60.74000 140.027
60.75000 138.958
60.76000 137.941
60.77000 136.942
60.78000 136.131
60.79000 137.004
60.80000 138.277
60.81000 139.377
60.82000 141.068
60.83000 142.580
60.84000 142.674
60.85000 137.672
60.86000 132.213
60.87000 129.197
60.88000 132.071
60.89000 135.205
60.90000 137.153
60.91000 131.726
60.92000 127.745
60.93000 127.242
60.94000 130.418
60.95000 133.590
60.96000 136.227
60.97000 138.499
60.98000 140.716
60.99000 138.730
61.00000 134.993
61.01000 131.350
61.02000 128.922
61.03000 126.868
61.04000 125.731
61.05000 131.374
61.06000 138.390
61.07000 144.285
61.08000 137.572
61.09000 130.650
61.10000 126.254
61.11000 129.663
61.12000 133.624
61.13000 136.665
61.14000 137.789
61.15000 138.854
61.16000 139.474
61.17000 140.865
61.18000 141.843
61.19000 139.503
61.20000 134.203
61.21000 129.007
61.22000 130.050
61.23000 134.747
61.24000 139.283
61.25000 140.682
61.26000 140.835
61.27000 141.194
61.28000 143.679
61.29000 146.727
61.30000 149.067
61.31000 147.036
61.32000 144.255
61.33000 141.989
61.34000 137.174
61.35000 133.023
61.36000 130.772
61.37000 133.580
61.38000 136.663
61.39000 139.082
61.40000 140.309
61.41000 141.512
61.42000 142.164
61.43000 139.277
61.44000 137.305
61.45000 137.513
61.46000 139.376
61.47000 141.348
61.48000 147.364
61.49000 155.420
61.50000 163.103
61.51000 176.109
61.52000 189.856
61.53000 203.502
61.54000 216.290
61.55000 228.884
61.56000 241.632
61.57000 255.181
61.58000 268.845
61.59000 279.605
61.60000 294.915
61.61000 307.487
61.62000 317.041
61.63000 319.651
61.64000 321.985
61.65000 326.418
61.66000 334.092
61.67000 341.801
61.68000 345.659
61.69000 351.599
61.70000 355.497
61.71000 353.651
61.72000 348.076
61.73000 342.175
61.74000 328.042
61.75000 310.324
61.76000 293.676
61.77000 290.346
61.78000 290.867
61.79000 289.409
61.80000 274.143
61.81000 256.222
61.82000 238.011
61.83000 218.518
61.84000 198.872
61.85000 183.974
61.86000 179.981
61.87000 177.404
61.88000 173.965
61.89000 168.815
61.90000 163.619
61.91000 159.442
61.92000 156.613
61.93000 153.793
61.94000 149.556
61.95000 144.135
61.96000 138.868
61.97000 141.366
61.98000 148.201
61.99000 154.759
62.00000 156.191
62.01000 155.696
62.02000 155.238
62.03000 151.993
62.04000 148.453
62.05000 145.432
62.06000 145.443
62.07000 145.945
62.08000 146.704
62.09000 148.430
62.10000 150.250
62.11000 151.574
62.12000 149.602
62.13000 147.959
62.14000 145.651
62.15000 142.204
62.16000 138.738
62.17000 139.194
62.18000 144.055
62.19000 148.902
62.20000 149.397
62.21000 146.776
62.22000 144.161
62.23000 141.733
62.24000 139.394
62.25000 137.156
62.26000 136.336
62.27000 135.975
62.28000 135.649
62.29000 138.955
62.30000 142.557
62.31000 145.274
62.32000 143.615
62.33000 141.363
62.34000 140.140
62.35000 142.272
62.36000 144.663
62.37000 146.323
62.38000 144.105
62.39000 142.329
62.40000 142.249
62.41000 144.659
62.42000 147.092
62.43000 149.601
62.44000 152.183
62.45000 154.744
62.46000 150.786
62.47000 142.945
62.48000 135.424
62.49000 135.200
62.50000 138.008
62.51000 140.560
62.52000 140.251
62.53000 139.144
62.54000 138.163
62.55000 142.950
62.56000 148.004
62.57000 151.766
62.58000 150.084
62.59000 147.795
62.60000 146.049
62.61000 145.835
62.62000 145.712
62.63000 145.631
62.64000 149.817
62.65000 152.978
62.66000 155.089
62.67000 155.882
62.68000 156.663
62.69000 154.921
62.70000 151.151
62.71000 147.437
62.72000 144.900
62.73000 143.045
62.74000 141.305
62.75000 141.502
62.76000 142.392
62.77000 142.962
62.78000 140.630
62.79000 137.604
62.80000 134.988
62.81000 139.325
62.82000 143.915
62.83000 148.520
62.84000 153.173
62.85000 157.832
62.86000 159.934
62.87000 155.839
62.88000 151.466
62.89000 148.742
62.90000 142.235
62.91000 137.507
62.92000 138.005
62.93000 144.067
62.94000 150.108
62.95000 153.529
62.96000 155.153
62.97000 156.738
62.98000 155.772
62.99000 153.727
63.00000 151.686
63.01000 149.711
63.02000 147.756
63.03000 145.922
63.04000 144.996
63.05000 144.255
63.06000 143.631
63.07000 147.658
63.08000 151.511
63.09000 153.287
63.10000 148.614
63.11000 143.479
63.12000 140.619
63.13000 142.521
63.14000 144.573
63.15000 145.773
63.16000 148.852
63.17000 151.026
63.18000 152.374
63.19000 152.980
63.20000 153.546
63.21000 151.717
63.22000 148.478
63.23000 145.348
63.24000 147.789
63.25000 152.175
63.26000 155.933
63.27000 153.129
63.28000 148.581
63.29000 145.046
63.30000 147.811
63.31000 151.663
63.32000 154.806
63.33000 154.926
63.34000 154.766
63.35000 153.403
63.36000 148.816
63.37000 144.052
63.38000 141.756
63.39000 143.916
63.40000 146.168
63.41000 147.393
63.42000 145.234
63.43000 143.750
63.44000 142.740
63.45000 142.090
63.46000 141.490
63.47000 142.703
63.48000 144.836
63.49000 146.872
63.50000 151.597
63.51000 156.837
63.52000 160.846
63.53000 154.393
63.54000 145.558
63.55000 138.329
63.56000 139.517
63.57000 141.925
63.58000 143.823
63.59000 149.960
63.60000 155.168
63.61000 157.632
63.62000 153.749
63.63000 149.610
63.64000 148.654
63.65000 152.642
63.66000 156.686
63.67000 158.716
63.68000 150.412
63.69000 144.930
63.70000 145.205
63.71000 149.241
63.72000 153.133
63.73000 153.329
63.74000 151.906
63.75000 150.568
63.76000 154.213
63.77000 158.882
63.78000 163.008
63.79000 163.319
63.80000 162.891
63.81000 161.483
63.82000 155.703
63.83000 149.398
63.84000 144.609
63.85000 150.617
63.86000 155.900
63.87000 159.028
63.88000 157.853
63.89000 156.558
63.90000 157.411
63.91000 161.120
63.92000 164.840
63.93000 164.725
63.94000 161.351
63.95000 158.018
63.96000 156.812
63.97000 156.799
63.98000 156.646
63.99000 153.872
64.00000 150.106
64.01000 146.624
64.02000 149.257
64.03000 153.009
64.04000 156.455
64.05000 158.097
64.06000 159.445
64.07000 160.509
64.08000 160.489
64.09000 160.364
64.10000 160.272
64.11000 157.954
64.12000 156.084
64.13000 154.548
64.14000 153.591
64.15000 152.643
64.16000 154.010
64.17000 157.994
64.18000 161.966
64.19000 165.998
64.20000 170.037
64.21000 173.955
64.22000 173.910
64.23000 171.946
64.24000 169.761
64.25000 164.425
64.26000 158.060
64.27000 152.290
64.28000 152.930
64.29000 154.718
64.30000 157.245
64.31000 163.451
64.32000 170.159
64.33000 175.173
64.34000 174.632
64.35000 173.657
64.36000 172.978
64.37000 175.303
64.38000 177.138
64.39000 174.335
64.40000 164.677
64.41000 154.958
64.42000 152.962
64.43000 158.336
64.44000 163.667
64.45000 165.994
64.46000 166.444
64.47000 166.806
64.48000 165.134
64.49000 162.612
64.50000 160.389
64.51000 161.541
64.52000 163.641
64.53000 165.504
64.54000 162.992
64.55000 160.121
64.56000 159.157
64.57000 166.285
64.58000 174.323
64.59000 180.230
64.60000 180.112
64.61000 179.629
64.62000 179.310
64.63000 171.727
64.64000 166.002
64.65000 164.797
64.66000 169.302
64.67000 173.827
64.68000 178.713
64.69000 183.893
64.70000 188.997
64.71000 188.154
64.72000 184.244
64.73000 180.450
64.74000 178.625
64.75000 177.510
64.76000 176.805
64.77000 179.830
64.78000 183.753
64.79000 187.149
64.80000 185.739
64.81000 183.910
64.82000 183.152
64.83000 186.291
64.84000 189.785
64.85000 192.316
64.86000 192.494
64.87000 192.566
64.88000 192.611
64.89000 194.149
64.90000 195.273
64.91000 195.902
64.92000 196.000
64.93000 196.107
64.94000 197.376
64.95000 199.447
64.96000 201.471
64.97000 202.576
64.98000 203.229
64.99000 203.943
65.00000 205.458
65.01000 207.222
65.02000 209.089
65.03000 211.723
65.04000 214.515
65.05000 216.866
65.06000 218.156
65.07000 219.119
65.08000 219.771
65.09000 219.450
65.10000 219.059
65.11000 219.057
65.12000 219.878
65.13000 220.724
65.14000 221.221
65.15000 232.831
65.16000 241.063
65.17000 246.578
65.18000 249.636
65.19000 252.757
65.20000 259.727
65.21000 268.979
65.22000 277.924
65.23000 289.156
65.24000 300.616
65.25000 311.130
65.26000 311.687
65.27000 309.580
65.28000 308.630
65.29000 314.929
65.30000 322.488
65.31000 328.663
65.32000 346.342
65.33000 361.804
65.34000 373.850
65.35000 376.685
65.36000 379.010
65.37000 381.974
65.38000 386.099
65.39000 390.248
65.40000 392.513
65.41000 420.922
65.42000 440.424
65.43000 448.906
65.44000 448.918
65.45000 449.017
65.46000 452.389
65.47000 457.432
65.48000 462.248
65.49000 463.243
65.50000 462.945
65.51000 462.838
65.52000 464.359
65.53000 466.253
65.54000 469.569
65.55000 480.395
65.56000 492.317
65.57000 501.733
65.58000 503.882
65.59000 505.112
65.60000 507.091
65.61000 510.813
65.62000 514.606
65.63000 520.104
65.64000 528.266
65.65000 536.459
65.66000 540.587
65.67000 570.244
65.68000 590.222
65.69000 625.188
65.70000 670.007
65.71000 715.562
65.72000 780.271
65.73000 853.422
65.74000 922.245
65.75000 1001.508
65.76000 1076.774
65.77000 1150.357
65.78000 1212.028
65.79000 1271.376
65.80000 1324.597
65.81000 1350.310
65.82000 1372.698
65.83000 1389.729
65.84000 1394.230
65.85000 1397.113
65.86000 1399.334
65.87000 1400.225
65.88000 1401.078
65.89000 1398.241
65.90000 1390.467
65.91000 1382.673
65.92000 1358.143
65.93000 1319.340
65.94000 1279.941
65.95000 1209.344
65.96000 1121.119
65.97000 1033.585
65.98000 959.177
65.99000 889.763
66.00000 825.554
66.01000 755.855
66.02000 691.985
66.03000 628.925
66.04000 570.656
66.05000 513.176
66.06000 462.949
66.07000 440.576
66.08000 420.950
66.09000 406.625
66.10000 385.429
66.11000 368.825
66.12000 356.200
66.13000 350.468
66.14000 344.858
66.15000 338.631
66.16000 331.700
66.17000 324.792
66.18000 327.677
66.19000 337.633
66.20000 347.398
66.21000 350.791
66.22000 351.080
66.23000 351.583
66.24000 355.182
66.25000 359.797
66.26000 363.985
66.27000 378.381
66.28000 393.049
66.29000 406.165
66.30000 411.505
66.31000 415.775
66.32000 424.249
66.33000 446.591
66.34000 470.026
66.35000 486.364
66.36000 496.702
66.37000 504.339
66.38000 509.071
66.39000 509.483
66.40000 509.855
66.41000 517.025
66.42000 530.727
66.43000 544.320
66.44000 538.043
66.45000 519.655
66.46000 501.824
66.47000 497.036
66.48000 497.731
66.49000 498.292
66.50000 497.310
66.51000 495.892
66.52000 494.633
66.53000 473.967
66.54000 452.945
66.55000 432.528
66.56000 414.698
66.57000 397.160
66.58000 381.131
66.59000 369.388
66.60000 357.908
66.61000 350.301
66.62000 348.567
66.63000 347.392
66.64000 346.788
66.65000 346.909
66.66000 347.017
66.67000 341.054
66.68000 330.149
66.69000 319.400
66.70000 324.342
66.71000 337.350
66.72000 349.932
66.73000 355.145
66.74000 357.681
66.75000 359.889
66.76000 359.072
66.77000 357.522
66.78000 356.179
66.79000 356.921
66.80000 357.829
66.81000 359.471
66.82000 363.793
66.83000 368.363
66.84000 372.145
66.85000 373.993
66.86000 375.753
66.87000 376.855
66.88000 363.460
66.89000 353.633
66.90000 351.581
66.91000 357.920
66.92000 364.255
66.93000 369.691
66.94000 374.503
66.95000 379.206
66.96000 383.862
66.97000 388.303
66.98000 392.221
66.99000 389.147
67.00000 383.885
67.01000 379.521
67.02000 381.957
67.03000 385.798
67.04000 389.037
67.05000 389.180
67.06000 388.964
67.07000 388.788
67.08000 388.734
67.09000 388.688
67.10000 390.054
67.11000 394.410
67.12000 398.863
67.13000 401.481
67.14000 411.043
67.15000 417.816
67.16000 417.563
67.17000 410.911
67.18000 404.261
67.19000 397.685
67.20000 391.154
67.21000 384.837
67.22000 388.868
67.23000 396.597
67.24000 404.673
67.25000 416.448
67.26000 429.218
67.27000 440.215
67.28000 440.025
67.29000 437.875
67.30000 436.117
67.31000 432.033
67.32000 428.485
67.33000 427.223
67.34000 432.162
67.35000 437.448
67.36000 441.426
67.37000 443.013
67.38000 444.549
67.39000 445.391
67.40000 448.197
67.41000 450.127
67.42000 451.440
67.43000 452.274
67.44000 453.161
67.45000 456.057
67.46000 459.986
67.47000 463.739
67.48000 461.879
67.49000 458.343
67.50000 455.527
67.51000 458.931
67.52000 463.769
67.53000 467.654
67.54000 466.474
67.55000 464.551
67.56000 463.029
67.57000 474.835
67.58000 485.235
67.59000 492.583
67.60000 492.780
67.61000 492.681
67.62000 495.121
67.63000 501.552
67.64000 508.031
67.65000 511.307
67.66000 504.995
67.67000 500.849
67.68000 504.243
67.69000 512.626
67.70000 520.684
67.71000 520.196
67.72000 515.919
67.73000 511.892
67.74000 516.943
67.75000 524.039
67.76000 530.116
67.77000 528.924
67.78000 526.306
67.79000 526.486
67.80000 539.314
67.81000 553.682
67.82000 564.631
67.83000 558.456
67.84000 552.686
67.85000 549.852
67.86000 552.951
67.87000 556.220
67.88000 555.609
67.89000 549.773
67.90000 543.912
67.91000 549.185
67.92000 564.040
67.93000 578.724
67.94000 584.255
67.95000 584.581
67.96000 585.326
67.97000 594.090
67.98000 605.924
67.99000 616.878
68.00000 616.246
68.01000 613.010
68.02000 610.474
68.03000 612.126
68.04000 614.471
68.05000 617.553
68.06000 623.481
68.07000 629.693
68.08000 634.234
68.09000 635.231
68.10000 635.859
68.11000 638.610
68.12000 645.059
68.13000 651.575
68.14000 658.515
68.15000 665.941
68.16000 673.343
68.17000 673.940
68.18000 669.571
68.19000 665.395
68.20000 667.794
68.21000 673.414
68.22000 679.033
68.23000 684.638
68.24000 690.239
68.25000 695.325
68.26000 697.404
68.27000 698.658
68.28000 701.716
68.29000 713.864
68.30000 727.272
68.31000 738.989
68.32000 745.088
68.33000 750.741
68.34000 754.690
68.35000 776.293
68.36000 793.107
68.37000 804.574
68.38000 808.037
68.39000 811.423
68.40000 813.639
68.41000 814.723
68.42000 815.799
68.43000 830.265
68.44000 852.774
68.45000 874.688
68.46000 882.520
68.47000 884.396
68.48000 887.188
68.49000 900.515
68.50000 916.837
68.51000 931.341
68.52000 956.359
68.53000 979.757
68.54000 1003.217
68.55000 1026.941
68.56000 1050.695
68.57000 1075.496
68.58000 1103.295
68.59000 1131.279
68.60000 1149.861
68.61000 1234.161
68.62000 1297.694
68.63000 1360.922
68.64000 1423.761
68.65000 1486.626
68.66000 1561.154
68.67000 1645.238
68.68000 1728.142
68.69000 1812.465
68.70000 1895.140
68.71000 1977.657
68.72000 2057.398
68.73000 2136.125
68.74000 2214.729
68.75000 2292.182
68.76000 2369.354
68.77000 2436.283
68.78000 2534.993
68.79000 2623.291
68.80000 2723.214
68.81000 2865.912
68.82000 3012.581
68.83000 3175.990
68.84000 3380.729
68.85000 3587.387
68.86000 3717.094
68.87000 4339.306
68.88000 4794.393
68.89000 5463.519
68.90000 6365.248
68.91000 7272.824
68.92000 8929.485
68.93000 11110.016
68.94000 13242.134
68.95000 16988.852
68.96000 21304.920
68.97000 25743.516
68.98000 31835.695
68.99000 38448.582
69.00000 45093.047
69.01000 51978.293
69.02000 58913.645
69.03000 64767.457
69.04000 70643.703
69.05000 75556.664
69.06000 79866.281
69.07000 82266.672
69.08000 84526.406
69.09000 86263.383
69.10000 86885.984
69.11000 87471.773
69.12000 87817.031
69.13000 88690.102
69.14000 89309.109
69.15000 89865.141
69.16000 90363.469
69.17000 90848.906
69.18000 90497.313
69.19000 89643.406
69.20000 88817.031
69.21000 86344.805
69.22000 83381.031
69.23000 80340.695
69.24000 76479.820
69.25000 72396.734
69.26000 68301.664
69.27000 64130.422
69.28000 59945.742
69.29000 56518.641
69.30000 53357.859
69.31000 50790.168
69.32000 48489.480
69.33000 46917.352
69.34000 45386.559
69.35000 43836.492
69.36000 42250.984
69.37000 40664.707
69.38000 39793.445
69.39000 36279.867
69.40000 33855.797
69.41000 31055.949
69.42000 27963.617
69.43000 24871.434
69.44000 21785.156
69.45000 18701.930
69.46000 15754.894
69.47000 13100.298
69.48000 10725.555
69.49000 8450.968
69.50000 7047.703
69.51000 5846.528
69.52000 4734.828
69.53000 4102.082
69.54000 3540.231
69.55000 3095.244
69.56000 2758.763
69.57000 2495.812
69.58000 2271.418
69.59000 2137.853
69.60000 2008.096
69.61000 1894.174
69.62000 1805.300
69.63000 1716.739
69.64000 1671.816
69.65000 1571.240
69.66000 1504.054
69.67000 1456.089
69.68000 1420.916
69.69000 1385.569
69.70000 1345.550
69.71000 1303.448
69.72000 1263.786
69.73000 1234.544
69.74000 1210.647
69.75000 1186.168
69.76000 1157.518
69.77000 1128.044
69.78000 1099.472
69.79000 1074.996
69.80000 1051.024
69.81000 1032.729
69.82000 1012.792
69.83000 996.995
69.84000 982.156
69.85000 969.266
69.86000 956.434
69.87000 941.968
69.88000 925.289
69.89000 908.607
69.90000 897.642
69.91000 891.655
69.92000 885.706
69.93000 881.879
69.94000 879.265
69.95000 875.928
69.96000 858.574
69.97000 835.821
69.98000 814.743
69.99000 812.543
70.00000 814.943
