20.00000 568.943
20.01000 564.168
20.02000 558.711
20.03000 553.503
20.04000 549.264
20.05000 545.122
20.06000 542.089
20.07000 547.111
20.08000 551.309
20.09000 551.859
20.10000 546.023
20.11000 540.069
20.12000 544.137
20.13000 559.754
20.14000 575.335
20.15000 585.624
20.16000 591.951
20.17000 597.683
20.18000 582.962
20.19000 558.170
20.20000 534.870
20.21000 533.546
20.22000 539.514
20.23000 544.937
20.24000 553.770
20.25000 562.240
20.26000 570.100
20.27000 574.868
20.28000 579.205
20.29000 581.496
20.30000 576.961
20.31000 571.879
20.32000 568.323
20.33000 559.210
20.34000 552.164
20.35000 546.356
20.36000 542.410
20.37000 538.482
20.38000 538.181
20.39000 541.407
20.40000 544.609
20.41000 545.669
20.42000 545.379
20.43000 545.213
20.44000 548.014
20.45000 552.076
20.46000 556.137
20.47000 560.192
20.48000 564.246
20.49000 567.850
20.50000 558.535
20.51000 548.352
20.52000 541.311
20.53000 547.831
20.54000 555.913
20.55000 559.860
20.56000 551.925
20.57000 543.248
20.58000 537.476
20.59000 533.409
20.60000 530.432
20.61000 535.038
20.62000 549.398
20.63000 563.754
20.64000 560.138
20.65000 541.719
20.66000 523.553
20.67000 525.288
20.68000 537.506
20.69000 549.003
20.70000 547.748
20.71000 541.813
20.72000 536.321
20.73000 534.973
20.74000 534.640
20.75000 534.350
20.76000 541.901
20.77000 549.388
20.78000 554.990
20.79000 553.624
20.80000 551.606
20.81000 549.215
20.82000 545.897
20.83000 542.536
20.84000 540.422
20.85000 525.627
20.86000 514.785
20.87000 510.917
20.88000 514.671
20.89000 518.446
20.90000 524.700
20.91000 532.697
20.92000 540.518
20.93000 542.525
20.94000 541.829
20.95000 541.065
20.96000 539.361
20.97000 537.360
20.98000 535.722
20.99000 536.863
21.00000 538.586
21.01000 540.042
21.02000 544.754
21.03000 549.052
21.04000 550.790
21.05000 544.387
21.06000 537.381
21.07000 534.474
21.08000 540.350
21.09000 546.519
21.10000 550.163
21.11000 568.574
21.12000 581.654
21.13000 581.679
21.14000 569.675
21.15000 557.726
21.16000 549.338
21.17000 543.099
21.18000 537.058
21.19000 538.255
21.20000 542.160
21.21000 545.757
21.22000 546.027
21.23000 545.393
21.24000 545.283
21.25000 548.528
21.26000 552.367
21.27000 555.515
21.28000 547.682
21.29000 540.285
21.30000 535.111
21.31000 536.032
21.32000 537.302
21.33000 537.777
21.34000 536.786
21.35000 535.762
21.36000 535.198
21.37000 531.475
21.38000 528.916
21.39000 529.338
21.40000 532.094
21.41000 534.807
21.42000 535.833
21.43000 535.981
21.44000 536.123
21.45000 540.460
21.46000 545.862
21.47000 550.333
21.48000 546.642
21.49000 541.049
21.50000 536.395
21.51000 536.792
21.52000 537.942
21.53000 538.854
21.54000 533.319
21.55000 528.415
21.56000 526.201
21.57000 530.353
21.58000 534.775
21.59000 535.659
21.60000 530.920
21.61000 526.109
21.62000 523.662
21.63000 529.184
21.64000 532.907
21.65000 538.647
21.66000 545.737
21.67000 552.548
21.68000 551.809
21.69000 547.688
21.70000 543.803
21.71000 552.287
21.72000 563.471
21.73000 572.817
21.74000 568.884
21.75000 562.315
21.76000 558.613
21.77000 568.022
21.78000 579.050
21.79000 587.476
21.80000 589.131
21.81000 590.069
21.82000 589.891
21.83000 587.431
21.84000 584.904
21.85000 586.577
21.86000 593.972
21.87000 601.395
21.88000 605.302
21.89000 606.136
21.90000 607.214
21.91000 621.883
21.92000 644.361
21.93000 666.295
21.94000 677.563
21.95000 684.705
21.96000 691.325
21.97000 692.602
21.98000 692.507
21.99000 692.864
22.00000 695.957
22.01000 699.508
22.02000 701.734
22.03000 698.778
22.04000 695.299
22.05000 692.747
22.06000 698.480
22.07000 703.245
22.08000 710.051
22.09000 720.452
22.10000 730.921
22.11000 736.124
22.12000 735.220
22.13000 734.310
22.14000 726.201
22.15000 712.839
22.16000 699.481
22.17000 686.282
22.18000 673.160
22.19000 660.746
22.20000 658.874
22.21000 660.520
22.22000 662.017
22.23000 647.636
22.24000 631.805
22.25000 617.275
22.26000 609.378
22.27000 602.413
22.28000 597.877
22.29000 601.488
22.30000 605.758
22.31000 608.752
22.32000 590.537
22.33000 576.146
22.34000 567.686
22.35000 568.202
22.36000 568.810
22.37000 565.485
22.38000 558.308
22.39000 551.184
22.40000 549.533
22.41000 551.339
22.42000 552.973
22.43000 550.459
22.44000 546.172
22.45000 542.234
22.46000 542.378
22.47000 543.695
22.48000 544.868
22.49000 539.018
22.50000 532.789
22.51000 528.455
22.52000 532.359
22.53000 537.220
22.54000 541.640
22.55000 544.789
22.56000 547.857
22.57000 549.902
22.58000 539.062
22.59000 530.789
22.60000 523.932
22.61000 518.908
22.62000 513.897
22.63000 511.736
22.64000 511.937
22.65000 512.135
22.66000 512.973
22.67000 514.128
22.68000 515.081
22.69000 512.416
22.70000 508.415
22.71000 505.404
22.72000 511.707
22.73000 520.309
22.74000 527.782
22.75000 521.617
22.76000 514.515
22.77000 508.791
22.78000 508.198
22.79000 508.088
22.80000 509.661
22.81000 515.433
22.82000 521.404
22.83000 525.168
22.84000 516.357
22.85000 509.834
22.86000 508.481
22.87000 512.815
22.88000 517.143
22.89000 520.142
22.90000 522.201
22.91000 524.216
22.92000 516.568
22.93000 504.846
22.94000 494.037
22.95000 495.766
22.96000 501.486
22.97000 506.799
22.98000 508.972
22.99000 510.484
23.00000 511.763
23.01000 511.633
23.02000 511.368
23.03000 508.361
23.04000 496.586
23.05000 484.154
23.06000 480.234
23.07000 494.656
23.08000 509.700
23.09000 518.610
23.10000 517.120
23.11000 516.008
23.12000 512.393
23.13000 506.458
23.14000 500.609
23.15000 500.618
23.16000 504.182
23.17000 507.633
23.18000 504.033
23.19000 497.907
23.20000 492.157
23.21000 490.498
23.22000 489.959
23.23000 490.250
23.24000 495.888
23.25000 502.481
23.26000 507.892
23.27000 512.946
23.28000 517.063
23.29000 518.409
23.30000 512.113
23.31000 505.375
23.32000 499.621
23.33000 495.699
23.34000 491.817
23.35000 489.674
23.36000 492.622
23.37000 494.654
23.38000 493.732
23.39000 490.483
23.40000 487.382
23.41000 490.245
23.42000 496.224
23.43000 501.945
23.44000 500.354
23.45000 496.474
23.46000 493.330
23.47000 496.685
23.48000 501.564
23.49000 504.544
23.50000 497.231
23.51000 488.375
23.52000 481.344
23.53000 484.590
23.54000 487.930
23.55000 491.349
23.56000 494.952
23.57000 498.563
23.58000 500.164
23.59000 498.547
23.60000 496.889
23.61000 496.042
23.62000 502.228
23.63000 506.366
23.64000 508.923
23.65000 510.416
23.66000 511.715
23.67000 507.704
23.68000 501.300
23.69000 495.259
23.70000 489.811
23.71000 484.983
23.72000 480.901
23.73000 482.240
23.74000 484.662
23.75000 486.722
23.76000 487.113
23.77000 487.296
23.78000 487.437
23.79000 489.983
23.80000 492.124
23.81000 491.862
23.82000 486.663
23.83000 481.316
23.84000 484.638
23.85000 499.844
23.86000 515.112
23.87000 515.878
23.88000 503.906
23.89000 492.176
23.90000 494.132
23.91000 504.002
23.92000 513.081
23.93000 506.459
23.94000 493.728
23.95000 481.919
23.96000 481.533
23.97000 483.869
23.98000 485.396
23.99000 482.006
24.00000 477.785
24.01000 475.808
24.02000 482.656
24.03000 490.401
24.04000 496.093
24.05000 490.136
24.06000 485.054
24.07000 482.150
24.08000 483.106
24.09000 484.136
24.10000 485.660
24.11000 487.762
24.12000 489.858
24.13000 488.229
24.14000 483.844
24.15000 479.768
24.16000 486.722
24.17000 499.170
24.18000 510.339
24.19000 502.254
24.20000 487.703
24.21000 474.460
24.22000 481.220
24.23000 491.152
24.24000 498.839
24.25000 494.996
24.26000 489.520
24.27000 484.568
24.28000 481.383
24.29000 478.342
24.30000 476.206
24.31000 477.320
24.32000 478.259
24.33000 477.602
24.34000 474.517
24.35000 471.407
24.36000 471.461
24.37000 474.636
24.38000 477.789
24.39000 476.389
24.40000 472.140
24.41000 468.041
24.42000 467.635
24.43000 468.816
24.44000 470.039
24.45000 471.759
24.46000 473.622
24.47000 475.282
24.48000 478.785
24.49000 482.133
24.50000 484.386
24.51000 481.853
24.52000 478.759
24.53000 478.104
24.54000 484.544
24.55000 491.437
24.56000 496.041
24.57000 483.185
24.58000 473.318
24.59000 472.468
24.60000 483.370
24.61000 494.301
24.62000 495.187
24.63000 487.689
24.64000 480.291
24.65000 478.155
24.66000 478.900
24.67000 479.481
24.68000 477.123
24.69000 473.673
24.70000 470.369
24.71000 468.446
24.72000 466.867
24.73000 465.493
24.74000 468.915
24.75000 472.490
24.76000 475.283
24.77000 475.149
24.78000 474.737
24.79000 473.212
24.80000 468.894
24.81000 464.441
24.82000 461.627
24.83000 475.212
24.84000 485.248
24.85000 491.289
24.86000 492.906
24.87000 494.469
24.88000 488.640
24.89000 477.549
24.90000 466.693
24.91000 468.642
24.92000 476.358
24.93000 482.865
24.94000 472.591
24.95000 456.944
24.96000 444.113
24.97000 453.223
24.98000 466.982
24.99000 478.632
25.00000 481.906
25.01000 483.712
25.02000 484.004
25.03000 479.423
25.04000 474.473
25.05000 470.928
25.06000 470.426
25.07000 470.028
25.08000 469.793
25.09000 487.903
25.10000 500.825
25.11000 502.652
25.12000 494.115
25.13000 485.614
25.14000 479.567
25.15000 475.018
25.16000 470.610
25.17000 472.327
25.18000 476.330
25.19000 479.791
25.20000 477.296
25.21000 473.160
25.22000 469.834
25.23000 471.762
25.24000 474.635
25.25000 476.995
25.26000 472.363
25.27000 467.927
25.28000 463.965
25.29000 461.321
25.30000 458.753
25.31000 458.342
25.32000 461.962
25.33000 465.674
25.34000 467.730
25.35000 472.302
25.36000 475.455
25.37000 476.430
25.38000 475.677
25.39000 474.928
25.40000 474.344
25.41000 473.848
25.42000 473.372
25.43000 468.952
25.44000 463.531
25.45000 458.284
25.46000 454.579
25.47000 451.238
25.48000 449.627
25.49000 457.448
25.50000 466.695
25.51000 474.047
25.52000 466.177
25.53000 458.750
25.54000 455.059
25.55000 460.320
25.56000 465.970
25.57000 469.918
25.58000 471.128
25.59000 472.302
25.60000 472.903
25.61000 472.924
25.62000 472.919
25.63000 470.730
25.64000 467.062
25.65000 463.511
25.66000 463.195
25.67000 464.346
25.68000 465.432
25.69000 459.475
25.70000 452.042
25.71000 445.606
25.72000 446.486
25.73000 448.838
25.74000 452.362
25.75000 461.309
25.76000 470.937
25.77000 478.317
25.78000 477.534
25.79000 476.464
25.80000 473.039
25.81000 464.742
25.82000 456.297
25.83000 454.960
25.84000 463.430
25.85000 471.956
25.86000 469.082
25.87000 456.133
25.88000 443.352
25.89000 440.272
25.90000 442.835
25.91000 445.420
25.92000 448.454
25.93000 451.663
25.94000 454.642
25.95000 456.924
25.96000 458.817
25.97000 460.526
25.98000 461.116
25.99000 461.515
26.00000 461.476
26.01000 459.701
26.02000 457.749
26.03000 456.311
26.04000 449.751
26.05000 444.461
26.06000 444.644
26.07000 454.580
26.08000 464.708
26.09000 469.885
26.10000 469.244
26.11000 468.595
26.12000 461.187
26.13000 448.773
26.14000 436.724
26.15000 437.845
26.16000 445.567
26.17000 453.090
26.18000 457.581
26.19000 461.048
26.20000 464.206
26.21000 461.107
26.22000 457.119
26.23000 454.253
26.24000 457.194
26.25000 460.962
26.26000 462.196
26.27000 454.821
26.28000 446.736
26.29000 441.046
26.30000 453.796
26.31000 464.005
26.32000 467.205
26.33000 459.663
26.34000 452.004
26.35000 447.579
26.36000 446.367
26.37000 445.163
26.38000 441.301
26.39000 435.812
26.40000 430.702
26.41000 435.027
26.42000 443.434
26.43000 451.412
26.44000 454.281
26.45000 455.664
26.46000 456.898
26.47000 447.171
26.48000 436.891
26.49000 429.070
26.50000 432.072
26.51000 436.351
26.52000 439.315
26.53000 438.432
26.54000 437.302
26.55000 436.545
26.56000 445.385
26.57000 452.133
26.58000 455.781
26.59000 455.362
26.60000 454.927
26.61000 455.230
26.62000 456.154
26.63000 457.067
26.64000 451.466
26.65000 442.499
26.66000 434.012
26.67000 434.309
26.68000 437.887
26.69000 441.043
26.70000 440.153
26.71000 438.253
26.72000 436.598
26.73000 442.898
26.74000 449.372
26.75000 453.572
26.76000 449.207
26.77000 444.020
26.78000 440.920
26.79000 443.086
26.80000 445.508
26.81000 447.043
26.82000 456.181
26.83000 462.900
26.84000 462.987
26.85000 455.680
26.86000 448.391
26.87000 444.527
26.88000 443.118
26.89000 441.738
26.90000 441.863
26.91000 442.676
26.92000 443.581
26.93000 445.789
26.94000 448.417
26.95000 450.266
26.96000 446.000
26.97000 440.431
26.98000 435.709
26.99000 438.239
27.00000 441.175
27.01000 443.355
27.02000 443.085
27.03000 442.627
27.04000 440.833
27.05000 436.123
27.06000 431.311
27.07000 428.446
27.08000 428.684
27.09000 428.871
27.10000 429.213
27.11000 429.701
27.12000 430.211
27.13000 432.345
27.14000 435.477
27.15000 438.512
27.16000 436.529
27.17000 432.689
27.18000 429.264
27.19000 430.446
27.20000 432.905
27.21000 435.710
27.22000 440.773
27.23000 446.246
27.24000 450.749
27.25000 455.732
27.26000 459.873
27.27000 461.854
27.28000 457.805
27.29000 453.399
27.30000 447.913
27.31000 440.394
27.32000 432.828
27.33000 428.625
27.34000 433.481
27.35000 436.837
27.36000 434.573
27.37000 427.825
27.38000 421.307
27.39000 424.505
27.40000 432.841
27.41000 440.824
27.42000 438.309
27.43000 432.475
27.44000 427.198
27.45000 426.920
27.46000 427.830
27.47000 429.125
27.48000 432.539
27.49000 436.274
27.50000 439.249
27.51000 430.775
27.52000 423.116
27.53000 417.373
27.54000 416.247
27.55000 415.325
27.56000 415.550
27.57000 417.632
27.58000 419.740
27.59000 420.823
27.60000 429.187
27.61000 434.746
27.62000 432.408
27.63000 424.688
27.64000 417.304
27.65000 419.379
27.66000 425.769
27.67000 431.803
27.68000 434.123
27.69000 435.206
27.70000 435.442
27.71000 429.421
27.72000 422.132
27.73000 414.915
27.74000 408.033
27.75000 401.193
27.76000 395.942
27.77000 399.889
27.78000 403.523
27.79000 409.399
27.80000 419.939
27.81000 430.623
27.82000 434.550
27.83000 429.098
27.84000 423.587
27.85000 422.671
27.86000 425.847
27.87000 428.900
27.88000 424.676
27.89000 416.193
27.90000 408.513
27.91000 417.145
27.92000 432.200
27.93000 446.185
27.94000 443.319
27.95000 436.722
27.96000 430.317
27.97000 425.100
27.98000 420.088
27.99000 417.062
28.00000 421.945
28.01000 427.647
28.02000 431.851
28.03000 427.073
28.04000 422.996
28.05000 419.515
28.06000 417.105
28.07000 414.717
28.08000 417.500
28.09000 426.401
28.10000 435.290
28.11000 437.098
28.12000 433.562
28.13000 430.119
28.14000 430.102
28.15000 431.812
28.16000 433.456
28.17000 434.075
28.18000 434.347
28.19000 434.595
28.20000 433.709
28.21000 432.696
28.22000 431.440
28.23000 428.921
28.24000 426.221
28.25000 424.492
28.26000 426.087
28.27000 427.958
28.28000 429.278
28.29000 428.276
28.30000 427.447
28.31000 426.855
28.32000 426.629
28.33000 426.407
28.34000 431.671
28.35000 442.423
28.36000 453.102
28.37000 447.823
28.38000 432.427
28.39000 417.661
28.40000 418.781
28.41000 426.815
28.42000 434.224
28.43000 434.128
28.44000 431.835
28.45000 429.788
28.46000 429.954
28.47000 430.468
28.48000 430.777
28.49000 430.177
28.50000 429.469
28.51000 430.132
28.52000 434.830
28.53000 439.792
28.54000 443.120
28.55000 453.991
28.56000 462.213
28.57000 459.473
28.58000 442.265
28.59000 425.002
28.60000 414.987
28.61000 411.102
28.62000 407.266
28.63000 408.103
28.64000 411.456
28.65000 414.471
28.66000 411.232
28.67000 405.644
28.68000 400.856
28.69000 403.796
28.70000 408.679
28.71000 412.935
28.72000 411.336
28.73000 409.158
28.74000 408.878
28.75000 415.788
28.76000 423.395
28.77000 430.409
28.78000 435.920
28.79000 441.357
28.80000 444.808
28.81000 432.426
28.82000 423.243
28.83000 420.083
28.84000 423.684
28.85000 427.256
28.86000 425.388
28.87000 419.602
28.88000 413.933
28.89000 415.750
28.90000 420.957
28.91000 425.791
28.92000 425.339
28.93000 423.174
28.94000 420.482
28.95000 413.622
28.96000 405.867
28.97000 399.286
28.98000 405.178
28.99000 411.537
29.00000 416.578
29.01000 417.324
29.02000 417.740
29.03000 417.420
29.04000 415.487
29.05000 413.497
29.06000 412.310
29.07000 406.936
29.08000 403.099
29.09000 403.720
29.10000 408.560
29.11000 413.302
29.12000 410.844
29.13000 403.937
29.14000 397.238
29.15000 398.558
29.16000 402.965
29.17000 407.014
29.18000 407.078
29.19000 406.029
29.20000 404.543
29.21000 400.177
29.22000 395.287
29.23000 391.258
29.24000 398.102
29.25000 404.730
29.26000 410.199
29.27000 412.413
29.28000 414.432
29.29000 417.141
29.30000 421.159
29.31000 425.207
29.32000 427.462
29.33000 423.694
29.34000 421.078
29.35000 420.052
29.36000 420.302
29.37000 420.454
29.38000 416.414
29.39000 410.145
29.40000 404.137
29.41000 401.090
29.42000 399.236
29.43000 397.940
29.44000 401.675
29.45000 406.614
29.46000 410.905
29.47000 411.616
29.48000 411.779
29.49000 411.908
29.50000 413.591
29.51000 415.063
29.52000 414.243
29.53000 407.871
29.54000 401.251
29.55000 400.723
29.56000 410.120
29.57000 419.656
29.58000 424.572
29.59000 410.650
29.60000 401.315
29.61000 397.184
29.62000 396.621
29.63000 396.304
29.64000 403.022
29.65000 412.969
29.66000 422.367
29.67000 422.829
29.68000 420.718
29.69000 418.149
29.70000 412.181
29.71000 405.520
29.72000 400.875
29.73000 405.684
29.74000 411.699
29.75000 416.323
29.76000 420.605
29.77000 423.973
29.78000 427.883
29.79000 432.928
29.80000 438.008
29.81000 438.337
29.82000 432.030
29.83000 425.680
29.84000 424.743
29.85000 428.658
29.86000 432.514
29.87000 432.757
29.88000 430.872
29.89000 429.146
29.90000 430.678
29.91000 433.501
29.92000 436.125
29.93000 443.335
29.94000 450.942
29.95000 457.464
29.96000 457.240
29.97000 455.851
29.98000 455.044
29.99000 456.568
30.00000 458.336
30.01000 459.641
30.02000 443.984
30.03000 431.128
30.04000 425.948
30.05000 434.618
30.06000 443.571
30.07000 448.706
30.08000 449.296
30.09000 449.875
30.10000 447.525
30.11000 442.969
30.12000 438.501
30.13000 437.286
30.14000 437.721
30.15000 438.080
30.16000 437.262
30.17000 436.041
30.18000 434.927
30.19000 439.099
30.20000 443.866
30.21000 446.392
30.22000 437.173
30.23000 426.254
30.24000 416.980
30.25000 413.357
30.26000 410.209
30.27000 407.985
30.28000 419.049
30.29000 427.855
30.30000 433.415
30.31000 433.940
30.32000 434.407
30.33000 431.880
30.34000 426.337
30.35000 420.830
30.36000 418.745
30.37000 418.891
30.38000 419.334
30.39000 427.370
30.40000 438.729
30.41000 448.839
30.42000 443.780
30.43000 434.253
30.44000 425.743
30.45000 428.177
30.46000 432.141
30.47000 433.718
30.48000 424.652
30.49000 414.311
30.50000 407.298
30.51000 410.141
30.52000 413.632
30.53000 415.979
30.54000 425.592
30.55000 432.884
30.56000 435.817
30.57000 432.961
30.58000 430.085
30.59000 432.298
30.60000 438.842
30.61000 445.306
30.62000 450.407
30.63000 454.633
30.64000 458.453
30.65000 454.662
30.66000 447.994
30.67000 441.386
30.68000 435.353
30.69000 429.465
30.70000 424.329
30.71000 425.354
30.72000 427.090
30.73000 429.140
30.74000 432.382
30.75000 435.741
30.76000 439.856
30.77000 445.906
30.78000 452.053
30.79000 455.964
30.80000 466.748
30.81000 474.669
30.82000 478.983
30.83000 479.220
30.84000 479.445
30.85000 478.254
30.86000 476.037
30.87000 473.864
30.88000 476.747
30.89000 481.874
30.90000 486.831
30.91000 489.368
30.92000 491.115
30.93000 492.614
30.94000 492.126
30.95000 491.209
30.96000 490.429
30.97000 512.780
30.98000 534.189
30.99000 552.466
31.00000 560.478
31.01000 567.690
31.02000 581.549
31.03000 610.070
31.04000 639.120
31.05000 656.505
31.06000 694.909
31.07000 722.305
31.08000 753.957
31.09000 789.668
31.10000 825.478
31.11000 868.678
31.12000 916.472
31.13000 962.844
31.14000 1031.028
31.15000 1104.321
31.16000 1179.178
31.17000 1271.682
31.18000 1369.138
31.19000 1469.000
31.20000 1584.799
31.21000 1703.520
31.22000 1801.465
31.23000 1953.108
31.24000 2082.954
31.25000 2215.663
31.26000 2356.457
31.27000 2497.741
31.28000 2646.328
31.29000 2808.819
31.30000 2971.645
31.31000 3062.632
31.32000 3274.771
31.33000 3421.852
31.34000 3534.791
31.35000 3620.142
31.36000 3705.362
31.37000 3784.870
31.38000 3861.322
31.39000 3934.622
31.40000 3966.366
31.41000 3982.016
31.42000 3991.032
31.43000 3939.563
31.44000 3873.542
31.45000 3800.014
31.46000 3684.695
31.47000 3562.927
31.48000 3465.698
31.49000 3306.647
31.50000 3173.651
31.51000 3035.713
31.52000 2885.727
31.53000 2735.196
31.54000 2571.698
31.55000 2386.949
31.56000 2201.894
31.57000 2106.177
31.58000 1883.653
31.59000 1733.759
31.60000 1605.095
31.61000 1491.081
31.62000 1377.478
31.63000 1275.846
31.64000 1179.739
31.65000 1088.876
31.66000 1006.504
31.67000 933.253
31.68000 862.249
31.69000 808.097
31.70000 757.403
31.71000 707.499
31.72000 661.324
31.73000 615.628
31.74000 580.439
31.75000 568.691
31.76000 560.729
31.77000 551.745
31.78000 540.612
31.79000 529.410
31.80000 514.122
31.81000 493.093
31.82000 472.030
31.83000 465.464
31.84000 471.986
31.85000 478.352
31.86000 474.994
31.87000 465.876
31.88000 456.910
31.89000 451.105
31.90000 446.559
31.91000 442.331
31.92000 432.913
31.93000 423.152
31.94000 414.361
31.95000 411.638
31.96000 409.969
31.97000 409.521
31.98000 413.994
31.99000 418.985
32.00000 422.678
32.01000 426.748
32.02000 429.921
32.03000 432.404
32.04000 433.633
32.05000 434.835
32.06000 431.258
32.07000 421.949
32.08000 412.652
32.09000 412.406
32.10000 419.069
32.11000 425.505
32.12000 423.314
32.13000 416.721
32.14000 410.248
32.15000 405.655
32.16000 401.707
32.17000 398.103
32.18000 398.801
32.19000 400.293
32.20000 401.862
32.21000 403.829
32.22000 405.855
32.23000 405.052
32.24000 394.462
32.25000 383.042
32.26000 374.961
32.27000 379.480
32.28000 383.303
32.29000 386.743
32.30000 389.583
32.31000 392.416
32.32000 395.792
32.33000 399.719
32.34000 403.621
32.35000 402.719
32.36000 398.720
32.37000 394.865
32.38000 394.759
32.39000 396.303
32.40000 397.366
32.41000 392.538
32.42000 385.964
32.43000 380.086
32.44000 377.845
32.45000 376.509
32.46000 375.775
32.47000 377.741
32.48000 380.033
32.49000 381.607
32.50000 381.038
32.51000 380.327
32.52000 379.848
32.53000 378.842
32.54000 378.083
32.55000 377.337
32.56000 376.608
32.57000 375.879
32.58000 375.560
32.59000 375.591
32.60000 375.621
32.61000 378.268
32.62000 382.290
32.63000 385.921
32.64000 382.163
32.65000 375.596
32.66000 369.658
32.67000 369.901
32.68000 371.717
32.69000 373.303
32.70000 369.601
32.71000 365.688
32.72000 363.942
32.73000 370.509
32.74000 377.894
32.75000 381.012
32.76000 373.165
32.77000 364.764
32.78000 359.406
32.79000 366.535
32.80000 371.880
32.81000 373.599
32.82000 371.194
32.83000 368.782
32.84000 365.983
32.85000 362.902
32.86000 359.882
32.87000 358.081
32.88000 356.920
32.89000 355.877
32.90000 356.535
32.91000 357.751
32.92000 357.710
32.93000 347.564
32.94000 335.220
32.95000 324.721
32.96000 336.470
32.97000 348.907
32.98000 358.444
32.99000 358.417
33.00000 357.638
33.01000 356.934
33.02000 356.396
33.03000 355.865
33.04000 355.547
33.05000 352.914
33.06000 351.028
33.07000 351.983
33.08000 355.664
33.09000 359.279
33.10000 357.838
33.11000 353.233
33.12000 348.764
33.13000 348.395
33.14000 349.681
33.15000 350.414
33.16000 344.861
33.17000 337.533
33.18000 331.729
33.19000 336.096
33.20000 342.342
33.21000 347.501
33.22000 341.317
33.23000 335.162
33.24000 332.358
33.25000 339.078
33.26000 346.380
33.27000 349.123
33.28000 343.135
33.29000 336.932
33.30000 333.456
33.31000 335.469
33.32000 336.877
33.33000 338.167
33.34000 339.361
33.35000 340.495
33.36000 338.951
33.37000 335.966
33.38000 333.102
33.39000 335.734
33.40000 340.056
33.41000 343.807
33.42000 342.307
33.43000 339.536
33.44000 336.798
33.45000 334.240
33.46000 331.710
33.47000 329.687
33.48000 338.441
33.49000 346.316
33.50000 350.568
33.51000 345.935
33.52000 340.895
33.53000 336.687
33.54000 333.850
33.55000 331.034
33.56000 329.572
33.57000 331.042
33.58000 332.065
33.59000 337.008
33.60000 344.672
33.61000 351.842
33.62000 344.417
33.63000 330.217
33.64000 316.784
33.65000 318.625
33.66000 324.709
33.67000 330.392
33.68000 333.038
33.69000 335.058
33.70000 337.248
33.71000 340.245
33.72000 343.347
33.73000 345.739
33.74000 341.294
33.75000 337.378
33.76000 335.192
33.77000 336.669
33.78000 338.265
33.79000 341.636
33.80000 347.519
33.81000 353.417
33.82000 354.933
33.83000 352.464
33.84000 349.978
33.85000 346.414
33.86000 342.208
33.87000 338.154
33.88000 337.300
33.89000 337.729
33.90000 338.128
33.91000 341.998
33.92000 346.339
33.93000 349.753
33.94000 347.325
33.95000 343.874
33.96000 340.348
33.97000 336.517
33.98000 332.653
33.99000 329.789
34.00000 334.825
34.01000 339.078
34.02000 339.448
34.03000 332.727
34.04000 325.855
34.05000 324.880
34.06000 331.023
34.07000 337.167
34.08000 336.016
34.09000 329.266
34.10000 322.696
34.11000 323.056
34.12000 326.975
34.13000 330.557
34.14000 328.796
34.15000 325.187
34.16000 321.889
34.17000 326.037
34.18000 331.244
34.19000 334.438
34.20000 326.938
34.21000 317.867
34.22000 312.309
34.23000 318.972
34.24000 326.680
34.25000 332.146
34.26000 336.544
34.27000 339.855
34.28000 338.299
34.29000 329.099
34.30000 319.807
34.31000 316.112
34.32000 318.133
34.33000 320.142
34.34000 324.355
34.35000 329.946
34.36000 335.414
34.37000 337.672
34.38000 338.507
34.39000 338.760
34.40000 331.805
34.41000 322.701
34.42000 314.554
34.43000 315.911
34.44000 318.720
34.45000 321.913
34.46000 326.839
34.47000 331.976
34.48000 333.865
34.49000 326.019
34.50000 317.519
34.51000 311.780
34.52000 307.622
34.53000 304.560
34.54000 304.865
34.55000 309.698
34.56000 314.553
34.57000 317.485
34.58000 318.760
34.59000 320.020
34.60000 320.725
34.61000 321.105
34.62000 321.432
34.63000 320.745
34.64000 319.670
34.65000 318.593
34.66000 317.487
34.67000 316.374
34.68000 315.402
34.69000 322.600
34.70000 329.925
34.71000 334.621
34.72000 329.168
34.73000 322.707
34.74000 319.294
34.75000 323.761
34.76000 328.631
34.77000 331.744
34.78000 332.205
34.79000 332.505
34.80000 330.882
34.81000 327.055
34.82000 323.251
34.83000 323.827
34.84000 327.621
34.85000 331.340
34.86000 328.662
34.87000 323.067
34.88000 317.718
34.89000 315.947
34.90000 315.358
34.91000 314.131
34.92000 307.743
34.93000 300.224
34.94000 293.822
34.95000 288.030
34.96000 283.231
34.97000 281.913
34.98000 292.138
34.99000 303.281
35.00000 312.095
35.01000 315.710
35.02000 319.132
35.03000 321.191
35.04000 316.768
35.05000 313.579
35.06000 312.293
35.07000 312.848
35.08000 313.447
35.09000 317.522
35.10000 323.785
35.11000 329.867
35.12000 324.803
35.13000 315.522
35.14000 306.918
35.15000 306.100
35.16000 307.493
35.17000 308.651
35.18000 308.231
35.19000 307.517
35.20000 306.926
35.21000 306.910
35.22000 306.951
35.23000 307.489
35.24000 309.446
35.25000 311.491
35.26000 313.751
35.27000 316.424
35.28000 319.107
35.29000 320.615
35.30000 303.346
35.31000 291.343
35.32000 290.742
35.33000 299.476
35.34000 308.060
35.35000 309.781
35.36000 307.786
35.37000 305.871
35.38000 308.915
35.39000 313.453
35.40000 317.082
35.41000 312.286
35.42000 305.436
35.43000 299.620
35.44000 299.643
35.45000 300.580
35.46000 301.330
35.47000 307.445
35.48000 312.795
35.49000 316.197
35.50000 314.796
35.51000 313.172
35.52000 311.734
35.53000 310.604
35.54000 309.478
35.55000 308.892
35.56000 302.243
35.57000 297.783
35.58000 297.788
35.59000 300.914
35.60000 303.975
35.61000 305.124
35.62000 305.379
35.63000 305.621
35.64000 303.661
35.65000 301.222
35.66000 299.584
35.67000 304.054
35.68000 309.794
35.69000 313.398
35.70000 306.783
35.71000 298.836
35.72000 292.697
35.73000 291.810
35.74000 291.413
35.75000 294.087
35.76000 303.304
35.77000 312.736
35.78000 314.685
35.79000 305.981
35.80000 297.201
35.81000 295.107
35.82000 299.132
35.83000 303.137
35.84000 305.803
35.85000 307.665
35.86000 309.293
35.87000 305.910
35.88000 300.507
35.89000 295.473
35.90000 293.246
35.91000 291.919
35.92000 290.895
35.93000 291.799
35.94000 293.043
35.95000 294.435
35.96000 296.433
35.97000 298.497
35.98000 300.029
35.99000 296.405
36.00000 293.362
36.01000 291.456
36.02000 291.639
36.03000 291.868
36.04000 294.567
36.05000 300.269
36.06000 305.965
36.07000 303.385
36.08000 294.417
36.09000 285.630
36.10000 283.952
36.11000 285.946
36.12000 287.872
36.13000 288.700
36.14000 289.147
36.15000 289.555
36.16000 293.550
36.17000 297.840
36.18000 301.185
36.19000 299.483
36.20000 297.034
36.21000 295.360
36.22000 296.403
36.23000 297.679
36.24000 298.586
36.25000 302.185
36.26000 305.009
36.27000 304.869
36.28000 300.043
36.29000 295.160
36.30000 293.491
36.31000 295.129
36.32000 296.757
36.33000 297.413
36.34000 297.422
36.35000 297.323
36.36000 294.354
36.37000 290.105
36.38000 286.304
36.39000 288.102
36.40000 291.578
36.41000 294.691
36.42000 296.254
36.43000 297.351
36.44000 299.039
36.45000 303.416
36.46000 308.122
36.47000 310.895
36.48000 307.837
36.49000 304.383
36.50000 302.047
36.51000 300.669
36.52000 299.663
36.53000 296.747
36.54000 291.247
36.55000 285.741
36.56000 288.215
36.57000 297.618
36.58000 306.911
36.59000 308.884
36.60000 306.726
36.61000 304.644
36.62000 304.024
36.63000 303.967
36.64000 303.540
36.65000 299.414
36.66000 294.335
36.67000 289.890
36.68000 291.703
36.69000 294.152
36.70000 296.036
36.71000 295.729
36.72000 295.202
36.73000 294.844
36.74000 294.925
36.75000 295.029
36.76000 295.096
36.77000 284.793
36.78000 277.147
36.79000 278.410
36.80000 289.943
36.81000 301.426
36.82000 301.664
36.83000 293.588
36.84000 285.666
36.85000 287.052
36.86000 292.805
36.87000 298.415
36.88000 301.923
36.89000 304.733
36.90000 307.379
36.91000 308.684
36.92000 309.694
36.93000 310.555
36.94000 302.714
36.95000 295.096
36.96000 290.409
36.97000 295.500
36.98000 301.375
36.99000 305.090
37.00000 303.957
37.01000 302.642
37.02000 301.848
37.03000 302.107
37.04000 302.299
37.05000 302.799
37.06000 303.600
37.07000 304.372
37.08000 302.850
37.09000 299.875
37.10000 296.985
37.11000 293.087
37.12000 288.977
37.13000 285.228
37.14000 285.667
37.15000 287.303
37.16000 289.045
37.17000 291.509
37.18000 294.108
37.19000 296.260
37.20000 294.969
37.21000 293.576
37.22000 293.136
37.23000 295.434
37.24000 297.904
37.25000 298.374
37.26000 294.969
37.27000 291.466
37.28000 289.491
37.29000 293.969
37.30000 297.095
37.31000 299.380
37.32000 300.974
37.33000 302.536
37.34000 302.650
37.35000 301.975
37.36000 301.327
37.37000 295.763
37.38000 288.870
37.39000 282.712
37.40000 283.424
37.41000 285.819
37.42000 287.801
37.43000 287.429
37.44000 286.686
37.45000 286.090
37.46000 284.988
37.47000 284.058
37.48000 283.559
37.49000 284.132
37.50000 284.754
37.51000 284.551
37.52000 282.968
37.53000 281.364
37.54000 280.526
37.55000 282.048
37.56000 283.073
37.57000 283.445
37.58000 283.358
37.59000 283.412
37.60000 287.728
37.61000 294.048
37.62000 300.034
37.63000 298.270
37.64000 294.389
37.65000 290.829
37.66000 289.743
37.67000 289.174
37.68000 289.317
37.69000 292.888
37.70000 296.908
37.71000 300.019
37.72000 295.857
37.73000 292.125
37.74000 290.155
37.75000 291.959
37.76000 293.890
37.77000 294.660
37.78000 293.768
37.79000 292.864
37.80000 293.391
37.81000 295.239
37.82000 297.012
37.83000 293.833
37.84000 287.666
37.85000 281.777
37.86000 281.873
37.87000 284.398
37.88000 286.751
37.89000 282.950
37.90000 277.993
37.91000 275.122
37.92000 285.578
37.93000 298.399
37.94000 307.085
37.95000 298.789
37.96000 288.658
37.97000 281.125
37.98000 289.130
37.99000 296.049
38.00000 297.458
38.01000 288.687
38.02000 279.692
38.03000 276.274
38.04000 279.676
38.05000 283.088
38.06000 289.700
38.07000 298.768
38.08000 307.560
38.09000 305.247
38.10000 297.167
38.11000 289.824
38.12000 294.440
38.13000 303.242
38.14000 311.299
38.15000 307.448
38.16000 301.553
38.17000 296.413
38.18000 295.342
38.19000 294.877
38.20000 294.275
38.21000 293.186
38.22000 292.055
38.23000 291.251
38.24000 302.650
38.25000 311.727
38.26000 315.519
38.27000 310.907
38.28000 306.187
38.29000 303.998
38.30000 304.429
38.31000 304.857
38.32000 307.746
38.33000 312.222
38.34000 316.608
38.35000 318.570
38.36000 319.446
38.37000 320.963
38.38000 330.559
38.39000 342.592
38.40000 353.380
38.41000 361.969
38.42000 369.090
38.43000 375.722
38.44000 380.116
38.45000 384.233
38.46000 390.753
38.47000 404.561
38.48000 418.869
38.49000 428.568
38.50000 429.038
38.51000 429.185
38.52000 439.101
38.53000 462.329
38.54000 485.636
38.55000 510.216
38.56000 535.911
38.57000 561.316
38.58000 581.016
38.59000 597.046
38.60000 613.296
38.61000 633.844
38.62000 656.055
38.63000 678.741
38.64000 706.216
38.65000 734.933
38.66000 760.086
38.67000 773.271
38.68000 782.858
38.69000 793.488
38.70000 808.198
38.71000 823.320
38.72000 835.703
38.73000 840.918
38.74000 845.759
38.75000 848.867
38.76000 847.389
38.77000 846.248
38.78000 836.852
38.79000 817.875
38.80000 798.890
38.81000 780.710
38.82000 763.130
38.83000 745.880
38.84000 733.547
38.85000 724.008
38.86000 713.582
38.87000 689.953
38.88000 661.914
38.89000 633.977
38.90000 606.873
38.91000 579.955
38.92000 556.982
38.93000 532.134
38.94000 510.993
38.95000 489.634
38.96000 467.545
38.97000 445.397
38.98000 425.268
38.99000 409.699
39.00000 394.304
39.01000 384.994
39.02000 361.840
39.03000 345.240
39.04000 337.346
39.05000 337.985
39.06000 338.524
39.07000 330.869
39.08000 317.992
39.09000 305.476
39.10000 300.228
39.11000 298.194
39.12000 296.189
39.13000 294.512
39.14000 292.929
39.15000 291.420
39.16000 290.423
39.17000 289.522
39.18000 288.775
39.19000 286.249
39.20000 283.993
39.21000 282.895
39.22000 285.151
39.23000 287.618
39.24000 286.052
39.25000 276.620
39.26000 266.984
39.27000 261.536
39.28000 261.387
39.29000 261.302
39.30000 263.310
39.31000 267.052
39.32000 270.724
39.33000 271.079
39.34000 269.615
39.35000 268.208
39.36000 269.044
39.37000 270.602
39.38000 272.336
39.39000 275.727
39.40000 279.527
39.41000 281.852
39.42000 275.737
39.43000 268.283
39.44000 262.297
39.45000 267.416
39.46000 272.412
39.47000 276.146
39.48000 276.731
39.49000 277.166
39.50000 276.912
39.51000 275.500
39.52000 274.070
39.53000 273.320
39.54000 262.277
39.55000 254.825
39.56000 251.802
39.57000 251.914
39.58000 252.161
39.59000 256.574
39.60000 262.956
39.61000 269.005
39.62000 265.744
39.63000 260.010
39.64000 254.838
39.65000 254.017
39.66000 254.113
39.67000 253.953
39.68000 252.555
39.69000 250.993
39.70000 249.783
39.71000 259.374
39.72000 267.636
39.73000 272.949
39.74000 271.910
39.75000 270.654
39.76000 268.337
39.77000 264.489
39.78000 260.629
39.79000 259.071
39.80000 259.648
39.81000 260.230
39.82000 261.092
39.83000 262.123
39.84000 263.202
39.85000 265.315
39.86000 267.849
39.87000 270.213
39.88000 260.615
39.89000 248.952
39.90000 240.260
39.91000 250.694
39.92000 264.544
39.93000 275.468
39.94000 274.302
39.95000 271.820
39.96000 269.971
39.97000 268.817
39.98000 267.951
39.99000 266.513
40.00000 264.014
40.01000 261.490
40.02000 261.669
40.03000 265.173
40.04000 268.679
40.05000 269.845
40.06000 269.173
40.07000 268.544
40.08000 269.710
40.09000 271.813
40.10000 273.642
40.11000 270.971
40.12000 266.714
40.13000 262.815
40.14000 255.722
40.15000 248.742
40.16000 243.713
40.17000 249.270
40.18000 256.415
40.19000 262.347
40.20000 263.981
40.21000 265.238
40.22000 266.133
40.23000 260.779
40.24000 256.492
40.25000 254.268
40.26000 255.346
40.27000 256.466
40.28000 257.298
40.29000 257.829
40.30000 258.357
40.31000 259.113
40.32000 260.010
40.33000 260.780
40.34000 258.036
40.35000 253.709
40.36000 249.852
40.37000 251.978
40.38000 255.920
40.39000 259.457
40.40000 259.295
40.41000 258.506
40.42000 257.626
40.43000 256.323
40.44000 254.967
40.45000 254.432
40.46000 256.402
40.47000 258.546
40.48000 260.002
40.49000 257.903
40.50000 256.257
40.51000 256.054
40.52000 257.829
40.53000 259.616
40.54000 260.495
40.55000 260.577
40.56000 260.657
40.57000 258.162
40.58000 254.269
40.59000 250.606
40.60000 251.510
40.61000 254.193
40.62000 256.205
40.63000 251.400
40.64000 244.816
40.65000 239.043
40.66000 237.727
40.67000 237.244
40.68000 236.826
40.69000 236.665
40.70000 236.531
40.71000 237.887
40.72000 243.168
40.73000 248.657
40.74000 252.190
40.75000 245.414
40.76000 240.322
40.77000 240.840
40.78000 247.909
40.79000 254.952
40.80000 255.141
40.81000 250.198
40.82000 245.345
40.83000 245.070
40.84000 247.005
40.85000 248.853
40.86000 249.391
40.87000 249.489
40.88000 249.826
40.89000 252.141
40.90000 254.898
40.91000 257.253
40.92000 255.124
40.93000 252.794
40.94000 250.498
40.95000 248.314
40.96000 246.140
40.97000 244.492
40.98000 244.043
40.99000 243.641
41.00000 243.396
41.01000 250.721
41.02000 256.002
41.03000 256.779
41.04000 253.112
41.05000 249.454
41.06000 246.607
41.07000 244.280
41.08000 242.018
41.09000 243.522
41.10000 246.494
41.11000 249.104
41.12000 247.438
41.13000 244.536
41.14000 241.973
41.15000 241.738
41.16000 241.946
41.17000 242.118
41.18000 243.376
41.19000 244.520
41.20000 246.427
41.21000 250.550
41.22000 254.814
41.23000 253.997
41.24000 243.213
41.25000 232.167
41.26000 225.904
41.27000 229.832
41.28000 232.600
41.29000 236.990
41.30000 242.736
41.31000 248.382
41.32000 249.262
41.33000 247.514
41.34000 245.834
41.35000 241.953
41.36000 237.552
41.37000 234.046
41.38000 239.054
41.39000 246.175
41.40000 251.662
41.41000 247.738
41.42000 242.309
41.43000 237.944
41.44000 241.415
41.45000 244.835
41.46000 247.503
41.47000 248.281
41.48000 248.969
41.49000 247.127
41.50000 241.012
41.51000 234.829
41.52000 231.577
41.53000 234.619
41.54000 236.684
41.55000 238.665
41.56000 240.586
41.57000 242.413
41.58000 241.277
41.59000 238.731
41.60000 236.318
41.61000 235.262
41.62000 234.689
41.63000 234.237
41.64000 234.722
41.65000 235.406
41.66000 236.396
41.67000 238.882
41.68000 241.567
41.69000 243.651
41.70000 238.712
41.71000 234.364
41.72000 231.959
41.73000 233.770
41.74000 235.726
41.75000 237.475
41.76000 238.925
41.77000 240.372
41.78000 239.257
41.79000 235.750
41.80000 232.316
41.81000 233.975
41.82000 238.746
41.83000 243.311
41.84000 243.333
41.85000 241.490
41.86000 239.770
41.87000 239.908
41.88000 240.497
41.89000 241.293
41.90000 243.436
41.91000 245.820
41.92000 247.414
41.93000 245.719
41.94000 243.663
41.95000 242.129
41.96000 233.406
41.97000 226.283
41.98000 222.518
41.99000 225.033
42.00000 227.691
42.01000 229.560
42.02000 230.450
42.03000 231.336
42.04000 233.970
42.05000 237.971
42.06000 241.865
42.07000 241.266
42.08000 238.306
42.09000 235.335
42.10000 232.191
42.11000 228.985
42.12000 226.046
42.13000 231.429
42.14000 237.975
42.15000 242.892
42.16000 238.916
42.17000 233.597
42.18000 228.920
42.19000 226.538
42.20000 224.359
42.21000 222.802
42.22000 219.800
42.23000 217.461
42.24000 218.303
42.25000 224.264
42.26000 230.294
42.27000 233.062
42.28000 232.405
42.29000 231.751
42.30000 233.301
42.31000 236.305
42.32000 239.269
42.33000 241.084
42.34000 242.377
42.35000 243.136
42.36000 237.010
42.37000 228.783
42.38000 221.394
42.39000 218.704
42.40000 217.177
42.41000 217.443
42.42000 226.014
42.43000 235.628
42.44000 241.266
42.45000 234.700
42.46000 227.279
42.47000 222.227
42.48000 230.036
42.49000 236.162
42.50000 235.239
42.51000 224.587
42.52000 213.884
42.53000 212.970
42.54000 220.727
42.55000 228.401
42.56000 231.838
42.57000 232.788
42.58000 233.675
42.59000 233.313
42.60000 232.461
42.61000 231.965
42.62000 235.123
42.63000 239.240
42.64000 242.853
42.65000 238.782
42.66000 234.160
42.67000 230.159
42.68000 228.614
42.69000 227.322
42.70000 225.098
42.71000 220.409
42.72000 215.588
42.73000 212.478
42.74000 212.571
42.75000 212.686
42.76000 218.338
42.77000 230.503
42.78000 242.619
42.79000 242.434
42.80000 232.980
42.81000 223.697
42.82000 223.426
42.83000 227.526
42.84000 231.040
42.85000 225.635
42.86000 217.215
42.87000 210.497
42.88000 218.000
42.89000 228.697
42.90000 237.846
42.91000 234.780
42.92000 230.726
42.93000 226.989
42.94000 224.330
42.95000 221.759
42.96000 222.470
42.97000 230.682
42.98000 239.188
42.99000 244.359
43.00000 231.805
43.01000 222.705
43.02000 218.507
43.03000 219.179
43.04000 219.834
43.05000 218.947
43.06000 217.066
43.07000 215.236
43.08000 218.934
43.09000 224.732
43.10000 229.884
43.11000 227.350
43.12000 222.580
43.13000 218.387
43.14000 218.198
43.15000 218.772
43.16000 219.250
43.17000 216.251
43.18000 213.431
43.19000 212.091
43.20000 215.085
43.21000 218.358
43.22000 220.994
43.23000 222.373
43.24000 223.717
43.25000 224.482
43.26000 231.025
43.27000 235.593
43.28000 235.134
43.29000 230.450
43.30000 225.833
43.31000 224.452
43.32000 224.867
43.33000 225.266
43.34000 224.084
43.35000 222.422
43.36000 220.723
43.37000 218.664
43.38000 216.514
43.39000 214.401
43.40000 212.508
43.41000 210.650
43.42000 209.153
43.43000 213.536
43.44000 217.550
43.45000 219.220
43.46000 214.969
43.47000 210.429
43.48000 208.250
43.49000 210.082
43.50000 211.980
43.51000 212.982
43.52000 212.269
43.53000 211.797
43.54000 213.121
43.55000 215.733
43.56000 218.236
43.57000 217.246
43.58000 214.585
43.59000 212.060
43.60000 216.346
43.61000 222.324
43.62000 227.480
43.63000 226.183
43.64000 223.509
43.65000 221.538
43.66000 223.025
43.67000 224.976
43.68000 226.492
43.69000 226.386
43.70000 226.203
43.71000 225.727
43.72000 224.613
43.73000 223.477
43.74000 223.657
43.75000 225.761
43.76000 227.880
43.77000 227.903
43.78000 225.952
43.79000 224.078
43.80000 227.626
43.81000 234.505
43.82000 240.947
43.83000 237.577
43.84000 230.155
43.85000 223.222
43.86000 221.355
43.87000 220.935
43.88000 220.394
43.89000 219.056
43.90000 217.575
43.91000 216.641
43.92000 218.004
43.93000 219.621
43.94000 220.829
43.95000 220.050
43.96000 219.350
43.97000 217.740
43.98000 214.417
43.99000 211.053
44.00000 210.458
44.01000 213.314
44.02000 216.175
44.03000 219.403
44.04000 222.908
44.05000 226.365
44.06000 227.802
44.07000 228.170
44.08000 228.168
44.09000 221.982
44.10000 213.592
44.11000 205.895
44.12000 209.104
44.13000 214.275
44.14000 218.705
44.15000 219.063
44.16000 218.801
44.17000 217.449
44.18000 212.185
44.19000 206.571
44.20000 202.553
44.21000 206.426
44.22000 209.650
44.23000 213.944
44.24000 219.971
44.25000 226.022
44.26000 225.959
44.27000 219.432
44.28000 212.937
44.29000 210.857
44.30000 211.776
44.31000 212.733
44.32000 214.787
44.33000 217.341
44.34000 219.810
44.35000 221.169
44.36000 222.187
44.37000 223.101
44.38000 219.432
44.39000 215.405
44.40000 212.768
44.41000 216.611
44.42000 221.274
44.43000 224.510
44.44000 223.340
44.45000 221.859
44.46000 220.848
44.47000 219.856
44.48000 219.115
44.49000 220.368
44.50000 224.387
44.51000 228.421
44.52000 228.027
44.53000 223.684
44.54000 219.387
44.55000 217.412
44.56000 216.809
44.57000 216.252
44.58000 216.617
44.59000 217.344
44.60000 218.036
44.61000 218.350
44.62000 218.565
44.63000 218.753
44.64000 218.135
44.65000 217.485
44.66000 218.447
44.67000 225.832
44.68000 233.883
44.69000 238.137
44.70000 232.276
44.71000 225.867
44.72000 221.723
44.73000 223.399
44.74000 224.709
44.75000 226.285
44.76000 228.175
44.77000 230.073
44.78000 233.412
44.79000 237.844
44.80000 242.198
44.81000 247.168
44.82000 252.267
44.83000 257.353
44.84000 262.234
44.85000 267.045
44.86000 272.124
44.87000 279.456
44.88000 287.297
44.89000 294.012
44.90000 298.000
44.91000 301.035
44.92000 302.578
44.93000 299.019
44.94000 295.036
44.95000 295.910
44.96000 307.953
44.97000 320.439
44.98000 328.047
44.99000 337.214
45.00000 343.777
45.01000 348.672
45.02000 351.896
45.03000 355.084
45.04000 354.946
45.05000 352.649
45.06000 350.414
45.07000 358.030
45.08000 369.365
45.09000 379.932
45.10000 381.269
45.11000 379.902
45.12000 379.001
45.13000 381.349
45.14000 384.321
45.15000 386.794
45.16000 382.844
45.17000 378.941
45.18000 375.143
45.19000 371.657
45.20000 368.191
45.21000 363.502
45.22000 356.384
45.23000 349.200
45.24000 345.104
45.25000 335.444
45.26000 328.698
45.27000 327.244
45.28000 330.266
45.29000 333.209
45.30000 332.144
45.31000 328.843
45.32000 325.666
45.33000 315.382
45.34000 303.230
45.35000 292.025
45.36000 289.967
45.37000 290.210
45.38000 290.145
45.39000 288.287
45.40000 286.137
45.41000 284.405
45.42000 276.833
45.43000 270.225
45.44000 264.361
45.45000 260.388
45.46000 256.509
45.47000 252.882
45.48000 249.688
45.49000 246.501
45.50000 244.814
45.51000 244.271
45.52000 243.900
45.53000 243.103
45.54000 241.999
45.55000 240.820
45.56000 237.212
45.57000 232.434
45.58000 227.898
45.59000 231.547
45.60000 237.365
45.61000 243.029
45.62000 247.467
45.63000 251.642
45.64000 253.596
45.65000 244.575
45.66000 234.068
45.67000 225.890
45.68000 222.901
45.69000 220.841
45.70000 218.807
45.71000 216.831
45.72000 214.856
45.73000 215.010
45.74000 218.289
45.75000 221.595
45.76000 222.594
45.77000 221.410
45.78000 220.230
45.79000 219.461
45.80000 218.946
45.81000 218.266
45.82000 213.862
45.83000 207.911
45.84000 202.348
45.85000 201.037
45.86000 200.923
45.87000 201.691
45.88000 208.253
45.89000 215.872
45.90000 220.907
45.91000 215.055
45.92000 207.989
45.93000 202.699
45.94000 203.893
45.95000 205.128
45.96000 206.343
45.97000 207.522
45.98000 208.699
45.99000 207.380
46.00000 202.928
46.01000 198.474
46.02000 195.065
46.03000 192.508
46.04000 190.041
46.05000 191.512
46.06000 195.077
46.07000 198.278
46.08000 195.313
46.09000 190.138
46.10000 185.386
46.11000 193.945
46.12000 204.419
46.13000 212.842
46.14000 209.912
46.15000 205.243
46.16000 201.724
46.17000 202.361
46.18000 203.373
46.19000 204.099
46.20000 200.045
46.21000 196.784
46.22000 196.683
46.23000 201.730
46.24000 206.851
46.25000 207.013
46.26000 201.899
46.27000 196.809
46.28000 196.574
46.29000 199.634
46.30000 202.600
46.31000 202.879
46.32000 201.923
46.33000 201.165
46.34000 202.986
46.35000 205.605
46.36000 207.962
46.37000 205.952
46.38000 203.411
46.39000 202.812
46.40000 211.333
46.41000 221.016
46.42000 225.436
46.43000 213.506
46.44000 200.407
46.45000 191.455
46.46000 196.007
46.47000 199.732
46.48000 201.319
46.49000 199.919
46.50000 198.499
46.51000 198.378
46.52000 199.422
46.53000 200.455
46.54000 198.686
46.55000 195.341
46.56000 192.251
46.57000 194.437
46.58000 198.713
46.59000 202.641
46.60000 202.943
46.61000 202.281
46.62000 201.698
46.63000 196.399
46.64000 191.138
46.65000 187.377
46.66000 189.621
46.67000 192.492
46.68000 196.101
46.69000 201.682
46.70000 207.371
46.71000 211.059
46.72000 206.182
46.73000 202.485
46.74000 199.205
46.75000 196.424
46.76000 193.648
46.77000 191.845
46.78000 190.783
46.79000 189.740
46.80000 190.955
46.81000 193.236
46.82000 195.450
46.83000 196.637
46.84000 197.472
46.85000 198.027
46.86000 196.197
46.87000 193.825
46.88000 191.792
46.89000 194.799
46.90000 197.955
46.91000 200.836
46.92000 202.774
46.93000 204.633
46.94000 205.029
46.95000 202.039
46.96000 198.914
46.97000 197.005
46.98000 190.149
46.99000 185.205
47.00000 185.452
47.01000 190.931
47.02000 196.350
47.03000 196.178
47.04000 192.355
47.05000 188.633
47.06000 189.925
47.07000 193.248
47.08000 196.472
47.09000 198.496
47.10000 200.165
47.11000 201.008
47.12000 196.040
47.13000 189.949
47.14000 184.873
47.15000 182.335
47.16000 180.484
47.17000 179.922
47.18000 183.179
47.19000 186.687
47.20000 189.421
47.21000 190.607
47.22000 191.750
47.23000 192.404
47.24000 188.865
47.25000 186.384
47.26000 186.796
47.27000 189.669
47.28000 192.479
47.29000 192.020
47.30000 189.726
47.31000 187.517
47.32000 186.142
47.33000 185.148
47.34000 184.154
47.35000 183.161
47.36000 182.169
47.37000 181.419
47.38000 182.099
47.39000 183.013
47.40000 183.751
47.41000 190.329
47.42000 196.140
47.43000 198.600
47.44000 192.496
47.45000 185.964
47.46000 182.050
47.47000 182.638
47.48000 183.304
47.49000 183.658
47.50000 184.035
47.51000 184.291
47.52000 184.416
47.53000 184.446
47.54000 184.472
47.55000 184.338
47.56000 184.127
47.57000 183.926
47.58000 189.005
47.59000 195.286
47.60000 200.463
47.61000 196.825
47.62000 191.282
47.63000 187.046
47.64000 189.309
47.65000 192.459
47.66000 194.914
47.67000 191.882
47.68000 189.124
47.69000 187.181
47.70000 187.037
47.71000 186.958
47.72000 186.392
47.73000 185.106
47.74000 183.813
47.75000 185.644
47.76000 190.453
47.77000 195.192
47.78000 194.632
47.79000 190.775
47.80000 186.934
47.81000 183.430
47.82000 180.069
47.83000 176.924
47.84000 178.145
47.85000 180.368
47.86000 181.962
47.87000 179.389
47.88000 176.053
47.89000 172.836
47.90000 170.128
47.91000 167.477
47.92000 165.490
47.93000 172.075
47.94000 177.623
47.95000 183.610
47.96000 190.431
47.97000 197.272
47.98000 199.031
47.99000 194.372
48.00000 189.699
48.01000 183.583
48.02000 176.329
48.03000 169.263
48.04000 170.412
48.05000 175.958
48.06000 181.511
48.07000 187.193
48.08000 192.921
48.09000 198.185
48.10000 195.911
48.11000 192.262
48.12000 188.784
48.13000 186.257
48.14000 183.878
48.15000 181.426
48.16000 178.710
48.17000 175.970
48.18000 174.003
48.19000 184.420
48.20000 192.818
48.21000 196.700
48.22000 193.176
48.23000 189.545
48.24000 186.326
48.25000 183.547
48.26000 180.781
48.27000 178.165
48.28000 175.681
48.29000 173.317
48.30000 174.450
48.31000 177.197
48.32000 179.914
48.33000 182.226
48.34000 184.412
48.35000 186.381
48.36000 185.292
48.37000 183.787
48.38000 182.400
48.39000 181.572
48.40000 180.816
48.41000 180.746
48.42000 182.821
48.43000 185.050
48.44000 186.576
48.45000 179.254
48.46000 173.558
48.47000 170.567
48.48000 171.378
48.49000 172.215
48.50000 172.343
48.51000 171.829
48.52000 171.320
48.53000 172.757
48.54000 175.292
48.55000 177.785
48.56000 179.419
48.57000 180.709
48.58000 181.943
48.59000 182.586
48.60000 183.072
48.61000 183.499
48.62000 184.664
48.63000 185.777
48.64000 185.917
48.65000 182.130
48.66000 177.928
48.67000 175.072
48.68000 175.841
48.69000 176.811
48.70000 177.442
48.71000 173.120
48.72000 169.878
48.73000 171.125
48.74000 177.757
48.75000 184.373
48.76000 184.923
48.77000 180.813
48.78000 176.774
48.79000 175.936
48.80000 176.706
48.81000 177.396
48.82000 176.831
48.83000 175.834
48.84000 174.856
48.85000 174.050
48.86000 173.283
48.87000 172.625
48.88000 170.751
48.89000 169.017
48.90000 169.308
48.91000 176.610
48.92000 184.507
48.93000 189.672
48.94000 188.479
48.95000 187.026
48.96000 186.137
48.97000 183.253
48.98000 181.171
48.99000 180.846
49.00000 182.305
49.01000 183.748
49.02000 183.678
49.03000 182.612
49.04000 181.575
49.05000 181.658
49.06000 182.207
49.07000 182.501
49.08000 179.652
49.09000 175.873
49.10000 172.662
49.11000 173.475
49.12000 175.072
49.13000 176.404
49.14000 175.065
49.15000 173.687
49.16000 172.317
49.17000 170.969
49.18000 169.623
49.19000 170.208
49.20000 174.672
49.21000 179.246
49.22000 181.869
49.23000 179.117
49.24000 177.175
49.25000 175.635
49.26000 174.440
49.27000 173.279
49.28000 173.935
49.29000 175.616
49.30000 177.235
49.31000 178.226
49.32000 178.933
49.33000 179.395
49.34000 177.454
49.35000 174.901
49.36000 172.485
49.37000 170.874
49.38000 169.396
49.39000 168.201
49.40000 175.124
49.41000 181.405
49.42000 185.017
49.43000 181.764
49.44000 178.165
49.45000 175.139
49.46000 173.105
49.47000 171.090
49.48000 170.016
49.49000 172.670
49.50000 174.442
49.51000 169.959
49.52000 160.907
49.53000 152.202
49.54000 155.076
49.55000 163.589
49.56000 171.679
49.57000 172.408
49.58000 170.850
49.59000 169.776
49.60000 172.598
49.61000 176.267
49.62000 178.872
49.63000 176.143
49.64000 172.680
49.65000 169.977
49.66000 177.500
49.67000 184.141
49.68000 187.144
49.69000 182.069
49.70000 176.699
49.71000 174.612
49.72000 177.404
49.73000 180.242
49.74000 178.076
49.75000 171.105
49.76000 164.218
49.77000 163.816
49.78000 167.472
49.79000 171.025
49.80000 172.185
49.81000 172.339
49.82000 172.484
49.83000 174.815
49.84000 177.495
49.85000 179.843
49.86000 179.979
49.87000 179.706
49.88000 179.158
49.89000 177.432
49.90000 175.573
49.91000 174.176
49.92000 178.506
49.93000 182.165
49.94000 183.890
49.95000 181.912
49.96000 179.842
49.97000 179.350
49.98000 180.864
49.99000 182.382
50.00000 180.649
50.01000 176.285
50.02000 171.987
50.03000 170.621
50.04000 170.834
50.05000 171.147
50.06000 173.200
50.07000 175.884
50.08000 178.353
50.09000 177.883
50.10000 176.828
50.11000 176.609
50.12000 181.084
50.13000 186.288
50.14000 189.533
50.15000 185.615
50.16000 181.039
50.17000 177.746
50.18000 168.283
50.19000 160.821
50.20000 158.859
50.21000 165.970
50.22000 173.216
50.23000 177.105
50.24000 177.374
50.25000 177.640
50.26000 177.692
50.27000 177.597
50.28000 177.592
50.29000 180.225
50.30000 184.083
50.31000 187.628
50.32000 186.983
50.33000 185.027
50.34000 183.264
50.35000 185.553
50.36000 188.295
50.37000 191.178
50.38000 194.733
50.39000 198.374
50.40000 201.819
50.41000 204.650
50.42000 207.437
50.43000 209.349
50.44000 207.824
50.45000 206.597
50.46000 206.419
50.47000 207.727
50.48000 209.047
50.49000 212.548
50.50000 218.035
50.51000 223.468
50.52000 225.207
50.53000 224.753
50.54000 224.463
50.55000 227.646
50.56000 232.223
50.57000 236.402
50.58000 236.359
50.59000 235.180
50.60000 234.141
50.61000 245.470
50.62000 257.098
50.63000 267.150
50.64000 270.808
50.65000 273.787
50.66000 276.320
50.67000 277.646
50.68000 278.905
50.69000 279.724
50.70000 280.375
50.71000 280.849
50.72000 282.581
50.73000 285.830
50.74000 289.068
50.75000 288.576
50.76000 285.200
50.77000 281.881
50.78000 278.704
50.79000 275.701
50.80000 272.866
50.81000 272.678
50.82000 273.407
50.83000 273.606
50.84000 269.243
50.85000 263.828
50.86000 259.177
50.87000 249.967
50.88000 241.612
50.89000 235.385
50.90000 236.571
50.91000 238.391
50.92000 238.605
50.93000 235.060
50.94000 231.359
50.95000 229.087
50.96000 221.941
50.97000 216.777
50.98000 213.649
50.99000 212.599
51.00000 211.545
51.01000 210.048
51.02000 208.258
51.03000 206.513
51.04000 203.036
51.05000 198.988
51.06000 195.193
51.07000 194.528
51.08000 194.797
51.09000 195.018
51.10000 194.893
51.11000 194.701
51.12000 194.540
51.13000 192.363
51.14000 190.352
51.15000 187.822
51.16000 183.737
51.17000 179.548
51.18000 176.388
51.19000 175.308
51.20000 174.287
51.21000 173.700
51.22000 170.226
51.23000 167.784
51.24000 164.252
51.25000 159.780
51.26000 155.472
51.27000 159.878
51.28000 169.238
51.29000 178.256
51.30000 176.272
51.31000 170.451
51.32000 164.868
51.33000 161.635
51.34000 159.004
51.35000 157.477
51.36000 162.536
51.37000 168.685
51.38000 173.662
51.39000 177.735
51.40000 180.978
51.41000 181.076
51.42000 173.043
51.43000 164.594
51.44000 160.307
51.45000 163.269
51.46000 166.362
51.47000 168.014
51.48000 163.885
51.49000 161.072
51.50000 159.304
51.51000 158.303
51.52000 157.321
51.53000 156.948
51.54000 156.874
51.55000 156.803
51.56000 159.516
51.57000 162.876
51.58000 165.814
51.59000 165.336
51.60000 164.111
51.61000 163.038
51.62000 162.734
51.63000 162.537
51.64000 162.383
51.65000 160.577
51.66000 159.031
51.67000 157.917
51.68000 157.770
51.69000 157.658
51.70000 157.909
51.71000 158.702
51.72000 159.500
51.73000 158.484
51.74000 155.716
51.75000 152.995
51.76000 154.064
51.77000 157.518
51.78000 160.818
51.79000 160.485
51.80000 158.615
51.81000 156.864
51.82000 162.594
51.83000 169.739
51.84000 175.893
51.85000 175.385
51.86000 173.638
51.87000 171.318
51.88000 166.534
51.89000 161.468
51.90000 157.657
51.91000 158.402
51.92000 159.205
51.93000 159.663
51.94000 159.457
51.95000 159.233
51.96000 160.289
51.97000 162.981
51.98000 165.676
51.99000 164.639
52.00000 160.560
52.01000 156.597
52.02000 157.953
52.03000 162.191
52.04000 166.206
52.05000 166.344
52.06000 165.065
52.07000 163.889
52.08000 160.218
52.09000 156.393
52.10000 153.609
52.11000 156.706
52.12000 160.723
52.13000 164.626
52.14000 168.110
52.15000 171.555
52.16000 174.038
52.17000 166.826
52.18000 160.954
52.19000 156.719
52.20000 155.198
52.21000 153.719
52.22000 152.756
52.23000 152.356
52.24000 151.958
52.25000 154.000
52.26000 157.707
52.27000 161.224
52.28000 159.035
52.29000 154.180
52.30000 149.624
52.31000 149.083
52.32000 149.806
52.33000 150.458
52.34000 156.820
52.35000 163.449
52.36000 167.998
52.37000 162.596
52.38000 155.896
52.39000 151.173
52.40000 152.703
52.41000 154.693
52.42000 156.062
52.43000 159.224
52.44000 161.640
52.45000 161.518
52.46000 157.780
52.47000 154.017
52.48000 152.608
52.49000 153.355
52.50000 154.095
52.51000 155.864
52.52000 158.202
52.53000 160.447
52.54000 160.695
52.55000 160.139
52.56000 159.594
52.57000 159.178
52.58000 158.798
52.59000 158.462
52.60000 160.660
52.61000 162.940
52.62000 164.168
52.63000 161.103
52.64000 157.578
52.65000 155.241
52.66000 156.147
52.67000 157.236
52.68000 157.947
52.69000 160.921
52.70000 163.139
52.71000 162.121
52.72000 157.171
52.73000 152.228
52.74000 151.357
52.75000 153.654
52.76000 155.914
52.77000 156.071
52.78000 155.171
52.79000 154.595
52.80000 159.204
52.81000 165.618
52.82000 170.817
52.83000 165.463
52.84000 157.661
52.85000 150.951
52.86000 147.067
52.87000 144.133
52.88000 142.361
52.89000 144.657
52.90000 147.305
52.91000 149.875
52.92000 152.261
52.93000 154.640
52.94000 156.105
52.95000 153.130
52.96000 150.957
52.97000 152.267
52.98000 157.160
52.99000 162.027
53.00000 164.239
53.01000 164.683
53.02000 165.116
53.03000 163.621
53.04000 161.373
53.05000 159.210
53.06000 158.105
53.07000 157.318
53.08000 156.183
53.09000 152.543
53.10000 148.409
53.11000 144.952
53.12000 150.078
53.13000 155.210
53.14000 159.187
53.15000 159.676
53.16000 159.929
53.17000 158.709
53.18000 154.498
53.19000 150.200
53.20000 147.722
53.21000 152.714
53.22000 156.236
53.23000 156.976
53.24000 155.301
53.25000 153.644
53.26000 153.046
53.27000 153.051
53.28000 153.056
53.29000 158.065
53.30000 164.586
53.31000 170.457
53.32000 169.833
53.33000 167.534
53.34000 165.385
53.35000 164.136
53.36000 163.038
53.37000 162.147
53.38000 168.938
53.39000 175.097
53.40000 177.246
53.41000 168.958
53.42000 160.131
53.43000 153.958
53.44000 152.437
53.45000 151.002
53.46000 150.233
53.47000 150.310
53.48000 150.384
53.49000 154.267
53.50000 160.967
53.51000 167.523
53.52000 169.124
53.53000 168.283
53.54000 167.483
53.55000 164.927
53.56000 162.021
53.57000 159.136
53.58000 156.421
53.59000 153.742
53.60000 151.855
53.61000 153.986
53.62000 156.678
53.63000 158.786
53.64000 155.557
53.65000 152.636
53.66000 150.587
53.67000 150.497
53.68000 150.480
53.69000 151.087
53.70000 152.632
53.71000 154.186
53.72000 153.086
53.73000 149.401
53.74000 145.786
53.75000 147.755
53.76000 153.262
53.77000 158.580
53.78000 159.377
53.79000 158.251
53.80000 157.196
53.81000 157.799
53.82000 158.780
53.83000 159.992
53.84000 162.774
53.85000 165.849
53.86000 166.879
53.87000 159.070
53.88000 150.243
53.89000 143.592
53.90000 144.793
53.91000 146.117
53.92000 147.134
53.93000 147.557
53.94000 147.964
53.95000 149.112
53.96000 151.215
53.97000 153.319
53.98000 152.980
53.99000 150.636
54.00000 148.355
54.01000 149.042
54.02000 151.347
54.03000 153.595
54.04000 154.829
54.05000 155.691
54.06000 156.485
54.07000 156.304
54.08000 155.927
54.09000 155.293
54.10000 153.194
54.11000 150.863
54.12000 149.735
54.13000 153.058
54.14000 156.797
54.15000 159.497
54.16000 155.266
54.17000 151.772
54.18000 149.904
54.19000 150.752
54.20000 151.642
54.21000 152.521
54.22000 153.386
54.23000 154.248
54.24000 155.563
54.25000 157.182
54.26000 158.667
54.27000 156.087
54.28000 151.596
54.29000 147.640
54.30000 150.982
54.31000 156.634
54.32000 161.736
54.33000 164.030
54.34000 165.528
54.35000 165.991
54.36000 161.462
54.37000 156.277
54.38000 152.188
54.39000 151.589
54.40000 151.249
54.41000 151.015
54.42000 153.279
54.43000 155.042
54.44000 155.223
54.45000 153.137
54.46000 151.035
54.47000 150.642
54.48000 151.824
54.49000 152.996
54.50000 151.603
54.51000 148.722
54.52000 146.004
54.53000 146.808
54.54000 149.041
54.55000 151.340
54.56000 154.357
54.57000 157.570
54.58000 160.407
54.59000 157.557
54.60000 154.226
54.61000 150.531
54.62000 145.340
54.63000 139.987
54.64000 137.463
54.65000 142.702
54.66000 148.386
54.67000 152.103
54.68000 154.673
54.69000 156.543
54.70000 158.113
54.71000 159.318
54.72000 160.513
54.73000 159.107
54.74000 155.664
54.75000 152.276
54.76000 151.410
54.77000 151.839
54.78000 152.417
54.79000 155.409
54.80000 159.247
54.81000 162.216
54.82000 157.580
54.83000 151.170
54.84000 145.651
54.85000 147.443
54.86000 149.883
54.87000 151.871
54.88000 152.266
54.89000 152.522
54.90000 152.950
54.91000 153.785
54.92000 154.636
54.93000 155.162
54.94000 151.538
54.95000 148.897
54.96000 148.173
54.97000 149.433
54.98000 150.698
54.99000 152.423
55.00000 154.456
55.01000 156.438
55.02000 157.300
55.03000 157.645
55.04000 157.746
55.05000 154.786
55.06000 150.900
55.07000 147.522
55.08000 147.816
55.09000 148.838
55.10000 149.695
55.11000 152.686
55.12000 155.391
55.13000 157.417
55.14000 157.381
55.15000 157.204
55.16000 156.237
55.17000 153.654
55.18000 151.024
55.19000 149.503
55.20000 152.318
55.21000 154.308
55.22000 155.481
55.23000 155.939
55.24000 156.466
55.25000 160.892
55.26000 167.560
55.27000 173.992
55.28000 172.821
55.29000 168.949
55.30000 165.516
55.31000 166.512
55.32000 168.655
55.33000 170.339
55.34000 169.241
55.35000 167.677
55.36000 166.408
55.37000 173.192
55.38000 179.387
55.39000 181.600
55.40000 173.390
55.41000 164.634
55.42000 159.140
55.43000 159.395
55.44000 159.758
55.45000 159.954
55.46000 173.415
55.47000 182.591
55.48000 185.308
55.49000 183.220
55.50000 181.251
55.51000 183.466
55.52000 187.757
55.53000 191.842
55.54000 192.023
55.55000 190.982
55.56000 190.976
55.57000 199.487
55.58000 209.886
55.59000 219.045
55.60000 221.870
55.61000 223.804
55.62000 225.320
55.63000 232.062
55.64000 237.790
55.65000 244.038
55.66000 251.462
55.67000 258.931
55.68000 267.750
55.69000 278.613
55.70000 289.497
55.71000 302.853
55.72000 318.632
55.73000 334.389
55.74000 348.425
55.75000 361.362
55.76000 374.185
55.77000 384.219
55.78000 393.061
55.79000 401.353
55.80000 420.012
55.81000 439.723
55.82000 459.039
55.83000 475.661
55.84000 491.776
55.85000 508.932
55.86000 530.610
55.87000 552.814
55.88000 569.572
55.89000 585.738
55.90000 598.375
55.91000 610.876
55.92000 623.111
55.93000 635.340
55.94000 646.036
55.95000 654.745
55.96000 663.435
55.97000 658.492
55.98000 642.285
55.99000 626.533
56.00000 632.328
56.01000 649.936
56.02000 665.662
56.03000 647.682
56.04000 617.251
56.05000 589.205
56.06000 583.715
56.07000 583.785
56.08000 582.375
56.09000 572.491
56.10000 561.261
56.11000 547.214
56.12000 522.678
56.13000 497.151
56.14000 478.683
56.15000 466.565
56.16000 457.495
56.17000 448.116
56.18000 438.216
56.19000 428.308
56.20000 415.386
56.21000 399.147
56.22000 382.974
56.23000 362.367
56.24000 338.858
56.25000 315.588
56.26000 299.721
56.27000 287.353
56.28000 275.567
56.29000 271.798
56.30000 270.582
56.31000 269.483
56.32000 262.819
56.33000 255.927
56.34000 249.034
56.35000 242.140
56.36000 235.246
56.37000 228.112
56.38000 220.210
56.39000 212.250
56.40000 206.755
56.41000 194.413
56.42000 184.962
56.43000 179.645
56.44000 180.288
56.45000 180.978
56.46000 180.313
56.47000 178.390
56.48000 176.485
56.49000 175.920
56.50000 176.163
56.51000 176.370
56.52000 175.773
56.53000 174.848
56.54000 173.894
56.55000 172.617
56.56000 171.252
56.57000 170.046
56.58000 168.372
56.59000 166.854
56.60000 165.453
56.61000 164.535
56.62000 163.671
56.63000 162.146
56.64000 158.802
56.65000 155.352
56.66000 153.091
56.67000 156.086
56.68000 158.374
56.69000 158.850
56.70000 157.094
56.71000 155.339
56.72000 155.522
56.73000 157.231
56.74000 158.914
56.75000 157.928
56.76000 155.621
56.77000 153.196
56.78000 148.835
56.79000 143.793
56.80000 139.593
56.81000 142.839
56.82000 147.832
56.83000 152.136
56.84000 150.865
56.85000 149.079
56.86000 146.997
56.87000 143.869
56.88000 140.648
56.89000 140.490
56.90000 147.630
56.91000 155.084
56.92000 159.694
56.93000 158.554
56.94000 157.679
56.95000 155.608
56.96000 152.289
56.97000 148.968
56.98000 145.499
56.99000 141.931
57.00000 138.449
57.01000 139.212
57.02000 141.771
57.03000 144.092
57.04000 143.385
57.05000 141.758
57.06000 140.321
57.07000 140.266
57.08000 140.488
57.09000 140.674
57.10000 140.665
57.11000 140.638
57.12000 141.454
57.13000 144.844
57.14000 148.414
57.15000 150.764
57.16000 150.605
57.17000 150.371
57.18000 150.235
57.19000 151.185
57.20000 151.854
57.21000 151.129
57.22000 149.176
57.23000 147.245
57.24000 146.519
57.25000 146.491
57.26000 146.463
57.27000 142.512
57.28000 137.353
57.29000 132.839
57.30000 134.883
57.31000 138.639
57.32000 142.198
57.33000 144.557
57.34000 146.713
57.35000 148.465
57.36000 145.940
57.37000 143.525
57.38000 141.933
57.39000 142.511
57.40000 143.204
57.41000 143.288
57.42000 142.296
57.43000 141.282
57.44000 140.736
57.45000 138.065
57.46000 136.252
57.47000 137.628
57.48000 141.393
57.49000 145.064
57.50000 145.384
57.51000 144.033
57.52000 142.746
57.53000 141.947
57.54000 141.359
57.55000 140.721
57.56000 139.672
57.57000 138.530
57.58000 137.477
57.59000 136.877
57.60000 136.342
57.61000 135.922
57.62000 139.945
57.63000 143.455
57.64000 145.861
57.65000 145.760
57.66000 145.562
57.67000 146.168
57.68000 147.999
57.69000 149.843
57.70000 148.549
57.71000 144.157
57.72000 139.850
57.73000 142.779
57.74000 150.350
57.75000 157.548
57.76000 155.548
57.77000 149.589
57.78000 143.998
57.79000 143.486
57.80000 144.358
57.81000 145.268
57.82000 146.428
57.83000 147.636
57.84000 148.197
57.85000 145.928
57.86000 143.327
57.87000 141.361
57.88000 138.205
57.89000 135.671
57.90000 135.330
57.91000 139.290
57.92000 143.365
57.93000 145.077
57.94000 143.711
57.95000 142.333
57.96000 142.306
57.97000 143.405
57.98000 144.475
57.99000 144.148
58.00000 143.051
58.01000 142.039
58.02000 142.587
58.03000 143.715
58.04000 144.754
58.05000 140.644
58.06000 135.815
58.07000 131.841
58.08000 132.793
58.09000 134.534
58.10000 136.182
58.11000 137.478
58.12000 138.741
58.13000 139.657
58.14000 145.246
58.15000 149.712
58.16000 151.577
58.17000 149.045
58.18000 146.442
58.19000 143.357
58.20000 139.738
58.21000 136.133
58.22000 135.577
58.23000 137.177
58.24000 138.712
58.25000 138.205
58.26000 136.727
58.27000 135.316
58.28000 134.849
58.29000 134.685
58.30000 134.536
58.31000 132.400
58.32000 130.149
58.33000 128.801
58.34000 131.863
58.35000 135.513
58.36000 137.658
58.37000 134.957
58.38000 131.889
58.39000 129.766
58.40000 133.693
58.41000 136.803
58.42000 138.348
58.43000 137.624
58.44000 136.880
58.45000 137.697
58.46000 139.971
58.47000 142.226
58.48000 138.995
58.49000 132.539
58.50000 126.376
58.51000 126.685
58.52000 129.652
58.53000 132.394
58.54000 132.664
58.55000 132.251
58.56000 131.887
58.57000 130.101
58.58000 128.336
58.59000 127.838
58.60000 132.608
58.61000 137.957
58.62000 141.281
58.63000 138.983
58.64000 136.355
58.65000 134.629
58.66000 136.700
58.67000 138.289
58.68000 138.831
58.69000 138.079
58.70000 137.322
58.71000 136.457
58.72000 135.506
58.73000 134.570
58.74000 132.259
58.75000 129.320
58.76000 126.550
58.77000 126.582
58.78000 127.609
58.79000 128.553
58.80000 128.762
58.81000 128.796
58.82000 128.826
58.83000 129.098
58.84000 129.359
58.85000 129.157
58.86000 127.304
58.87000 125.304
58.88000 124.197
58.89000 125.228
58.90000 126.352
58.91000 127.049
58.92000 131.031
58.93000 133.927
58.94000 131.675
58.95000 124.015
58.96000 116.456
58.97000 120.129
58.98000 131.416
58.99000 142.431
59.00000 145.729
59.01000 145.534
59.02000 145.390
59.03000 145.895
59.04000 146.599
59.05000 146.688
59.06000 142.257
59.07000 136.915
59.08000 132.433
59.09000 132.569
59.10000 133.165
59.11000 133.390
59.12000 132.474
59.13000 131.477
59.14000 132.799
59.15000 138.918
59.16000 145.184
59.17000 148.828
59.18000 138.066
59.19000 130.447
59.20000 125.717
59.21000 123.549
59.22000 121.448
59.23000 123.272
59.24000 127.381
59.25000 131.348
59.26000 131.622
59.27000 130.517
59.28000 129.504
59.29000 129.426
59.30000 129.595
59.31000 129.937
59.32000 131.348
59.33000 132.940
59.34000 134.236
59.35000 133.969
59.36000 133.620
59.37000 134.923
59.38000 140.603
59.39000 146.517
59.40000 149.306
59.41000 146.520
59.42000 143.624
59.43000 142.057
59.44000 136.437
59.45000 132.596
59.46000 131.101
59.47000 131.375
59.48000 131.643
59.49000 131.716
59.50000 131.691
59.51000 131.667
59.52000 135.228
59.53000 139.654
59.54000 143.320
59.55000 140.629
59.56000 136.510
59.57000 132.725
59.58000 130.668
59.59000 128.858
59.60000 127.435
59.61000 129.004
59.62000 130.459
59.63000 131.216
59.64000 130.380
59.65000 129.482
59.66000 130.303
59.67000 133.764
59.68000 137.253
59.69000 139.592
59.70000 140.788
59.71000 141.964
59.72000 141.464
59.73000 139.881
59.74000 138.265
59.75000 135.838
59.76000 133.060
59.77000 130.451
59.78000 127.428
59.79000 124.560
59.80000 122.603
59.81000 126.953
59.82000 132.507
59.83000 137.155
59.84000 137.817
59.85000 138.008
59.86000 138.152
59.87000 141.062
59.88000 143.485
59.89000 143.489
59.90000 138.720
59.91000 133.822
59.92000 130.745
59.93000 130.057
59.94000 129.381
59.95000 130.387
59.96000 132.801
59.97000 135.196
59.98000 136.684
59.99000 137.670
60.00000 138.581
60.01000 138.117
60.02000 137.138
60.03000 136.235
60.04000 134.301
60.05000 132.336
60.06000 131.295
60.07000 135.614
60.08000 140.798
60.09000 144.356
60.10000 141.786
60.11000 138.627
60.12000 136.333
60.13000 140.346
60.14000 143.667
60.15000 144.689
60.16000 141.801
60.17000 138.849
60.18000 136.856
60.19000 135.935
60.20000 135.018
60.21000 133.984
60.22000 132.875
60.23000 131.887
60.24000 134.745
60.25000 139.443
60.26000 143.644
60.27000 140.865
60.28000 135.836
60.29000 131.284
60.30000 126.248
60.31000 121.722
60.32000 119.590
60.33000 129.219
60.34000 140.429
60.35000 147.175
60.36000 139.451
60.37000 130.619
60.38000 124.498
60.39000 130.135
60.40000 134.688
60.41000 136.005
60.42000 132.597
60.43000 129.148
60.44000 126.712
60.45000 125.229
60.46000 123.758
60.47000 124.345
60.48000 126.161
60.49000 127.957
60.50000 129.293
60.51000 130.439
60.52000 131.595
60.53000 132.860
60.54000 134.156
60.55000 135.303
60.56000 133.250
60.57000 130.973
60.58000 129.640
60.59000 132.262
60.60000 135.321
60.61000 136.780
60.62000 133.768
60.63000 130.492
60.64000 128.335
60.65000 130.218
60.66000 131.675
60.67000 132.594
60.68000 132.841
60.69000 133.087
60.70000 133.521
60.71000 134.105
60.72000 134.680
60.73000 135.796
60.74000 137.156
60.75000 138.346
60.76000 136.690
60.77000 134.020
60.78000 131.755
60.79000 133.127
60.80000 135.365
60.81000 137.298
60.82000 130.228
60.83000 123.062
60.84000 118.578
60.85000 123.722
60.86000 129.729
60.87000 133.776
60.88000 133.098
60.89000 132.212
60.90000 131.661
60.91000 130.664
60.92000 129.941
60.93000 129.851
60.94000 130.431
60.95000 131.014
60.96000 132.075
60.97000 133.461
60.98000 134.815
60.99000 135.857
61.00000 136.719
61.01000 137.494
61.02000 137.141
61.03000 136.440
61.04000 135.601
61.05000 133.732
61.06000 131.654
61.07000 129.908
61.08000 129.602
61.09000 129.498
61.10000 129.549
61.11000 130.078
61.12000 130.641
61.13000 131.578
61.14000 133.294
61.15000 135.034
61.16000 136.049
61.17000 138.572
61.18000 140.352
61.19000 141.487
61.20000 142.047
61.21000 142.548
61.22000 139.574
61.23000 134.566
61.24000 129.729
61.25000 128.142
61.26000 127.855
61.27000 128.088
61.28000 133.696
61.29000 140.725
61.30000 146.221
61.31000 142.253
61.32000 136.661
61.33000 132.105
61.34000 131.377
61.35000 131.106
61.36000 131.633
61.37000 134.286
61.38000 137.055
61.39000 138.960
61.40000 139.315
61.41000 139.640
61.42000 139.816
61.43000 138.184
61.44000 137.069
61.45000 137.226
61.46000 138.349
61.47000 139.540
61.48000 143.269
61.49000 148.279
61.50000 153.057
61.51000 161.709
61.52000 170.961
61.53000 180.575
61.54000 193.248
61.55000 206.613
61.56000 219.981
61.57000 233.368
61.58000 246.758
61.59000 257.303
61.60000 272.878
61.61000 285.695
61.62000 296.752
61.63000 303.760
61.64000 310.607
61.65000 315.229
61.66000 316.418
61.67000 317.568
61.68000 318.143
61.69000 323.801
61.70000 327.510
61.71000 325.485
61.72000 319.736
61.73000 314.036
61.74000 309.596
61.75000 305.704
61.76000 302.047
61.77000 284.827
61.78000 265.486
61.79000 246.478
61.80000 229.792
61.81000 213.553
61.82000 198.240
61.83000 187.032
61.84000 176.313
61.85000 168.184
61.86000 166.106
61.87000 164.785
61.88000 163.462
61.89000 162.137
61.90000 160.812
61.91000 159.619
61.92000 158.599
61.93000 157.582
61.94000 153.555
61.95000 146.997
61.96000 140.518
61.97000 137.983
61.98000 137.649
61.99000 137.369
62.00000 138.074
62.01000 139.150
62.02000 140.144
62.03000 138.464
62.04000 136.354
62.05000 134.523
62.06000 134.323
62.07000 134.387
62.08000 135.083
62.09000 138.174
62.10000 141.498
62.11000 143.915
62.12000 143.846
62.13000 143.698
62.14000 144.075
62.15000 145.350
62.16000 146.640
62.17000 145.590
62.18000 141.909
62.19000 138.239
62.20000 139.960
62.21000 145.518
62.22000 150.860
62.23000 149.164
62.24000 144.081
62.25000 139.328
62.26000 139.240
62.27000 140.665
62.28000 141.957
62.29000 141.116
62.30000 139.972
62.31000 139.684
62.32000 143.631
62.33000 148.151
62.34000 150.021
62.35000 143.250
62.36000 135.811
62.37000 130.645
62.38000 136.244
62.39000 140.752
62.40000 142.539
62.41000 140.328
62.42000 138.083
62.43000 137.136
62.44000 137.419
62.45000 137.700
62.46000 139.448
62.47000 142.055
62.48000 144.578
62.49000 145.195
62.50000 145.020
62.51000 144.952
62.52000 146.076
62.53000 147.533
62.54000 148.825
62.55000 144.123
62.56000 139.109
62.57000 135.009
62.58000 134.765
62.59000 134.951
62.60000 134.665
62.61000 133.050
62.62000 131.355
62.63000 130.236
62.64000 135.621
62.65000 139.705
62.66000 141.695
62.67000 141.057
62.68000 140.419
62.69000 143.097
62.70000 148.438
62.71000 153.700
62.72000 151.422
62.73000 145.319
62.74000 139.597
62.75000 140.321
62.76000 143.357
62.77000 145.968
62.78000 144.724
62.79000 142.559
62.80000 140.686
62.81000 137.966
62.82000 135.544
62.83000 134.053
62.84000 135.922
62.85000 138.095
62.86000 139.523
62.87000 139.144
62.88000 138.683
62.89000 138.397
62.90000 140.126
62.91000 141.393
62.92000 143.779
62.93000 147.356
62.94000 150.918
62.95000 152.543
62.96000 152.838
62.97000 153.127
62.98000 150.868
62.99000 147.587
63.00000 144.549
63.01000 144.709
63.02000 145.859
63.03000 146.504
63.04000 143.396
63.05000 139.521
63.06000 136.263
63.07000 139.464
63.08000 142.820
63.09000 145.765
63.10000 147.428
63.11000 149.000
63.12000 148.830
63.13000 145.012
63.14000 141.079
63.15000 138.780
63.16000 144.187
63.17000 148.027
63.18000 150.510
63.19000 151.774
63.20000 153.028
63.21000 153.704
63.22000 154.041
63.23000 154.365
63.24000 155.074
63.25000 155.886
63.26000 156.398
63.27000 153.782
63.28000 150.335
63.29000 147.325
63.30000 147.038
63.31000 147.220
63.32000 147.369
63.33000 149.464
63.34000 151.345
63.35000 151.316
63.36000 146.167
63.37000 140.738
63.38000 138.642
63.39000 142.565
63.40000 146.612
63.41000 148.815
63.42000 147.687
63.43000 146.918
63.44000 148.464
63.45000 151.775
63.46000 154.945
63.47000 152.814
63.48000 147.994
63.49000 143.393
63.50000 142.561
63.51000 142.986
63.52000 144.104
63.53000 151.109
63.54000 159.452
63.55000 165.365
63.56000 158.522
63.57000 149.833
63.58000 142.980
63.59000 141.510
63.60000 140.694
63.61000 141.555
63.62000 146.296
63.63000 151.193
63.64000 153.809
63.65000 152.883
63.66000 151.915
63.67000 151.430
63.68000 154.185
63.69000 155.991
63.70000 154.795
63.71000 151.637
63.72000 148.685
63.73000 150.999
63.74000 155.620
63.75000 159.965
63.76000 157.037
63.77000 152.406
63.78000 148.283
63.79000 147.739
63.80000 147.886
63.81000 147.918
63.82000 147.432
63.83000 146.884
63.84000 146.467
63.85000 144.710
63.86000 143.260
63.87000 143.393
63.88000 146.692
63.89000 150.079
63.90000 152.824
63.91000 154.716
63.92000 156.603
63.93000 155.944
63.94000 153.125
63.95000 150.389
63.96000 151.924
63.97000 155.860
63.98000 159.652
63.99000 160.776
64.00000 160.891
64.01000 160.997
64.02000 157.334
64.03000 153.190
64.04000 149.898
64.05000 151.616
64.06000 154.153
64.07000 155.973
64.08000 155.055
64.09000 153.870
64.10000 153.006
64.11000 153.721
64.12000 154.333
64.13000 156.592
64.14000 161.687
64.15000 166.831
64.16000 167.092
64.17000 161.830
64.18000 156.582
64.19000 158.872
64.20000 166.569
64.21000 173.984
64.22000 172.128
64.23000 165.784
64.24000 159.962
64.25000 161.622
64.26000 165.725
64.27000 169.444
64.28000 166.546
64.29000 162.729
64.30000 158.861
64.31000 154.741
64.32000 150.586
64.33000 149.203
64.34000 156.913
64.35000 165.333
64.36000 171.192
64.37000 162.644
64.38000 155.806
64.39000 153.753
64.40000 158.776
64.41000 163.862
64.42000 167.117
64.43000 168.625
64.44000 170.120
64.45000 168.307
64.46000 164.506
64.47000 160.987
64.48000 163.991
64.49000 169.723
64.50000 174.831
64.51000 172.910
64.52000 169.014
64.53000 165.559
64.54000 171.044
64.55000 177.216
64.56000 182.381
64.57000 183.277
64.58000 183.692
64.59000 182.335
64.60000 175.972
64.61000 169.305
64.62000 164.897
64.63000 170.745
64.64000 175.244
64.65000 174.445
64.66000 166.953
64.67000 159.467
64.68000 162.067
64.69000 172.824
64.70000 183.424
64.71000 181.621
64.72000 173.424
64.73000 165.656
64.74000 165.232
64.75000 167.458
64.76000 170.080
64.77000 176.312
64.78000 183.414
64.79000 189.561
64.80000 183.620
64.81000 176.980
64.82000 172.113
64.83000 173.685
64.84000 175.844
64.85000 177.461
64.86000 177.754
64.87000 177.987
64.88000 178.133
64.89000 176.382
64.90000 175.100
64.91000 175.478
64.92000 177.636
64.93000 179.795
64.94000 181.923
64.95000 184.030
64.96000 186.089
64.97000 188.293
64.98000 190.469
64.99000 192.635
65.00000 194.669
65.01000 196.663
65.02000 198.292
65.03000 197.185
65.04000 195.515
65.05000 194.110
65.06000 196.409
65.07000 198.724
65.08000 201.429
65.09000 205.352
65.10000 209.363
65.11000 212.845
65.12000 215.215
65.13000 217.550
65.14000 218.918
65.15000 220.192
65.16000 221.088
65.17000 220.905
65.18000 219.748
65.19000 218.662
65.20000 222.023
65.21000 228.020
65.22000 233.818
65.23000 241.941
65.24000 250.482
65.25000 258.371
65.26000 259.405
65.27000 258.606
65.28000 258.628
65.29000 263.804
65.30000 269.876
65.31000 274.836
65.32000 276.032
65.33000 276.687
65.34000 279.069
65.35000 286.111
65.36000 293.411
65.37000 299.599
65.38000 303.767
65.39000 307.892
65.40000 310.144
65.41000 329.231
65.42000 342.333
65.43000 348.049
65.44000 348.089
65.45000 348.324
65.46000 355.993
65.47000 367.460
65.48000 378.408
65.49000 394.414
65.50000 410.902
65.51000 425.958
65.52000 428.745
65.53000 428.722
65.54000 431.627
65.55000 449.995
65.56000 470.618
65.57000 486.905
65.58000 483.271
65.59000 478.997
65.60000 479.837
65.61000 492.582
65.62000 505.814
65.63000 518.566
65.64000 530.569
65.65000 542.563
65.66000 548.605
65.67000 596.135
65.68000 627.964
65.69000 665.663
65.70000 707.222
65.71000 749.170
65.72000 801.220
65.73000 857.722
65.74000 910.881
65.75000 977.786
65.76000 1042.653
65.77000 1105.139
65.78000 1150.767
65.79000 1193.109
65.80000 1234.713
65.81000 1273.003
65.82000 1310.892
65.83000 1339.716
65.84000 1326.087
65.85000 1313.140
65.86000 1309.670
65.87000 1325.243
65.88000 1341.353
65.89000 1335.586
65.90000 1300.548
65.91000 1265.387
65.92000 1228.942
65.93000 1191.475
65.94000 1153.591
65.95000 1093.874
65.96000 1021.820
65.97000 949.861
65.98000 879.705
65.99000 810.235
66.00000 745.973
66.01000 676.069
66.02000 611.980
66.03000 550.877
66.04000 507.468
66.05000 466.970
66.06000 429.688
66.07000 404.757
66.08000 381.043
66.09000 363.734
66.10000 358.230
66.11000 354.448
66.12000 347.408
66.13000 334.725
66.14000 321.943
66.15000 316.915
66.16000 320.717
66.17000 324.515
66.18000 325.401
66.19000 324.170
66.20000 323.160
66.21000 329.541
66.22000 339.523
66.23000 349.226
66.24000 354.895
66.25000 359.240
66.26000 363.183
66.27000 373.818
66.28000 384.490
66.29000 394.766
66.30000 403.063
66.31000 411.087
66.32000 420.110
66.33000 432.429
66.34000 445.009
66.35000 453.779
66.36000 466.892
66.37000 476.909
66.38000 483.721
66.39000 485.767
66.40000 487.768
66.41000 488.581
66.42000 488.251
66.43000 487.923
66.44000 486.987
66.45000 485.694
66.46000 484.202
66.47000 478.067
66.48000 469.980
66.49000 462.246
66.50000 458.539
66.51000 455.970
66.52000 453.689
66.53000 428.842
66.54000 403.689
66.55000 382.438
66.56000 377.839
66.57000 375.131
66.58000 372.223
66.59000 368.749
66.60000 365.240
66.61000 362.916
66.62000 344.840
66.63000 331.203
66.64000 324.099
66.65000 325.300
66.66000 326.530
66.67000 327.380
66.68000 327.921
66.69000 328.455
66.70000 328.905
66.71000 329.297
66.72000 329.656
66.73000 329.434
66.74000 329.001
66.75000 328.958
66.76000 332.514
66.77000 336.942
66.78000 340.778
66.79000 331.074
66.80000 321.025
66.81000 314.414
66.82000 320.377
66.83000 327.498
66.84000 331.868
66.85000 329.486
66.86000 326.794
66.87000 325.109
66.88000 348.368
66.89000 365.428
66.90000 372.751
66.91000 369.562
66.92000 366.392
66.93000 366.102
66.94000 367.815
66.95000 369.488
66.96000 368.258
66.97000 365.786
66.98000 363.025
66.99000 356.401
67.00000 348.567
67.01000 341.896
67.02000 344.019
67.03000 347.961
67.04000 351.284
67.05000 352.368
67.06000 353.030
67.07000 355.523
67.08000 363.771
67.09000 372.439
67.10000 377.231
67.11000 373.808
67.12000 370.119
67.13000 367.950
67.14000 361.192
67.15000 356.408
67.16000 360.364
67.17000 372.278
67.18000 384.092
67.19000 389.613
67.20000 391.380
67.21000 393.090
67.22000 395.273
67.23000 397.514
67.24000 399.810
67.25000 402.684
67.26000 405.713
67.27000 408.326
67.28000 408.305
67.29000 407.824
67.30000 407.431
67.31000 408.866
67.32000 410.201
67.33000 409.682
67.34000 404.137
67.35000 398.309
67.36000 396.950
67.37000 403.759
67.38000 410.742
67.39000 414.566
67.40000 441.961
67.41000 460.767
67.42000 463.127
67.43000 452.769
67.44000 442.722
67.45000 444.738
67.46000 452.951
67.47000 460.797
67.48000 455.419
67.49000 446.162
67.50000 437.576
67.51000 434.780
67.52000 433.318
67.53000 432.824
67.54000 437.474
67.55000 442.879
67.56000 447.154
67.57000 452.300
67.58000 456.493
67.59000 460.148
67.60000 462.546
67.61000 464.891
67.62000 467.516
67.63000 470.581
67.64000 473.651
67.65000 475.203
67.66000 468.853
67.67000 464.625
67.68000 462.558
67.69000 461.920
67.70000 461.643
67.71000 470.879
67.72000 484.332
67.73000 496.998
67.74000 500.646
67.75000 501.521
67.76000 503.077
67.77000 509.487
67.78000 516.850
67.79000 522.175
67.80000 518.297
67.81000 513.296
67.82000 509.486
67.83000 517.758
67.84000 524.911
67.85000 530.890
67.86000 534.498
67.87000 538.037
67.88000 543.909
67.89000 552.919
67.90000 561.941
67.91000 566.983
67.92000 568.587
67.93000 570.191
67.94000 571.780
67.95000 573.362
67.96000 574.469
67.97000 566.486
67.98000 555.022
67.99000 544.410
68.00000 554.155
68.01000 567.605
68.02000 579.740
68.03000 584.026
68.04000 587.012
68.05000 590.543
68.06000 596.187
68.07000 602.041
68.08000 606.321
68.09000 606.075
68.10000 605.707
68.11000 609.266
68.12000 619.666
68.13000 630.190
68.14000 636.467
68.15000 637.876
68.16000 639.274
68.17000 646.263
68.18000 657.274
68.19000 668.081
68.20000 671.982
68.21000 672.498
68.22000 673.066
68.23000 674.396
68.24000 675.978
68.25000 677.414
68.26000 676.090
68.27000 674.386
68.28000 674.707
68.29000 685.234
68.30000 697.176
68.31000 706.726
68.32000 708.335
68.33000 709.312
68.34000 709.995
68.35000 734.165
68.36000 753.081
68.37000 763.286
68.38000 760.454
68.39000 757.495
68.40000 762.016
68.41000 773.772
68.42000 785.438
68.43000 791.553
68.44000 794.125
68.45000 797.184
68.46000 811.745
68.47000 831.171
68.48000 850.185
68.49000 864.462
68.50000 877.392
68.51000 888.882
68.52000 902.458
68.53000 914.570
68.54000 929.279
68.55000 955.141
68.56000 982.278
68.57000 1011.091
68.58000 1044.699
68.59000 1078.604
68.60000 1101.118
68.61000 1187.518
68.62000 1252.569
68.63000 1312.374
68.64000 1365.465
68.65000 1418.535
68.66000 1473.232
68.67000 1529.261
68.68000 1584.505
68.69000 1651.878
68.70000 1723.725
68.71000 1795.978
68.72000 1875.333
68.73000 1957.283
68.74000 2037.221
68.75000 2098.499
68.76000 2155.225
68.77000 2204.422
68.78000 2305.425
68.79000 2398.347
68.80000 2497.622
68.81000 2620.273
68.82000 2745.094
68.83000 2888.762
68.84000 3078.964
68.85000 3271.326
68.86000 3392.060
68.87000 3831.389
68.88000 4152.395
68.89000 4695.888
68.90000 5481.164
68.91000 6272.493
68.92000 7839.356
68.93000 9948.584
68.94000 12010.982
68.95000 15733.290
68.96000 20046.262
68.97000 24455.453
68.98000 30163.160
68.99000 36279.762
69.00000 42380.188
69.01000 48357.234
69.02000 54308.613
69.03000 59331.895
69.04000 64009.309
69.05000 67880.281
69.06000 71213.508
69.07000 72845.125
69.08000 74351.391
69.09000 75459.203
69.10000 75717.648
69.11000 75948.039
69.12000 76083.820
69.13000 76985.570
69.14000 77626.070
69.15000 78201.977
69.16000 78718.680
69.17000 79221.664
69.18000 78833.727
69.19000 77911.133
69.20000 77018.289
69.21000 74136.438
69.22000 70654.727
69.23000 67162.391
69.24000 63556.074
69.25000 59918.891
69.26000 56322.770
69.27000 52987.555
69.28000 49698.340
69.29000 47004.594
69.30000 44497.777
69.31000 42459.203
69.32000 40658.332
69.33000 39506.055
69.34000 38390.578
69.35000 37235.492
69.36000 36007.594
69.37000 34778.117
69.38000 34102.828
69.39000 30763.656
69.40000 28459.449
69.41000 25740.752
69.42000 22699.434
69.43000 19665.535
69.44000 16924.316
69.45000 14334.362
69.46000 11858.810
69.47000 9755.259
69.48000 7918.924
69.49000 6165.233
69.50000 5130.524
69.51000 4262.573
69.52000 3465.396
69.53000 3047.082
69.54000 2684.849
69.55000 2397.958
69.56000 2200.108
69.57000 2047.246
69.58000 1908.696
69.59000 1803.860
69.60000 1700.437
69.61000 1609.835
69.62000 1539.513
69.63000 1469.444
69.64000 1433.901
69.65000 1372.144
69.66000 1330.714
69.67000 1283.386
69.68000 1232.133
69.69000 1181.789
69.70000 1155.783
69.71000 1140.632
69.72000 1126.358
69.73000 1106.247
69.74000 1086.239
69.75000 1065.958
69.76000 1043.717
69.77000 1021.087
69.78000 996.154
69.79000 960.741
69.80000 924.042
69.81000 896.034
69.82000 901.335
69.83000 907.297
69.84000 903.847
69.85000 881.259
69.86000 858.113
69.87000 845.181
69.88000 846.091
69.89000 847.077
69.90000 837.680
69.91000 819.293
69.92000 801.067
69.93000 791.694
69.94000 787.383
69.95000 782.628
69.96000 769.261
69.97000 752.577
69.98000 737.122
69.99000 743.230
70.00000 753.727
