20.00000 559.615
20.01000 551.477
20.02000 542.177
20.03000 534.870
20.04000 535.299
20.05000 536.503
20.06000 537.384
20.07000 546.464
20.08000 553.799
20.09000 557.603
20.10000 555.223
20.11000 552.729
20.12000 547.369
20.13000 538.707
20.14000 530.068
20.15000 530.962
20.16000 538.838
20.17000 546.503
20.18000 546.875
20.19000 543.658
20.20000 540.715
20.21000 541.822
20.22000 544.273
20.23000 546.500
20.24000 547.016
20.25000 547.139
20.26000 546.864
20.27000 544.573
20.28000 542.000
20.29000 538.963
20.30000 534.382
20.31000 529.677
20.32000 526.385
20.33000 534.250
20.34000 540.511
20.35000 546.465
20.36000 551.955
20.37000 557.441
20.38000 559.386
20.39000 557.886
20.40000 556.398
20.41000 552.146
20.42000 546.245
20.43000 540.570
20.44000 540.286
20.45000 542.293
20.46000 544.002
20.47000 542.254
20.48000 539.519
20.49000 537.087
20.50000 541.387
20.51000 546.212
20.52000 550.604
20.53000 553.127
20.54000 555.435
20.55000 554.687
20.56000 545.155
20.57000 535.076
20.58000 528.371
20.59000 535.632
20.60000 541.266
20.61000 539.004
20.62000 526.583
20.63000 514.152
20.64000 514.168
20.65000 524.436
20.66000 534.562
20.67000 536.072
20.68000 532.980
20.69000 530.344
20.70000 535.753
20.71000 544.115
20.72000 551.037
20.73000 544.517
20.74000 534.703
20.75000 526.185
20.76000 529.647
20.77000 534.205
20.78000 538.578
20.79000 542.263
20.80000 545.883
20.81000 549.949
20.82000 555.116
20.83000 560.336
20.84000 563.618
20.85000 555.203
20.86000 548.985
20.87000 544.905
20.88000 543.160
20.89000 541.400
20.90000 537.557
20.91000 532.250
20.92000 527.059
20.93000 532.244
20.94000 541.893
20.95000 550.691
20.96000 547.922
20.97000 541.494
20.98000 535.769
20.99000 535.439
21.00000 536.238
21.01000 536.912
21.02000 536.629
21.03000 536.287
21.04000 536.214
21.05000 537.000
21.06000 537.849
21.07000 537.811
21.08000 535.871
21.09000 533.868
21.10000 532.685
21.11000 538.716
21.12000 543.014
21.13000 543.602
21.14000 540.773
21.15000 537.925
21.16000 533.845
21.17000 529.023
21.18000 524.354
21.19000 523.256
21.20000 523.587
21.21000 524.143
21.22000 527.132
21.23000 530.783
21.24000 534.396
21.25000 537.763
21.26000 541.087
21.27000 543.812
21.28000 540.335
21.29000 536.933
21.30000 533.659
21.31000 530.736
21.32000 527.833
21.33000 529.130
21.34000 538.189
21.35000 547.419
21.36000 552.500
21.37000 536.701
21.38000 525.823
21.39000 526.222
21.40000 535.444
21.41000 544.413
21.42000 543.230
21.43000 536.776
21.44000 530.605
21.45000 532.676
21.46000 537.290
21.47000 541.118
21.48000 538.071
21.49000 533.422
21.50000 528.455
21.51000 521.778
21.52000 514.846
21.53000 509.350
21.54000 525.741
21.55000 540.459
21.56000 550.271
21.57000 548.472
21.58000 546.182
21.59000 542.851
21.60000 537.869
21.61000 532.866
21.62000 530.321
21.63000 526.600
21.64000 524.138
21.65000 525.020
21.66000 528.139
21.67000 531.089
21.68000 529.483
21.69000 525.834
21.70000 522.396
21.71000 528.815
21.72000 537.414
21.73000 545.025
21.74000 545.492
21.75000 544.540
21.76000 544.555
21.77000 548.989
21.78000 553.968
21.79000 557.773
21.80000 547.614
21.81000 538.848
21.82000 533.509
21.83000 535.170
21.84000 537.038
21.85000 542.514
21.86000 552.905
21.87000 563.318
21.88000 566.696
21.89000 563.932
21.90000 561.347
21.91000 568.682
21.92000 581.718
21.93000 594.331
21.94000 598.661
21.95000 599.787
21.96000 600.831
21.97000 603.639
21.98000 606.578
21.99000 608.257
22.00000 602.320
22.01000 595.106
22.02000 589.844
22.03000 592.207
22.04000 595.341
22.05000 597.640
22.06000 596.607
22.07000 595.675
22.08000 590.907
22.09000 579.382
22.10000 567.730
22.11000 559.999
22.12000 556.816
22.13000 553.648
22.14000 554.481
22.15000 558.261
22.16000 561.882
22.17000 559.920
22.18000 555.194
22.19000 550.102
22.20000 539.580
22.21000 527.245
22.22000 516.026
22.23000 523.381
22.24000 533.526
22.25000 542.275
22.26000 543.903
22.27000 544.531
22.28000 544.853
22.29000 544.147
22.30000 543.359
22.31000 542.806
22.32000 538.191
22.33000 534.582
22.34000 530.579
22.35000 525.977
22.36000 521.369
22.37000 517.698
22.38000 514.944
22.39000 512.211
22.40000 511.366
22.41000 511.718
22.42000 512.123
22.43000 513.789
22.44000 515.996
22.45000 518.043
22.46000 518.223
22.47000 517.867
22.48000 517.550
22.49000 515.369
22.50000 513.170
22.51000 511.957
22.52000 515.030
22.53000 518.601
22.54000 520.279
22.55000 516.487
22.56000 512.350
22.57000 509.592
22.58000 514.317
22.59000 517.958
22.60000 519.731
22.61000 519.086
22.62000 518.430
22.63000 517.664
22.64000 516.806
22.65000 515.960
22.66000 512.550
22.67000 507.868
22.68000 503.299
22.69000 500.756
22.70000 498.961
22.71000 497.615
22.72000 500.497
22.73000 504.421
22.74000 507.831
22.75000 511.232
22.76000 514.130
22.77000 515.054
22.78000 508.629
22.79000 501.510
22.80000 498.187
22.81000 504.334
22.82000 510.931
22.83000 515.089
22.84000 510.509
22.85000 507.093
22.86000 507.825
22.87000 513.120
22.88000 518.399
22.89000 521.150
22.90000 522.114
22.91000 523.058
22.92000 516.387
22.93000 506.531
22.94000 497.170
22.95000 494.590
22.96000 494.169
22.97000 494.292
22.98000 498.620
22.99000 503.835
23.00000 508.245
23.01000 496.314
23.02000 484.521
23.03000 477.249
23.04000 484.442
23.05000 492.720
23.06000 497.697
23.07000 495.564
23.08000 493.190
23.09000 491.784
23.10000 492.131
23.11000 492.388
23.12000 495.214
23.13000 500.425
23.14000 505.651
23.15000 511.844
23.16000 518.625
23.17000 525.193
23.18000 516.190
23.19000 501.666
23.20000 488.412
23.21000 488.991
23.22000 493.357
23.23000 496.750
23.24000 493.878
23.25000 489.887
23.26000 486.611
23.27000 486.218
23.28000 486.153
23.29000 491.011
23.30000 509.447
23.31000 528.669
23.32000 534.628
23.33000 515.937
23.34000 496.692
23.35000 486.065
23.36000 490.109
23.37000 492.909
23.38000 491.274
23.39000 486.147
23.40000 481.145
23.41000 481.217
23.42000 483.940
23.43000 486.545
23.44000 493.093
23.45000 500.486
23.46000 506.480
23.47000 500.130
23.48000 490.886
23.49000 483.126
23.50000 483.415
23.51000 484.911
23.52000 486.099
23.53000 487.237
23.54000 488.150
23.55000 486.862
23.56000 480.332
23.57000 473.577
23.58000 470.225
23.59000 472.316
23.60000 474.478
23.61000 475.581
23.62000 478.725
23.63000 480.808
23.64000 479.904
23.65000 476.989
23.66000 474.338
23.67000 478.913
23.68000 486.745
23.69000 494.131
23.70000 503.590
23.71000 512.834
23.72000 520.045
23.73000 512.458
23.74000 501.912
23.75000 493.955
23.76000 497.909
23.77000 503.345
23.78000 507.505
23.79000 502.240
23.80000 497.570
23.81000 493.096
23.82000 489.025
23.83000 484.965
23.84000 485.207
23.85000 491.344
23.86000 497.512
23.87000 497.222
23.88000 491.259
23.89000 485.358
23.90000 482.985
23.91000 482.653
23.92000 482.383
23.93000 483.346
23.94000 484.788
23.95000 486.125
23.96000 486.610
23.97000 486.847
23.98000 486.594
23.99000 483.363
24.00000 479.629
24.01000 476.823
24.02000 477.668
24.03000 478.885
24.04000 479.779
24.05000 472.764
24.06000 467.016
24.07000 467.720
24.08000 479.855
24.09000 492.209
24.10000 497.710
24.11000 495.210
24.12000 492.705
24.13000 492.623
24.14000 494.342
24.15000 495.960
24.16000 493.957
24.17000 490.150
24.18000 486.368
24.19000 482.971
24.20000 479.702
24.21000 476.727
24.22000 478.676
24.23000 481.373
24.24000 482.853
24.25000 478.078
24.26000 472.418
24.27000 468.246
24.28000 469.096
24.29000 470.356
24.30000 471.241
24.31000 467.946
24.32000 465.330
24.33000 465.797
24.34000 470.961
24.35000 476.174
24.36000 478.103
24.37000 476.793
24.38000 475.492
24.39000 479.728
24.40000 487.388
24.41000 494.526
24.42000 488.845
24.43000 477.651
24.44000 467.388
24.45000 468.098
24.46000 471.982
24.47000 475.442
24.48000 478.506
24.49000 481.104
24.50000 482.430
24.51000 478.189
24.52000 473.298
24.53000 469.166
24.54000 467.244
24.55000 465.463
24.56000 464.274
24.57000 469.503
24.58000 473.502
24.59000 475.866
24.60000 476.099
24.61000 476.322
24.62000 476.421
24.63000 476.417
24.64000 476.413
24.65000 470.403
24.66000 461.336
24.67000 453.009
24.68000 458.041
24.69000 468.034
24.70000 477.155
24.71000 477.997
24.72000 476.784
24.73000 475.729
24.74000 473.974
24.75000 472.381
24.76000 472.124
24.77000 476.872
24.78000 482.095
24.79000 483.523
24.80000 475.422
24.81000 466.864
24.82000 461.457
24.83000 463.252
24.84000 464.637
24.85000 467.688
24.86000 472.584
24.87000 477.467
24.88000 480.441
24.89000 482.056
24.90000 483.636
24.91000 482.056
24.92000 479.097
24.93000 475.819
24.94000 468.124
24.95000 459.014
24.96000 451.238
24.97000 453.851
24.98000 458.665
24.99000 462.742
25.00000 461.260
25.01000 459.399
25.02000 457.195
25.03000 453.893
25.04000 450.507
25.05000 451.527
25.06000 462.099
25.07000 472.999
25.08000 479.472
25.09000 468.150
25.10000 460.034
25.11000 456.719
25.12000 457.887
25.13000 459.059
25.14000 460.513
25.15000 462.139
25.16000 463.714
25.17000 457.686
25.18000 449.027
25.19000 441.436
25.20000 445.581
25.21000 452.958
25.22000 460.191
25.23000 466.489
25.24000 472.619
25.25000 477.657
25.26000 472.155
25.27000 466.685
25.28000 461.931
25.29000 459.164
25.30000 456.513
25.31000 457.379
25.32000 464.819
25.33000 472.409
25.34000 476.613
25.35000 469.872
25.36000 465.208
25.37000 463.468
25.38000 464.046
25.39000 464.580
25.40000 463.314
25.41000 461.102
25.42000 458.985
25.43000 458.841
25.44000 459.357
25.45000 460.085
25.46000 462.691
25.47000 465.740
25.48000 467.589
25.49000 462.882
25.50000 457.186
25.51000 452.657
25.52000 448.091
25.53000 444.409
25.54000 445.194
25.55000 456.674
25.56000 468.619
25.57000 475.701
25.58000 474.956
25.59000 474.106
25.60000 473.671
25.61000 464.431
25.62000 458.248
25.63000 455.054
25.64000 453.884
25.65000 452.576
25.66000 447.436
25.67000 440.556
25.68000 434.065
25.69000 435.892
25.70000 439.896
25.71000 443.433
25.72000 443.542
25.73000 442.962
25.74000 443.633
25.75000 450.093
25.76000 457.280
25.77000 462.789
25.78000 454.079
25.79000 446.415
25.80000 442.424
25.81000 446.031
25.82000 449.870
25.83000 453.178
25.84000 455.753
25.85000 458.322
25.86000 458.564
25.87000 456.750
25.88000 454.956
25.89000 454.375
25.90000 454.498
25.91000 454.603
25.92000 454.331
25.93000 453.911
25.94000 453.521
25.95000 455.023
25.96000 456.824
25.97000 458.028
25.98000 455.572
25.99000 452.493
26.00000 449.740
26.01000 448.272
26.02000 446.936
26.03000 445.953
26.04000 440.710
26.05000 436.477
26.06000 431.404
26.07000 424.834
26.08000 418.235
26.09000 423.000
26.10000 441.124
26.11000 459.219
26.12000 463.706
26.13000 457.983
26.14000 452.343
26.15000 449.665
26.16000 448.471
26.17000 447.070
26.18000 442.536
26.19000 436.943
26.20000 431.848
26.21000 438.915
26.22000 447.592
26.23000 454.771
26.24000 454.206
26.25000 452.537
26.26000 450.939
26.27000 449.584
26.28000 448.248
26.29000 447.308
26.30000 448.526
26.31000 449.513
26.32000 447.843
26.33000 442.104
26.34000 436.321
26.35000 436.310
26.36000 442.032
26.37000 447.714
26.38000 445.542
26.39000 438.420
26.40000 431.717
26.41000 435.477
26.42000 443.764
26.43000 451.205
26.44000 448.563
26.45000 442.988
26.46000 438.017
26.47000 436.044
26.48000 434.825
26.49000 433.300
26.50000 430.426
26.51000 427.393
26.52000 424.648
26.53000 422.744
26.54000 420.895
26.55000 419.657
26.56000 434.583
26.57000 445.975
26.58000 449.173
26.59000 441.626
26.60000 434.034
26.61000 428.318
26.62000 424.177
26.63000 420.091
26.64000 419.892
26.65000 421.797
26.66000 423.885
26.67000 429.322
26.68000 436.009
26.69000 441.462
26.70000 435.092
26.71000 425.771
26.72000 417.655
26.73000 437.225
26.74000 457.745
26.75000 470.160
26.76000 452.050
26.77000 431.010
26.78000 418.012
26.79000 425.318
26.80000 433.612
26.81000 438.865
26.82000 435.038
26.83000 432.154
26.84000 431.329
26.85000 432.798
26.86000 434.277
26.87000 436.856
26.88000 440.224
26.89000 443.522
26.90000 440.453
26.91000 434.579
26.92000 428.866
26.93000 425.390
26.94000 422.636
26.95000 420.664
26.96000 424.832
26.97000 430.309
26.98000 434.952
26.99000 433.152
27.00000 430.918
27.01000 428.975
27.02000 427.975
27.03000 427.046
27.04000 425.886
27.05000 424.217
27.06000 422.531
27.07000 421.527
27.08000 431.648
27.09000 438.884
27.10000 438.973
27.11000 432.339
27.12000 425.746
27.13000 422.022
27.14000 420.060
27.15000 418.157
27.16000 427.517
27.17000 440.784
27.18000 452.334
27.19000 444.861
27.20000 432.114
27.21000 421.434
27.22000 424.249
27.23000 429.506
27.24000 433.832
27.25000 434.709
27.26000 435.117
27.27000 436.506
27.28000 440.637
27.29000 444.929
27.30000 444.637
27.31000 435.721
27.32000 426.605
27.33000 421.540
27.34000 414.698
27.35000 409.982
27.36000 410.654
27.37000 415.623
27.38000 420.587
27.39000 425.367
27.40000 430.049
27.41000 434.533
27.42000 430.503
27.43000 423.915
27.44000 418.069
27.45000 418.878
27.46000 421.269
27.47000 422.707
27.48000 418.920
27.49000 414.338
27.50000 410.689
27.51000 415.304
27.52000 419.622
27.53000 421.483
27.54000 417.424
27.55000 413.104
27.56000 408.498
27.57000 403.427
27.58000 398.350
27.59000 395.742
27.60000 404.037
27.61000 409.613
27.62000 414.442
27.63000 418.762
27.64000 422.896
27.65000 421.772
27.66000 418.249
27.67000 414.924
27.68000 408.739
27.69000 402.260
27.70000 397.219
27.71000 402.804
27.72000 410.542
27.73000 416.500
27.74000 414.165
27.75000 410.782
27.76000 408.185
27.77000 408.979
27.78000 409.797
27.79000 412.073
27.80000 417.384
27.81000 422.789
27.82000 426.529
27.83000 427.958
27.84000 429.371
27.85000 428.978
27.86000 426.976
27.87000 424.977
27.88000 423.121
27.89000 421.348
27.90000 419.693
27.91000 420.458
27.92000 422.176
27.93000 423.771
27.94000 417.987
27.95000 411.013
27.96000 405.704
27.97000 410.669
27.98000 417.394
27.99000 422.339
28.00000 420.193
28.01000 417.313
28.02000 415.189
28.03000 414.079
28.04000 413.262
28.05000 410.455
28.06000 404.079
28.07000 397.632
28.08000 395.648
28.09000 398.945
28.10000 402.242
28.11000 401.767
28.12000 398.453
28.13000 395.282
28.14000 397.315
28.15000 401.973
28.16000 406.434
28.17000 407.881
28.18000 408.302
28.19000 408.687
28.20000 406.732
28.21000 404.531
28.22000 403.373
28.23000 407.640
28.24000 412.686
28.25000 419.315
28.26000 431.357
28.27000 443.849
28.28000 452.656
28.29000 427.165
28.30000 406.798
28.31000 396.166
28.32000 400.543
28.33000 405.087
28.34000 409.096
28.35000 412.569
28.36000 416.018
28.37000 415.231
28.38000 411.749
28.39000 408.457
28.40000 409.955
28.41000 413.537
28.42000 416.826
28.43000 416.604
28.44000 415.353
28.45000 414.237
28.46000 412.446
28.47000 410.774
28.48000 409.156
28.49000 407.773
28.50000 406.418
28.51000 405.647
28.52000 406.598
28.53000 407.661
28.54000 408.374
28.55000 410.754
28.56000 412.554
28.57000 413.235
28.58000 412.440
28.59000 411.633
28.60000 407.629
28.61000 400.922
28.62000 394.299
28.63000 392.865
28.64000 394.287
28.65000 395.717
28.66000 397.288
28.67000 398.913
28.68000 400.391
28.69000 400.447
28.70000 400.146
28.71000 399.883
28.72000 401.751
28.73000 403.642
28.74000 404.109
28.75000 399.178
28.76000 393.724
28.77000 388.443
28.78000 383.602
28.79000 378.782
28.80000 375.722
28.81000 379.000
28.82000 381.458
28.83000 384.877
28.84000 389.376
28.85000 393.856
28.86000 395.279
28.87000 394.498
28.88000 393.733
28.89000 393.544
28.90000 393.627
28.91000 394.023
28.92000 398.836
28.93000 405.080
28.94000 409.744
28.95000 401.910
28.96000 391.392
28.97000 382.465
28.98000 384.564
28.99000 387.577
29.00000 390.152
29.01000 391.304
29.02000 392.347
29.03000 393.749
29.04000 395.940
29.05000 398.159
29.06000 399.484
29.07000 395.133
29.08000 392.012
29.09000 391.867
29.10000 394.539
29.11000 397.093
29.12000 391.059
29.13000 379.717
29.14000 368.718
29.15000 369.978
29.16000 375.996
29.17000 382.231
29.18000 390.884
29.19000 400.212
29.20000 408.637
29.21000 411.126
29.22000 412.534
29.23000 413.694
29.24000 411.218
29.25000 408.848
29.26000 404.861
29.27000 396.335
29.28000 387.538
29.29000 384.932
29.30000 394.041
29.31000 403.428
29.32000 408.658
29.33000 398.660
29.34000 391.729
29.35000 391.285
29.36000 396.047
29.37000 400.616
29.38000 396.859
29.39000 388.675
29.40000 380.832
29.41000 381.755
29.42000 385.548
29.43000 389.124
29.44000 390.731
29.45000 391.868
29.46000 392.946
29.47000 393.694
29.48000 394.393
29.49000 394.950
29.50000 386.891
29.51000 379.760
29.52000 376.634
29.53000 383.215
29.54000 390.230
29.55000 393.773
29.56000 391.660
29.57000 389.468
29.58000 388.338
29.59000 399.697
29.60000 407.258
29.61000 404.028
29.62000 393.398
29.63000 383.059
29.64000 381.075
29.65000 382.925
29.66000 384.673
29.67000 380.159
29.68000 374.238
29.69000 369.127
29.70000 370.042
29.71000 372.185
29.72000 374.947
29.73000 380.610
29.74000 386.643
29.75000 391.282
29.76000 381.657
29.77000 373.237
29.78000 369.585
29.79000 375.908
29.80000 382.544
29.81000 387.910
29.82000 391.501
29.83000 395.078
29.84000 392.987
29.85000 385.816
29.86000 378.807
29.87000 381.560
29.88000 390.061
29.89000 398.187
29.90000 398.599
29.91000 395.955
29.92000 393.497
29.93000 394.270
29.94000 395.742
29.95000 396.613
29.96000 393.748
29.97000 390.239
29.98000 387.689
29.99000 388.982
30.00000 390.677
30.01000 391.928
30.02000 382.509
30.03000 374.756
30.04000 371.376
30.05000 375.888
30.06000 380.561
30.07000 388.553
30.08000 400.497
30.09000 412.418
30.10000 411.857
30.11000 401.839
30.12000 391.931
30.13000 386.108
30.14000 382.359
30.15000 378.888
30.16000 379.729
30.17000 382.045
30.18000 384.158
30.19000 382.096
30.20000 379.426
30.21000 377.749
30.22000 381.279
30.23000 385.561
30.24000 387.735
30.25000 382.659
30.26000 376.973
30.27000 372.957
30.28000 372.690
30.29000 372.603
30.30000 374.499
30.31000 379.475
30.32000 384.486
30.33000 385.433
30.34000 382.284
30.35000 379.156
30.36000 379.472
30.37000 381.998
30.38000 384.371
30.39000 382.823
30.40000 379.558
30.41000 376.566
30.42000 376.899
30.43000 378.210
30.44000 379.382
30.45000 383.999
30.46000 388.602
30.47000 391.439
30.48000 386.409
30.49000 380.435
30.50000 374.784
30.51000 370.087
30.52000 365.453
30.53000 362.338
30.54000 368.008
30.55000 372.403
30.56000 376.233
30.57000 379.315
30.58000 382.387
30.59000 380.954
30.60000 375.688
30.61000 370.487
30.62000 371.418
30.63000 375.678
30.64000 379.610
30.65000 377.421
30.66000 372.919
30.67000 368.253
30.68000 362.003
30.69000 355.352
30.70000 349.550
30.71000 353.564
30.72000 358.368
30.73000 363.066
30.74000 367.364
30.75000 371.622
30.76000 374.612
30.77000 374.359
30.78000 373.944
30.79000 373.680
30.80000 378.150
30.81000 381.458
30.82000 381.104
30.83000 376.613
30.84000 372.153
30.85000 373.345
30.86000 378.635
30.87000 383.820
30.88000 385.309
30.89000 385.023
30.90000 384.451
30.91000 379.805
30.92000 373.829
30.93000 368.637
30.94000 369.693
30.95000 372.099
30.96000 374.143
30.97000 378.835
30.98000 383.076
30.99000 388.955
31.00000 400.204
31.01000 411.871
31.02000 417.186
31.03000 408.487
31.04000 399.283
31.05000 393.775
31.06000 398.685
31.07000 402.239
31.08000 412.640
31.09000 429.570
31.10000 446.392
31.11000 455.202
31.12000 459.029
31.13000 462.743
31.14000 478.169
31.15000 497.435
31.16000 515.849
31.17000 524.652
31.18000 530.758
31.19000 537.705
31.20000 550.225
31.21000 563.768
31.22000 574.940
31.23000 586.034
31.24000 595.163
31.25000 602.749
31.26000 605.980
31.27000 608.948
31.28000 612.503
31.29000 617.175
31.30000 621.874
31.31000 624.500
31.32000 617.790
31.33000 613.120
31.34000 607.831
31.35000 602.041
31.36000 596.193
31.37000 587.806
31.38000 578.060
31.39000 568.715
31.40000 565.646
31.41000 564.894
31.42000 563.328
31.43000 554.347
31.44000 543.582
31.45000 533.170
31.46000 524.725
31.47000 516.585
31.48000 510.085
31.49000 512.813
31.50000 515.695
31.51000 514.968
31.52000 505.443
31.53000 495.520
31.54000 486.745
31.55000 479.851
31.56000 472.984
31.57000 469.432
31.58000 454.674
31.59000 444.746
31.60000 437.799
31.61000 432.911
31.62000 428.196
31.63000 428.515
31.64000 431.159
31.65000 433.658
31.66000 421.757
31.67000 406.710
31.68000 393.073
31.69000 390.008
31.70000 389.112
31.71000 388.212
31.72000 387.293
31.73000 386.372
31.74000 385.662
31.75000 376.814
31.76000 369.345
31.77000 365.441
31.78000 369.043
31.79000 372.885
31.80000 373.619
31.81000 369.984
31.82000 366.320
31.83000 365.971
31.84000 368.615
31.85000 371.212
31.86000 370.909
31.87000 368.888
31.88000 367.003
31.89000 367.943
31.90000 370.009
31.91000 371.930
31.92000 367.093
31.93000 361.093
31.94000 356.082
31.95000 357.265
31.96000 359.524
31.97000 361.403
31.98000 361.749
31.99000 361.934
32.00000 362.070
32.01000 356.563
32.02000 352.048
32.03000 349.316
32.04000 349.819
32.05000 350.390
32.06000 352.012
32.07000 354.895
32.08000 357.773
32.09000 357.388
32.10000 354.514
32.11000 351.709
32.12000 351.492
32.13000 352.596
32.14000 353.839
32.15000 357.275
32.16000 361.466
32.17000 365.292
32.18000 359.783
32.19000 352.998
32.20000 347.707
32.21000 350.302
32.22000 354.047
32.23000 357.155
32.24000 358.063
32.25000 358.785
32.26000 359.295
32.27000 357.000
32.28000 355.170
32.29000 352.424
32.30000 348.249
32.31000 344.056
32.32000 343.058
32.33000 345.299
32.34000 347.526
32.35000 349.070
32.36000 350.150
32.37000 351.056
32.38000 347.438
32.39000 341.828
32.40000 336.624
32.41000 336.384
32.42000 337.614
32.43000 338.715
32.44000 344.361
32.45000 350.055
32.46000 354.094
32.47000 350.708
32.48000 346.426
32.49000 343.463
32.50000 344.430
32.51000 345.657
32.52000 346.485
32.53000 348.247
32.54000 349.578
32.55000 349.139
32.56000 346.334
32.57000 343.522
32.58000 344.093
32.59000 347.562
32.60000 350.989
32.61000 348.639
32.62000 343.167
32.63000 337.839
32.64000 335.216
32.65000 333.621
32.66000 332.658
32.67000 337.903
32.68000 344.728
32.69000 350.688
32.70000 342.414
32.71000 333.330
32.72000 327.184
32.73000 332.313
32.74000 338.552
32.75000 343.219
32.76000 343.845
32.77000 344.266
32.78000 344.535
32.79000 344.747
32.80000 344.900
32.81000 341.715
32.82000 334.734
32.83000 327.789
32.84000 327.533
32.85000 332.161
32.86000 336.696
32.87000 337.458
32.88000 336.423
32.89000 335.486
32.90000 335.979
32.91000 336.941
32.92000 338.000
32.93000 339.837
32.94000 341.843
32.95000 343.550
32.96000 335.721
32.97000 328.044
32.98000 324.017
32.99000 332.024
33.00000 340.978
33.01000 346.479
33.02000 344.316
33.03000 341.874
33.04000 340.409
33.05000 336.494
33.06000 333.696
33.07000 333.478
33.08000 335.737
33.09000 337.920
33.10000 334.232
33.11000 326.871
33.12000 319.726
33.13000 324.162
33.14000 332.987
33.15000 341.464
33.16000 345.973
33.17000 349.363
33.18000 351.570
33.19000 345.889
33.20000 338.752
33.21000 332.856
33.22000 335.888
33.23000 339.221
33.24000 339.825
33.25000 332.678
33.26000 325.057
33.27000 320.857
33.28000 323.212
33.29000 325.728
33.30000 327.137
33.31000 334.498
33.32000 339.597
33.33000 338.202
33.34000 331.523
33.35000 324.893
33.36000 320.416
33.37000 317.097
33.38000 313.913
33.39000 316.446
33.40000 320.750
33.41000 324.858
33.42000 327.174
33.43000 329.055
33.44000 330.291
33.45000 327.911
33.46000 324.970
33.47000 322.618
33.48000 332.969
33.49000 342.278
33.50000 346.811
33.51000 339.628
33.52000 331.909
33.53000 327.404
33.54000 328.197
33.55000 329.069
33.56000 329.521
33.57000 325.937
33.58000 323.579
33.59000 329.139
33.60000 340.196
33.61000 350.756
33.62000 346.630
33.63000 335.684
33.64000 325.329
33.65000 322.959
33.66000 323.075
33.67000 323.302
33.68000 324.367
33.69000 325.605
33.70000 325.328
33.71000 317.858
33.72000 309.456
33.73000 302.976
33.74000 309.627
33.75000 315.655
33.76000 318.935
33.77000 316.395
33.78000 313.666
33.79000 311.438
33.80000 309.918
33.81000 308.403
33.82000 308.523
33.83000 310.131
33.84000 311.738
33.85000 313.393
33.86000 315.074
33.87000 316.814
33.88000 319.778
33.89000 323.232
33.90000 326.448
33.91000 324.381
33.92000 321.230
33.93000 318.348
33.94000 317.168
33.95000 316.286
33.96000 315.252
33.97000 313.602
33.98000 311.886
33.99000 310.615
34.00000 321.781
34.01000 330.991
34.02000 334.085
34.03000 326.007
34.04000 317.693
34.05000 314.056
34.06000 316.064
34.07000 318.079
34.08000 319.804
34.09000 321.295
34.10000 322.709
34.11000 321.178
34.12000 318.135
34.13000 315.302
34.14000 315.786
34.15000 317.419
34.16000 318.911
34.17000 322.207
34.18000 325.505
34.19000 327.769
34.20000 324.542
34.21000 320.509
34.22000 316.299
34.23000 311.472
34.24000 306.593
34.25000 303.133
34.26000 309.597
34.27000 314.824
34.28000 315.761
34.29000 309.960
34.30000 304.076
34.31000 306.251
34.32000 316.655
34.33000 326.996
34.34000 330.396
34.35000 329.225
34.36000 328.006
34.37000 325.535
34.38000 322.509
34.39000 319.553
34.40000 317.468
34.41000 315.644
34.42000 314.011
34.43000 309.734
34.44000 305.551
34.45000 303.956
34.46000 314.045
34.47000 325.556
34.48000 332.410
34.49000 325.308
34.50000 317.267
34.51000 311.840
34.52000 303.662
34.53000 297.517
34.54000 297.607
34.55000 306.088
34.56000 314.609
34.57000 319.518
34.58000 321.312
34.59000 323.084
34.60000 319.942
34.61000 314.154
34.62000 308.540
34.63000 306.242
34.64000 305.214
34.65000 304.335
34.66000 304.946
34.67000 305.937
34.68000 306.804
34.69000 313.815
34.70000 320.692
34.71000 324.669
34.72000 317.448
34.73000 309.115
34.74000 304.524
34.75000 309.608
34.76000 315.187
34.77000 318.754
34.78000 313.633
34.79000 309.790
34.80000 309.842
34.81000 314.353
34.82000 318.848
34.83000 319.638
34.84000 317.707
34.85000 315.814
34.86000 315.523
34.87000 315.999
34.88000 316.471
34.89000 316.883
34.90000 317.276
34.91000 317.177
34.92000 313.089
34.93000 308.128
34.94000 303.903
34.95000 311.381
34.96000 319.029
34.97000 323.690
34.98000 318.444
34.99000 312.410
35.00000 306.272
35.01000 299.902
35.02000 293.523
35.03000 289.686
35.04000 301.149
35.05000 309.406
35.06000 310.768
35.07000 305.464
35.08000 300.311
35.09000 307.035
35.10000 321.234
35.11000 335.023
35.12000 328.804
35.13000 314.871
35.14000 302.352
35.15000 306.076
35.16000 314.415
35.17000 321.512
35.18000 320.267
35.19000 317.472
35.20000 315.160
35.21000 306.125
35.22000 298.040
35.23000 292.228
35.24000 292.914
35.25000 294.001
35.26000 295.543
35.27000 297.961
35.28000 300.400
35.29000 301.771
35.30000 307.233
35.31000 311.020
35.32000 309.275
35.33000 303.001
35.34000 296.859
35.35000 296.690
35.36000 299.755
35.37000 302.698
35.38000 301.051
35.39000 297.946
35.40000 295.278
35.41000 296.653
35.42000 299.013
35.43000 300.867
35.44000 299.864
35.45000 298.414
35.46000 297.252
35.47000 301.368
35.48000 305.093
35.49000 306.583
35.50000 302.560
35.51000 298.283
35.52000 295.935
35.53000 296.792
35.54000 297.696
35.55000 298.167
35.56000 305.246
35.57000 309.998
35.58000 310.376
35.59000 307.697
35.60000 305.030
35.61000 302.695
35.62000 300.515
35.63000 298.452
35.64000 302.390
35.65000 307.750
35.66000 311.901
35.67000 306.843
35.68000 299.871
35.69000 293.881
35.70000 292.583
35.71000 291.898
35.72000 291.368
35.73000 300.774
35.74000 308.812
35.75000 312.945
35.76000 308.760
35.77000 304.301
35.78000 298.834
35.79000 291.933
35.80000 285.023
35.81000 282.682
35.82000 284.522
35.83000 286.353
35.84000 287.666
35.85000 288.666
35.86000 289.850
35.87000 294.942
35.88000 301.611
35.89000 307.822
35.90000 306.986
35.91000 304.504
35.92000 301.853
35.93000 298.127
35.94000 294.212
35.95000 291.550
35.96000 293.999
35.97000 296.995
35.98000 299.219
35.99000 296.342
36.00000 293.882
36.01000 293.138
36.02000 295.548
36.03000 298.026
36.04000 300.927
36.05000 304.343
36.06000 307.752
36.07000 304.637
36.08000 296.492
36.09000 288.524
36.10000 287.515
36.11000 290.101
36.12000 292.584
36.13000 293.424
36.14000 293.693
36.15000 293.939
36.16000 293.429
36.17000 292.821
36.18000 293.337
36.19000 299.863
36.20000 307.278
36.21000 311.826
36.22000 306.333
36.23000 299.973
36.24000 295.454
36.25000 295.791
36.26000 296.202
36.27000 297.433
36.28000 299.960
36.29000 302.503
36.30000 301.274
36.31000 296.167
36.32000 291.090
36.33000 287.093
36.34000 283.858
36.35000 280.793
36.36000 282.279
36.37000 285.792
36.38000 289.091
36.39000 289.699
36.40000 289.501
36.41000 289.324
36.42000 290.894
36.43000 292.566
36.44000 294.194
36.45000 295.622
36.46000 297.027
36.47000 296.149
36.48000 288.392
36.49000 280.169
36.50000 274.605
36.51000 277.508
36.52000 279.854
36.53000 284.747
36.54000 293.088
36.55000 301.440
36.56000 303.068
36.57000 298.858
36.58000 294.697
36.59000 293.522
36.60000 294.042
36.61000 294.353
36.62000 290.621
36.63000 285.335
36.64000 280.127
36.65000 275.700
36.66000 271.476
36.67000 267.779
36.68000 271.434
36.69000 275.618
36.70000 279.573
36.71000 282.635
36.72000 285.609
36.73000 289.124
36.74000 294.048
36.75000 299.045
36.76000 302.248
36.77000 296.063
36.78000 291.432
36.79000 288.825
36.80000 288.552
36.81000 288.275
36.82000 286.710
36.83000 284.191
36.84000 281.720
36.85000 283.437
36.86000 287.079
36.87000 290.513
36.88000 290.890
36.89000 290.252
36.90000 289.755
36.91000 290.405
36.92000 291.307
36.93000 292.077
36.94000 292.079
36.95000 291.991
36.96000 292.437
36.97000 294.663
36.98000 297.033
36.99000 298.107
37.00000 296.269
37.01000 294.323
37.02000 293.149
37.03000 294.097
37.04000 294.788
37.05000 290.852
37.06000 282.415
37.07000 274.080
37.08000 273.900
37.09000 278.886
37.10000 283.730
37.11000 285.090
37.12000 284.975
37.13000 284.983
37.14000 286.412
37.15000 288.247
37.16000 289.191
37.17000 284.102
37.18000 277.884
37.19000 272.734
37.20000 279.372
37.21000 285.971
37.22000 288.902
37.23000 281.286
37.24000 273.011
37.25000 268.647
37.26000 271.864
37.27000 275.274
37.28000 277.196
37.29000 271.657
37.30000 267.799
37.31000 267.954
37.32000 271.415
37.33000 274.910
37.34000 279.973
37.35000 285.890
37.36000 291.572
37.37000 290.545
37.38000 287.281
37.39000 284.515
37.40000 286.413
37.41000 289.455
37.42000 292.118
37.43000 292.625
37.44000 292.792
37.45000 292.927
37.46000 290.630
37.47000 288.587
37.48000 284.765
37.49000 276.525
37.50000 268.079
37.51000 264.817
37.52000 270.209
37.53000 275.736
37.54000 278.623
37.55000 276.899
37.56000 275.737
37.57000 275.401
37.58000 275.646
37.59000 275.942
37.60000 277.815
37.61000 280.430
37.62000 282.907
37.63000 278.379
37.64000 272.171
37.65000 266.416
37.66000 264.141
37.67000 262.594
37.68000 262.330
37.69000 268.242
37.70000 274.965
37.71000 280.166
37.72000 271.035
37.73000 262.944
37.74000 258.026
37.75000 259.909
37.76000 262.019
37.77000 267.168
37.78000 276.667
37.79000 286.198
37.80000 285.675
37.81000 275.891
37.82000 266.170
37.83000 260.628
37.84000 257.609
37.85000 254.696
37.86000 254.087
37.87000 254.412
37.88000 254.715
37.89000 256.319
37.90000 258.091
37.91000 260.411
37.92000 266.235
37.93000 272.680
37.94000 277.315
37.95000 274.508
37.96000 270.898
37.97000 268.214
37.98000 273.685
37.99000 278.303
38.00000 282.702
38.01000 286.695
38.02000 290.680
38.03000 290.199
38.04000 284.258
38.05000 278.315
38.06000 272.882
38.07000 267.873
38.08000 263.057
38.09000 265.936
38.10000 272.814
38.11000 279.269
38.12000 278.876
38.13000 276.084
38.14000 273.529
38.15000 268.928
38.16000 264.411
38.17000 261.425
38.18000 266.678
38.19000 273.159
38.20000 278.612
38.21000 280.441
38.22000 281.956
38.23000 283.033
38.24000 269.212
38.25000 258.203
38.26000 253.854
38.27000 260.097
38.28000 266.475
38.29000 268.244
38.30000 265.241
38.31000 262.255
38.32000 260.986
38.33000 260.868
38.34000 260.849
38.35000 263.529
38.36000 267.418
38.37000 270.819
38.38000 268.050
38.39000 263.420
38.40000 259.269
38.41000 261.307
38.42000 264.161
38.43000 266.608
38.44000 267.190
38.45000 267.542
38.46000 266.989
38.47000 263.693
38.48000 260.209
38.49000 257.847
38.50000 265.539
38.51000 271.496
38.52000 273.723
38.53000 270.868
38.54000 267.987
38.55000 267.159
38.56000 268.128
38.57000 269.085
38.58000 264.833
38.59000 257.757
38.60000 251.247
38.61000 255.834
38.62000 264.716
38.63000 272.972
38.64000 274.927
38.65000 275.247
38.66000 275.528
38.67000 272.376
38.68000 269.178
38.69000 266.845
38.70000 267.897
38.71000 269.291
38.72000 269.137
38.73000 264.934
38.74000 260.519
38.75000 257.684
38.76000 256.901
38.77000 256.358
38.78000 257.916
38.79000 261.912
38.80000 265.891
38.81000 265.920
38.82000 263.009
38.83000 260.153
38.84000 261.427
38.85000 264.629
38.86000 267.530
38.87000 265.956
38.88000 262.887
38.89000 260.498
38.90000 263.709
38.91000 268.161
38.92000 271.961
38.93000 264.470
38.94000 256.827
38.95000 250.940
38.96000 250.948
38.97000 251.433
38.98000 252.497
38.99000 254.869
39.00000 257.290
39.01000 258.754
39.02000 256.735
39.03000 255.271
39.04000 250.259
39.05000 241.770
39.06000 233.408
39.07000 235.543
39.08000 244.366
39.09000 252.941
39.10000 255.485
39.11000 255.452
39.12000 255.533
39.13000 256.969
39.14000 258.794
39.15000 260.556
39.16000 261.896
39.17000 263.157
39.18000 264.202
39.19000 261.619
39.20000 259.138
39.21000 255.949
39.22000 250.714
39.23000 245.350
39.24000 242.900
39.25000 246.133
39.26000 249.512
39.27000 251.423
39.28000 257.464
39.29000 261.668
39.30000 262.264
39.31000 259.868
39.32000 257.468
39.33000 254.912
39.34000 252.269
39.35000 249.729
39.36000 255.095
39.37000 262.852
39.38000 269.435
39.39000 264.961
39.40000 257.760
39.41000 251.141
39.42000 247.852
39.43000 245.092
39.44000 242.877
39.45000 244.116
39.46000 245.384
39.47000 247.099
39.48000 249.930
39.49000 252.814
39.50000 253.271
39.51000 249.653
39.52000 245.970
39.53000 244.040
39.54000 254.751
39.55000 261.960
39.56000 262.163
39.57000 257.408
39.58000 252.707
39.59000 249.643
39.60000 247.354
39.61000 245.184
39.62000 247.481
39.63000 250.907
39.64000 253.787
39.65000 252.450
39.66000 250.223
39.67000 248.307
39.68000 247.894
39.69000 247.680
39.70000 247.515
39.71000 243.530
39.72000 240.138
39.73000 241.414
39.74000 252.751
39.75000 264.430
39.76000 270.689
39.77000 269.135
39.78000 267.519
39.79000 267.129
39.80000 267.875
39.81000 268.571
39.82000 265.856
39.83000 261.069
39.84000 256.397
39.85000 254.217
39.86000 253.054
39.87000 251.969
39.88000 248.185
39.89000 244.089
39.90000 241.275
39.91000 246.720
39.92000 253.640
39.93000 257.877
39.94000 251.027
39.95000 242.970
39.96000 236.969
39.97000 247.342
39.98000 256.155
39.99000 259.566
40.00000 252.934
40.01000 246.076
40.02000 241.291
40.03000 239.056
40.04000 236.833
40.05000 239.704
40.06000 246.556
40.07000 253.304
40.08000 255.867
40.09000 256.242
40.10000 256.519
40.11000 255.173
40.12000 253.256
40.13000 251.499
40.14000 250.918
40.15000 250.646
40.16000 250.701
40.17000 252.528
40.18000 254.621
40.19000 256.482
40.20000 257.521
40.21000 258.487
40.22000 259.177
40.23000 255.649
40.24000 252.821
40.25000 250.774
40.26000 249.976
40.27000 249.195
40.28000 246.024
40.29000 240.362
40.30000 234.731
40.31000 235.177
40.32000 239.655
40.33000 244.101
40.34000 247.649
40.35000 250.791
40.36000 253.344
40.37000 248.384
40.38000 241.145
40.39000 234.649
40.40000 244.165
40.41000 255.285
40.42000 263.769
40.43000 260.117
40.44000 254.953
40.45000 250.404
40.46000 247.734
40.47000 245.193
40.48000 243.467
40.49000 240.648
40.50000 238.519
40.51000 238.865
40.52000 242.606
40.53000 246.363
40.54000 246.350
40.55000 243.018
40.56000 239.722
40.57000 241.503
40.58000 246.109
40.59000 250.385
40.60000 248.121
40.61000 243.311
40.62000 238.962
40.63000 239.307
40.64000 240.876
40.65000 242.251
40.66000 243.020
40.67000 243.591
40.68000 244.837
40.69000 248.736
40.70000 252.905
40.71000 254.065
40.72000 247.304
40.73000 240.124
40.74000 235.502
40.75000 233.873
40.76000 232.725
40.77000 234.430
40.78000 239.466
40.79000 244.487
40.80000 245.338
40.81000 243.067
40.82000 240.838
40.83000 241.158
40.84000 242.693
40.85000 244.179
40.86000 244.951
40.87000 245.482
40.88000 245.887
40.89000 245.251
40.90000 244.381
40.91000 243.638
40.92000 243.635
40.93000 243.721
40.94000 243.094
40.95000 240.061
40.96000 236.831
40.97000 235.088
40.98000 236.722
40.99000 238.487
41.00000 239.557
41.01000 244.234
41.02000 247.597
41.03000 246.082
41.04000 239.754
41.05000 233.509
41.06000 234.389
41.07000 239.836
41.08000 245.132
41.09000 243.740
41.10000 239.678
41.11000 235.640
41.12000 231.891
41.13000 228.225
41.14000 225.460
41.15000 228.882
41.16000 233.478
41.17000 237.292
41.18000 233.427
41.19000 229.487
41.20000 226.155
41.21000 224.587
41.22000 223.132
41.23000 224.377
41.24000 230.917
41.25000 237.597
41.26000 241.385
41.27000 234.276
41.28000 229.301
41.29000 226.465
41.30000 225.416
41.31000 224.391
41.32000 224.559
41.33000 225.384
41.34000 226.177
41.35000 226.293
41.36000 226.166
41.37000 226.253
41.38000 228.368
41.39000 230.987
41.40000 233.009
41.41000 231.593
41.42000 229.626
41.43000 228.044
41.44000 228.406
41.45000 228.850
41.46000 230.940
41.47000 237.167
41.48000 243.594
41.49000 244.403
41.50000 235.724
41.51000 226.890
41.52000 222.246
41.53000 219.951
41.54000 218.430
41.55000 221.800
41.56000 228.651
41.57000 235.198
41.58000 232.196
41.59000 224.654
41.60000 217.502
41.61000 220.684
41.62000 226.669
41.63000 232.087
41.64000 233.081
41.65000 233.137
41.66000 232.874
41.67000 231.053
41.68000 229.024
41.69000 227.449
41.70000 228.057
41.71000 228.671
41.72000 229.343
41.73000 230.137
41.74000 230.936
41.75000 231.116
41.76000 230.401
41.77000 229.678
41.78000 230.463
41.79000 232.655
41.80000 234.821
41.81000 235.209
41.82000 234.510
41.83000 233.612
41.84000 228.312
41.85000 221.205
41.86000 214.572
41.87000 218.112
41.88000 223.863
41.89000 228.582
41.90000 226.605
41.91000 223.424
41.92000 220.452
41.93000 218.346
41.94000 216.335
41.95000 214.834
41.96000 212.428
41.97000 210.513
41.98000 211.480
41.99000 217.840
42.00000 224.324
42.01000 226.823
42.02000 224.387
42.03000 221.942
42.04000 222.013
42.05000 224.070
42.06000 226.010
42.07000 223.120
42.08000 217.690
42.09000 212.611
42.10000 213.333
42.11000 216.112
42.12000 218.658
42.13000 227.032
42.14000 235.716
42.15000 243.103
42.16000 243.409
42.17000 242.645
42.18000 240.860
42.19000 235.432
42.20000 229.681
42.21000 225.573
42.22000 228.635
42.23000 231.210
42.24000 233.194
42.25000 234.227
42.26000 235.248
42.27000 233.342
42.28000 228.362
42.29000 223.409
42.30000 221.494
42.31000 221.636
42.32000 221.717
42.33000 220.133
42.34000 217.793
42.35000 215.962
42.36000 220.666
42.37000 227.364
42.38000 233.381
42.39000 232.902
42.40000 231.338
42.41000 228.822
42.42000 221.889
42.43000 214.402
42.44000 209.313
42.45000 211.583
42.46000 214.368
42.47000 216.264
42.48000 216.939
42.49000 217.416
42.50000 218.053
42.51000 218.912
42.52000 219.772
42.53000 220.463
42.54000 221.003
42.55000 221.537
42.56000 219.934
42.57000 217.151
42.58000 214.618
42.59000 217.109
42.60000 221.566
42.61000 225.431
42.62000 223.211
42.63000 219.395
42.64000 216.046
42.65000 218.263
42.66000 220.983
42.67000 223.066
42.68000 222.633
42.69000 221.941
42.70000 221.208
42.71000 220.369
42.72000 219.525
42.73000 218.980
42.74000 220.487
42.75000 221.617
42.76000 221.368
42.77000 219.496
42.78000 217.630
42.79000 217.392
42.80000 218.381
42.81000 219.352
42.82000 217.988
42.83000 215.542
42.84000 213.133
42.85000 211.308
42.86000 209.680
42.87000 208.610
42.88000 212.204
42.89000 216.846
42.90000 220.816
42.91000 221.807
42.92000 222.284
42.93000 222.682
42.94000 222.809
42.95000 222.915
42.96000 223.676
42.97000 225.935
42.98000 228.253
42.99000 229.662
43.00000 223.706
43.01000 219.397
43.02000 215.895
43.03000 213.196
43.04000 210.524
43.05000 210.204
43.06000 211.401
43.07000 212.566
43.08000 218.939
43.09000 227.149
43.10000 234.377
43.11000 229.896
43.12000 222.008
43.13000 215.384
43.14000 217.506
43.15000 221.299
43.16000 224.452
43.17000 220.760
43.18000 217.037
43.19000 215.209
43.20000 218.928
43.21000 223.004
43.22000 225.646
43.23000 225.457
43.24000 225.193
43.25000 225.042
43.26000 226.238
43.27000 227.066
43.28000 223.080
43.29000 215.048
43.30000 207.132
43.31000 204.975
43.32000 206.011
43.33000 207.008
43.34000 212.406
43.35000 219.008
43.36000 224.907
43.37000 224.075
43.38000 221.561
43.39000 220.047
43.40000 224.334
43.41000 229.556
43.42000 233.759
43.43000 228.095
43.44000 222.729
43.45000 218.312
43.46000 216.291
43.47000 214.386
43.48000 213.214
43.49000 213.286
43.50000 213.378
43.51000 213.427
43.52000 213.120
43.53000 212.932
43.54000 215.701
43.55000 220.591
43.56000 225.240
43.57000 222.252
43.58000 215.612
43.59000 209.311
43.60000 210.286
43.61000 213.348
43.62000 216.628
43.63000 221.615
43.64000 226.967
43.65000 229.961
43.66000 221.377
43.67000 211.237
43.68000 203.357
43.69000 207.297
43.70000 211.152
43.71000 216.604
43.72000 225.544
43.73000 234.605
43.74000 236.168
43.75000 226.785
43.76000 217.310
43.77000 213.769
43.78000 215.809
43.79000 217.823
43.80000 217.979
43.81000 216.994
43.82000 215.901
43.83000 212.360
43.84000 207.810
43.85000 203.560
43.86000 207.922
43.87000 214.044
43.88000 218.923
43.89000 215.686
43.90000 210.980
43.91000 207.319
43.92000 208.037
43.93000 209.240
43.94000 210.139
43.95000 208.277
43.96000 206.699
43.97000 207.027
43.98000 210.943
43.99000 214.943
44.00000 216.722
44.01000 215.730
44.02000 214.733
44.03000 215.173
44.04000 216.755
44.05000 218.186
44.06000 213.240
44.07000 204.922
44.08000 197.192
44.09000 199.309
44.10000 204.936
44.11000 210.098
44.12000 211.637
44.13000 212.241
44.14000 212.732
44.15000 212.593
44.16000 212.359
44.17000 211.455
44.18000 208.149
44.19000 204.627
44.20000 202.107
44.21000 205.755
44.22000 208.749
44.23000 210.674
44.24000 210.870
44.25000 211.041
44.26000 209.205
44.27000 205.248
44.28000 201.311
44.29000 200.542
44.30000 201.915
44.31000 203.296
44.32000 204.882
44.33000 206.560
44.34000 208.292
44.35000 210.727
44.36000 213.378
44.37000 215.760
44.38000 213.113
44.39000 209.903
44.40000 206.355
44.41000 201.228
44.42000 195.902
44.43000 193.064
44.44000 197.911
44.45000 203.302
44.46000 206.979
44.47000 204.870
44.48000 203.160
44.49000 201.402
44.50000 199.577
44.51000 197.754
44.52000 198.672
44.53000 202.035
44.54000 205.362
44.55000 202.405
44.56000 195.917
44.57000 189.877
44.58000 192.947
44.59000 199.607
44.60000 205.955
44.61000 209.081
44.62000 211.356
44.63000 213.355
44.64000 211.508
44.65000 209.354
44.66000 206.625
44.67000 201.610
44.68000 196.359
44.69000 194.306
44.70000 200.774
44.71000 207.703
44.72000 212.183
44.73000 213.391
44.74000 214.227
44.75000 213.912
44.76000 212.235
44.77000 210.558
44.78000 209.168
44.79000 207.996
44.80000 206.845
44.81000 206.961
44.82000 207.691
44.83000 208.377
44.84000 208.409
44.85000 208.218
44.86000 208.056
44.87000 208.140
44.88000 208.279
44.89000 208.398
44.90000 208.984
44.91000 209.534
44.92000 208.827
44.93000 203.822
44.94000 198.459
44.95000 195.795
44.96000 199.335
44.97000 203.122
44.98000 205.429
44.99000 201.074
45.00000 197.909
45.01000 196.935
45.02000 198.153
45.03000 199.317
45.04000 195.651
45.05000 188.848
45.06000 182.228
45.07000 186.423
45.08000 194.900
45.09000 202.863
45.10000 204.648
45.11000 204.624
45.12000 204.660
45.13000 205.115
45.14000 205.651
45.15000 206.096
45.16000 210.233
45.17000 214.022
45.18000 215.459
45.19000 209.971
45.20000 204.032
45.21000 200.364
45.22000 201.207
45.23000 202.173
45.24000 202.723
45.25000 195.231
45.26000 189.986
45.27000 189.156
45.28000 192.059
45.29000 194.972
45.30000 198.422
45.31000 202.170
45.32000 205.777
45.33000 204.989
45.34000 202.701
45.35000 201.132
45.36000 206.514
45.37000 213.644
45.38000 219.099
45.39000 214.772
45.40000 208.859
45.41000 204.092
45.42000 207.233
45.43000 210.406
45.44000 210.719
45.45000 203.764
45.46000 196.451
45.47000 192.173
45.48000 193.088
45.49000 194.090
45.50000 194.621
45.51000 191.080
45.52000 188.726
45.53000 194.744
45.54000 206.800
45.55000 218.419
45.56000 215.902
45.57000 206.582
45.58000 197.735
45.59000 195.097
45.60000 194.522
45.61000 194.401
45.62000 197.886
45.63000 202.145
45.64000 205.833
45.65000 206.698
45.66000 207.181
45.67000 207.556
45.68000 204.213
45.69000 201.323
45.70000 198.736
45.71000 196.814
45.72000 194.915
45.73000 193.622
45.74000 193.218
45.75000 192.822
45.76000 193.035
45.77000 193.824
45.78000 194.588
45.79000 193.556
45.80000 191.415
45.81000 189.520
45.82000 193.245
45.83000 199.305
45.84000 204.969
45.85000 203.901
45.86000 201.228
45.87000 198.300
45.88000 193.701
45.89000 188.798
45.90000 185.604
45.91000 189.610
45.92000 194.420
45.93000 198.020
45.94000 194.384
45.95000 191.208
45.96000 189.812
45.97000 191.786
45.98000 193.840
45.99000 194.143
46.00000 192.252
46.01000 190.356
46.02000 187.731
46.03000 184.534
46.04000 181.475
46.05000 184.374
46.06000 190.444
46.07000 196.200
46.08000 196.634
46.09000 195.161
46.10000 193.808
46.11000 195.052
46.12000 196.715
46.13000 198.589
46.14000 201.634
46.15000 204.858
46.16000 205.987
46.17000 199.550
46.18000 192.430
46.19000 187.325
46.20000 190.683
46.21000 193.538
46.22000 194.161
46.23000 191.147
46.24000 188.082
46.25000 187.301
46.26000 188.951
46.27000 190.594
46.28000 190.769
46.29000 189.948
46.30000 189.151
46.31000 189.066
46.32000 189.308
46.33000 189.623
46.34000 190.892
46.35000 192.457
46.36000 193.864
46.37000 190.838
46.38000 187.395
46.39000 184.664
46.40000 185.277
46.41000 186.316
46.42000 187.392
46.43000 188.579
46.44000 189.775
46.45000 190.593
46.46000 186.116
46.47000 182.642
46.48000 182.023
46.49000 185.394
46.50000 188.791
46.51000 189.630
46.52000 188.173
46.53000 186.731
46.54000 188.257
46.55000 191.461
46.56000 194.394
46.57000 191.767
46.58000 186.937
46.59000 182.682
46.60000 184.442
46.61000 187.800
46.62000 190.752
46.63000 188.069
46.64000 184.923
46.65000 183.203
46.66000 187.194
46.67000 191.782
46.68000 196.135
46.69000 199.857
46.70000 203.545
46.71000 205.935
46.72000 199.236
46.73000 194.197
46.74000 190.643
46.75000 188.860
46.76000 187.097
46.77000 189.189
46.78000 194.222
46.79000 199.167
46.80000 194.946
46.81000 186.376
46.82000 178.332
46.83000 178.474
46.84000 181.414
46.85000 184.390
46.86000 187.659
46.87000 190.996
46.88000 193.856
46.89000 192.553
46.90000 190.945
46.91000 189.478
46.92000 188.497
46.93000 187.558
46.94000 187.522
46.95000 189.576
46.96000 191.714
46.97000 193.020
46.98000 190.740
46.99000 189.079
47.00000 187.968
47.01000 187.410
47.02000 186.834
47.03000 184.578
47.04000 181.225
47.05000 177.961
47.06000 180.258
47.07000 184.768
47.08000 189.079
47.09000 190.984
47.10000 192.179
47.11000 192.791
47.12000 189.311
47.13000 185.039
47.14000 181.480
47.15000 185.838
47.16000 190.236
47.17000 193.018
47.18000 191.010
47.19000 188.688
47.20000 187.060
47.21000 186.819
47.22000 186.617
47.23000 186.501
47.24000 186.277
47.25000 186.119
47.26000 185.382
47.27000 184.152
47.28000 182.936
47.29000 182.438
47.30000 182.343
47.31000 182.252
47.32000 188.258
47.33000 196.058
47.34000 203.178
47.35000 203.660
47.36000 202.462
47.37000 200.854
47.38000 196.829
47.39000 192.410
47.40000 188.843
47.41000 186.817
47.42000 185.293
47.43000 183.989
47.44000 183.250
47.45000 182.540
47.46000 181.308
47.47000 179.182
47.48000 177.039
47.49000 175.902
47.50000 178.149
47.51000 179.677
47.52000 180.817
47.53000 181.675
47.54000 182.591
47.55000 185.383
47.56000 189.084
47.57000 192.599
47.58000 189.984
47.59000 185.723
47.60000 181.912
47.61000 181.701
47.62000 182.267
47.63000 183.001
47.64000 184.573
47.65000 186.258
47.66000 187.572
47.67000 188.441
47.68000 189.106
47.69000 188.914
47.70000 186.829
47.71000 184.677
47.72000 179.713
47.73000 170.594
47.74000 161.438
47.75000 161.649
47.76000 170.792
47.77000 179.909
47.78000 187.070
47.79000 193.014
47.80000 198.618
47.81000 196.389
47.82000 190.888
47.83000 185.743
47.84000 184.529
47.85000 184.430
47.86000 184.552
47.87000 186.143
47.88000 188.003
47.89000 188.603
47.90000 183.858
47.91000 178.512
47.92000 174.504
47.93000 182.246
47.94000 188.847
47.95000 191.031
47.96000 184.800
47.97000 178.366
47.98000 176.698
47.99000 181.050
48.00000 185.415
48.01000 183.557
48.02000 176.697
48.03000 169.929
48.04000 167.179
48.05000 166.581
48.06000 166.330
48.07000 172.007
48.08000 179.823
48.09000 187.004
48.10000 184.286
48.11000 179.732
48.12000 176.161
48.13000 178.060
48.14000 180.804
48.15000 181.926
48.16000 177.155
48.17000 171.847
48.18000 168.035
48.19000 170.300
48.20000 172.243
48.21000 172.827
48.22000 171.182
48.23000 169.506
48.24000 167.272
48.25000 164.442
48.26000 161.625
48.27000 164.734
48.28000 171.852
48.29000 178.867
48.30000 182.865
48.31000 185.471
48.32000 187.352
48.33000 179.651
48.34000 168.970
48.35000 159.352
48.36000 163.815
48.37000 170.263
48.38000 175.563
48.39000 175.439
48.40000 174.618
48.41000 174.358
48.42000 175.852
48.43000 177.473
48.44000 178.583
48.45000 184.485
48.46000 189.020
48.47000 190.571
48.48000 187.925
48.49000 185.251
48.50000 182.770
48.51000 180.464
48.52000 178.182
48.53000 177.464
48.54000 177.668
48.55000 177.778
48.56000 175.939
48.57000 173.322
48.58000 171.190
48.59000 174.163
48.60000 178.500
48.61000 182.318
48.62000 178.249
48.63000 173.564
48.64000 169.914
48.65000 170.434
48.66000 171.393
48.67000 172.124
48.68000 172.240
48.69000 172.323
48.70000 172.376
48.71000 168.969
48.72000 166.420
48.73000 165.395
48.74000 166.198
48.75000 167.010
48.76000 168.918
48.77000 171.668
48.78000 174.370
48.79000 173.746
48.80000 171.501
48.81000 169.325
48.82000 168.226
48.83000 167.498
48.84000 167.282
48.85000 171.444
48.86000 176.609
48.87000 181.041
48.88000 176.050
48.89000 170.671
48.90000 167.043
48.91000 169.479
48.92000 172.429
48.93000 173.672
48.94000 170.941
48.95000 168.048
48.96000 166.276
48.97000 161.356
48.98000 157.806
48.99000 161.465
49.00000 172.439
49.01000 183.314
49.02000 184.797
49.03000 180.108
49.04000 175.541
49.05000 172.572
49.06000 170.412
49.07000 168.595
49.08000 170.979
49.09000 174.608
49.10000 177.800
49.11000 177.894
49.12000 177.384
49.13000 176.959
49.14000 171.676
49.15000 166.807
49.16000 164.233
49.17000 168.498
49.18000 173.218
49.19000 175.414
49.20000 172.540
49.21000 169.524
49.22000 167.794
49.23000 165.910
49.24000 164.596
49.25000 165.340
49.26000 167.850
49.27000 170.340
49.28000 171.820
49.29000 172.729
49.30000 173.604
49.31000 172.345
49.32000 170.400
49.33000 168.953
49.34000 172.409
49.35000 177.113
49.36000 180.084
49.37000 172.792
49.38000 163.813
49.39000 156.555
49.40000 156.233
49.41000 156.528
49.42000 157.286
49.43000 159.237
49.44000 161.247
49.45000 163.619
49.46000 166.614
49.47000 169.621
49.48000 171.222
49.49000 172.130
49.50000 172.746
49.51000 173.042
49.52000 173.105
49.53000 173.273
49.54000 176.957
49.55000 182.353
49.56000 187.482
49.57000 182.716
49.58000 175.310
49.59000 168.470
49.60000 166.180
49.61000 164.881
49.62000 163.941
49.63000 164.807
49.64000 165.922
49.65000 166.791
49.66000 166.913
49.67000 166.963
49.68000 166.764
49.69000 166.014
49.70000 165.244
49.71000 164.665
49.72000 164.370
49.73000 164.077
49.74000 164.890
49.75000 166.765
49.76000 168.617
49.77000 168.739
49.78000 167.779
49.79000 166.742
49.80000 163.915
49.81000 160.336
49.82000 156.986
49.83000 157.161
49.84000 158.225
49.85000 159.311
49.86000 160.547
49.87000 161.811
49.88000 163.827
49.89000 169.054
49.90000 174.644
49.91000 178.843
49.92000 175.370
49.93000 172.289
49.94000 170.404
49.95000 170.807
49.96000 171.267
49.97000 171.142
49.98000 170.274
49.99000 169.404
50.00000 165.330
50.01000 158.674
50.02000 152.197
50.03000 153.732
50.04000 159.580
50.05000 165.007
50.06000 163.139
50.07000 158.624
50.08000 154.471
50.09000 154.764
50.10000 155.988
50.11000 157.219
50.12000 158.496
50.13000 159.779
50.14000 161.024
50.15000 162.123
50.16000 163.210
50.17000 163.992
50.18000 162.792
50.19000 161.804
50.20000 161.056
50.21000 160.706
50.22000 160.362
50.23000 161.738
50.24000 164.969
50.25000 168.186
50.26000 167.539
50.27000 164.245
50.28000 161.083
50.29000 161.826
50.30000 164.383
50.31000 166.675
50.32000 165.434
50.33000 163.086
50.34000 160.971
50.35000 159.907
50.36000 159.164
50.37000 159.018
50.38000 161.714
50.39000 164.777
50.40000 166.536
50.41000 164.189
50.42000 161.544
50.43000 159.728
50.44000 160.749
50.45000 161.582
50.46000 161.770
50.47000 161.043
50.48000 160.311
50.49000 161.813
50.50000 165.348
50.51000 168.848
50.52000 169.470
50.53000 168.399
50.54000 167.332
50.55000 166.342
50.56000 165.384
50.57000 164.665
50.58000 166.485
50.59000 168.987
50.60000 171.192
50.61000 172.272
50.62000 173.034
50.63000 173.156
50.64000 170.683
50.65000 167.934
50.66000 166.878
50.67000 170.414
50.68000 174.206
50.69000 176.675
50.70000 171.885
50.71000 168.260
50.72000 165.016
50.73000 162.234
50.74000 159.464
50.75000 159.536
50.76000 161.803
50.77000 164.032
50.78000 164.620
50.79000 164.373
50.80000 164.239
50.81000 165.891
50.82000 168.161
50.83000 170.040
50.84000 168.545
50.85000 166.274
50.86000 164.322
50.87000 161.775
50.88000 159.548
50.89000 158.363
50.90000 160.810
50.91000 163.568
50.92000 165.928
50.93000 167.359
50.94000 168.751
50.95000 169.605
50.96000 163.109
50.97000 158.389
50.98000 156.271
50.99000 156.810
51.00000 157.348
51.01000 157.854
51.02000 158.338
51.03000 158.809
51.04000 158.530
51.05000 157.947
51.06000 157.286
51.07000 155.661
51.08000 153.749
51.09000 152.173
51.10000 152.998
51.11000 154.294
51.12000 155.376
51.13000 156.353
51.14000 157.154
51.15000 157.363
51.16000 155.798
51.17000 154.113
51.18000 154.294
51.19000 158.247
51.20000 162.308
51.21000 164.643
51.22000 157.299
51.23000 152.133
51.24000 151.845
51.25000 155.766
51.26000 159.648
51.27000 161.456
51.28000 162.084
51.29000 162.690
51.30000 158.965
51.31000 153.909
51.32000 149.516
51.33000 151.701
51.34000 155.570
51.35000 158.819
51.36000 158.371
51.37000 157.310
51.38000 156.451
51.39000 152.896
51.40000 149.785
51.41000 148.121
51.42000 150.199
51.43000 152.469
51.44000 155.410
51.45000 159.521
51.46000 163.654
51.47000 165.861
51.48000 158.049
51.49000 152.758
51.50000 154.897
51.51000 162.496
51.52000 169.880
51.53000 169.950
51.54000 166.438
51.55000 163.098
51.56000 161.586
51.57000 160.745
51.58000 160.199
51.59000 162.046
51.60000 164.417
51.61000 165.397
51.62000 159.362
51.63000 152.356
51.64000 146.878
51.65000 151.672
51.66000 156.150
51.67000 159.029
51.68000 158.336
51.69000 157.511
51.70000 157.834
51.71000 159.875
51.72000 161.932
51.73000 161.598
51.74000 158.952
51.75000 156.330
51.76000 155.666
51.77000 156.234
51.78000 156.715
51.79000 155.138
51.80000 152.690
51.81000 150.398
51.82000 150.785
51.83000 151.828
51.84000 152.558
51.85000 151.176
51.86000 149.401
51.87000 148.346
51.88000 150.383
51.89000 152.773
51.90000 154.570
51.91000 160.866
51.92000 166.008
51.93000 168.162
51.94000 164.555
51.95000 160.803
51.96000 157.528
51.97000 154.860
51.98000 152.199
51.99000 150.561
52.00000 149.763
52.01000 148.998
52.02000 149.715
52.03000 151.236
52.04000 152.723
52.05000 153.600
52.06000 154.255
52.07000 154.857
52.08000 158.691
52.09000 162.822
52.10000 166.264
52.11000 165.809
52.12000 164.745
52.13000 163.016
52.14000 158.847
52.15000 154.452
52.16000 151.283
52.17000 152.475
52.18000 153.542
52.19000 153.682
52.20000 152.282
52.21000 150.858
52.22000 149.604
52.23000 148.535
52.24000 147.471
52.25000 148.951
52.26000 152.176
52.27000 155.311
52.28000 155.765
52.29000 154.967
52.30000 154.175
52.31000 153.464
52.32000 152.780
52.33000 152.163
52.34000 156.125
52.35000 160.442
52.36000 163.261
52.37000 158.914
52.38000 153.633
52.39000 149.980
52.40000 151.479
52.41000 153.357
52.42000 154.649
52.43000 153.399
52.44000 152.400
52.45000 150.722
52.46000 148.078
52.47000 145.428
52.48000 144.147
52.49000 144.121
52.50000 144.095
52.51000 145.012
52.52000 146.465
52.53000 147.932
52.54000 149.680
52.55000 151.543
52.56000 153.301
52.57000 153.944
52.58000 154.286
52.59000 154.588
52.60000 151.414
52.61000 148.150
52.62000 146.306
52.63000 150.264
52.64000 154.844
52.65000 158.745
52.66000 160.797
52.67000 162.745
52.68000 164.015
52.69000 152.992
52.70000 144.707
52.71000 141.461
52.72000 144.338
52.73000 147.234
52.74000 151.503
52.75000 156.840
52.76000 162.089
52.77000 160.522
52.78000 155.598
52.79000 151.179
52.80000 154.855
52.81000 161.350
52.82000 166.613
52.83000 161.175
52.84000 153.255
52.85000 146.444
52.86000 146.561
52.87000 147.528
52.88000 148.184
52.89000 147.751
52.90000 147.224
52.91000 145.412
52.92000 140.573
52.93000 135.608
52.94000 132.552
52.95000 141.294
52.96000 147.671
52.97000 149.377
52.98000 146.278
52.99000 143.212
53.00000 143.437
53.01000 145.852
53.02000 148.206
53.03000 148.848
53.04000 148.733
53.05000 148.759
53.06000 150.565
53.07000 152.904
53.08000 154.964
53.09000 155.019
53.10000 154.679
53.11000 154.394
53.12000 150.137
53.13000 146.196
53.14000 143.652
53.15000 145.317
53.16000 147.269
53.17000 147.999
53.18000 146.245
53.19000 144.419
53.20000 143.365
53.21000 151.239
53.22000 156.782
53.23000 158.820
53.24000 157.812
53.25000 156.813
53.26000 156.329
53.27000 156.140
53.28000 155.957
53.29000 158.140
53.30000 161.049
53.31000 163.497
53.32000 161.338
53.33000 157.990
53.34000 154.998
53.35000 154.140
53.36000 153.637
53.37000 153.230
53.38000 149.744
53.39000 146.653
53.40000 143.506
53.41000 140.212
53.42000 136.911
53.43000 136.919
53.44000 142.725
53.45000 148.637
53.46000 151.805
53.47000 156.649
53.48000 159.951
53.49000 162.275
53.50000 163.875
53.51000 165.342
53.52000 162.204
53.53000 156.796
53.54000 151.650
53.55000 150.704
53.56000 151.118
53.57000 151.497
53.58000 151.587
53.59000 151.613
53.60000 151.118
53.61000 147.976
53.62000 144.466
53.63000 141.717
53.64000 144.238
53.65000 146.590
53.66000 148.402
53.67000 149.000
53.68000 149.552
53.69000 149.701
53.70000 149.241
53.71000 148.776
53.72000 147.679
53.73000 145.967
53.74000 144.251
53.75000 142.179
53.76000 139.880
53.77000 137.790
53.78000 140.678
53.79000 145.685
53.80000 150.377
53.81000 149.000
53.82000 146.168
53.83000 143.660
53.84000 143.347
53.85000 143.445
53.86000 143.751
53.87000 144.951
53.88000 146.254
53.89000 147.236
53.90000 145.638
53.91000 144.260
53.92000 144.331
53.93000 147.210
53.94000 150.160
53.95000 150.500
53.96000 147.478
53.97000 144.446
53.98000 141.724
53.99000 139.264
54.00000 136.900
54.01000 138.971
54.02000 143.459
54.03000 147.764
54.04000 148.824
54.05000 148.692
54.06000 148.571
54.07000 145.537
54.08000 142.183
54.09000 139.370
54.10000 139.634
54.11000 140.384
54.12000 141.069
54.13000 141.519
54.14000 141.946
54.15000 142.254
54.16000 142.333
54.17000 142.385
54.18000 143.377
54.19000 145.941
54.20000 148.528
54.21000 148.721
54.22000 146.296
54.23000 143.879
54.24000 142.443
54.25000 141.703
54.26000 140.986
54.27000 140.954
54.28000 141.245
54.29000 141.524
54.30000 141.656
54.31000 141.739
54.32000 141.815
54.33000 142.054
54.34000 142.293
54.35000 142.371
54.36000 141.673
54.37000 140.874
54.38000 140.224
54.39000 140.051
54.40000 139.913
54.41000 139.819
54.42000 142.671
54.43000 144.887
54.44000 145.553
54.45000 143.998
54.46000 142.426
54.47000 141.353
54.48000 140.741
54.49000 140.135
54.50000 142.032
54.51000 145.371
54.52000 148.539
54.53000 148.023
54.54000 146.010
54.55000 144.231
54.56000 144.964
54.57000 146.383
54.58000 147.635
54.59000 146.945
54.60000 146.053
54.61000 145.263
54.62000 144.897
54.63000 144.577
54.64000 145.026
54.65000 147.588
54.66000 150.271
54.67000 152.025
54.68000 146.185
54.69000 141.772
54.70000 140.299
54.71000 142.423
54.72000 144.550
54.73000 145.276
54.74000 144.903
54.75000 144.537
54.76000 146.485
54.77000 149.536
54.78000 152.283
54.79000 150.107
54.80000 146.205
54.81000 143.144
54.82000 147.455
54.83000 153.486
54.84000 158.678
54.85000 157.216
54.86000 155.138
54.87000 152.538
54.88000 148.104
54.89000 143.510
54.90000 140.452
54.91000 141.035
54.92000 141.773
54.93000 142.228
54.94000 135.213
54.95000 130.107
54.96000 129.963
54.97000 134.958
54.98000 139.939
54.99000 143.403
55.00000 145.852
55.01000 148.240
55.02000 149.721
55.03000 150.746
55.04000 151.258
55.05000 145.288
55.06000 137.360
55.07000 130.451
55.08000 130.911
55.09000 132.835
55.10000 134.445
55.11000 136.200
55.12000 137.674
55.13000 138.550
55.14000 137.612
55.15000 136.549
55.16000 136.155
55.17000 137.129
55.18000 138.143
55.19000 138.729
55.20000 144.125
55.21000 147.922
55.22000 146.787
55.23000 141.339
55.24000 135.971
55.25000 134.987
55.26000 136.524
55.27000 138.007
55.28000 142.002
55.29000 146.677
55.30000 150.936
55.31000 151.005
55.32000 149.988
55.33000 148.832
55.34000 146.839
55.35000 144.705
55.36000 142.973
55.37000 142.432
55.38000 142.089
55.39000 141.287
55.40000 139.281
55.41000 137.212
55.42000 136.564
55.43000 138.422
55.44000 140.327
55.45000 141.351
55.46000 146.910
55.47000 150.672
55.48000 146.842
55.49000 137.361
55.50000 128.218
55.51000 130.900
55.52000 139.444
55.53000 147.580
55.54000 147.991
55.55000 145.981
55.56000 144.285
55.57000 145.158
55.58000 146.602
55.59000 147.410
55.60000 144.965
55.61000 142.064
55.62000 139.789
55.63000 141.240
55.64000 142.641
55.65000 143.080
55.66000 141.343
55.67000 139.523
55.68000 140.263
55.69000 144.879
55.70000 149.536
55.71000 150.550
55.72000 147.994
55.73000 145.423
55.74000 141.740
55.75000 137.346
55.76000 133.199
55.77000 135.051
55.78000 139.469
55.79000 143.613
55.80000 143.018
55.81000 141.234
55.82000 139.851
55.83000 141.195
55.84000 143.053
55.85000 144.356
55.86000 143.244
55.87000 141.852
55.88000 140.801
55.89000 142.250
55.90000 143.510
55.91000 143.997
55.92000 142.979
55.93000 141.921
55.94000 141.399
55.95000 141.569
55.96000 141.742
55.97000 141.334
55.98000 140.447
55.99000 139.588
56.00000 140.058
56.01000 141.258
56.02000 142.438
56.03000 143.270
56.04000 143.974
56.05000 144.623
56.06000 145.112
56.07000 145.515
56.08000 145.303
56.09000 141.575
56.10000 137.289
56.11000 133.653
56.12000 132.437
56.13000 131.449
56.14000 130.734
56.15000 135.251
56.16000 138.909
56.17000 141.635
56.18000 142.795
56.19000 143.931
56.20000 143.905
56.21000 142.602
56.22000 141.303
56.23000 140.906
56.24000 141.145
56.25000 141.306
56.26000 139.029
56.27000 135.600
56.28000 132.459
56.29000 133.287
56.30000 135.379
56.31000 137.270
56.32000 135.958
56.33000 134.210
56.34000 132.660
56.35000 132.067
56.36000 131.601
56.37000 131.751
56.38000 133.875
56.39000 136.147
56.40000 137.715
56.41000 135.460
56.42000 133.668
56.43000 133.704
56.44000 136.377
56.45000 139.072
56.46000 140.799
56.47000 141.628
56.48000 142.450
56.49000 142.982
56.50000 143.331
56.51000 143.606
56.52000 142.252
56.53000 140.234
56.54000 138.164
56.55000 135.541
56.56000 132.766
56.57000 130.314
56.58000 131.441
56.59000 132.965
56.60000 134.842
56.61000 138.173
56.62000 141.663
56.63000 143.352
56.64000 140.067
56.65000 136.495
56.66000 134.153
56.67000 132.404
56.68000 131.128
56.69000 131.854
56.70000 135.044
56.71000 138.231
56.72000 138.990
56.73000 137.833
56.74000 136.695
56.75000 134.240
56.76000 131.196
56.77000 128.320
56.78000 128.201
56.79000 129.053
56.80000 130.297
56.81000 135.008
56.82000 140.533
56.83000 145.295
56.84000 141.727
56.85000 137.643
56.86000 134.362
56.87000 133.932
56.88000 133.753
56.89000 133.536
56.90000 133.228
56.91000 132.917
56.92000 132.725
56.93000 133.852
56.94000 134.675
56.95000 134.294
56.96000 132.656
56.97000 131.041
56.98000 131.920
56.99000 134.479
57.00000 136.975
57.01000 135.001
57.02000 131.187
57.03000 127.819
57.04000 130.133
57.05000 134.173
57.06000 137.535
57.07000 135.957
57.08000 133.390
57.09000 131.239
57.10000 131.960
57.11000 132.857
57.12000 134.495
57.13000 138.395
57.14000 142.452
57.15000 143.840
57.16000 139.736
57.17000 135.467
57.18000 132.991
57.19000 135.697
57.20000 137.618
57.21000 139.840
57.22000 142.326
57.23000 144.672
57.24000 139.034
57.25000 128.776
57.26000 118.876
57.27000 119.080
57.28000 122.976
57.29000 126.655
57.30000 128.119
57.31000 129.006
57.32000 130.081
57.33000 132.302
57.34000 134.716
57.35000 136.679
57.36000 137.831
57.37000 138.704
57.38000 139.234
57.39000 138.860
57.40000 138.438
57.41000 137.570
57.42000 135.912
57.43000 134.238
57.44000 133.336
57.45000 128.170
57.46000 124.659
57.47000 126.535
57.48000 132.444
57.49000 138.236
57.50000 139.868
57.51000 139.425
57.52000 139.004
57.53000 137.489
57.54000 135.744
57.55000 134.298
57.56000 135.328
57.57000 136.910
57.58000 138.346
57.59000 139.032
57.60000 139.611
57.61000 140.067
57.62000 137.163
57.63000 134.620
57.64000 132.100
57.65000 129.632
57.66000 127.166
57.67000 126.487
57.68000 128.533
57.69000 130.608
57.70000 131.244
57.71000 130.461
57.72000 129.672
57.73000 128.399
57.74000 126.816
57.75000 125.289
57.76000 125.156
57.77000 125.624
57.78000 126.062
57.79000 126.435
57.80000 126.758
57.81000 127.515
57.82000 131.256
57.83000 135.563
57.84000 138.833
57.85000 137.563
57.86000 135.761
57.87000 134.399
57.88000 131.803
57.89000 129.705
57.90000 128.721
57.91000 129.923
57.92000 131.183
57.93000 133.201
57.94000 136.209
57.95000 139.217
57.96000 139.108
57.97000 136.401
57.98000 133.754
57.99000 133.929
58.00000 135.662
58.01000 137.351
58.02000 138.227
58.03000 138.801
58.04000 139.331
58.05000 136.415
58.06000 133.035
58.07000 130.171
58.08000 130.275
58.09000 130.855
58.10000 131.934
58.11000 134.880
58.12000 138.005
58.13000 140.270
58.14000 136.843
58.15000 133.999
58.16000 133.865
58.17000 138.309
58.18000 142.828
58.19000 143.160
58.20000 138.851
58.21000 134.557
58.22000 132.836
58.23000 132.947
58.24000 133.032
58.25000 132.299
58.26000 131.177
58.27000 130.090
58.28000 129.495
58.29000 129.057
58.30000 128.661
58.31000 126.833
58.32000 124.957
58.33000 125.112
58.34000 135.176
58.35000 146.563
58.36000 153.466
58.37000 145.927
58.38000 137.292
58.39000 131.319
58.40000 133.824
58.41000 135.928
58.42000 137.841
58.43000 139.477
58.44000 141.109
58.45000 140.849
58.46000 138.820
58.47000 136.808
58.48000 134.986
58.49000 133.313
58.50000 131.761
58.51000 132.897
58.52000 135.136
58.53000 137.169
58.54000 136.927
58.55000 136.058
58.56000 135.290
58.57000 133.454
58.58000 131.701
58.59000 129.722
58.60000 126.802
58.61000 123.779
58.62000 122.374
58.63000 125.464
58.64000 128.817
58.65000 131.020
58.66000 135.167
58.67000 138.251
58.68000 139.787
58.69000 139.404
58.70000 139.018
58.71000 139.494
58.72000 140.653
58.73000 141.793
58.74000 140.103
58.75000 137.022
58.76000 133.949
58.77000 131.003
58.78000 128.102
58.79000 125.750
58.80000 128.280
58.81000 131.965
58.82000 135.144
58.83000 132.761
58.84000 130.026
58.85000 128.355
58.86000 130.476
58.87000 132.934
58.88000 135.347
58.89000 137.653
58.90000 139.955
58.91000 141.383
58.92000 131.826
58.93000 124.844
58.94000 122.413
58.95000 124.760
58.96000 127.104
58.97000 129.115
58.98000 130.900
58.99000 132.641
59.00000 130.256
59.01000 126.186
59.02000 122.560
59.03000 124.665
59.04000 128.520
59.05000 132.229
59.06000 134.867
59.07000 137.290
59.08000 139.323
59.09000 130.683
59.10000 122.374
59.11000 117.591
59.12000 123.632
59.13000 130.432
59.14000 135.898
59.15000 138.602
59.16000 141.221
59.17000 142.744
59.18000 136.907
59.19000 132.780
59.20000 132.863
59.21000 136.680
59.22000 140.372
59.23000 136.895
59.24000 129.244
59.25000 121.857
59.26000 124.075
59.27000 129.710
59.28000 134.956
59.29000 136.214
59.30000 136.425
59.31000 136.289
59.32000 134.035
59.33000 131.419
59.34000 129.291
59.35000 128.497
59.36000 127.961
59.37000 126.924
59.38000 124.560
59.39000 122.124
59.40000 122.175
59.41000 126.660
59.42000 131.233
59.43000 133.706
59.44000 132.893
59.45000 132.339
59.46000 133.084
59.47000 134.808
59.48000 136.373
59.49000 132.144
59.50000 125.009
59.51000 118.208
59.52000 121.009
59.53000 126.618
59.54000 131.379
59.55000 129.065
59.56000 125.160
59.57000 122.032
59.58000 122.922
59.59000 124.385
59.60000 125.536
59.61000 131.290
59.62000 136.202
59.63000 140.957
59.64000 145.349
59.65000 149.727
59.66000 149.208
59.67000 141.178
59.68000 133.066
59.69000 132.485
59.70000 139.393
59.71000 146.205
59.72000 144.676
59.73000 137.763
59.74000 131.049
59.75000 129.310
59.76000 129.724
59.77000 130.112
59.78000 130.813
59.79000 131.534
59.80000 131.965
59.81000 130.384
59.82000 128.419
59.83000 126.485
59.84000 124.688
59.85000 122.906
59.86000 121.557
59.87000 125.057
59.88000 128.049
59.89000 130.853
59.90000 133.288
59.91000 135.713
59.92000 135.437
59.93000 131.614
59.94000 127.780
59.95000 127.587
59.96000 130.449
59.97000 133.246
59.98000 132.891
59.99000 130.785
60.00000 128.813
60.01000 129.288
60.02000 130.677
60.03000 131.960
60.04000 128.239
60.05000 123.782
60.06000 120.762
60.07000 126.080
60.08000 132.741
60.09000 137.339
60.10000 134.161
60.11000 130.236
60.12000 127.387
60.13000 134.792
60.14000 140.870
60.15000 143.894
60.16000 141.727
60.17000 139.474
60.18000 136.551
60.19000 132.881
60.20000 129.224
60.21000 126.947
60.22000 125.670
60.23000 124.493
60.24000 126.499
60.25000 130.028
60.26000 133.363
60.27000 133.981
60.28000 133.722
60.29000 133.488
60.30000 133.224
60.31000 132.986
60.32000 132.902
60.33000 133.572
60.34000 134.343
60.35000 134.875
60.36000 134.634
60.37000 134.333
60.38000 134.125
60.39000 130.341
60.40000 127.398
60.41000 126.852
60.42000 129.806
60.43000 132.789
60.44000 134.306
60.45000 134.442
60.46000 134.578
60.47000 133.295
60.48000 131.183
60.49000 129.151
60.50000 128.953
60.51000 129.512
60.52000 129.912
60.53000 128.535
60.54000 126.667
60.55000 125.012
60.56000 128.128
60.57000 131.571
60.58000 133.554
60.59000 129.429
60.60000 124.627
60.61000 122.339
60.62000 127.076
60.63000 132.229
60.64000 135.621
60.65000 137.682
60.66000 139.177
60.67000 138.062
60.68000 133.691
60.69000 129.321
60.70000 128.872
60.71000 131.553
60.72000 134.193
60.73000 132.739
60.74000 129.228
60.75000 126.018
60.76000 127.861
60.77000 131.504
60.78000 134.687
60.79000 133.730
60.80000 131.788
60.81000 130.111
60.82000 131.320
60.83000 132.719
60.84000 133.882
60.85000 134.194
60.86000 134.431
60.87000 135.283
60.88000 137.617
60.89000 140.017
60.90000 141.509
60.91000 139.888
60.92000 138.689
60.93000 138.543
60.94000 139.510
60.95000 140.467
60.96000 140.345
60.97000 139.487
60.98000 138.650
60.99000 138.373
61.00000 138.352
61.01000 138.453
61.02000 140.140
61.03000 142.315
61.04000 143.766
61.05000 139.869
61.06000 134.888
61.07000 130.703
61.08000 128.662
61.09000 127.188
61.10000 127.324
61.11000 132.430
61.12000 137.888
61.13000 141.435
61.14000 141.005
61.15000 140.451
61.16000 140.129
61.17000 135.658
61.18000 132.497
61.19000 130.901
61.20000 130.700
61.21000 130.501
61.22000 130.442
61.23000 130.465
61.24000 130.486
61.25000 131.952
61.26000 133.869
61.27000 135.400
61.28000 132.936
61.29000 129.416
61.30000 126.604
61.31000 128.164
61.32000 130.475
61.33000 132.357
61.34000 136.175
61.35000 139.460
61.36000 142.168
61.37000 143.337
61.38000 144.424
61.39000 144.167
61.40000 141.499
61.41000 138.783
61.42000 137.309
61.43000 137.398
61.44000 137.461
61.45000 137.604
61.46000 137.807
61.47000 138.055
61.48000 139.931
61.49000 142.627
61.50000 145.199
61.51000 151.777
61.52000 159.145
61.53000 166.392
61.54000 172.624
61.55000 178.625
61.56000 185.140
61.57000 194.330
61.58000 203.904
61.59000 211.444
61.60000 220.504
61.61000 227.866
61.62000 235.895
61.63000 245.461
61.64000 255.087
61.65000 259.707
61.66000 256.598
61.67000 253.402
61.68000 251.804
61.69000 251.333
61.70000 251.042
61.71000 252.845
61.72000 256.008
61.73000 259.079
61.74000 259.822
61.75000 259.551
61.76000 259.296
61.77000 250.354
61.78000 239.871
61.79000 229.154
61.80000 216.807
61.81000 204.146
61.82000 192.179
61.83000 183.286
61.84000 174.759
61.85000 168.293
61.86000 166.136
61.87000 164.663
61.88000 163.464
61.89000 162.810
61.90000 162.171
61.91000 158.139
61.92000 149.627
61.93000 141.101
61.94000 138.750
61.95000 141.618
61.96000 144.393
61.97000 142.529
61.98000 138.075
61.99000 133.982
62.00000 136.600
62.01000 141.740
62.02000 146.488
62.03000 143.274
62.04000 138.594
62.05000 134.590
62.06000 134.534
62.07000 135.120
62.08000 136.013
62.09000 138.071
62.10000 140.242
62.11000 141.822
62.12000 145.024
62.13000 147.550
62.14000 149.143
62.15000 149.139
62.16000 149.108
62.17000 146.415
62.18000 140.732
62.19000 135.067
62.20000 134.279
62.21000 136.983
62.22000 139.633
62.23000 140.508
62.24000 140.530
62.25000 140.430
62.26000 138.613
62.27000 136.238
62.28000 134.086
62.29000 132.216
62.30000 130.620
62.31000 129.916
62.32000 133.619
62.33000 137.919
62.34000 141.259
62.35000 141.465
62.36000 141.429
62.37000 141.404
62.38000 139.980
62.39000 138.870
62.40000 137.193
62.41000 134.681
62.42000 132.161
62.43000 129.246
62.44000 125.957
62.45000 122.695
62.46000 125.434
62.47000 131.765
62.48000 137.824
62.49000 137.674
62.50000 134.943
62.51000 132.431
62.52000 132.372
62.53000 132.998
62.54000 133.552
62.55000 136.324
62.56000 139.073
62.57000 140.673
62.58000 137.428
62.59000 133.642
62.60000 131.665
62.61000 134.767
62.62000 138.174
62.63000 140.422
62.64000 136.804
62.65000 134.034
62.66000 132.989
62.67000 134.110
62.68000 135.242
62.69000 137.826
62.70000 141.578
62.71000 145.274
62.72000 144.480
62.73000 141.392
62.74000 138.483
62.75000 138.623
62.76000 139.856
62.77000 141.159
62.78000 143.097
62.79000 145.187
62.80000 146.993
62.81000 146.211
62.82000 145.208
62.83000 143.503
62.84000 139.263
62.85000 134.794
62.86000 133.244
62.87000 138.776
62.88000 144.625
62.89000 148.270
62.90000 142.900
62.91000 138.938
62.92000 137.504
62.93000 138.762
62.94000 140.007
62.95000 139.659
62.96000 138.217
62.97000 136.809
62.98000 138.000
62.99000 140.282
63.00000 142.361
63.01000 141.776
63.02000 140.367
63.03000 139.317
63.04000 140.943
63.05000 143.115
63.06000 144.942
63.07000 144.149
63.08000 143.210
63.09000 142.863
63.10000 144.355
63.11000 145.979
63.12000 146.112
63.13000 143.122
63.14000 140.033
63.15000 138.228
63.16000 141.669
63.17000 144.114
63.18000 143.311
63.19000 139.590
63.20000 135.975
63.21000 138.773
63.22000 145.351
63.23000 151.708
63.24000 151.386
63.25000 148.585
63.26000 146.022
63.27000 145.942
63.28000 146.523
63.29000 147.188
63.30000 148.381
63.31000 149.666
63.32000 150.714
63.33000 150.631
63.34000 150.467
63.35000 149.261
63.36000 145.264
63.37000 141.114
63.38000 140.831
63.39000 147.532
63.40000 154.376
63.41000 158.101
63.42000 157.559
63.43000 157.179
63.44000 156.254
63.45000 154.915
63.46000 153.565
63.47000 151.845
63.48000 149.938
63.49000 148.117
63.50000 148.822
63.51000 150.278
63.52000 151.869
63.53000 154.608
63.54000 157.608
63.55000 159.740
63.56000 157.316
63.57000 154.233
63.58000 151.801
63.59000 152.034
63.60000 152.401
63.61000 150.795
63.62000 144.624
63.63000 138.269
63.64000 135.992
63.65000 140.046
63.66000 144.174
63.67000 146.246
63.68000 146.292
63.69000 146.333
63.70000 147.381
63.71000 149.084
63.72000 150.733
63.73000 150.951
63.74000 150.544
63.75000 150.161
63.76000 152.336
63.77000 155.011
63.78000 157.228
63.79000 156.225
63.80000 154.599
63.81000 152.878
63.82000 150.729
63.83000 148.529
63.84000 146.858
63.85000 147.016
63.86000 147.236
63.87000 147.896
63.88000 149.438
63.89000 151.004
63.90000 151.916
63.91000 151.956
63.92000 151.992
63.93000 155.126
63.94000 160.886
63.95000 166.564
63.96000 168.015
63.97000 167.093
63.98000 165.905
63.99000 159.753
64.00000 151.724
64.01000 144.301
64.02000 148.172
64.03000 154.212
64.04000 159.550
64.05000 160.752
64.06000 161.278
64.07000 161.277
64.08000 159.265
64.09000 157.055
64.10000 155.446
64.11000 161.534
64.12000 166.518
64.13000 169.361
64.14000 168.516
64.15000 167.607
64.16000 168.786
64.17000 172.327
64.18000 175.857
64.19000 176.811
64.20000 175.903
64.21000 174.902
64.22000 170.839
64.23000 165.294
64.24000 160.039
64.25000 158.933
64.26000 159.182
64.27000 159.406
64.28000 164.341
64.29000 169.591
64.30000 173.681
64.31000 171.994
64.32000 169.518
64.33000 167.124
64.34000 164.999
64.35000 162.894
64.36000 161.430
64.37000 160.729
64.38000 160.221
64.39000 160.894
64.40000 163.314
64.41000 165.748
64.42000 165.464
64.43000 162.584
64.44000 159.727
64.45000 156.559
64.46000 153.256
64.47000 150.123
64.48000 150.915
64.49000 153.347
64.50000 156.105
64.51000 162.554
64.52000 170.039
64.53000 176.679
64.54000 174.329
64.55000 170.865
64.56000 167.619
64.57000 165.295
64.58000 163.076
64.59000 162.419
64.60000 166.180
64.61000 170.208
64.62000 172.872
64.63000 165.403
64.64000 159.711
64.65000 159.143
64.66000 165.047
64.67000 170.961
64.68000 172.665
64.69000 170.964
64.70000 169.287
64.71000 168.448
64.72000 168.069
64.73000 167.681
64.74000 167.141
64.75000 166.546
64.76000 166.121
64.77000 167.250
64.78000 168.753
64.79000 170.054
64.80000 172.237
64.81000 174.209
64.82000 175.675
64.83000 175.302
64.84000 174.761
64.85000 175.000
64.86000 177.143
64.87000 179.373
64.88000 180.765
64.89000 177.951
64.90000 175.877
64.91000 176.689
64.92000 180.593
64.93000 184.483
64.94000 186.506
64.95000 187.238
64.96000 187.954
64.97000 186.503
64.98000 184.154
64.99000 182.050
65.00000 183.181
65.01000 185.320
65.02000 186.746
65.03000 182.824
65.04000 177.803
65.05000 173.575
65.06000 181.785
65.07000 189.970
65.08000 194.741
65.09000 188.840
65.10000 182.168
65.11000 178.884
65.12000 182.738
65.13000 186.820
65.14000 189.213
65.15000 192.474
65.16000 194.776
65.17000 196.106
65.18000 196.559
65.19000 197.053
65.20000 200.113
65.21000 204.694
65.22000 209.124
65.23000 209.408
65.24000 208.114
65.25000 206.726
65.26000 204.340
65.27000 201.687
65.28000 199.460
65.29000 199.901
65.30000 200.806
65.31000 201.546
65.32000 202.231
65.33000 202.787
65.34000 203.109
65.35000 202.803
65.36000 202.462
65.37000 203.328
65.38000 206.386
65.39000 209.490
65.40000 211.184
65.41000 207.293
65.42000 204.626
65.43000 205.391
65.44000 208.794
65.45000 212.137
65.46000 213.205
65.47000 213.111
65.48000 213.021
65.49000 217.234
65.50000 222.525
65.51000 227.478
65.52000 229.542
65.53000 230.944
65.54000 232.749
65.55000 236.675
65.56000 240.911
65.57000 244.257
65.58000 243.691
65.59000 242.969
65.60000 245.270
65.61000 254.606
65.62000 264.229
65.63000 273.289
65.64000 281.468
65.65000 289.637
65.66000 293.752
65.67000 306.643
65.68000 315.371
65.69000 334.733
65.70000 361.088
65.71000 387.978
65.72000 428.782
65.73000 475.719
65.74000 519.880
65.75000 584.106
65.76000 648.239
65.77000 709.257
65.78000 748.229
65.79000 782.905
65.80000 815.502
65.81000 838.771
65.82000 860.912
65.83000 877.756
65.84000 892.638
65.85000 904.244
65.86000 914.011
65.87000 920.083
65.88000 926.050
65.89000 920.803
65.90000 900.550
65.91000 880.236
65.92000 865.654
65.93000 856.008
65.94000 846.123
65.95000 823.820
65.96000 794.499
65.97000 763.798
65.98000 706.931
65.99000 640.107
66.00000 578.292
66.01000 526.393
66.02000 482.037
66.03000 439.855
66.04000 410.553
66.05000 383.371
66.06000 358.590
66.07000 343.029
66.08000 328.377
66.09000 317.682
66.10000 309.285
66.11000 302.902
66.12000 299.071
66.13000 299.662
66.14000 300.330
66.15000 300.292
66.16000 299.447
66.17000 298.605
66.18000 297.659
66.19000 296.647
66.20000 295.647
66.21000 295.049
66.22000 294.647
66.23000 294.580
66.24000 299.358
66.25000 305.727
66.26000 311.507
66.27000 315.856
66.28000 319.421
66.29000 324.988
66.30000 340.584
66.31000 357.561
66.32000 373.975
66.33000 388.533
66.34000 402.945
66.35000 412.994
66.36000 413.470
66.37000 413.565
66.38000 417.351
66.39000 426.628
66.40000 435.956
66.41000 433.814
66.42000 420.652
66.43000 407.595
66.44000 406.199
66.45000 412.000
66.46000 417.641
66.47000 419.534
66.48000 419.852
66.49000 419.704
66.50000 414.244
66.51000 407.283
66.52000 401.104
66.53000 393.217
66.54000 386.107
66.55000 377.969
66.56000 365.438
66.57000 352.409
66.58000 341.058
66.59000 334.477
66.60000 328.188
66.61000 324.021
66.62000 319.506
66.63000 316.164
66.64000 315.865
66.65000 319.436
66.66000 322.997
66.67000 317.805
66.68000 305.487
66.69000 293.346
66.70000 297.116
66.71000 309.101
66.72000 320.446
66.73000 320.700
66.74000 316.927
66.75000 313.706
66.76000 315.559
66.77000 318.643
66.78000 321.314
66.79000 325.062
66.80000 328.394
66.81000 331.743
66.82000 335.153
66.83000 338.568
66.84000 341.289
66.85000 342.306
66.86000 343.244
66.87000 343.831
66.88000 343.289
66.89000 342.886
66.90000 342.098
66.91000 340.895
66.92000 339.705
66.93000 340.179
66.94000 341.809
66.95000 343.402
66.96000 345.161
66.97000 346.920
66.98000 348.858
66.99000 353.186
67.00000 358.263
67.01000 362.387
67.02000 359.305
67.03000 354.733
67.04000 350.879
67.05000 356.962
67.06000 363.117
67.07000 368.411
67.08000 371.000
67.09000 373.392
67.10000 375.964
67.11000 378.917
67.12000 381.882
67.13000 383.625
67.14000 378.072
67.15000 374.122
67.16000 375.397
67.17000 381.431
67.18000 387.431
67.19000 391.333
67.20000 393.985
67.21000 396.551
67.22000 395.615
67.23000 393.404
67.24000 391.386
67.25000 391.423
67.26000 392.012
67.27000 392.664
67.28000 393.713
67.29000 394.831
67.30000 395.746
67.31000 389.804
67.32000 384.339
67.33000 382.350
67.34000 389.788
67.35000 397.755
67.36000 404.869
67.37000 410.425
67.38000 415.947
67.39000 418.972
67.40000 416.030
67.41000 414.009
67.42000 414.493
67.43000 416.916
67.44000 419.258
67.45000 418.473
67.46000 416.082
67.47000 413.798
67.48000 423.236
67.49000 435.784
67.50000 446.699
67.51000 443.523
67.52000 437.100
67.53000 432.240
67.54000 435.691
67.55000 440.363
67.56000 444.059
67.57000 441.943
67.58000 439.844
67.59000 441.540
67.60000 452.123
67.61000 463.074
67.62000 466.837
67.63000 459.299
67.64000 451.624
67.65000 447.744
67.66000 459.665
67.67000 467.614
67.68000 472.825
67.69000 476.223
67.70000 479.427
67.71000 477.488
67.72000 473.270
67.73000 469.298
67.74000 474.380
67.75000 481.498
67.76000 488.420
67.77000 493.943
67.78000 499.193
67.79000 502.582
67.80000 497.568
67.81000 491.530
67.82000 486.929
67.83000 489.750
67.84000 492.364
67.85000 497.197
67.86000 506.514
67.87000 515.959
67.88000 518.939
67.89000 513.214
67.90000 507.447
67.91000 510.839
67.92000 522.117
67.93000 533.262
67.94000 537.381
67.95000 537.506
67.96000 537.410
67.97000 533.068
67.98000 527.102
67.99000 521.579
68.00000 533.699
68.01000 548.659
68.02000 562.624
68.03000 570.651
68.04000 577.694
68.05000 581.844
68.06000 574.813
68.07000 566.670
68.08000 560.716
68.09000 564.139
68.10000 567.149
68.11000 569.159
68.12000 569.424
68.13000 569.657
68.14000 570.733
68.15000 572.774
68.16000 574.810
68.17000 579.919
68.18000 587.229
68.19000 594.591
68.20000 603.727
68.21000 613.733
68.22000 623.417
68.23000 628.396
68.24000 631.820
68.25000 634.929
68.26000 638.787
68.27000 642.340
68.28000 646.716
68.29000 655.241
68.30000 664.341
68.31000 669.542
68.32000 661.800
68.33000 653.027
68.34000 646.900
68.35000 666.784
68.36000 682.532
68.37000 696.141
68.38000 706.545
68.39000 716.918
68.40000 718.991
68.41000 713.034
68.42000 707.123
68.43000 716.953
68.44000 736.360
68.45000 755.272
68.46000 762.453
68.47000 764.672
68.48000 767.640
68.49000 779.222
68.50000 793.253
68.51000 805.721
68.52000 824.966
68.53000 842.754
68.54000 860.845
68.55000 880.239
68.56000 899.781
68.57000 918.238
68.58000 933.593
68.59000 948.756
68.60000 958.825
68.61000 1003.798
68.62000 1037.689
68.63000 1080.630
68.64000 1135.154
68.65000 1189.706
68.66000 1237.946
68.67000 1281.014
68.68000 1323.478
68.69000 1373.236
68.70000 1425.422
68.71000 1477.242
68.72000 1522.661
68.73000 1565.743
68.74000 1607.922
68.75000 1641.729
68.76000 1673.495
68.77000 1701.044
68.78000 1775.475
68.79000 1845.113
68.80000 1909.585
68.81000 1955.051
68.82000 1998.752
68.83000 2054.442
68.84000 2139.728
68.85000 2226.389
68.86000 2280.781
68.87000 2489.921
68.88000 2642.768
68.89000 2881.183
68.90000 3212.588
68.91000 3547.597
68.92000 4347.281
68.93000 5471.933
68.94000 6571.615
68.95000 8815.418
68.96000 11479.603
68.97000 14245.206
68.98000 18379.510
68.99000 22944.813
69.00000 27544.453
69.01000 32405.939
69.02000 37321.906
69.03000 41471.250
69.04000 45205.445
69.05000 48280.652
69.06000 50937.336
69.07000 52269.648
69.08000 53504.398
69.09000 54407.039
69.10000 54601.707
69.11000 54773.000
69.12000 54873.953
69.13000 55385.570
69.14000 55748.891
69.15000 56177.871
69.16000 56667.031
69.17000 57152.238
69.18000 57380.547
69.19000 57454.688
69.20000 57526.434
69.21000 56392.691
69.22000 54861.641
69.23000 53196.629
69.24000 50096.078
69.25000 46606.781
69.26000 43187.563
69.27000 40213.625
69.28000 37318.191
69.29000 34946.938
69.30000 32899.070
69.31000 31248.725
69.32000 29852.191
69.33000 29148.215
69.34000 28483.531
69.35000 27791.592
69.36000 27049.543
69.37000 26306.408
69.38000 25898.242
69.39000 24068.459
69.40000 22804.938
69.41000 21069.236
69.42000 18966.012
69.43000 16858.420
69.44000 14578.566
69.45000 12209.685
69.46000 9945.438
69.47000 8126.403
69.48000 6578.473
69.49000 5100.463
69.50000 4230.734
69.51000 3502.088
69.52000 2836.702
69.53000 2509.949
69.54000 2233.321
69.55000 2014.231
69.56000 1844.618
69.57000 1711.707
69.58000 1597.672
69.59000 1528.101
69.60000 1460.394
69.61000 1401.824
69.62000 1357.708
69.63000 1313.773
69.64000 1291.486
69.65000 1215.144
69.66000 1164.174
69.67000 1130.698
69.68000 1108.865
69.69000 1087.049
69.70000 1065.669
69.71000 1044.484
69.72000 1024.526
69.73000 1002.222
69.74000 981.167
69.75000 961.300
69.76000 949.970
69.77000 940.326
69.78000 928.935
69.79000 909.599
69.80000 889.289
69.81000 873.788
69.82000 853.357
69.83000 836.993
69.84000 825.130
69.85000 822.422
69.86000 819.980
69.87000 813.468
69.88000 801.440
69.89000 789.388
69.90000 777.123
69.91000 764.693
69.92000 752.219
69.93000 737.350
69.94000 721.112
69.95000 705.484
69.96000 701.702
69.97000 702.482
69.98000 703.204
69.99000 694.938
70.00000 685.417
