20.00000 560.002
20.01000 558.438
20.02000 556.650
20.03000 555.448
20.04000 556.517
20.05000 557.814
20.06000 558.763
20.07000 562.216
20.08000 564.980
20.09000 567.848
20.10000 570.897
20.11000 573.949
20.12000 576.597
20.13000 578.778
20.14000 580.952
20.15000 575.736
20.16000 565.144
20.17000 554.689
20.18000 548.955
20.19000 545.546
20.20000 542.723
20.21000 548.541
20.22000 557.226
20.23000 565.117
20.24000 555.882
20.25000 544.388
20.26000 536.097
20.27000 544.049
20.28000 554.265
20.29000 563.393
20.30000 568.892
20.31000 574.099
20.32000 577.743
20.33000 563.848
20.34000 552.848
20.35000 548.633
20.36000 554.626
20.37000 560.720
20.38000 558.802
20.39000 549.090
20.40000 539.452
20.41000 540.116
20.42000 547.181
20.43000 553.931
20.44000 553.172
20.45000 549.220
20.46000 545.714
20.47000 547.375
20.48000 550.513
20.49000 553.303
20.50000 546.664
20.51000 539.370
20.52000 533.812
20.53000 535.742
20.54000 538.534
20.55000 539.741
20.56000 536.391
20.57000 532.757
20.58000 530.339
20.59000 529.127
20.60000 528.253
20.61000 533.483
20.62000 546.568
20.63000 559.651
20.64000 558.598
20.65000 545.902
20.66000 533.381
20.67000 536.039
20.68000 546.657
20.69000 556.542
20.70000 553.466
20.71000 545.634
20.72000 538.658
20.73000 539.675
20.74000 542.651
20.75000 545.234
20.76000 544.698
20.77000 543.822
20.78000 542.844
20.79000 541.486
20.80000 540.092
20.81000 540.409
20.82000 544.966
20.83000 549.722
20.84000 552.713
20.85000 554.108
20.86000 555.098
20.87000 554.600
20.88000 552.475
20.89000 550.336
20.90000 546.479
20.91000 541.415
20.92000 536.461
20.93000 536.147
20.94000 537.936
20.95000 539.114
20.96000 531.985
20.97000 522.227
20.98000 515.242
20.99000 529.521
21.00000 548.247
21.01000 564.067
21.02000 556.481
21.03000 547.567
21.04000 541.296
21.05000 543.428
21.06000 546.183
21.07000 549.585
21.08000 554.372
21.09000 559.206
21.10000 562.060
21.11000 561.380
21.12000 560.878
21.13000 554.519
21.14000 542.762
21.15000 531.101
21.16000 525.784
21.17000 524.293
21.18000 522.850
21.19000 530.265
21.20000 540.671
21.21000 550.481
21.22000 553.859
21.23000 555.486
21.24000 556.131
21.25000 550.505
21.26000 543.766
21.27000 538.242
21.28000 545.854
21.29000 553.261
21.30000 554.736
21.31000 539.949
21.32000 524.230
21.33000 518.839
21.34000 532.526
21.35000 546.633
21.36000 554.400
21.37000 547.425
21.38000 542.594
21.39000 537.549
21.40000 532.335
21.41000 527.272
21.42000 528.242
21.43000 532.344
21.44000 536.267
21.45000 539.224
21.46000 541.661
21.47000 543.552
21.48000 540.670
21.49000 536.674
21.50000 533.629
21.51000 535.700
21.52000 538.533
21.53000 540.779
21.54000 533.926
21.55000 527.776
21.56000 524.450
21.57000 527.806
21.58000 531.445
21.59000 537.062
21.60000 545.822
21.61000 554.623
21.62000 559.099
21.63000 542.416
21.64000 531.351
21.65000 532.838
21.66000 542.723
21.67000 552.463
21.68000 558.274
21.69000 562.325
21.70000 566.143
21.71000 566.112
21.72000 565.022
21.73000 564.650
21.74000 569.468
21.75000 575.317
21.76000 579.932
21.77000 578.909
21.78000 577.189
21.79000 575.875
21.80000 579.884
21.81000 583.332
21.82000 588.120
21.83000 595.646
21.84000 603.252
21.85000 614.400
21.86000 630.371
21.87000 646.361
21.88000 654.628
21.89000 656.144
21.90000 657.783
21.91000 666.182
21.92000 678.468
21.93000 690.511
21.94000 697.807
21.95000 703.268
21.96000 708.329
21.97000 710.232
21.98000 711.208
21.99000 713.204
22.00000 721.353
22.01000 730.535
22.02000 737.916
22.03000 738.259
22.04000 737.891
22.05000 737.621
22.06000 748.480
22.07000 757.319
22.08000 764.177
22.09000 767.548
22.10000 770.854
22.11000 769.158
22.12000 761.660
22.13000 754.178
22.14000 742.855
22.15000 728.783
22.16000 714.771
22.17000 702.873
22.18000 692.022
22.19000 681.494
22.20000 675.752
22.21000 671.609
22.22000 667.842
22.23000 656.292
22.24000 644.553
22.25000 631.871
22.26000 614.378
22.27000 596.208
22.28000 582.753
22.29000 585.118
22.30000 588.762
22.31000 591.317
22.32000 598.808
22.33000 604.618
22.34000 603.198
22.35000 590.835
22.36000 578.359
22.37000 564.046
22.38000 547.933
22.39000 531.938
22.40000 525.832
22.41000 526.020
22.42000 526.322
22.43000 529.364
22.44000 533.577
22.45000 537.836
22.46000 542.630
22.47000 547.579
22.48000 551.983
22.49000 554.134
22.50000 555.633
22.51000 554.976
22.52000 544.950
22.53000 533.838
22.54000 526.527
22.55000 530.208
22.56000 534.583
22.57000 537.500
22.58000 539.231
22.59000 540.490
22.60000 539.808
22.61000 536.614
22.62000 533.412
22.63000 531.875
22.64000 531.716
22.65000 531.560
22.66000 525.811
22.67000 517.239
22.68000 508.939
22.69000 505.491
22.70000 503.834
22.71000 502.707
22.72000 506.570
22.73000 511.663
22.74000 516.089
22.75000 507.377
22.76000 498.171
22.77000 491.820
22.78000 496.091
22.79000 501.364
22.80000 507.059
22.81000 513.810
22.82000 520.610
22.83000 524.896
22.84000 512.595
22.85000 503.500
22.86000 503.431
22.87000 513.292
22.88000 523.115
22.89000 526.938
22.90000 526.518
22.91000 526.106
22.92000 522.037
22.93000 516.472
22.94000 511.454
22.95000 513.944
22.96000 518.822
22.97000 522.063
22.98000 512.641
22.99000 500.552
23.00000 490.327
23.01000 499.121
23.02000 508.586
23.03000 513.405
23.04000 503.363
23.05000 492.207
23.06000 486.059
23.07000 490.701
23.08000 495.709
23.09000 498.675
23.10000 508.516
23.11000 515.511
23.12000 517.802
23.13000 515.728
23.14000 513.614
23.15000 508.837
23.16000 502.444
23.17000 496.251
23.18000 500.310
23.19000 508.105
23.20000 515.395
23.21000 517.188
23.22000 517.476
23.23000 516.839
23.24000 510.246
23.25000 502.591
23.26000 496.307
23.27000 496.287
23.28000 496.831
23.29000 496.669
23.30000 494.560
23.31000 492.339
23.32000 489.978
23.33000 487.359
23.34000 484.734
23.35000 483.284
23.36000 502.176
23.37000 515.194
23.38000 515.107
23.39000 504.699
23.40000 494.454
23.41000 490.827
23.42000 490.657
23.43000 490.494
23.44000 489.579
23.45000 488.479
23.46000 487.459
23.47000 487.140
23.48000 486.986
23.49000 487.816
23.50000 493.984
23.51000 500.953
23.52000 506.486
23.53000 502.995
23.54000 499.547
23.55000 496.223
23.56000 493.196
23.57000 490.182
23.58000 486.953
23.59000 483.379
23.60000 479.801
23.61000 477.974
23.62000 493.520
23.63000 503.851
23.64000 502.968
23.65000 494.537
23.66000 486.306
23.67000 483.565
23.68000 483.298
23.69000 483.047
23.70000 491.449
23.71000 501.554
23.72000 510.406
23.73000 510.140
23.74000 508.052
23.75000 505.919
23.76000 503.582
23.77000 501.220
23.78000 499.412
23.79000 501.435
23.80000 503.240
23.81000 505.194
23.82000 507.453
23.83000 509.721
23.84000 505.959
23.85000 493.929
23.86000 481.857
23.87000 477.923
23.88000 481.142
23.89000 484.358
23.90000 487.466
23.91000 490.509
23.92000 493.646
23.93000 498.637
23.94000 504.350
23.95000 509.649
23.96000 498.610
23.97000 484.829
23.98000 472.994
23.99000 473.000
24.00000 475.006
24.01000 477.612
24.02000 482.571
24.03000 487.770
24.04000 491.590
24.05000 487.755
24.06000 484.476
24.07000 480.981
24.08000 477.101
24.09000 473.213
24.10000 473.619
24.11000 479.036
24.12000 484.444
24.13000 491.606
24.14000 500.020
24.15000 508.087
24.16000 503.882
24.17000 493.562
24.18000 483.658
24.19000 480.026
24.20000 478.499
24.21000 477.109
24.22000 481.597
24.23000 486.729
24.24000 490.771
24.25000 489.213
24.26000 486.863
24.27000 484.220
24.28000 480.590
24.29000 476.879
24.30000 474.273
24.31000 495.478
24.32000 512.230
24.33000 516.597
24.34000 502.103
24.35000 487.410
24.36000 478.168
24.37000 474.304
24.38000 470.468
24.39000 472.568
24.40000 478.378
24.41000 483.733
24.42000 477.915
24.43000 467.292
24.44000 457.726
24.45000 460.633
24.46000 467.148
24.47000 472.952
24.48000 483.631
24.49000 493.718
24.50000 499.633
24.51000 487.311
24.52000 472.856
24.53000 462.418
24.54000 463.662
24.55000 465.652
24.56000 466.981
24.57000 475.634
24.58000 482.188
24.59000 483.695
24.60000 478.623
24.61000 473.532
24.62000 473.211
24.63000 476.869
24.64000 480.480
24.65000 483.823
24.66000 486.933
24.67000 489.676
24.68000 485.781
24.69000 479.421
24.70000 473.985
24.71000 477.322
24.72000 482.836
24.73000 487.632
24.74000 481.199
24.75000 474.179
24.76000 468.968
24.77000 470.533
24.78000 472.742
24.79000 474.549
24.80000 475.345
24.81000 476.093
24.82000 476.566
24.83000 473.951
24.84000 472.020
24.85000 475.323
24.86000 484.422
24.87000 493.444
24.88000 490.744
24.89000 479.700
24.90000 468.890
24.91000 466.143
24.92000 467.184
24.93000 468.055
24.94000 466.552
24.95000 464.289
24.96000 462.360
24.97000 463.027
24.98000 464.245
24.99000 465.276
25.00000 469.193
25.01000 472.796
25.02000 476.407
25.03000 480.046
25.04000 483.686
25.05000 485.159
25.06000 481.933
25.07000 478.545
25.08000 476.533
25.09000 479.901
25.10000 482.316
25.11000 482.331
25.12000 480.104
25.13000 477.882
25.14000 475.931
25.15000 474.145
25.16000 472.416
25.17000 467.773
25.18000 462.246
25.19000 457.244
25.20000 458.006
25.21000 460.354
25.22000 462.252
25.23000 461.227
25.24000 459.676
25.25000 458.401
25.26000 459.735
25.27000 461.067
25.28000 462.787
25.29000 465.586
25.30000 468.447
25.31000 468.643
25.32000 463.855
25.33000 458.952
25.34000 456.237
25.35000 456.145
25.36000 456.094
25.37000 458.178
25.38000 461.954
25.39000 465.558
25.40000 462.033
25.41000 454.763
25.42000 447.804
25.43000 450.807
25.44000 456.895
25.45000 462.867
25.46000 467.804
25.47000 472.496
25.48000 474.997
25.49000 465.543
25.50000 454.284
25.51000 445.330
25.52000 463.366
25.53000 479.824
25.54000 486.855
25.55000 471.307
25.56000 454.777
25.57000 447.554
25.58000 455.307
25.59000 463.261
25.60000 467.333
25.61000 470.372
25.62000 472.358
25.63000 468.204
25.64000 459.892
25.65000 452.051
25.66000 457.343
25.67000 468.590
25.68000 479.204
25.69000 473.091
25.70000 462.804
25.71000 453.116
25.72000 447.824
25.73000 443.416
25.74000 439.353
25.75000 436.890
25.76000 434.628
25.77000 432.894
25.78000 449.604
25.79000 463.820
25.80000 472.102
25.81000 468.113
25.82000 463.750
25.83000 459.928
25.84000 456.852
25.85000 453.782
25.86000 457.024
25.87000 465.842
25.88000 474.567
25.89000 477.901
25.90000 478.099
25.91000 478.194
25.92000 476.214
25.93000 473.422
25.94000 470.830
25.95000 460.734
25.96000 449.859
25.97000 441.448
25.98000 448.132
25.99000 457.385
26.00000 464.070
26.01000 460.594
26.02000 456.075
26.03000 452.748
26.04000 457.436
26.05000 461.396
26.06000 463.689
26.07000 463.012
26.08000 462.276
26.09000 461.820
26.10000 461.690
26.11000 461.562
26.12000 460.174
26.13000 457.853
26.14000 455.466
26.15000 450.639
26.16000 444.590
26.17000 439.095
26.18000 442.028
26.19000 447.808
26.20000 453.073
26.21000 456.914
26.22000 460.033
26.23000 462.670
26.24000 462.815
26.25000 462.605
26.26000 460.816
26.27000 453.665
26.28000 446.072
26.29000 440.729
26.30000 442.986
26.31000 444.921
26.32000 445.818
26.33000 445.123
26.34000 444.411
26.35000 445.692
26.36000 448.953
26.37000 452.191
26.38000 452.414
26.39000 450.720
26.40000 449.104
26.41000 449.427
26.42000 450.589
26.43000 451.721
26.44000 452.494
26.45000 453.163
26.46000 453.759
26.47000 454.191
26.48000 454.539
26.49000 453.747
26.50000 447.936
26.51000 441.533
26.52000 439.398
26.53000 449.752
26.54000 460.911
26.55000 468.381
26.56000 450.691
26.57000 437.072
26.58000 430.794
26.59000 434.147
26.60000 437.542
26.61000 440.980
26.62000 444.454
26.63000 447.883
26.64000 448.254
26.65000 446.965
26.66000 445.778
26.67000 446.480
26.68000 447.887
26.69000 449.297
26.70000 450.735
26.71000 452.180
26.72000 453.438
26.73000 450.498
26.74000 447.411
26.75000 443.450
26.76000 436.201
26.77000 428.636
26.78000 425.971
26.79000 435.680
26.80000 445.990
26.81000 452.520
26.82000 442.194
26.83000 434.503
26.84000 434.343
26.85000 442.580
26.86000 450.796
26.87000 454.854
26.88000 455.934
26.89000 456.991
26.90000 450.990
26.91000 441.981
26.92000 433.604
26.93000 434.082
26.94000 437.414
26.95000 440.942
26.96000 446.013
26.97000 451.412
26.98000 455.989
26.99000 455.144
27.00000 453.825
27.01000 452.523
27.02000 451.275
27.03000 450.030
27.04000 445.541
27.05000 433.977
27.06000 422.165
27.07000 415.133
27.08000 427.874
27.09000 437.018
27.10000 442.217
27.11000 443.704
27.12000 445.126
27.13000 441.856
27.14000 435.705
27.15000 429.743
27.16000 424.256
27.17000 419.246
27.18000 414.895
27.19000 417.864
27.20000 422.861
27.21000 427.381
27.22000 428.786
27.23000 429.628
27.24000 430.321
27.25000 427.715
27.26000 425.272
27.27000 425.831
27.28000 434.765
27.29000 444.194
27.30000 450.446
27.31000 450.721
27.32000 450.857
27.33000 450.933
27.34000 448.971
27.35000 447.609
27.36000 445.791
27.37000 443.610
27.38000 441.404
27.39000 438.147
27.40000 434.334
27.41000 430.682
27.42000 433.355
27.43000 437.948
27.44000 441.635
27.45000 437.190
27.46000 430.814
27.47000 425.878
27.48000 428.861
27.49000 433.048
27.50000 436.382
27.51000 440.562
27.52000 443.993
27.53000 444.407
27.54000 437.550
27.55000 430.372
27.56000 427.103
27.57000 430.159
27.58000 433.302
27.59000 434.917
27.60000 432.438
27.61000 430.793
27.62000 431.756
27.63000 434.495
27.64000 437.084
27.65000 435.440
27.66000 431.867
27.67000 428.493
27.68000 428.173
27.69000 428.740
27.70000 429.574
27.71000 432.371
27.72000 435.566
27.73000 437.387
27.74000 432.809
27.75000 427.422
27.76000 423.286
27.77000 428.497
27.78000 433.137
27.79000 433.256
27.80000 423.968
27.81000 414.389
27.82000 413.037
27.83000 423.102
27.84000 433.237
27.85000 435.244
27.86000 430.011
27.87000 424.830
27.88000 422.701
27.89000 422.359
27.90000 422.119
27.91000 423.955
27.92000 426.608
27.93000 429.073
27.94000 430.029
27.95000 430.531
27.96000 430.628
27.97000 428.222
27.98000 425.389
27.99000 424.078
28.00000 428.834
28.01000 434.219
28.02000 438.188
28.03000 436.358
28.04000 434.697
28.05000 432.017
28.06000 427.510
28.07000 422.966
28.08000 425.802
28.09000 437.371
28.10000 448.923
28.11000 446.456
28.12000 433.447
28.13000 420.695
28.14000 417.350
28.15000 418.748
28.16000 420.197
28.17000 422.417
28.18000 424.901
28.19000 427.165
28.20000 435.055
28.21000 443.174
28.22000 448.785
28.23000 441.329
28.24000 431.997
28.25000 424.453
28.26000 423.020
28.27000 422.096
28.28000 421.444
28.29000 427.298
28.30000 431.934
28.31000 435.405
28.32000 437.077
28.33000 438.730
28.34000 438.000
28.35000 434.889
28.36000 431.798
28.37000 434.475
28.38000 440.796
28.39000 446.633
28.40000 440.259
28.41000 428.572
28.42000 417.901
28.43000 419.463
28.44000 424.604
28.45000 429.194
28.46000 429.282
28.47000 428.606
28.48000 427.336
28.49000 423.435
28.50000 419.221
28.51000 416.843
28.52000 419.870
28.53000 423.248
28.54000 425.514
28.55000 421.703
28.56000 418.751
28.57000 415.184
28.58000 410.804
28.59000 406.431
28.60000 408.455
28.61000 415.889
28.62000 423.228
28.63000 425.625
28.64000 425.273
28.65000 425.128
28.66000 428.803
28.67000 433.915
28.68000 438.496
28.69000 437.943
28.70000 436.101
28.71000 434.495
28.72000 429.587
28.73000 424.935
28.74000 420.608
28.75000 417.516
28.76000 414.542
28.77000 412.515
28.78000 412.892
28.79000 413.387
28.80000 413.701
28.81000 402.719
28.82000 394.608
28.83000 395.271
28.84000 405.784
28.85000 416.290
28.86000 424.642
28.87000 431.442
28.88000 438.102
28.89000 437.634
28.90000 433.887
28.91000 430.178
28.92000 427.003
28.93000 424.002
28.94000 421.189
28.95000 419.861
28.96000 418.851
28.97000 417.994
28.98000 416.214
28.99000 414.616
29.00000 414.612
29.01000 419.799
29.02000 425.386
29.03000 427.251
29.04000 420.950
29.05000 414.359
29.06000 410.425
29.07000 412.121
29.08000 413.359
29.09000 416.510
29.10000 421.471
29.11000 426.367
29.12000 426.469
29.13000 423.609
29.14000 420.835
29.15000 415.533
29.16000 409.512
29.17000 404.443
29.18000 410.006
29.19000 418.535
29.20000 425.327
29.21000 420.695
29.22000 413.982
29.23000 408.451
29.24000 411.747
29.25000 415.269
29.26000 415.958
29.27000 408.695
29.28000 400.955
29.29000 398.383
29.30000 405.591
29.31000 413.029
29.32000 417.174
29.33000 428.581
29.34000 436.449
29.35000 431.403
29.36000 415.987
29.37000 400.749
29.38000 393.094
29.39000 389.474
29.40000 386.005
29.41000 394.813
29.42000 407.139
29.43000 418.348
29.44000 419.462
29.45000 418.161
29.46000 415.799
29.47000 407.568
29.48000 398.437
29.49000 391.156
29.50000 398.824
29.51000 406.100
29.52000 410.480
29.53000 407.842
29.54000 404.891
29.55000 404.251
29.56000 407.377
29.57000 410.555
29.58000 412.194
29.59000 405.105
29.60000 400.357
29.61000 399.044
29.62000 400.085
29.63000 401.137
29.64000 402.477
29.65000 403.950
29.66000 405.341
29.67000 404.845
29.68000 403.853
29.69000 403.132
29.70000 404.425
29.71000 406.129
29.72000 408.214
29.73000 412.092
29.74000 416.197
29.75000 419.354
29.76000 423.377
29.77000 426.608
29.78000 425.855
29.79000 416.768
29.80000 407.417
29.81000 405.586
29.82000 414.256
29.83000 422.993
29.84000 425.599
29.85000 422.707
29.86000 419.859
29.87000 419.754
29.88000 421.264
29.89000 422.970
29.90000 428.720
29.91000 436.071
29.92000 442.905
29.93000 447.443
29.94000 450.989
29.95000 453.237
29.96000 447.423
29.97000 440.218
29.98000 434.898
29.99000 437.132
30.00000 440.155
30.01000 442.387
30.02000 441.028
30.03000 439.821
30.04000 436.865
30.05000 430.750
30.06000 424.571
30.07000 425.004
30.08000 433.312
30.09000 441.613
30.10000 447.131
30.11000 450.504
30.12000 453.631
30.13000 447.590
30.14000 436.898
30.15000 426.833
30.16000 426.496
30.17000 429.485
30.18000 432.212
30.19000 433.986
30.20000 435.368
30.21000 436.685
30.22000 437.662
30.23000 438.589
30.24000 438.255
30.25000 433.584
30.26000 428.550
30.27000 424.994
30.28000 425.076
30.29000 425.250
30.30000 425.175
30.31000 424.714
30.32000 424.249
30.33000 426.109
30.34000 430.311
30.35000 434.486
30.36000 431.567
30.37000 424.128
30.38000 417.069
30.39000 419.710
30.40000 426.597
30.41000 432.704
30.42000 429.338
30.43000 423.183
30.44000 417.684
30.45000 416.153
30.46000 415.489
30.47000 416.374
30.48000 424.167
30.49000 432.787
30.50000 439.974
30.51000 442.917
30.52000 445.581
30.53000 447.372
30.54000 449.603
30.55000 451.271
30.56000 449.634
30.57000 443.610
30.58000 437.566
30.59000 433.189
30.60000 430.231
30.61000 427.309
30.62000 435.173
30.63000 448.734
30.64000 461.439
30.65000 458.119
30.66000 448.743
30.67000 439.734
30.68000 434.307
30.69000 429.787
30.70000 425.843
30.71000 426.269
30.72000 427.243
30.73000 427.529
30.74000 425.188
30.75000 422.591
30.76000 424.651
30.77000 438.611
30.78000 453.165
30.79000 462.425
30.80000 456.317
30.81000 451.685
30.82000 452.619
30.83000 459.840
30.84000 467.041
30.85000 470.081
30.86000 470.102
30.87000 470.123
30.88000 479.195
30.89000 492.133
30.90000 504.920
30.91000 515.535
30.92000 525.443
30.93000 533.439
30.94000 526.197
30.95000 515.663
30.96000 506.712
30.97000 519.148
30.98000 532.035
30.99000 544.813
31.00000 557.234
31.01000 569.627
31.02000 583.680
31.03000 601.393
31.04000 619.238
31.05000 629.918
31.06000 683.624
31.07000 722.023
31.08000 760.805
31.09000 799.951
31.10000 839.254
31.11000 890.199
31.12000 948.384
31.13000 1004.839
31.14000 1071.020
31.15000 1137.627
31.16000 1205.676
31.17000 1289.984
31.18000 1378.855
31.19000 1473.872
31.20000 1609.598
31.21000 1752.789
31.22000 1870.922
31.23000 1998.236
31.24000 2103.926
31.25000 2223.721
31.26000 2383.353
31.27000 2545.394
31.28000 2706.277
31.29000 2864.954
31.30000 3023.577
31.31000 3112.215
31.32000 3265.509
31.33000 3371.774
31.34000 3465.660
31.35000 3549.544
31.36000 3632.392
31.37000 3669.836
31.38000 3682.987
31.39000 3695.595
31.40000 3672.388
31.41000 3638.658
31.42000 3602.422
31.43000 3543.323
31.44000 3478.723
31.45000 3407.013
31.46000 3295.717
31.47000 3178.311
31.48000 3084.566
31.49000 2918.823
31.50000 2779.675
31.51000 2636.802
31.52000 2484.854
31.53000 2332.494
31.54000 2177.030
31.55000 2016.476
31.56000 1855.849
31.57000 1772.768
31.58000 1586.051
31.59000 1460.240
31.60000 1347.656
31.61000 1244.201
31.62000 1141.418
31.63000 1058.185
31.64000 983.976
31.65000 913.816
31.66000 858.537
31.67000 812.002
31.68000 766.052
31.69000 724.485
31.70000 683.818
31.71000 646.402
31.72000 624.337
31.73000 604.244
31.74000 588.771
31.75000 572.873
31.76000 560.262
31.77000 547.144
31.78000 532.959
31.79000 518.739
31.80000 508.715
31.81000 504.589
31.82000 500.506
31.83000 492.299
31.84000 480.379
31.85000 468.522
31.86000 460.585
31.87000 454.970
31.88000 449.306
31.89000 442.638
31.90000 435.570
31.91000 428.994
31.92000 426.587
31.93000 425.419
31.94000 425.406
31.95000 432.622
31.96000 441.095
31.97000 446.637
31.98000 440.366
31.99000 432.851
32.00000 427.291
32.01000 420.077
32.02000 414.409
32.03000 409.093
32.04000 404.416
32.05000 399.753
32.06000 403.059
32.07000 415.920
32.08000 428.770
32.09000 433.632
32.10000 432.371
32.11000 431.084
32.12000 428.836
32.13000 426.097
32.14000 423.170
32.15000 417.287
32.16000 410.388
32.17000 404.089
32.18000 399.278
32.19000 395.311
32.20000 392.327
32.21000 394.530
32.22000 397.488
32.23000 399.477
32.24000 398.109
32.25000 396.458
32.26000 395.289
32.27000 397.395
32.28000 399.096
32.29000 400.214
32.30000 400.419
32.31000 400.615
32.32000 397.759
32.33000 391.809
32.34000 385.896
32.35000 384.039
32.36000 384.835
32.37000 385.667
32.38000 387.446
32.39000 389.642
32.40000 391.742
32.41000 392.662
32.42000 393.232
32.43000 393.742
32.44000 389.695
32.45000 385.393
32.46000 380.999
32.47000 376.190
32.48000 371.331
32.49000 369.428
32.50000 376.334
32.51000 383.825
32.52000 388.872
32.53000 385.093
32.54000 382.098
32.55000 381.717
32.56000 384.831
32.57000 387.959
32.58000 388.499
32.59000 386.820
32.60000 385.161
32.61000 385.589
32.62000 387.154
32.63000 388.648
32.64000 388.804
32.65000 388.451
32.66000 387.293
32.67000 378.223
32.68000 367.141
32.69000 357.463
32.70000 357.920
32.71000 359.738
32.72000 361.658
32.73000 363.972
32.74000 366.324
32.75000 368.743
32.76000 371.330
32.77000 373.925
32.78000 375.580
32.79000 369.957
32.80000 365.774
32.81000 361.175
32.82000 356.104
32.83000 351.068
32.84000 351.978
32.85000 357.228
32.86000 362.374
32.87000 359.513
32.88000 353.009
32.89000 347.078
32.90000 349.435
32.91000 354.510
32.92000 359.017
32.93000 358.958
32.94000 357.907
32.95000 357.013
32.96000 353.324
32.97000 349.904
32.98000 348.968
32.99000 356.226
33.00000 364.129
33.01000 368.027
33.02000 363.035
33.03000 357.718
33.04000 354.528
33.05000 346.895
33.06000 341.444
33.07000 342.248
33.08000 349.057
33.09000 355.723
33.10000 351.369
33.11000 340.120
33.12000 329.202
33.13000 333.837
33.14000 344.437
33.15000 354.025
33.16000 352.095
33.17000 346.912
33.18000 342.419
33.19000 342.524
33.20000 343.477
33.21000 344.265
33.22000 343.441
33.23000 342.612
33.24000 342.077
33.25000 342.379
33.26000 342.732
33.27000 342.369
33.28000 340.635
33.29000 338.868
33.30000 337.877
33.31000 335.462
33.32000 333.800
33.33000 337.921
33.34000 346.745
33.35000 355.376
33.36000 355.409
33.37000 350.814
33.38000 346.407
33.39000 348.551
33.40000 352.776
33.41000 356.208
33.42000 352.359
33.43000 346.746
33.44000 341.576
33.45000 338.888
33.46000 336.586
33.47000 334.746
33.48000 337.103
33.49000 339.321
33.50000 340.229
33.51000 337.927
33.52000 335.477
33.53000 334.765
33.54000 336.919
33.55000 339.116
33.56000 340.256
33.57000 337.586
33.58000 335.786
33.59000 334.364
33.60000 333.204
33.61000 332.105
33.62000 332.813
33.63000 334.361
33.64000 335.826
33.65000 332.952
33.66000 329.064
33.67000 326.508
33.68000 334.027
33.69000 343.626
33.70000 351.072
33.71000 348.286
33.72000 344.175
33.73000 341.005
33.74000 335.844
33.75000 331.639
33.76000 328.779
33.77000 328.767
33.78000 328.847
33.79000 327.000
33.80000 322.428
33.81000 317.838
33.82000 317.932
33.83000 322.283
33.84000 326.642
33.85000 331.580
33.86000 336.863
33.87000 341.747
33.88000 338.219
33.89000 331.318
33.90000 324.895
33.91000 323.339
33.92000 323.115
33.93000 322.829
33.94000 322.145
33.95000 321.392
33.96000 320.384
33.97000 318.348
33.98000 316.202
33.99000 314.611
34.00000 323.824
34.01000 331.447
34.02000 337.012
34.03000 338.819
34.04000 340.547
34.05000 339.979
34.06000 336.640
34.07000 333.303
34.08000 330.408
34.09000 327.868
34.10000 325.300
34.11000 321.656
34.12000 317.460
34.13000 313.679
34.14000 316.486
34.15000 321.572
34.16000 326.220
34.17000 328.137
34.18000 329.283
34.19000 329.636
34.20000 325.784
34.21000 321.314
34.22000 317.889
34.23000 318.101
34.24000 318.624
34.25000 318.994
34.26000 328.159
34.27000 335.404
34.28000 338.270
34.29000 334.259
34.30000 330.165
34.31000 325.509
34.32000 320.279
34.33000 315.082
34.34000 313.371
34.35000 313.956
34.36000 314.612
34.37000 317.135
34.38000 320.484
34.39000 324.022
34.40000 329.884
34.41000 336.438
34.42000 342.304
34.43000 343.652
34.44000 344.055
34.45000 344.012
34.46000 341.957
34.47000 339.657
34.48000 336.098
34.49000 328.766
34.50000 321.180
34.51000 316.059
34.52000 321.876
34.53000 326.439
34.54000 328.245
34.55000 326.344
34.56000 324.428
34.57000 326.552
34.58000 332.161
34.59000 337.704
34.60000 339.371
34.61000 338.848
34.62000 338.199
34.63000 335.122
34.64000 331.116
34.65000 327.359
34.66000 326.077
34.67000 325.429
34.68000 324.863
34.69000 325.542
34.70000 326.301
34.71000 325.788
34.72000 320.364
34.73000 314.451
34.74000 310.873
34.75000 313.335
34.76000 316.105
34.77000 317.875
34.78000 325.352
34.79000 330.870
34.80000 333.332
34.81000 332.298
34.82000 331.250
34.83000 328.697
34.84000 325.038
34.85000 321.451
34.86000 318.685
34.87000 316.410
34.88000 314.287
34.89000 314.388
34.90000 315.224
34.91000 316.279
34.92000 319.117
34.93000 322.346
34.94000 325.095
34.95000 322.650
34.96000 319.990
34.97000 318.238
34.98000 319.498
34.99000 320.998
35.00000 320.690
35.01000 316.347
35.02000 311.854
35.03000 309.151
35.04000 310.347
35.05000 311.223
35.06000 310.596
35.07000 308.513
35.08000 306.452
35.09000 306.001
35.10000 306.565
35.11000 307.112
35.12000 311.191
35.13000 316.481
35.14000 321.040
35.15000 317.195
35.16000 310.964
35.17000 305.816
35.18000 307.954
35.19000 311.445
35.20000 314.333
35.21000 317.701
35.22000 320.524
35.23000 321.349
35.24000 316.463
35.25000 311.223
35.26000 309.577
35.27000 314.853
35.28000 320.302
35.29000 323.365
35.30000 314.923
35.31000 309.052
35.32000 309.865
35.33000 316.151
35.34000 322.245
35.35000 319.659
35.36000 312.374
35.37000 305.381
35.38000 303.425
35.39000 303.314
35.40000 303.507
35.41000 306.514
35.42000 310.205
35.43000 313.551
35.44000 314.946
35.45000 316.035
35.46000 316.908
35.47000 315.525
35.48000 314.238
35.49000 313.088
35.50000 312.278
35.51000 311.484
35.52000 311.671
35.53000 313.486
35.54000 315.327
35.55000 316.285
35.56000 309.888
35.57000 305.593
35.58000 305.174
35.59000 307.464
35.60000 309.622
35.61000 307.820
35.62000 304.168
35.63000 300.712
35.64000 304.055
35.65000 309.098
35.66000 313.706
35.67000 314.995
35.68000 315.594
35.69000 315.512
35.70000 312.172
35.71000 308.408
35.72000 305.500
35.73000 306.338
35.74000 307.221
35.75000 309.007
35.76000 312.719
35.77000 316.494
35.78000 319.192
35.79000 320.357
35.80000 321.511
35.81000 322.989
35.82000 324.764
35.83000 326.480
35.84000 324.393
35.85000 320.025
35.86000 315.539
35.87000 308.521
35.88000 300.483
35.89000 292.996
35.90000 294.176
35.91000 297.365
35.92000 300.841
35.93000 306.143
35.94000 311.765
35.95000 315.020
35.96000 308.607
35.97000 301.159
35.98000 295.630
35.99000 294.256
36.00000 293.370
36.01000 293.935
36.02000 297.165
36.03000 300.452
36.04000 303.864
36.05000 307.426
36.06000 310.982
36.07000 310.875
36.08000 307.937
36.09000 304.998
36.10000 302.042
36.11000 299.077
36.12000 296.292
36.13000 296.395
36.14000 297.503
36.15000 298.516
36.16000 302.283
36.17000 306.197
36.18000 309.160
36.19000 307.031
36.20000 304.148
36.21000 302.586
36.22000 305.650
36.23000 309.114
36.24000 311.574
36.25000 303.544
36.26000 297.099
36.27000 292.996
36.28000 292.595
36.29000 292.239
36.30000 292.697
36.31000 293.991
36.32000 295.277
36.33000 298.964
36.34000 304.176
36.35000 309.196
36.36000 309.084
36.37000 306.687
36.38000 304.178
36.39000 300.276
36.40000 295.956
36.41000 292.086
36.42000 287.182
36.43000 282.721
36.44000 279.413
36.45000 281.346
36.46000 283.922
36.47000 287.519
36.48000 294.194
36.49000 301.078
36.50000 305.735
36.51000 305.202
36.52000 304.692
36.53000 302.369
36.54000 297.591
36.55000 292.804
36.56000 290.780
36.57000 291.156
36.58000 291.528
36.59000 293.117
36.60000 295.346
36.61000 297.521
36.62000 298.646
36.63000 299.366
36.64000 300.084
36.65000 300.776
36.66000 301.461
36.67000 302.060
36.68000 295.338
36.69000 288.530
36.70000 283.315
36.71000 284.290
36.72000 285.886
36.73000 286.656
36.74000 285.276
36.75000 283.785
36.76000 282.830
36.77000 290.865
36.78000 296.841
36.79000 301.756
36.80000 305.448
36.81000 309.098
36.82000 305.415
36.83000 296.312
36.84000 287.382
36.85000 288.551
36.86000 294.470
36.87000 300.372
36.88000 306.018
36.89000 311.579
36.90000 315.792
36.91000 309.012
36.92000 299.810
36.93000 291.966
36.94000 294.527
36.95000 297.904
36.96000 301.711
36.97000 306.955
36.98000 312.314
36.99000 313.550
37.00000 305.527
37.01000 297.157
37.02000 292.108
37.03000 297.946
37.04000 302.179
37.05000 302.548
37.06000 299.156
37.07000 295.830
37.08000 297.754
37.09000 303.005
37.10000 308.106
37.11000 306.652
37.12000 302.625
37.13000 298.877
37.14000 298.384
37.15000 298.820
37.16000 299.140
37.17000 298.678
37.18000 298.070
37.19000 297.566
37.20000 306.868
37.21000 315.479
37.22000 319.678
37.23000 311.195
37.24000 301.919
37.25000 294.644
37.26000 291.248
37.27000 287.949
37.28000 286.090
37.29000 290.637
37.30000 293.809
37.31000 295.698
37.32000 296.530
37.33000 297.360
37.34000 298.151
37.35000 298.920
37.36000 299.659
37.37000 299.576
37.38000 299.217
37.39000 298.869
37.40000 298.628
37.41000 298.412
37.42000 297.604
37.43000 293.436
37.44000 288.737
37.45000 284.970
37.46000 284.994
37.47000 285.300
37.48000 287.021
37.49000 292.252
37.50000 297.647
37.51000 297.350
37.52000 287.551
37.53000 277.605
37.54000 272.409
37.55000 291.285
37.56000 303.977
37.57000 305.027
37.58000 297.891
37.59000 290.913
37.60000 288.707
37.61000 288.745
37.62000 288.780
37.63000 291.444
37.64000 294.663
37.65000 297.471
37.66000 297.121
37.67000 296.111
37.68000 295.099
37.69000 294.075
37.70000 293.050
37.71000 292.257
37.72000 291.425
37.73000 290.762
37.74000 289.056
37.75000 285.115
37.76000 281.099
37.77000 279.173
37.78000 280.243
37.79000 281.335
37.80000 281.685
37.81000 281.352
37.82000 281.068
37.83000 284.036
37.84000 288.968
37.85000 293.697
37.86000 294.066
37.87000 292.666
37.88000 291.360
37.89000 286.453
37.90000 281.123
37.91000 277.749
37.92000 286.874
37.93000 298.215
37.94000 306.068
37.95000 299.595
37.96000 291.575
37.97000 285.611
37.98000 283.055
37.99000 281.219
38.00000 281.256
38.01000 284.757
38.02000 288.334
38.03000 293.607
38.04000 300.953
38.05000 308.288
38.06000 304.668
38.07000 292.536
38.08000 280.766
38.09000 283.499
38.10000 293.766
38.11000 303.463
38.12000 303.922
38.13000 301.147
38.14000 298.607
38.15000 299.853
38.16000 301.747
38.17000 303.889
38.18000 307.360
38.19000 311.030
38.20000 313.012
38.21000 309.051
38.22000 304.572
38.23000 301.384
38.24000 300.349
38.25000 299.630
38.26000 302.965
38.27000 312.744
38.28000 322.606
38.29000 327.279
38.30000 326.581
38.31000 325.887
38.32000 325.911
38.33000 326.408
38.34000 326.932
38.35000 328.184
38.36000 329.762
38.37000 331.496
38.38000 335.189
38.39000 339.475
38.40000 343.317
38.41000 350.850
38.42000 358.073
38.43000 365.757
38.44000 375.548
38.45000 385.599
38.46000 397.547
38.47000 415.248
38.48000 433.344
38.49000 445.611
38.50000 448.432
38.51000 450.327
38.52000 461.110
38.53000 484.001
38.54000 506.964
38.55000 530.956
38.56000 555.848
38.57000 580.459
38.58000 600.448
38.59000 617.369
38.60000 634.821
38.61000 662.697
38.62000 694.608
38.63000 725.547
38.64000 746.683
38.65000 765.278
38.66000 781.566
38.67000 791.256
38.68000 798.619
38.69000 808.448
38.70000 827.915
38.71000 848.357
38.72000 861.183
38.73000 854.086
38.74000 845.947
38.75000 840.719
38.76000 817.166
38.77000 799.738
38.78000 790.000
38.79000 789.187
38.80000 788.312
38.81000 773.429
38.82000 748.125
38.83000 723.295
38.84000 704.618
38.85000 689.550
38.86000 673.599
38.87000 644.477
38.88000 610.955
38.89000 578.050
38.90000 550.212
38.91000 523.497
38.92000 500.697
38.93000 481.696
38.94000 466.148
38.95000 451.181
38.96000 438.166
38.97000 425.308
38.98000 410.823
38.99000 392.662
39.00000 374.360
39.01000 363.293
39.02000 343.971
39.03000 330.143
39.04000 324.885
39.05000 328.025
39.06000 331.054
39.07000 324.837
39.08000 312.728
39.09000 300.959
39.10000 297.763
39.11000 298.212
39.12000 298.360
39.13000 294.993
39.14000 290.616
39.15000 287.268
39.16000 290.932
39.17000 295.917
39.18000 300.051
39.19000 288.222
39.20000 276.919
39.21000 269.359
39.22000 272.623
39.23000 276.570
39.24000 280.222
39.25000 283.295
39.26000 286.354
39.27000 288.083
39.28000 286.688
39.29000 285.715
39.30000 287.202
39.31000 290.729
39.32000 294.025
39.33000 286.350
39.34000 272.663
39.35000 259.513
39.36000 262.188
39.37000 270.163
39.38000 277.545
39.39000 279.342
39.40000 279.762
39.41000 279.776
39.42000 277.471
39.43000 274.798
39.44000 272.652
39.45000 268.229
39.46000 264.472
39.47000 263.584
39.48000 269.861
39.49000 276.477
39.50000 277.458
39.51000 268.974
39.52000 260.340
39.53000 255.815
39.54000 255.137
39.55000 254.695
39.56000 256.492
39.57000 259.872
39.58000 263.249
39.59000 266.523
39.60000 269.747
39.61000 272.802
39.62000 271.923
39.63000 269.960
39.64000 267.405
39.65000 260.277
39.66000 252.186
39.67000 246.177
39.68000 250.251
39.69000 255.660
39.70000 259.851
39.71000 252.673
39.72000 246.294
39.73000 244.770
39.74000 253.711
39.75000 263.008
39.76000 267.636
39.77000 265.534
39.78000 263.379
39.79000 263.400
39.80000 265.440
39.81000 267.498
39.82000 270.754
39.83000 274.737
39.84000 278.189
39.85000 270.028
39.86000 257.127
39.87000 245.094
39.88000 251.935
39.89000 262.815
39.90000 271.914
39.91000 269.542
39.92000 265.121
39.93000 260.873
39.94000 257.336
39.95000 253.877
39.96000 251.300
39.97000 253.774
39.98000 255.926
39.99000 259.297
40.00000 264.930
40.01000 270.615
40.02000 274.291
40.03000 275.495
40.04000 276.691
40.05000 274.018
40.06000 268.327
40.07000 262.680
40.08000 258.855
40.09000 255.982
40.10000 253.466
40.11000 256.793
40.12000 262.177
40.13000 267.110
40.14000 269.630
40.15000 271.370
40.16000 272.612
40.17000 271.156
40.18000 269.294
40.19000 266.200
40.20000 258.737
40.21000 250.890
40.22000 245.295
40.23000 243.298
40.24000 241.894
40.25000 245.215
40.26000 256.097
40.27000 267.078
40.28000 268.028
40.29000 258.518
40.30000 249.059
40.31000 243.809
40.32000 241.422
40.33000 239.197
40.34000 241.383
40.35000 245.559
40.36000 249.486
40.37000 250.251
40.38000 250.057
40.39000 249.882
40.40000 256.257
40.41000 262.975
40.42000 266.936
40.43000 258.203
40.44000 247.889
40.45000 241.050
40.46000 244.816
40.47000 249.316
40.48000 252.373
40.49000 250.198
40.50000 248.457
40.51000 248.840
40.52000 252.135
40.53000 255.445
40.54000 255.654
40.55000 253.136
40.56000 250.646
40.57000 247.337
40.58000 243.643
40.59000 240.190
40.60000 241.504
40.61000 244.675
40.62000 248.102
40.63000 254.147
40.64000 260.875
40.65000 266.773
40.66000 260.425
40.67000 253.197
40.68000 247.460
40.69000 247.582
40.70000 248.302
40.71000 249.836
40.72000 253.514
40.73000 257.305
40.74000 259.745
40.75000 257.842
40.76000 256.391
40.77000 252.462
40.78000 245.635
40.79000 238.838
40.80000 238.551
40.81000 243.140
40.82000 247.644
40.83000 246.706
40.84000 243.186
40.85000 240.194
40.86000 245.150
40.87000 252.776
40.88000 258.895
40.89000 252.520
40.90000 243.358
40.91000 235.530
40.92000 241.702
40.93000 248.572
40.94000 253.269
40.95000 250.628
40.96000 247.387
40.97000 246.084
40.98000 249.187
40.99000 252.460
41.00000 254.444
41.01000 247.160
41.02000 241.896
41.03000 245.183
41.04000 256.909
41.05000 268.475
41.06000 266.415
41.07000 255.619
41.08000 245.122
41.09000 241.020
41.10000 239.736
41.11000 238.453
41.12000 237.182
41.13000 235.914
41.14000 234.906
41.15000 235.679
41.16000 236.791
41.17000 237.714
41.18000 230.947
41.19000 224.608
41.20000 221.574
41.21000 228.152
41.22000 235.345
41.23000 241.825
41.24000 246.910
41.25000 251.959
41.26000 254.821
41.27000 248.924
41.28000 244.793
41.29000 240.416
41.30000 235.834
41.31000 231.358
41.32000 231.952
41.33000 235.343
41.34000 238.602
41.35000 241.291
41.36000 243.610
41.37000 245.616
41.38000 244.642
41.39000 242.927
41.40000 241.364
41.41000 240.674
41.42000 240.124
41.43000 239.682
41.44000 237.889
41.45000 236.331
41.46000 237.045
41.47000 243.466
41.48000 250.160
41.49000 251.546
41.50000 243.961
41.51000 236.232
41.52000 232.167
41.53000 233.481
41.54000 234.373
41.55000 235.122
41.56000 235.768
41.57000 236.425
41.58000 237.424
41.59000 238.585
41.60000 239.687
41.61000 242.491
41.62000 245.579
41.63000 248.326
41.64000 248.417
41.65000 247.945
41.66000 246.833
41.67000 242.603
41.68000 237.957
41.69000 234.352
41.70000 236.304
41.71000 238.191
41.72000 239.569
41.73000 239.847
41.74000 240.088
41.75000 238.942
41.76000 235.787
41.77000 232.616
41.78000 231.202
41.79000 231.432
41.80000 231.647
41.81000 230.821
41.82000 229.361
41.83000 228.180
41.84000 233.200
41.85000 240.767
41.86000 247.829
41.87000 249.734
41.88000 250.173
41.89000 249.563
41.90000 242.161
41.91000 233.537
41.92000 226.222
41.93000 224.355
41.94000 223.086
41.95000 222.139
41.96000 230.735
41.97000 237.868
41.98000 243.257
41.99000 245.384
42.00000 247.437
42.01000 249.275
42.02000 250.848
42.03000 252.416
42.04000 248.810
42.05000 241.135
42.06000 233.586
42.07000 231.218
42.08000 231.576
42.09000 231.972
42.10000 233.015
42.11000 234.288
42.12000 235.455
42.13000 235.424
42.14000 235.143
42.15000 235.196
42.16000 237.070
42.17000 239.219
42.18000 240.819
42.19000 240.463
42.20000 239.934
42.21000 239.556
42.22000 237.240
42.23000 235.410
42.24000 232.430
42.25000 227.602
42.26000 222.748
42.27000 221.454
42.28000 223.896
42.29000 226.325
42.30000 227.333
42.31000 227.377
42.32000 227.464
42.33000 228.726
42.34000 230.521
42.35000 232.288
42.36000 233.681
42.37000 234.960
42.38000 236.109
42.39000 235.526
42.40000 234.710
42.41000 233.982
42.42000 233.661
42.43000 233.391
42.44000 233.233
42.45000 233.418
42.46000 233.627
42.47000 233.769
42.48000 232.653
42.49000 231.790
42.50000 231.760
42.51000 232.877
42.52000 234.001
42.53000 234.433
42.54000 234.252
42.55000 234.073
42.56000 236.510
42.57000 240.379
42.58000 244.100
42.59000 244.826
42.60000 244.379
42.61000 243.755
42.62000 241.317
42.63000 238.403
42.64000 235.846
42.65000 237.191
42.66000 238.917
42.67000 239.457
42.68000 235.301
42.69000 230.663
42.70000 228.062
42.71000 230.855
42.72000 233.938
42.73000 235.927
42.74000 234.496
42.75000 233.402
42.76000 230.738
42.77000 226.226
42.78000 221.738
42.79000 222.800
42.80000 228.043
42.81000 233.191
42.82000 232.348
42.83000 228.635
42.84000 225.355
42.85000 228.667
42.86000 234.206
42.87000 239.005
42.88000 237.617
42.89000 234.839
42.90000 232.463
42.91000 233.995
42.92000 235.757
42.93000 237.085
42.94000 236.944
42.95000 236.681
42.96000 237.696
42.97000 241.632
42.98000 245.682
42.99000 248.144
43.00000 236.787
43.01000 228.572
43.02000 225.919
43.03000 228.795
43.04000 231.664
43.05000 233.980
43.06000 235.939
43.07000 237.844
43.08000 236.690
43.09000 234.333
43.10000 232.052
43.11000 230.686
43.12000 229.586
43.13000 227.714
43.14000 220.504
43.15000 212.273
43.16000 205.433
43.17000 210.482
43.18000 215.820
43.19000 219.560
43.20000 218.620
43.21000 217.379
43.22000 217.358
43.23000 219.744
43.24000 222.194
43.25000 223.587
43.26000 222.338
43.27000 221.460
43.28000 220.482
43.29000 219.420
43.30000 218.390
43.31000 218.892
43.32000 220.245
43.33000 221.545
43.34000 224.761
43.35000 228.446
43.36000 231.471
43.37000 228.163
43.38000 223.274
43.39000 219.547
43.40000 222.562
43.41000 226.662
43.42000 229.964
43.43000 227.936
43.44000 225.875
43.45000 224.113
43.46000 223.107
43.47000 222.138
43.48000 222.067
43.49000 223.524
43.50000 225.007
43.51000 225.789
43.52000 217.731
43.53000 212.307
43.54000 214.262
43.55000 221.506
43.56000 228.464
43.57000 226.315
43.58000 219.811
43.59000 213.639
43.60000 213.880
43.61000 216.009
43.62000 217.747
43.63000 216.409
43.64000 214.415
43.65000 213.265
43.66000 216.260
43.67000 219.812
43.68000 222.573
43.69000 220.516
43.70000 218.587
43.71000 218.490
43.72000 222.386
43.73000 226.423
43.74000 228.623
43.75000 228.142
43.76000 227.638
43.77000 225.406
43.78000 221.549
43.79000 217.729
43.80000 216.592
43.81000 217.103
43.82000 217.548
43.83000 216.495
43.84000 214.823
43.85000 213.262
43.86000 217.253
43.87000 222.269
43.88000 226.540
43.89000 225.945
43.90000 224.469
43.91000 223.092
43.92000 222.126
43.93000 221.206
43.94000 220.519
43.95000 217.681
43.96000 215.369
43.97000 214.308
43.98000 215.599
43.99000 216.946
44.00000 218.818
44.01000 221.347
44.02000 223.873
44.03000 223.562
44.04000 220.999
44.05000 218.482
44.06000 217.925
44.07000 218.404
44.08000 218.936
44.09000 220.339
44.10000 222.053
44.11000 223.624
44.12000 217.913
44.13000 211.278
44.14000 206.085
44.15000 208.805
44.16000 212.730
44.17000 214.703
44.18000 209.673
44.19000 204.015
44.20000 199.966
44.21000 209.402
44.22000 217.061
44.23000 222.817
44.24000 225.490
44.25000 228.120
44.26000 226.711
44.27000 221.032
44.28000 215.382
44.29000 213.542
44.30000 214.291
44.31000 215.129
44.32000 218.489
44.33000 223.000
44.34000 227.064
44.35000 225.330
44.36000 221.813
44.37000 218.653
44.38000 212.660
44.39000 206.910
44.40000 203.960
44.41000 214.062
44.42000 225.816
44.43000 232.920
44.44000 225.666
44.45000 217.397
44.46000 211.756
44.47000 218.630
44.48000 224.059
44.49000 226.463
44.50000 224.667
44.51000 222.846
44.52000 223.556
44.53000 226.522
44.54000 229.457
44.55000 229.210
44.56000 227.148
44.57000 225.238
44.58000 226.424
44.59000 228.829
44.60000 231.366
44.61000 235.270
44.62000 239.534
44.63000 243.280
44.64000 235.619
44.65000 227.352
44.66000 220.609
44.67000 219.939
44.68000 219.898
44.69000 220.979
44.70000 225.048
44.71000 229.279
44.72000 232.016
44.73000 241.200
44.74000 248.011
44.75000 251.796
44.76000 251.999
44.77000 252.202
44.78000 253.683
44.79000 256.132
44.80000 258.538
44.81000 262.950
44.82000 268.186
44.83000 273.206
44.84000 274.890
44.85000 275.440
44.86000 276.411
44.87000 280.933
44.88000 286.258
44.89000 290.818
44.90000 303.617
44.91000 315.417
44.92000 326.410
44.93000 334.646
44.94000 342.652
44.95000 350.607
44.96000 358.445
44.97000 366.279
44.98000 371.053
44.99000 361.820
45.00000 355.110
45.01000 358.233
45.02000 371.198
45.03000 384.106
45.04000 392.004
45.05000 396.651
45.06000 401.173
45.07000 406.878
45.08000 412.800
45.09000 418.481
45.10000 421.256
45.11000 423.181
45.12000 424.507
45.13000 421.653
45.14000 417.996
45.15000 414.953
45.16000 405.998
45.17000 398.001
45.18000 390.718
45.19000 385.539
45.20000 380.498
45.21000 376.816
45.22000 375.835
45.23000 374.927
45.24000 374.409
45.25000 358.571
45.26000 347.485
45.27000 342.348
45.28000 342.243
45.29000 341.978
45.30000 333.649
45.31000 320.821
45.32000 308.478
45.33000 298.720
45.34000 290.479
45.35000 283.103
45.36000 284.084
45.37000 287.166
45.38000 288.236
45.39000 277.555
45.40000 264.967
45.41000 254.819
45.42000 250.844
45.43000 248.100
45.44000 245.734
45.45000 244.323
45.46000 242.960
45.47000 242.081
45.48000 242.028
45.49000 241.989
45.50000 241.968
45.51000 245.573
45.52000 248.016
45.53000 249.214
45.54000 249.513
45.55000 249.742
45.56000 247.681
45.57000 244.518
45.58000 241.515
45.59000 236.670
45.60000 231.647
45.61000 226.897
45.62000 224.307
45.63000 222.182
45.64000 220.660
45.65000 222.118
45.66000 223.981
45.67000 225.430
45.68000 226.375
45.69000 227.097
45.70000 226.105
45.71000 221.354
45.72000 216.469
45.73000 215.754
45.74000 221.165
45.75000 226.630
45.76000 226.498
45.77000 221.066
45.78000 215.666
45.79000 212.575
45.80000 210.911
45.81000 209.369
45.82000 210.609
45.83000 213.005
45.84000 215.244
45.85000 211.223
45.86000 205.987
45.87000 201.488
45.88000 201.841
45.89000 203.078
45.90000 205.525
45.91000 213.069
45.92000 221.181
45.93000 227.254
45.94000 214.904
45.95000 204.407
45.96000 197.801
45.97000 198.561
45.98000 199.496
45.99000 201.148
46.00000 203.699
46.01000 206.249
46.02000 205.597
46.03000 202.387
46.04000 199.299
46.05000 201.476
46.06000 206.456
46.07000 211.115
46.08000 210.359
46.09000 207.662
46.10000 205.186
46.11000 206.438
46.12000 208.351
46.13000 209.566
46.14000 206.925
46.15000 203.692
46.16000 201.332
46.17000 202.119
46.18000 203.190
46.19000 203.958
46.20000 209.985
46.21000 214.770
46.22000 215.322
46.23000 208.973
46.24000 202.528
46.25000 199.866
46.26000 201.231
46.27000 202.589
46.28000 203.048
46.29000 202.891
46.30000 202.706
46.31000 201.718
46.32000 200.362
46.33000 199.342
46.34000 202.727
46.35000 207.474
46.36000 211.745
46.37000 210.627
46.38000 208.685
46.39000 206.890
46.40000 205.791
46.41000 204.780
46.42000 204.869
46.43000 208.378
46.44000 212.131
46.45000 214.697
46.46000 208.701
46.47000 204.014
46.48000 200.777
46.49000 199.570
46.50000 198.376
46.51000 196.778
46.52000 194.818
46.53000 192.879
46.54000 197.599
46.55000 206.053
46.56000 214.016
46.57000 211.863
46.58000 205.701
46.59000 199.934
46.60000 198.296
46.61000 197.755
46.62000 197.280
46.63000 203.097
46.64000 209.038
46.65000 213.424
46.66000 211.583
46.67000 209.091
46.68000 206.146
46.69000 201.990
46.70000 197.768
46.71000 195.031
46.72000 198.130
46.73000 200.484
46.74000 203.229
46.75000 206.437
46.76000 209.635
46.77000 210.494
46.78000 209.567
46.79000 208.657
46.80000 203.456
46.81000 196.328
46.82000 189.631
46.83000 189.634
46.84000 191.929
46.85000 194.086
46.86000 195.066
46.87000 195.779
46.88000 196.391
46.89000 194.240
46.90000 192.086
46.91000 190.423
46.92000 190.447
46.93000 190.613
46.94000 191.041
46.95000 192.075
46.96000 193.133
46.97000 193.780
46.98000 195.089
46.99000 196.030
47.00000 193.916
47.01000 188.722
47.02000 183.592
47.03000 184.333
47.04000 188.909
47.05000 193.365
47.06000 193.701
47.07000 192.303
47.08000 190.899
47.09000 189.428
47.10000 187.937
47.11000 186.409
47.12000 184.623
47.13000 182.787
47.14000 181.258
47.15000 185.586
47.16000 189.755
47.17000 191.974
47.18000 188.421
47.19000 184.487
47.20000 181.798
47.21000 181.593
47.22000 181.458
47.23000 181.381
47.24000 179.625
47.25000 178.400
47.26000 180.495
47.27000 185.419
47.28000 190.268
47.29000 191.276
47.30000 190.126
47.31000 189.019
47.32000 185.052
47.33000 180.314
47.34000 176.470
47.35000 181.342
47.36000 188.418
47.37000 193.913
47.38000 190.104
47.39000 184.776
47.40000 180.474
47.41000 182.025
47.42000 183.749
47.43000 185.523
47.44000 187.422
47.45000 189.328
47.46000 190.772
47.47000 191.423
47.48000 192.061
47.49000 192.399
47.50000 193.194
47.51000 193.725
47.52000 192.771
47.53000 190.740
47.54000 188.731
47.55000 187.487
47.56000 186.613
47.57000 185.782
47.58000 183.944
47.59000 181.943
47.60000 180.269
47.61000 181.203
47.62000 182.702
47.63000 184.775
47.64000 189.706
47.65000 195.026
47.66000 199.173
47.67000 193.220
47.68000 187.849
47.69000 183.767
47.70000 182.531
47.71000 181.397
47.72000 183.670
47.73000 190.975
47.74000 198.326
47.75000 199.083
47.76000 193.552
47.77000 188.052
47.78000 184.940
47.79000 183.314
47.80000 181.901
47.81000 185.389
47.82000 190.924
47.83000 196.101
47.84000 194.436
47.85000 191.179
47.86000 187.813
47.87000 183.726
47.88000 179.507
47.89000 176.452
47.90000 178.336
47.91000 180.776
47.92000 182.605
47.93000 191.423
47.94000 198.640
47.95000 201.766
47.96000 197.099
47.97000 192.245
47.98000 189.964
47.99000 190.933
48.00000 191.911
48.01000 192.313
48.02000 192.251
48.03000 192.144
48.04000 190.115
48.05000 187.056
48.06000 184.196
48.07000 184.735
48.08000 186.499
48.09000 188.121
48.10000 187.968
48.11000 187.450
48.12000 187.399
48.13000 189.947
48.14000 192.896
48.15000 194.143
48.16000 189.205
48.17000 183.703
48.18000 179.751
48.19000 175.405
48.20000 172.067
48.21000 171.372
48.22000 175.013
48.23000 178.715
48.24000 180.178
48.25000 179.238
48.26000 178.303
48.27000 176.992
48.28000 175.441
48.29000 173.989
48.30000 175.427
48.31000 178.200
48.32000 180.865
48.33000 182.099
48.34000 182.888
48.35000 183.599
48.36000 182.531
48.37000 181.274
48.38000 180.840
48.39000 184.289
48.40000 188.238
48.41000 189.099
48.42000 180.309
48.43000 170.823
48.44000 164.326
48.45000 173.113
48.46000 180.059
48.47000 184.998
48.48000 187.114
48.49000 189.208
48.50000 187.615
48.51000 182.691
48.52000 177.816
48.53000 176.543
48.54000 177.388
48.55000 178.287
48.56000 180.332
48.57000 182.832
48.58000 185.390
48.59000 188.548
48.60000 191.866
48.61000 194.786
48.62000 190.249
48.63000 185.226
48.64000 180.402
48.65000 176.381
48.66000 172.444
48.67000 169.190
48.68000 167.772
48.69000 166.457
48.70000 165.603
48.71000 174.553
48.72000 181.260
48.73000 184.038
48.74000 182.105
48.75000 180.177
48.76000 181.686
48.77000 185.834
48.78000 189.911
48.79000 187.924
48.80000 183.011
48.81000 178.112
48.82000 173.418
48.83000 168.795
48.84000 165.040
48.85000 168.716
48.86000 174.093
48.87000 178.707
48.88000 178.449
48.89000 177.631
48.90000 177.004
48.91000 177.041
48.92000 177.133
48.93000 177.130
48.94000 176.905
48.95000 176.670
48.96000 176.526
48.97000 180.762
48.98000 183.831
48.99000 184.068
49.00000 181.429
49.01000 178.828
49.02000 179.878
49.03000 183.327
49.04000 186.686
49.05000 182.325
49.06000 174.926
49.07000 168.491
49.08000 173.864
49.09000 182.738
49.10000 190.487
49.11000 190.278
49.12000 188.520
49.13000 187.053
49.14000 183.354
49.15000 180.064
49.16000 176.912
49.17000 174.176
49.18000 171.468
49.19000 170.421
49.20000 172.713
49.21000 175.099
49.22000 176.467
49.23000 178.187
49.24000 179.389
49.25000 179.823
49.26000 179.599
49.27000 179.390
49.28000 179.998
49.29000 181.068
49.30000 182.098
49.31000 180.131
49.32000 177.214
49.33000 174.350
49.34000 172.011
49.35000 169.806
49.36000 168.581
49.37000 173.156
49.38000 178.685
49.39000 183.155
49.40000 180.563
49.41000 177.888
49.42000 175.783
49.43000 175.142
49.44000 174.574
49.45000 175.507
49.46000 179.035
49.47000 182.610
49.48000 184.513
49.49000 182.672
49.50000 181.417
49.51000 180.473
49.52000 179.757
49.53000 179.090
49.54000 180.082
49.55000 181.883
49.56000 183.595
49.57000 180.049
49.58000 175.176
49.59000 170.972
49.60000 172.138
49.61000 174.472
49.62000 176.303
49.63000 175.615
49.64000 174.579
49.65000 173.771
49.66000 167.067
49.67000 161.350
49.68000 159.124
49.69000 164.650
49.70000 170.458
49.71000 174.859
49.72000 177.165
49.73000 179.452
49.74000 181.122
49.75000 182.200
49.76000 183.245
49.77000 181.713
49.78000 178.569
49.79000 175.405
49.80000 171.762
49.81000 167.917
49.82000 164.319
49.83000 167.218
49.84000 171.521
49.85000 175.035
49.86000 173.278
49.87000 170.548
49.88000 169.342
49.89000 174.640
49.90000 180.675
49.91000 185.208
49.92000 178.097
49.93000 171.983
49.94000 168.132
49.95000 168.617
49.96000 169.210
49.97000 171.321
49.98000 175.363
49.99000 179.405
50.00000 180.826
50.01000 180.116
50.02000 179.378
50.03000 177.384
50.04000 174.714
50.05000 172.255
50.06000 173.460
50.07000 175.995
50.08000 178.326
50.09000 181.143
50.10000 183.764
50.11000 185.942
50.12000 185.636
50.13000 184.944
50.14000 183.814
50.15000 181.087
50.16000 178.213
50.17000 176.145
50.18000 181.603
50.19000 186.045
50.20000 187.111
50.21000 182.606
50.22000 178.020
50.23000 176.507
50.24000 178.310
50.25000 180.107
50.26000 181.141
50.27000 181.641
50.28000 182.125
50.29000 182.142
50.30000 181.943
50.31000 181.829
50.32000 182.867
50.33000 184.264
50.34000 185.523
50.35000 193.977
50.36000 202.700
50.37000 208.740
50.38000 202.030
50.39000 193.668
50.40000 187.616
50.41000 188.824
50.42000 190.561
50.43000 191.753
50.44000 198.316
50.45000 203.365
50.46000 208.696
50.47000 214.426
50.48000 220.156
50.49000 221.352
50.50000 218.422
50.51000 215.521
50.52000 217.234
50.53000 221.605
50.54000 225.878
50.55000 228.086
50.56000 229.467
50.57000 231.032
50.58000 234.565
50.59000 238.626
50.60000 242.205
50.61000 248.279
50.62000 253.889
50.63000 258.925
50.64000 261.635
50.65000 264.096
50.66000 267.713
50.67000 274.462
50.68000 281.386
50.69000 285.894
50.70000 278.747
50.71000 273.324
50.72000 271.707
50.73000 274.684
50.74000 277.660
50.75000 277.774
50.76000 275.676
50.77000 273.614
50.78000 274.351
50.79000 276.455
50.80000 278.238
50.81000 274.943
50.82000 269.890
50.83000 264.627
50.84000 257.560
50.85000 250.077
50.86000 243.649
50.87000 234.700
50.88000 226.817
50.89000 221.719
50.90000 226.315
50.91000 231.741
50.92000 232.820
50.93000 223.725
50.94000 214.210
50.95000 208.367
50.96000 208.702
50.97000 208.995
50.98000 208.813
50.99000 208.145
51.00000 207.439
51.01000 203.034
51.02000 196.182
51.03000 189.505
51.04000 185.105
51.05000 181.869
51.06000 179.161
51.07000 182.975
51.08000 188.735
51.09000 193.926
51.10000 195.067
51.11000 195.412
51.12000 195.701
51.13000 184.963
51.14000 174.937
51.15000 167.474
51.16000 167.691
51.17000 168.424
51.18000 169.869
51.19000 172.750
51.20000 175.672
51.21000 177.352
51.22000 172.378
51.23000 168.878
51.24000 168.388
51.25000 170.495
51.26000 172.547
51.27000 171.597
51.28000 168.941
51.29000 166.381
51.30000 167.771
51.31000 170.496
51.32000 173.295
51.33000 176.823
51.34000 180.536
51.35000 183.371
51.36000 180.962
51.37000 177.684
51.38000 175.031
51.39000 167.895
51.40000 161.725
51.41000 156.880
51.42000 155.468
51.43000 154.231
51.44000 155.518
51.45000 161.199
51.46000 166.960
51.47000 170.038
51.48000 162.953
51.49000 158.141
51.50000 157.888
51.51000 160.987
51.52000 164.023
51.53000 164.963
51.54000 164.875
51.55000 164.792
51.56000 165.239
51.57000 165.814
51.58000 166.280
51.59000 165.863
51.60000 165.252
51.61000 164.770
51.62000 164.934
51.63000 165.187
51.64000 165.386
51.65000 168.936
51.66000 171.983
51.67000 174.195
51.68000 174.539
51.69000 174.815
51.70000 172.295
51.71000 165.591
51.72000 158.847
51.73000 157.356
51.74000 160.943
51.75000 164.526
51.76000 167.695
51.77000 170.603
51.78000 173.195
51.79000 168.286
51.80000 160.205
51.81000 152.637
51.82000 153.438
51.83000 156.328
51.84000 158.598
51.85000 156.693
51.86000 154.012
51.87000 152.817
51.88000 158.010
51.89000 163.932
51.90000 168.387
51.91000 168.906
51.92000 169.122
51.93000 168.171
51.94000 164.973
51.95000 161.718
51.96000 160.388
51.97000 161.518
51.98000 162.656
51.99000 163.569
52.00000 164.296
52.01000 165.023
52.02000 165.756
52.03000 166.493
52.04000 167.154
52.05000 166.496
52.06000 165.356
52.07000 164.307
52.08000 162.848
52.09000 161.455
52.10000 160.717
52.11000 163.680
52.12000 167.223
52.13000 169.343
52.14000 166.231
52.15000 162.634
52.16000 160.041
52.17000 159.556
52.18000 159.259
52.19000 157.926
52.20000 154.871
52.21000 151.790
52.22000 151.038
52.23000 152.816
52.24000 154.587
52.25000 156.924
52.26000 159.628
52.27000 162.267
52.28000 162.964
52.29000 162.753
52.30000 162.661
52.31000 164.161
52.32000 166.162
52.33000 167.967
52.34000 163.345
52.35000 158.112
52.36000 154.453
52.37000 158.325
52.38000 163.180
52.39000 166.214
52.40000 163.489
52.41000 160.340
52.42000 158.174
52.43000 157.460
52.44000 156.960
52.45000 157.457
52.46000 159.372
52.47000 161.298
52.48000 162.433
52.49000 162.844
52.50000 163.251
52.51000 163.764
52.52000 164.330
52.53000 164.783
52.54000 162.835
52.55000 159.918
52.56000 156.815
52.57000 151.734
52.58000 146.118
52.59000 141.164
52.60000 141.999
52.61000 143.599
52.62000 145.326
52.63000 147.573
52.64000 149.876
52.65000 150.985
52.66000 148.841
52.67000 146.512
52.68000 144.993
52.69000 153.527
52.70000 159.949
52.71000 164.911
52.72000 168.098
52.73000 171.266
52.74000 170.620
52.75000 167.008
52.76000 163.456
52.77000 159.105
52.78000 154.497
52.79000 150.397
52.80000 154.454
52.81000 161.350
52.82000 167.388
52.83000 165.963
52.84000 162.808
52.85000 160.094
52.86000 162.432
52.87000 165.044
52.88000 165.872
52.89000 160.450
52.90000 154.487
52.91000 150.647
52.92000 151.803
52.93000 153.168
52.94000 154.009
52.95000 152.293
52.96000 151.040
52.97000 152.714
52.98000 157.401
52.99000 162.063
53.00000 164.270
53.01000 164.844
53.02000 165.404
53.03000 164.571
53.04000 163.185
53.05000 161.556
53.06000 156.906
53.07000 151.349
53.08000 146.543
53.09000 147.125
53.10000 148.772
53.11000 150.149
53.12000 155.810
53.13000 160.949
53.14000 165.148
53.15000 166.514
53.16000 167.687
53.17000 167.315
53.18000 163.803
53.19000 160.199
53.20000 158.121
53.21000 155.150
53.22000 153.069
53.23000 153.877
53.24000 157.192
53.25000 160.472
53.26000 161.801
53.27000 162.013
53.28000 162.218
53.29000 162.042
53.30000 161.738
53.31000 161.361
53.32000 160.247
53.33000 158.943
53.34000 158.287
53.35000 161.522
53.36000 165.406
53.37000 168.554
53.38000 170.349
53.39000 171.701
53.40000 171.611
53.41000 167.767
53.42000 163.729
53.43000 160.073
53.44000 157.084
53.45000 154.107
53.46000 152.512
53.47000 160.040
53.48000 165.166
53.49000 166.683
53.50000 165.533
53.51000 164.387
53.52000 163.424
53.53000 162.551
53.54000 161.720
53.55000 160.484
53.56000 159.216
53.57000 157.750
53.58000 154.675
53.59000 151.245
53.60000 149.380
53.61000 155.450
53.62000 162.628
53.63000 168.247
53.64000 157.784
53.65000 148.396
53.66000 142.879
53.67000 146.058
53.68000 149.564
53.69000 150.479
53.70000 147.493
53.71000 144.468
53.72000 145.251
53.73000 149.742
53.74000 154.230
53.75000 158.513
53.76000 162.666
53.77000 166.449
53.78000 161.379
53.79000 152.544
53.80000 144.263
53.81000 147.071
53.82000 152.511
53.83000 157.304
53.84000 157.706
53.85000 157.287
53.86000 157.036
53.87000 157.515
53.88000 158.079
53.89000 158.503
53.90000 161.665
53.91000 164.275
53.92000 165.457
53.93000 163.870
53.94000 162.213
53.95000 159.601
53.96000 155.760
53.97000 151.920
53.98000 149.891
53.99000 149.359
54.00000 148.860
54.01000 149.918
54.02000 151.825
54.03000 153.634
54.04000 153.699
54.05000 153.124
54.06000 152.595
54.07000 150.514
54.08000 148.312
54.09000 146.721
54.10000 148.602
54.11000 151.030
54.12000 153.127
54.13000 153.995
54.14000 154.747
54.15000 155.290
54.16000 151.901
54.17000 149.160
54.18000 148.160
54.19000 150.065
54.20000 152.016
54.21000 153.977
54.22000 155.950
54.23000 157.914
54.24000 157.808
54.25000 156.262
54.26000 154.831
54.27000 156.919
54.28000 160.660
54.29000 164.018
54.30000 162.171
54.31000 158.675
54.32000 155.519
54.33000 153.871
54.34000 152.701
54.35000 151.467
54.36000 149.926
54.37000 148.345
54.38000 147.005
54.39000 146.430
54.40000 145.913
54.41000 145.557
54.42000 149.996
54.43000 153.450
54.44000 156.555
54.45000 159.161
54.46000 161.762
54.47000 161.281
54.48000 157.959
54.49000 154.667
54.50000 152.735
54.51000 151.647
54.52000 150.669
54.53000 152.097
54.54000 154.501
54.55000 156.508
54.56000 154.224
54.57000 150.771
54.58000 147.722
54.59000 152.944
54.60000 158.717
54.61000 162.525
54.62000 158.259
54.63000 153.121
54.64000 149.228
54.65000 148.749
54.66000 148.465
54.67000 148.280
54.68000 152.752
54.69000 156.113
54.70000 158.363
54.71000 159.254
54.72000 160.136
54.73000 159.366
54.74000 157.302
54.75000 155.272
54.76000 153.265
54.77000 151.335
54.78000 149.567
54.79000 150.451
54.80000 152.264
54.81000 153.784
54.82000 152.740
54.83000 151.097
54.84000 149.682
54.85000 148.379
54.86000 147.289
54.87000 147.198
54.88000 150.630
54.89000 154.369
54.90000 157.778
54.91000 160.407
54.92000 163.003
54.93000 164.605
54.94000 161.020
54.95000 158.399
54.96000 156.096
54.97000 154.122
54.98000 152.166
54.99000 152.086
55.00000 153.262
55.01000 154.408
55.02000 151.969
55.03000 148.103
55.04000 144.808
55.05000 148.718
55.06000 154.803
55.07000 160.482
55.08000 163.231
55.09000 165.398
55.10000 167.212
55.11000 167.394
55.12000 167.378
55.13000 166.699
55.14000 164.012
55.15000 161.187
55.16000 160.016
55.17000 162.224
55.18000 164.532
55.19000 165.867
55.20000 166.647
55.21000 167.192
55.22000 167.752
55.23000 168.324
55.24000 168.917
55.25000 170.654
55.26000 173.049
55.27000 175.359
55.28000 170.083
55.29000 162.355
55.30000 155.492
55.31000 157.346
55.32000 161.461
55.33000 164.706
55.34000 162.681
55.35000 159.772
55.36000 157.411
55.37000 162.389
55.38000 167.052
55.39000 170.964
55.40000 172.906
55.41000 174.745
55.42000 176.304
55.43000 177.368
55.44000 178.423
55.45000 178.990
55.46000 182.953
55.47000 185.655
55.48000 186.835
55.49000 186.881
55.50000 187.060
55.51000 191.905
55.52000 199.063
55.53000 205.878
55.54000 206.092
55.55000 204.247
55.56000 203.102
55.57000 207.723
55.58000 213.622
55.59000 219.225
55.60000 223.318
55.61000 227.199
55.62000 230.241
55.63000 239.479
55.64000 247.265
55.65000 255.147
55.66000 263.249
55.67000 271.358
55.68000 280.301
55.69000 290.504
55.70000 300.721
55.71000 311.601
55.72000 323.133
55.73000 334.662
55.74000 345.951
55.75000 357.087
55.76000 368.660
55.77000 390.866
55.78000 417.621
55.79000 442.712
55.80000 466.125
55.81000 487.010
55.82000 506.764
55.83000 518.804
55.84000 529.391
55.85000 540.784
55.86000 555.683
55.87000 570.989
55.88000 582.540
55.89000 597.298
55.90000 609.020
55.91000 619.255
55.92000 626.590
55.93000 633.850
55.94000 642.312
55.95000 652.332
55.96000 662.346
55.97000 661.704
55.98000 652.247
55.99000 642.877
56.00000 637.595
56.01000 634.555
56.02000 631.111
56.03000 620.428
56.04000 607.070
56.05000 594.760
56.06000 576.301
56.07000 558.419
56.08000 539.626
56.09000 515.620
56.10000 490.786
56.11000 468.637
56.12000 456.486
56.13000 445.280
56.14000 437.173
56.15000 422.236
56.16000 410.522
56.17000 393.378
56.18000 367.114
56.19000 340.705
56.20000 326.754
56.21000 326.518
56.22000 326.291
56.23000 316.895
56.24000 301.168
56.25000 285.526
56.26000 272.521
56.27000 260.762
56.28000 249.303
56.29000 241.975
56.30000 235.964
56.31000 230.532
56.32000 222.158
56.33000 214.248
56.34000 206.840
56.35000 201.865
56.36000 197.211
56.37000 193.200
56.38000 191.242
56.39000 189.439
56.40000 188.195
56.41000 190.269
56.42000 191.912
56.43000 190.947
56.44000 186.219
56.45000 181.460
56.46000 175.333
56.47000 167.935
56.48000 160.605
56.49000 159.148
56.50000 161.217
56.51000 163.235
56.52000 164.139
56.53000 164.590
56.54000 165.105
56.55000 166.319
56.56000 167.725
56.57000 168.968
56.58000 168.845
56.59000 168.528
56.60000 167.983
56.61000 166.495
56.62000 164.905
56.63000 162.391
56.64000 157.328
56.65000 152.118
56.66000 148.703
56.67000 148.320
56.68000 148.089
56.69000 149.778
56.70000 153.830
56.71000 157.878
56.72000 159.074
56.73000 158.023
56.74000 156.989
56.75000 152.039
56.76000 145.262
56.77000 138.951
56.78000 140.267
56.79000 144.272
56.80000 148.359
56.81000 153.186
56.82000 158.185
56.83000 162.494
56.84000 157.350
56.85000 151.786
56.86000 147.426
56.87000 147.335
56.88000 147.620
56.89000 148.546
56.90000 150.997
56.91000 153.514
56.92000 155.071
56.93000 155.435
56.94000 155.685
56.95000 153.418
56.96000 148.524
56.97000 143.676
56.98000 143.869
56.99000 147.458
57.00000 150.959
57.01000 149.547
57.02000 146.079
57.03000 142.974
57.04000 144.477
57.05000 147.381
57.06000 149.931
57.07000 149.910
57.08000 149.373
57.09000 148.924
57.10000 147.836
57.11000 146.866
57.12000 145.097
57.13000 140.894
57.14000 136.522
57.15000 135.117
57.16000 139.815
57.17000 144.696
57.18000 147.527
57.19000 140.676
57.20000 135.834
57.21000 138.077
57.22000 146.557
57.23000 154.909
57.24000 156.007
57.25000 152.907
57.26000 149.916
57.27000 142.917
57.28000 134.858
57.29000 127.889
57.30000 132.011
57.31000 139.028
57.32000 145.807
57.33000 151.132
57.34000 156.212
57.35000 160.340
57.36000 155.197
57.37000 150.229
57.38000 147.253
57.39000 149.521
57.40000 152.066
57.41000 151.539
57.42000 145.563
57.43000 139.481
57.44000 136.202
57.45000 140.255
57.46000 143.020
57.47000 142.742
57.48000 140.187
57.49000 137.759
57.50000 139.887
57.51000 144.288
57.52000 148.479
57.53000 149.028
57.54000 148.402
57.55000 148.169
57.56000 151.187
57.57000 154.932
57.58000 157.982
57.59000 157.466
57.60000 156.445
57.61000 155.643
57.62000 149.258
57.63000 143.786
57.64000 138.918
57.65000 135.425
57.66000 131.985
57.67000 131.827
57.68000 136.670
57.69000 141.566
57.70000 143.740
57.71000 143.226
57.72000 142.737
57.73000 144.311
57.74000 147.209
57.75000 149.975
57.76000 149.503
57.77000 147.636
57.78000 145.884
57.79000 143.964
57.80000 142.168
57.81000 140.302
57.82000 137.949
57.83000 135.504
57.84000 133.859
57.85000 135.716
57.86000 137.983
57.87000 139.696
57.88000 142.946
57.89000 145.572
57.90000 148.055
57.91000 150.259
57.92000 152.454
57.93000 152.551
57.94000 149.910
57.95000 147.260
57.96000 145.666
57.97000 144.957
57.98000 144.226
57.99000 142.463
58.00000 140.130
58.01000 138.034
58.02000 140.233
58.03000 144.027
58.04000 147.526
58.05000 142.844
58.06000 136.829
58.07000 132.190
58.08000 135.477
58.09000 140.033
58.10000 143.546
58.11000 143.152
58.12000 142.385
58.13000 141.830
58.14000 137.176
58.15000 133.449
58.16000 133.998
58.17000 141.775
58.18000 149.669
58.19000 152.251
58.20000 148.944
58.21000 145.647
58.22000 144.255
58.23000 144.220
58.24000 144.023
58.25000 138.732
58.26000 131.018
58.27000 123.771
58.28000 123.012
58.29000 124.333
58.30000 125.527
58.31000 127.564
58.32000 129.515
58.33000 131.188
58.34000 131.505
58.35000 131.641
58.36000 132.353
58.37000 134.917
58.38000 137.623
58.39000 139.494
58.40000 135.428
58.41000 132.216
58.42000 130.756
58.43000 131.840
58.44000 132.945
58.45000 133.780
58.46000 134.362
58.47000 134.939
58.48000 133.517
58.49000 130.923
58.50000 128.521
58.51000 130.359
58.52000 133.938
58.53000 137.413
58.54000 139.740
58.55000 141.751
58.56000 143.530
58.57000 140.595
58.58000 137.326
58.59000 134.596
58.60000 134.110
58.61000 133.870
58.62000 132.991
58.63000 130.337
58.64000 127.580
58.65000 125.768
58.66000 132.345
58.67000 137.326
58.68000 139.594
58.69000 138.501
58.70000 137.394
58.71000 135.010
58.72000 131.612
58.73000 128.267
58.74000 126.167
58.75000 124.768
58.76000 123.612
58.77000 126.504
58.78000 130.830
58.79000 134.635
58.80000 133.799
58.81000 131.867
58.82000 130.199
58.83000 131.325
58.84000 132.639
58.85000 134.468
58.86000 138.136
58.87000 141.967
58.88000 144.072
58.89000 142.039
58.90000 139.826
58.91000 138.453
58.92000 140.234
58.93000 141.545
58.94000 142.709
58.95000 143.718
58.96000 144.702
58.97000 142.954
58.98000 139.353
58.99000 135.839
59.00000 133.941
59.01000 132.828
59.02000 131.999
59.03000 134.816
59.04000 138.747
59.05000 141.607
59.06000 136.603
59.07000 130.014
59.08000 124.485
59.09000 126.366
59.10000 128.707
59.11000 130.654
59.12000 131.391
59.13000 132.043
59.14000 131.928
59.15000 130.224
59.16000 128.471
59.17000 127.452
59.18000 130.508
59.19000 132.670
59.20000 132.658
59.21000 130.721
59.22000 128.810
59.23000 128.501
59.24000 129.123
59.25000 129.724
59.26000 129.005
59.27000 127.841
59.28000 126.809
59.29000 127.136
59.30000 127.819
59.31000 128.768
59.32000 131.337
59.33000 134.183
59.34000 136.499
59.35000 133.686
59.36000 130.958
59.37000 128.561
59.38000 127.042
59.39000 125.571
59.40000 126.934
59.41000 133.355
59.42000 139.876
59.43000 143.403
59.44000 137.329
59.45000 133.168
59.46000 130.729
59.47000 129.590
59.48000 128.514
59.49000 129.764
59.50000 132.180
59.51000 134.484
59.52000 135.469
59.53000 135.969
59.54000 136.046
59.55000 132.583
59.56000 128.325
59.57000 125.208
59.58000 128.005
59.59000 131.645
59.60000 134.508
59.61000 130.067
59.62000 126.029
59.63000 123.530
59.64000 124.552
59.65000 125.712
59.66000 127.197
59.67000 129.181
59.68000 131.170
59.69000 133.195
59.70000 135.256
59.71000 137.288
59.72000 136.854
59.73000 134.828
59.74000 133.060
59.75000 137.731
59.76000 145.188
59.77000 152.191
59.78000 146.312
59.79000 137.531
59.80000 130.185
59.81000 132.783
59.82000 137.280
59.83000 140.524
59.84000 138.251
59.85000 135.326
59.86000 133.111
59.87000 132.609
59.88000 132.302
59.89000 133.424
59.90000 137.368
59.91000 141.387
59.92000 143.040
59.93000 141.588
59.94000 140.123
59.95000 137.542
59.96000 134.030
59.97000 130.606
59.98000 131.478
59.99000 134.734
60.00000 137.696
60.01000 135.255
60.02000 130.796
60.03000 126.680
60.04000 131.464
60.05000 137.747
60.06000 142.450
60.07000 137.983
60.08000 132.037
60.09000 127.302
60.10000 127.126
60.11000 127.388
60.12000 127.579
60.13000 128.820
60.14000 129.813
60.15000 130.342
60.16000 130.081
60.17000 129.807
60.18000 131.038
60.19000 133.951
60.20000 136.853
60.21000 135.030
60.22000 129.868
60.23000 124.896
60.24000 125.965
60.25000 129.925
60.26000 133.609
60.27000 133.435
60.28000 132.017
60.29000 130.733
60.30000 133.146
60.31000 135.967
60.32000 137.466
60.33000 132.474
60.34000 126.609
60.35000 122.188
60.36000 122.449
60.37000 123.068
60.38000 123.497
60.39000 126.211
60.40000 128.315
60.41000 128.986
60.42000 127.567
60.43000 126.130
60.44000 126.349
60.45000 128.127
60.46000 129.891
60.47000 131.640
60.48000 133.348
60.49000 134.940
60.50000 133.947
60.51000 131.884
60.52000 130.221
60.53000 132.982
60.54000 136.970
60.55000 140.501
60.56000 137.234
60.57000 133.344
60.58000 130.586
60.59000 132.572
60.60000 135.083
60.61000 136.801
60.62000 136.304
60.63000 135.676
60.64000 135.263
60.65000 142.407
60.66000 147.798
60.67000 149.535
60.68000 146.714
60.69000 143.879
60.70000 140.942
60.71000 137.923
60.72000 134.951
60.73000 132.020
60.74000 129.199
60.75000 126.499
60.76000 125.827
60.77000 125.878
60.78000 125.718
60.79000 123.672
60.80000 121.177
60.81000 119.023
60.82000 124.644
60.83000 130.423
60.84000 134.638
60.85000 133.243
60.86000 131.346
60.87000 131.249
60.88000 135.493
60.89000 139.928
60.90000 142.685
60.91000 137.350
60.92000 133.428
60.93000 131.546
60.94000 131.820
60.95000 132.097
60.96000 132.601
60.97000 133.259
60.98000 133.901
60.99000 134.455
61.00000 134.948
61.01000 135.378
61.02000 134.996
61.03000 134.364
61.04000 133.376
61.05000 129.755
61.06000 125.601
61.07000 122.110
61.08000 128.344
61.09000 134.564
61.10000 139.287
61.11000 139.387
61.12000 139.159
61.13000 139.114
61.14000 139.448
61.15000 139.794
61.16000 139.996
61.17000 137.663
61.18000 136.011
61.19000 135.014
61.20000 134.601
61.21000 134.220
61.22000 135.691
61.23000 138.247
61.24000 140.716
61.25000 139.711
61.26000 137.472
61.27000 135.486
61.28000 136.114
61.29000 137.433
61.30000 138.368
61.31000 136.927
61.32000 135.080
61.33000 133.574
61.34000 132.596
61.35000 131.840
61.36000 133.073
61.37000 139.603
61.38000 146.419
61.39000 148.642
61.40000 142.617
61.41000 136.428
61.42000 133.069
61.43000 136.254
61.44000 138.451
61.45000 142.145
61.46000 146.972
61.47000 151.738
61.48000 154.207
61.49000 155.516
61.50000 156.765
61.51000 168.213
61.52000 182.053
61.53000 194.800
61.54000 198.336
61.55000 199.790
61.56000 203.370
61.57000 218.032
61.58000 234.287
61.59000 247.087
61.60000 264.796
61.61000 279.315
61.62000 288.539
61.63000 285.583
61.64000 282.142
61.65000 281.898
61.66000 286.588
61.67000 291.333
61.68000 293.707
61.69000 307.170
61.70000 316.070
61.71000 318.110
61.72000 315.694
61.73000 313.071
61.74000 305.203
61.75000 295.051
61.76000 285.512
61.77000 275.865
61.78000 267.033
61.79000 257.241
61.80000 240.760
61.81000 222.993
61.82000 206.235
61.83000 193.950
61.84000 182.197
61.85000 173.284
61.86000 167.261
61.87000 162.678
61.88000 159.847
61.89000 160.496
61.90000 161.240
61.91000 160.038
61.92000 156.266
61.93000 152.485
61.94000 147.980
61.95000 142.873
61.96000 137.843
61.97000 136.634
61.98000 137.557
61.99000 138.523
62.00000 140.274
62.01000 142.320
62.02000 144.210
62.03000 143.867
62.04000 143.056
62.05000 142.721
62.06000 145.167
62.07000 148.066
62.08000 149.060
62.09000 142.834
62.10000 135.907
62.11000 130.870
62.12000 133.901
62.13000 136.539
62.14000 138.836
62.15000 140.547
62.16000 142.249
62.17000 141.598
62.18000 138.304
62.19000 135.020
62.20000 134.214
62.21000 135.185
62.22000 136.202
62.23000 138.674
62.24000 141.845
62.25000 144.933
62.26000 146.824
62.27000 148.328
62.28000 149.690
62.29000 145.436
62.30000 140.623
62.31000 136.869
62.32000 138.353
62.33000 140.545
62.34000 143.247
62.35000 147.607
62.36000 152.096
62.37000 155.213
62.38000 147.898
62.39000 142.107
62.40000 139.302
62.41000 140.884
62.42000 142.504
62.43000 145.246
62.44000 149.051
62.45000 152.824
62.46000 151.157
62.47000 146.219
62.48000 141.479
62.49000 141.262
62.50000 142.925
62.51000 144.565
62.52000 145.946
62.53000 147.254
62.54000 148.413
62.55000 148.709
62.56000 148.829
62.57000 148.882
62.58000 148.651
62.59000 148.388
62.60000 148.212
62.61000 148.282
62.62000 148.367
62.63000 148.422
62.64000 144.181
62.65000 140.979
62.66000 139.210
62.67000 139.241
62.68000 139.279
62.69000 139.915
62.70000 141.032
62.71000 142.132
62.72000 142.387
62.73000 142.197
62.74000 141.953
62.75000 140.783
62.76000 139.282
62.77000 138.059
62.78000 139.365
62.79000 141.276
62.80000 142.929
62.81000 145.009
62.82000 146.832
62.83000 148.161
62.84000 147.704
62.85000 147.085
62.86000 147.344
62.87000 149.730
62.88000 152.211
62.89000 153.757
62.90000 144.103
62.91000 137.031
62.92000 137.130
62.93000 144.865
62.94000 152.547
62.95000 153.763
62.96000 150.542
62.97000 147.396
62.98000 145.794
62.99000 144.940
63.00000 144.130
63.01000 143.902
63.02000 143.853
63.03000 144.479
63.04000 150.124
63.05000 156.793
63.06000 162.403
63.07000 153.938
63.08000 145.383
63.09000 139.426
63.10000 141.540
63.11000 144.231
63.12000 146.035
63.13000 145.980
63.14000 145.866
63.15000 145.799
63.16000 150.090
63.17000 153.128
63.18000 153.202
63.19000 150.614
63.20000 148.061
63.21000 147.659
63.22000 148.524
63.23000 149.361
63.24000 146.576
63.25000 142.596
63.26000 138.847
63.27000 137.509
63.28000 136.813
63.29000 136.812
63.30000 141.140
63.31000 146.215
63.32000 150.356
63.33000 152.409
63.34000 153.909
63.35000 154.382
63.36000 152.101
63.37000 149.670
63.38000 147.766
63.39000 146.816
63.40000 145.885
63.41000 145.379
63.42000 151.964
63.43000 156.471
63.44000 156.250
63.45000 152.421
63.46000 148.616
63.47000 145.734
63.48000 143.320
63.49000 141.016
63.50000 145.671
63.51000 152.203
63.52000 157.852
63.53000 155.992
63.54000 152.423
63.55000 149.748
63.56000 151.759
63.57000 154.450
63.58000 156.571
63.59000 150.456
63.60000 144.996
63.61000 141.520
63.62000 142.635
63.63000 143.935
63.64000 145.112
63.65000 146.099
63.66000 147.083
63.67000 147.578
63.68000 151.658
63.69000 154.334
63.70000 152.571
63.71000 147.908
63.72000 143.359
63.73000 141.707
63.74000 141.324
63.75000 140.965
63.76000 146.505
63.77000 153.152
63.78000 158.764
63.79000 157.106
63.80000 154.039
63.81000 151.000
63.82000 148.088
63.83000 145.190
63.84000 142.989
63.85000 143.682
63.86000 144.377
63.87000 145.868
63.88000 148.949
63.89000 152.073
63.90000 154.417
63.91000 155.721
63.92000 157.020
63.93000 159.683
63.94000 163.500
63.95000 167.211
63.96000 165.490
63.97000 160.717
63.98000 156.262
63.99000 157.752
64.00000 161.492
64.01000 164.950
64.02000 161.927
64.03000 157.741
64.04000 154.776
64.05000 158.994
64.06000 164.385
64.07000 167.697
64.08000 163.077
64.09000 157.681
64.10000 153.750
64.11000 155.090
64.12000 156.325
64.13000 156.556
64.14000 155.056
64.15000 153.526
64.16000 154.703
64.17000 158.941
64.18000 163.166
64.19000 161.220
64.20000 154.849
64.21000 148.727
64.22000 150.766
64.23000 156.757
64.24000 162.177
64.25000 159.417
64.26000 153.987
64.27000 149.064
64.28000 155.346
64.29000 163.023
64.30000 168.692
64.31000 164.364
64.32000 158.670
64.33000 155.117
64.34000 158.582
64.35000 162.594
64.36000 165.386
64.37000 163.461
64.38000 161.881
64.39000 160.952
64.40000 160.986
64.41000 161.028
64.42000 161.746
64.43000 163.109
64.44000 164.461
64.45000 166.864
64.46000 169.865
64.47000 172.918
64.48000 177.164
64.49000 181.908
64.50000 186.196
64.51000 185.325
64.52000 183.006
64.53000 180.949
64.54000 181.191
64.55000 181.766
64.56000 182.028
64.57000 180.961
64.58000 179.745
64.59000 178.112
64.60000 175.300
64.61000 172.417
64.62000 170.510
64.63000 168.651
64.64000 167.280
64.65000 166.526
64.66000 166.551
64.67000 166.581
64.68000 167.842
64.69000 170.097
64.70000 172.319
64.71000 173.700
64.72000 174.603
64.73000 175.530
64.74000 176.864
64.75000 178.345
64.76000 179.616
64.77000 178.975
64.78000 177.874
64.79000 176.921
64.80000 177.385
64.81000 177.966
64.82000 178.675
64.83000 179.852
64.84000 181.072
64.85000 180.853
64.86000 177.126
64.87000 173.240
64.88000 170.812
64.89000 173.158
64.90000 174.900
64.91000 176.398
64.92000 177.635
64.93000 178.883
64.94000 181.351
64.95000 184.663
64.96000 187.898
64.97000 184.665
64.98000 178.705
64.99000 173.464
65.00000 177.723
65.01000 184.938
65.02000 191.883
65.03000 196.809
65.04000 201.319
65.05000 205.117
65.06000 205.018
65.07000 204.517
65.08000 204.637
65.09000 206.701
65.10000 208.905
65.11000 211.540
65.12000 215.082
65.13000 218.653
65.14000 220.746
65.15000 225.956
65.16000 229.638
65.17000 227.607
65.18000 220.412
65.19000 213.392
65.20000 217.280
65.21000 227.635
65.22000 237.646
65.23000 240.571
65.24000 240.665
65.25000 241.605
65.26000 251.459
65.27000 263.697
65.28000 274.018
65.29000 272.334
65.30000 268.562
65.31000 265.480
65.32000 272.080
65.33000 278.318
65.34000 286.592
65.35000 300.355
65.36000 314.423
65.37000 323.711
65.38000 324.315
65.39000 324.737
65.40000 324.968
65.41000 336.444
65.42000 344.344
65.43000 352.748
65.44000 361.539
65.45000 370.232
65.46000 375.141
65.47000 378.118
65.48000 380.961
65.49000 385.078
65.50000 389.310
65.51000 394.087
65.52000 403.530
65.53000 414.042
65.54000 423.852
65.55000 429.951
65.56000 435.509
65.57000 439.899
65.58000 449.814
65.59000 458.147
65.60000 465.081
65.61000 468.756
65.62000 472.298
65.63000 482.216
65.64000 502.094
65.65000 522.091
65.66000 532.164
65.67000 547.561
65.68000 558.052
65.69000 587.729
65.70000 630.020
65.71000 672.318
65.72000 714.830
65.73000 757.437
65.74000 797.523
65.75000 855.257
65.76000 912.801
65.77000 968.898
65.78000 1014.753
65.79000 1058.613
65.80000 1101.093
65.81000 1137.379
65.82000 1172.915
65.83000 1199.950
65.84000 1226.410
65.85000 1247.197
65.86000 1256.347
65.87000 1242.113
65.88000 1227.218
65.89000 1212.384
65.90000 1197.630
65.91000 1182.887
65.92000 1158.370
65.93000 1125.538
65.94000 1092.359
65.95000 1041.056
65.96000 979.511
65.97000 917.578
65.98000 848.287
65.99000 776.195
66.00000 709.508
66.01000 628.391
66.02000 552.219
66.03000 483.659
66.04000 460.198
66.05000 444.161
66.06000 427.586
66.07000 408.948
66.08000 390.106
66.09000 376.353
66.10000 344.321
66.11000 318.918
66.12000 306.457
66.13000 316.404
66.14000 326.748
66.15000 330.366
66.16000 326.326
66.17000 322.292
66.18000 319.429
66.19000 317.439
66.20000 315.487
66.21000 314.816
66.22000 314.770
66.23000 314.750
66.24000 315.110
66.25000 315.594
66.26000 316.034
66.27000 332.562
66.28000 350.242
66.29000 367.888
66.30000 385.368
66.31000 402.825
66.32000 418.073
66.33000 426.035
66.34000 433.423
66.35000 438.573
66.36000 447.365
66.37000 454.101
66.38000 456.762
66.39000 453.362
66.40000 449.906
66.41000 453.062
66.42000 462.573
66.43000 472.009
66.44000 477.184
66.45000 479.649
66.46000 481.868
66.47000 478.352
66.48000 472.424
66.49000 466.025
66.50000 454.262
66.51000 440.984
66.52000 429.196
66.53000 412.893
66.54000 398.038
66.55000 383.959
66.56000 373.196
66.57000 362.809
66.58000 353.717
66.59000 348.305
66.60000 343.118
66.61000 339.681
66.62000 339.604
66.63000 339.608
66.64000 337.296
66.65000 332.037
66.66000 326.773
66.67000 323.780
66.68000 322.635
66.69000 321.507
66.70000 319.878
66.71000 318.035
66.72000 316.505
66.73000 320.402
66.74000 326.269
66.75000 331.247
66.76000 328.038
66.77000 322.847
66.78000 318.349
66.79000 323.122
66.80000 328.412
66.81000 332.587
66.82000 332.684
66.83000 332.405
66.84000 332.553
66.85000 333.746
66.86000 334.987
66.87000 335.763
66.88000 335.660
66.89000 335.576
66.90000 339.003
66.91000 346.221
66.92000 353.377
66.93000 352.643
66.94000 346.426
66.95000 340.349
66.96000 338.476
66.97000 338.552
66.98000 339.221
66.99000 347.819
67.00000 358.899
67.01000 368.248
67.02000 364.503
67.03000 358.052
67.04000 352.613
67.05000 359.343
67.06000 366.279
67.07000 369.879
67.08000 362.987
67.09000 355.330
67.10000 351.672
67.11000 356.491
67.12000 361.586
67.13000 364.580
67.14000 365.317
67.15000 365.827
67.16000 368.759
67.17000 373.897
67.18000 379.080
67.19000 387.087
67.20000 396.779
67.21000 406.154
67.22000 403.046
67.23000 395.380
67.24000 388.655
67.25000 391.933
67.26000 397.902
67.27000 401.770
67.28000 392.384
67.29000 380.678
67.30000 371.103
67.31000 384.396
67.32000 397.277
67.33000 406.227
67.34000 404.515
67.35000 402.205
67.36000 402.862
67.37000 408.941
67.38000 415.136
67.39000 418.528
67.40000 411.677
67.41000 406.975
67.42000 408.336
67.43000 414.386
67.44000 420.261
67.45000 419.312
67.46000 414.857
67.47000 410.602
67.48000 416.596
67.49000 425.468
67.50000 434.175
67.51000 441.458
67.52000 448.413
67.53000 454.123
67.54000 453.209
67.55000 451.321
67.56000 449.829
67.57000 446.325
67.58000 443.372
67.59000 445.372
67.60000 458.968
67.61000 473.044
67.62000 482.802
67.63000 485.771
67.64000 488.657
67.65000 490.116
67.66000 475.848
67.67000 466.391
67.68000 465.702
67.69000 470.813
67.70000 475.817
67.71000 478.017
67.72000 478.973
67.73000 479.873
67.74000 489.727
67.75000 501.182
67.76000 512.830
67.77000 525.861
67.78000 539.163
67.79000 547.332
67.80000 532.306
67.81000 514.454
67.82000 500.852
67.83000 502.772
67.84000 505.106
67.85000 508.283
67.86000 513.162
67.87000 518.089
67.88000 522.809
67.89000 527.249
67.90000 531.685
67.91000 529.568
67.92000 521.810
67.93000 514.226
67.94000 515.926
67.95000 522.904
67.96000 529.971
67.97000 538.744
67.98000 548.171
67.99000 556.897
68.00000 558.713
68.01000 558.754
68.02000 559.206
68.03000 562.105
68.04000 565.410
68.05000 570.316
68.06000 581.409
68.07000 593.118
68.08000 601.680
68.09000 592.544
68.10000 584.798
68.11000 583.122
68.12000 592.021
68.13000 601.111
68.14000 604.077
68.15000 600.023
68.16000 595.975
68.17000 602.964
68.18000 617.948
68.19000 632.629
68.20000 637.023
68.21000 636.377
68.22000 635.965
68.23000 638.975
68.24000 643.115
68.25000 646.875
68.26000 643.684
68.27000 639.520
68.28000 637.023
68.29000 642.927
68.30000 649.995
68.31000 660.035
68.32000 679.937
68.33000 700.624
68.34000 715.075
68.35000 707.345
68.36000 700.885
68.37000 703.641
68.38000 720.192
68.39000 736.876
68.40000 747.564
68.41000 752.451
68.42000 757.299
68.43000 755.792
68.44000 750.376
68.45000 745.742
68.46000 759.629
68.47000 781.351
68.48000 802.848
68.49000 821.761
68.50000 839.939
68.51000 856.092
68.52000 867.398
68.53000 876.422
68.54000 887.883
68.55000 909.814
68.56000 932.941
68.57000 957.459
68.58000 985.954
68.59000 1014.694
68.60000 1033.779
68.61000 1112.265
68.62000 1171.383
68.63000 1227.464
68.64000 1279.659
68.65000 1331.842
68.66000 1384.765
68.67000 1438.296
68.68000 1491.076
68.69000 1553.978
68.70000 1620.425
68.71000 1686.223
68.72000 1740.657
68.73000 1790.941
68.74000 1842.305
68.75000 1903.689
68.76000 1967.518
68.77000 2022.875
68.78000 2096.783
68.79000 2162.195
68.80000 2232.560
68.81000 2321.150
68.82000 2411.433
68.83000 2518.506
68.84000 2667.036
68.85000 2817.491
68.86000 2911.923
68.87000 3213.939
68.88000 3434.490
68.89000 3830.792
68.90000 4418.087
68.91000 5010.358
68.92000 6240.643
68.93000 7917.119
68.94000 9556.373
68.95000 12699.394
68.96000 16386.953
68.97000 20188.393
68.98000 25526.711
68.99000 31348.982
69.00000 37178.352
69.01000 43061.828
69.02000 48956.563
69.03000 53932.035
69.04000 58785.379
69.05000 62827.773
69.06000 66318.266
69.07000 68062.328
69.08000 69677.734
69.09000 70902.102
69.10000 71292.883
69.11000 71656.141
69.12000 71870.234
69.13000 72293.602
69.14000 72593.648
69.15000 73150.313
69.16000 73942.172
69.17000 74721.813
69.18000 74707.508
69.19000 74216.750
69.20000 73741.820
69.21000 71404.805
69.22000 68486.328
69.23000 65488.836
69.24000 61644.594
69.25000 57571.043
69.26000 53608.777
69.27000 50353.609
69.28000 47223.113
69.29000 44659.348
69.30000 42278.461
69.31000 40342.766
69.32000 38632.551
69.33000 37537.598
69.34000 36477.551
69.35000 35437.676
69.36000 34434.895
69.37000 33432.918
69.38000 32882.578
69.39000 30131.920
69.40000 28232.789
69.41000 25725.193
69.42000 22743.992
69.43000 19766.873
69.44000 16950.658
69.45000 14217.604
69.46000 11605.273
69.47000 9539.821
69.48000 7795.604
69.49000 6123.378
69.50000 5077.464
69.51000 4176.815
69.52000 3353.138
69.53000 2941.486
69.54000 2590.824
69.55000 2313.098
69.56000 2103.002
69.57000 1938.809
69.58000 1796.419
69.59000 1705.393
69.60000 1616.520
69.61000 1541.690
69.62000 1489.070
69.63000 1436.728
69.64000 1410.177
69.65000 1346.754
69.66000 1304.268
69.67000 1261.821
69.68000 1219.401
69.69000 1177.642
69.70000 1153.558
69.71000 1137.356
69.72000 1122.094
69.73000 1085.170
69.74000 1045.431
69.75000 1008.404
69.76000 990.858
69.77000 977.160
69.78000 962.630
69.79000 944.313
69.80000 925.530
69.81000 911.196
69.82000 902.404
69.83000 895.773
69.84000 883.530
69.85000 859.874
69.86000 835.886
69.87000 819.714
69.88000 814.135
69.89000 808.618
69.90000 797.569
69.91000 781.741
69.92000 766.046
69.93000 757.661
69.94000 753.455
69.95000 749.625
69.96000 753.081
69.97000 759.341
69.98000 765.141
69.99000 758.111
70.00000 748.810
