20.00000 551.644
20.01000 547.376
20.02000 542.499
20.03000 538.773
20.04000 539.521
20.05000 540.716
20.06000 541.592
20.07000 544.226
20.08000 546.330
20.09000 550.097
20.10000 556.778
20.11000 563.511
20.12000 567.764
20.13000 569.157
20.14000 570.543
20.15000 566.069
20.16000 557.333
20.17000 548.784
20.18000 546.685
20.19000 547.762
20.20000 549.023
20.21000 553.003
20.22000 557.886
20.23000 562.323
20.24000 568.554
20.25000 574.411
20.26000 577.091
20.27000 563.671
20.28000 548.005
20.29000 539.885
20.30000 556.937
20.31000 576.006
20.32000 589.347
20.33000 583.127
20.34000 577.870
20.35000 570.936
20.36000 561.479
20.37000 551.998
20.38000 548.548
20.39000 550.967
20.40000 553.367
20.41000 555.652
20.42000 557.826
20.43000 559.928
20.44000 560.317
20.45000 559.978
20.46000 559.524
20.47000 557.744
20.48000 555.584
20.49000 553.663
20.50000 552.640
20.51000 551.898
20.52000 551.039
20.53000 549.676
20.54000 548.254
20.55000 545.119
20.56000 537.057
20.57000 528.688
20.58000 523.120
20.59000 531.685
20.60000 538.285
20.61000 540.519
20.62000 537.135
20.63000 533.752
20.64000 539.933
20.65000 553.992
20.66000 567.857
20.67000 564.799
20.68000 552.870
20.69000 541.779
20.70000 545.481
20.71000 554.611
20.72000 562.280
20.73000 556.300
20.74000 546.974
20.75000 538.880
20.76000 541.271
20.77000 544.717
20.78000 547.587
20.79000 548.330
20.80000 548.874
20.81000 551.450
20.82000 559.067
20.83000 566.920
20.84000 571.859
20.85000 569.353
20.86000 567.457
20.87000 561.620
20.88000 551.478
20.89000 541.452
20.90000 547.217
20.91000 564.081
20.92000 580.575
20.93000 576.365
20.94000 562.999
20.95000 550.253
20.96000 545.952
20.97000 544.323
20.98000 543.098
20.99000 544.974
21.00000 547.499
21.01000 549.632
21.02000 550.450
21.03000 550.989
21.04000 549.750
21.05000 542.856
21.06000 535.542
21.07000 531.548
21.08000 534.662
21.09000 538.014
21.10000 539.994
21.11000 546.447
21.12000 551.027
21.13000 550.092
21.14000 544.073
21.15000 538.136
21.16000 537.562
21.17000 540.223
21.18000 542.798
21.19000 550.916
21.20000 560.715
21.21000 569.456
21.22000 566.784
21.23000 561.006
21.24000 554.320
21.25000 541.840
21.26000 528.333
21.27000 517.259
21.28000 516.688
21.29000 517.150
21.30000 520.381
21.31000 531.203
21.32000 542.459
21.33000 547.062
21.34000 539.375
21.35000 531.417
21.36000 527.035
21.37000 536.616
21.38000 543.216
21.39000 543.339
21.40000 538.394
21.41000 533.584
21.42000 534.176
21.43000 537.574
21.44000 540.823
21.45000 537.977
21.46000 533.343
21.47000 530.761
21.48000 546.146
21.49000 565.718
21.50000 581.454
21.51000 576.541
21.52000 568.554
21.53000 562.221
21.54000 556.682
21.55000 552.281
21.56000 547.880
21.57000 543.479
21.58000 539.079
21.59000 538.893
21.60000 545.406
21.61000 552.005
21.62000 555.361
21.63000 553.654
21.64000 552.456
21.65000 545.771
21.66000 535.415
21.67000 525.724
21.68000 534.021
21.69000 550.379
21.70000 565.796
21.71000 571.059
21.72000 573.074
21.73000 574.327
21.74000 570.075
21.75000 564.730
21.76000 561.618
21.77000 568.714
21.78000 577.070
21.79000 583.456
21.80000 589.035
21.81000 593.390
21.82000 604.733
21.83000 630.351
21.84000 656.391
21.85000 669.422
21.86000 664.735
21.87000 659.949
21.88000 665.100
21.89000 678.912
21.90000 692.567
21.91000 697.567
21.92000 697.593
21.93000 698.646
21.94000 719.809
21.95000 748.753
21.96000 775.581
21.97000 779.689
21.98000 778.086
21.99000 778.077
22.00000 787.694
22.01000 798.926
22.02000 809.454
22.03000 817.229
22.04000 824.726
22.05000 830.225
22.06000 813.270
22.07000 799.264
22.08000 787.779
22.09000 780.733
22.10000 773.770
22.11000 771.972
22.12000 776.163
22.13000 780.350
22.14000 773.648
22.15000 758.961
22.16000 744.192
22.17000 726.582
22.18000 707.564
22.19000 689.498
22.20000 685.607
22.21000 686.447
22.22000 687.211
22.23000 671.914
22.24000 655.237
22.25000 639.518
22.26000 628.685
22.27000 618.539
22.28000 609.786
22.29000 605.711
22.30000 602.014
22.31000 599.422
22.32000 580.580
22.33000 565.856
22.34000 556.868
22.35000 556.560
22.36000 556.341
22.37000 554.250
22.38000 550.325
22.39000 546.430
22.40000 543.918
22.41000 542.315
22.42000 540.662
22.43000 537.815
22.44000 534.458
22.45000 531.279
22.46000 530.180
22.47000 529.678
22.48000 529.232
22.49000 525.080
22.50000 520.868
22.51000 515.409
22.52000 504.535
22.53000 493.032
22.54000 488.472
22.55000 503.987
22.56000 520.770
22.57000 531.957
22.58000 534.254
22.59000 535.784
22.60000 534.487
22.61000 529.531
22.62000 524.565
22.63000 522.045
22.64000 521.553
22.65000 521.068
22.66000 520.391
22.67000 519.631
22.68000 519.059
22.69000 521.864
22.70000 525.915
22.71000 529.368
22.72000 527.186
22.73000 523.614
22.74000 520.511
22.75000 520.422
22.76000 520.755
22.77000 520.944
22.78000 520.597
22.79000 520.200
22.80000 518.712
22.81000 514.500
22.82000 510.159
22.83000 507.422
22.84000 500.233
22.85000 494.977
22.86000 495.142
22.87000 501.269
22.88000 507.404
22.89000 514.216
22.90000 521.507
22.91000 528.641
22.92000 525.185
22.93000 517.066
22.94000 509.386
22.95000 507.737
22.96000 508.007
22.97000 508.587
22.98000 511.554
22.99000 515.023
23.00000 517.957
23.01000 513.619
23.02000 509.183
23.03000 505.004
23.04000 501.647
23.05000 498.352
23.06000 496.822
23.07000 499.093
23.08000 501.493
23.09000 502.914
23.10000 508.361
23.11000 512.233
23.12000 512.548
23.13000 509.562
23.14000 506.546
23.15000 501.477
23.16000 495.161
23.17000 489.044
23.18000 493.059
23.19000 500.768
23.20000 507.674
23.21000 505.842
23.22000 501.618
23.23000 497.605
23.24000 494.955
23.25000 492.548
23.26000 490.572
23.27000 495.151
23.28000 499.496
23.29000 502.093
23.30000 499.871
23.31000 497.369
23.32000 496.774
23.33000 499.723
23.34000 502.751
23.35000 504.423
23.36000 496.920
23.37000 491.739
23.38000 489.173
23.39000 488.666
23.40000 488.373
23.41000 496.792
23.42000 509.762
23.43000 522.171
23.44000 510.972
23.45000 492.799
23.46000 476.838
23.47000 480.391
23.48000 488.523
23.49000 494.997
23.50000 492.492
23.51000 488.640
23.52000 485.582
23.53000 488.364
23.54000 491.017
23.55000 493.615
23.56000 496.081
23.57000 498.541
23.58000 500.043
23.59000 500.013
23.60000 499.962
23.61000 499.936
23.62000 509.501
23.63000 515.839
23.64000 513.282
23.65000 504.739
23.66000 496.439
23.67000 494.806
23.68000 496.179
23.69000 497.474
23.70000 494.745
23.71000 491.125
23.72000 488.402
23.73000 492.207
23.74000 497.316
23.75000 501.411
23.76000 500.840
23.77000 499.688
23.78000 498.807
23.79000 488.603
23.80000 480.040
23.81000 476.143
23.82000 481.835
23.83000 487.815
23.84000 489.483
23.85000 485.243
23.86000 480.969
23.87000 483.209
23.88000 491.165
23.89000 498.952
23.90000 497.118
23.91000 489.722
23.92000 482.799
23.93000 485.265
23.94000 491.385
23.95000 497.062
23.96000 495.270
23.97000 491.901
23.98000 489.252
23.99000 490.978
24.00000 493.443
24.01000 495.055
24.02000 493.307
24.03000 491.217
24.04000 489.682
24.05000 491.074
24.06000 492.269
24.07000 490.893
24.08000 484.960
24.09000 478.939
24.10000 475.599
24.11000 475.388
24.12000 475.183
24.13000 480.896
24.14000 490.965
24.15000 500.805
24.16000 502.526
24.17000 500.202
24.18000 498.180
24.19000 500.696
24.20000 504.738
24.21000 508.416
24.22000 503.523
24.23000 497.500
24.24000 492.119
24.25000 490.036
24.26000 488.419
24.27000 486.951
24.28000 485.984
24.29000 485.058
24.30000 484.407
24.31000 484.760
24.32000 485.056
24.33000 485.020
24.34000 484.479
24.35000 483.934
24.36000 484.622
24.37000 486.528
24.38000 488.420
24.39000 489.188
24.40000 489.234
24.41000 489.007
24.42000 482.043
24.43000 472.183
24.44000 463.325
24.45000 466.285
24.46000 472.663
24.47000 478.345
24.48000 482.213
24.49000 485.275
24.50000 488.292
24.51000 491.103
24.52000 493.891
24.53000 496.022
24.54000 496.247
24.55000 496.349
24.56000 496.418
24.57000 489.561
24.58000 484.344
24.59000 485.461
24.60000 494.831
24.61000 504.215
24.62000 503.126
24.63000 493.297
24.64000 483.599
24.65000 475.863
24.66000 469.389
24.67000 463.229
24.68000 462.739
24.69000 464.354
24.70000 466.019
24.71000 468.153
24.72000 470.404
24.73000 472.361
24.74000 476.787
24.75000 480.900
24.76000 483.270
24.77000 479.112
24.78000 474.333
24.79000 468.976
24.80000 462.166
24.81000 455.287
24.82000 450.940
24.83000 460.149
24.84000 466.981
24.85000 472.913
24.86000 477.851
24.87000 482.752
24.88000 482.492
24.89000 478.560
24.90000 474.711
24.91000 474.400
24.92000 475.715
24.93000 477.023
24.94000 478.232
24.95000 479.409
24.96000 480.341
24.97000 479.363
24.98000 477.981
24.99000 476.811
25.00000 477.188
25.01000 477.676
25.02000 479.351
25.03000 484.843
25.04000 490.625
25.05000 493.257
25.06000 489.061
25.07000 484.630
25.08000 481.999
25.09000 476.740
25.10000 473.004
25.11000 469.711
25.12000 466.832
25.13000 463.973
25.14000 462.424
25.15000 461.674
25.16000 460.948
25.17000 461.548
25.18000 462.629
25.19000 463.561
25.20000 462.837
25.21000 461.658
25.22000 460.798
25.23000 462.007
25.24000 463.588
25.25000 464.888
25.26000 463.009
25.27000 461.179
25.28000 459.854
25.29000 459.930
25.30000 460.089
25.31000 458.766
25.32000 454.676
25.33000 450.522
25.34000 448.221
25.35000 460.190
25.36000 468.456
25.37000 469.515
25.38000 464.863
25.39000 460.341
25.40000 461.222
25.41000 464.942
25.42000 468.504
25.43000 468.159
25.44000 466.549
25.45000 465.096
25.46000 465.043
25.47000 465.320
25.48000 464.988
25.49000 461.331
25.50000 457.172
25.51000 453.864
25.52000 457.147
25.53000 460.263
25.54000 463.978
25.55000 469.129
25.56000 474.342
25.57000 475.693
25.58000 470.827
25.59000 465.879
25.60000 463.344
25.61000 461.882
25.62000 460.932
25.63000 463.481
25.64000 468.401
25.65000 473.113
25.66000 472.053
25.67000 468.376
25.68000 464.905
25.69000 460.006
25.70000 455.114
25.71000 451.161
25.72000 454.094
25.73000 458.411
25.74000 462.632
25.75000 466.407
25.76000 470.125
25.77000 472.976
25.78000 464.743
25.79000 457.627
25.80000 454.815
25.81000 460.899
25.82000 467.254
25.83000 469.739
25.84000 466.884
25.85000 463.997
25.86000 465.766
25.87000 471.648
25.88000 477.386
25.89000 474.811
25.90000 467.401
25.91000 460.405
25.92000 461.717
25.93000 466.283
25.94000 470.520
25.95000 472.161
25.96000 473.025
25.97000 473.561
25.98000 472.083
25.99000 470.263
26.00000 468.764
26.01000 468.540
26.02000 468.446
26.03000 468.376
26.04000 461.993
26.05000 456.792
26.06000 453.063
26.07000 451.958
26.08000 450.905
26.09000 452.268
26.10000 456.471
26.11000 460.667
26.12000 462.962
26.13000 463.818
26.14000 464.638
26.15000 464.138
26.16000 462.977
26.17000 461.545
26.18000 456.007
26.19000 449.081
26.20000 442.773
26.21000 449.971
26.22000 459.032
26.23000 467.467
26.24000 472.669
26.25000 477.411
26.26000 478.682
26.27000 468.164
26.28000 456.674
26.29000 448.589
26.30000 453.588
26.31000 457.764
26.32000 458.752
26.33000 454.855
26.34000 450.905
26.35000 450.022
26.36000 452.183
26.37000 454.329
26.38000 455.116
26.39000 455.027
26.40000 454.838
26.41000 452.161
26.42000 448.408
26.43000 444.587
26.44000 439.962
26.45000 435.103
26.46000 430.771
26.47000 435.479
26.48000 441.076
26.49000 446.565
26.50000 451.579
26.51000 456.538
26.52000 459.884
26.53000 458.514
26.54000 456.840
26.55000 455.719
26.56000 447.848
26.57000 441.876
26.58000 442.092
26.59000 450.423
26.60000 458.780
26.61000 461.556
26.62000 459.644
26.63000 457.756
26.64000 456.135
26.65000 454.701
26.66000 453.253
26.67000 451.569
26.68000 449.796
26.69000 447.937
26.70000 445.253
26.71000 442.363
26.72000 439.846
26.73000 446.126
26.74000 452.698
26.75000 457.314
26.76000 454.563
26.77000 451.105
26.78000 447.841
26.79000 445.066
26.80000 442.315
26.81000 440.572
26.82000 445.120
26.83000 448.493
26.84000 453.518
26.85000 460.384
26.86000 467.207
26.87000 467.467
26.88000 463.025
26.89000 458.675
26.90000 454.993
26.91000 451.762
26.92000 448.706
26.93000 448.113
26.94000 448.313
26.95000 448.107
26.96000 444.713
26.97000 440.639
26.98000 437.185
26.99000 439.024
27.00000 441.162
27.01000 441.826
27.02000 437.721
27.03000 433.250
27.04000 431.436
27.05000 435.414
27.06000 439.593
27.07000 442.082
27.08000 444.974
27.09000 447.024
27.10000 445.250
27.11000 439.880
27.12000 434.558
27.13000 432.617
27.14000 432.754
27.15000 432.887
27.16000 439.725
27.17000 448.823
27.18000 456.491
27.19000 448.318
27.20000 435.753
27.21000 426.372
27.22000 437.773
27.23000 452.934
27.24000 465.411
27.25000 461.178
27.26000 456.178
27.27000 452.854
27.28000 454.208
27.29000 455.839
27.30000 455.485
27.31000 451.397
27.32000 447.222
27.33000 444.903
27.34000 439.061
27.35000 435.027
27.36000 434.100
27.37000 435.652
27.38000 437.141
27.39000 435.974
27.40000 433.403
27.41000 430.940
27.42000 433.233
27.43000 436.953
27.44000 440.137
27.45000 438.518
27.46000 435.758
27.47000 434.089
27.48000 438.420
27.49000 443.664
27.50000 447.839
27.51000 434.886
27.52000 423.207
27.53000 415.932
27.54000 419.268
27.55000 423.072
27.56000 424.612
27.57000 422.489
27.58000 420.315
27.59000 419.198
27.60000 430.785
27.61000 438.551
27.62000 442.803
27.63000 444.659
27.64000 446.346
27.65000 443.277
27.66000 438.038
27.67000 433.091
27.68000 428.701
27.69000 424.831
27.70000 421.734
27.71000 424.344
27.72000 428.110
27.73000 431.114
27.74000 430.568
27.75000 429.572
27.76000 428.807
27.77000 431.825
27.78000 434.421
27.79000 433.817
27.80000 426.556
27.81000 419.089
27.82000 417.300
27.83000 423.391
27.84000 429.531
27.85000 433.705
27.86000 436.123
27.87000 438.453
27.88000 435.549
27.89000 429.583
27.90000 423.919
27.91000 424.408
27.92000 427.319
27.93000 430.023
27.94000 427.535
27.95000 424.056
27.96000 421.042
27.97000 420.905
27.98000 421.261
27.99000 421.756
28.00000 422.807
28.01000 423.915
28.02000 424.732
28.03000 427.367
28.04000 429.484
28.05000 433.801
28.06000 442.062
28.07000 450.402
28.08000 453.463
28.09000 450.278
28.10000 447.091
28.11000 441.613
28.12000 434.446
28.13000 427.410
28.14000 425.193
28.15000 425.406
28.16000 425.742
28.17000 427.973
28.18000 430.847
28.19000 433.467
28.20000 437.069
28.21000 440.459
28.22000 442.931
28.23000 440.628
28.24000 437.639
28.25000 435.779
28.26000 437.771
28.27000 440.085
28.28000 441.715
28.29000 432.833
28.30000 425.780
28.31000 425.491
28.32000 435.636
28.33000 445.896
28.34000 445.589
28.35000 434.711
28.36000 423.906
28.37000 422.014
28.38000 425.847
28.39000 429.540
28.40000 429.689
28.41000 428.296
28.42000 426.864
28.43000 424.955
28.44000 422.908
28.45000 421.080
28.46000 419.871
28.47000 418.922
28.48000 417.396
28.49000 413.317
28.50000 408.935
28.51000 407.190
28.52000 413.207
28.53000 419.730
28.54000 424.105
28.55000 420.797
28.56000 418.186
28.57000 418.352
28.58000 422.185
28.59000 426.027
28.60000 425.024
28.61000 419.926
28.62000 414.891
28.63000 413.542
28.64000 414.230
28.65000 415.080
28.66000 418.929
28.67000 423.905
28.68000 427.977
28.69000 423.328
28.70000 416.487
28.71000 410.525
28.72000 405.599
28.73000 401.534
28.74000 398.412
28.75000 398.865
28.76000 399.664
28.77000 402.646
28.78000 411.169
28.79000 419.965
28.80000 425.550
28.81000 428.399
28.82000 430.433
28.83000 427.636
28.84000 419.416
28.85000 411.258
28.86000 413.528
28.87000 423.314
28.88000 432.900
28.89000 425.959
28.90000 411.643
28.91000 398.185
28.92000 396.873
28.93000 399.497
28.94000 402.709
28.95000 410.563
28.96000 419.414
28.97000 426.927
28.98000 422.351
28.99000 417.142
29.00000 413.808
29.01000 416.587
29.02000 419.838
29.03000 421.068
29.04000 417.867
29.05000 414.508
29.06000 412.503
29.07000 423.396
29.08000 431.199
29.09000 429.194
29.10000 417.902
29.11000 406.751
29.12000 405.916
29.13000 411.454
29.14000 416.825
29.15000 414.962
29.16000 410.349
29.17000 406.075
29.18000 405.600
29.19000 406.185
29.20000 407.301
29.21000 411.913
29.22000 417.162
29.23000 421.487
29.24000 418.025
29.25000 414.462
29.26000 410.412
29.27000 404.997
29.28000 399.500
29.29000 398.245
29.30000 405.018
29.31000 411.982
29.32000 415.861
29.33000 406.214
29.34000 399.520
29.35000 395.775
29.36000 394.398
29.37000 393.268
29.38000 402.758
29.39000 417.897
29.40000 432.404
29.41000 431.800
29.42000 426.183
29.43000 420.406
29.44000 413.189
29.45000 405.628
29.46000 400.142
29.47000 406.133
29.48000 413.883
29.49000 420.062
29.50000 413.586
29.51000 407.438
29.52000 404.809
29.53000 410.708
29.54000 416.988
29.55000 423.188
29.56000 429.260
29.57000 435.329
29.58000 438.458
29.59000 411.819
29.60000 394.032
29.61000 395.077
29.62000 409.038
29.63000 422.408
29.64000 418.888
29.65000 407.617
29.66000 396.968
29.67000 397.468
29.68000 401.090
29.69000 404.574
29.70000 407.029
29.71000 409.274
29.72000 410.108
29.73000 404.324
29.74000 397.698
29.75000 392.602
29.76000 405.474
29.77000 416.671
29.78000 424.900
29.79000 426.919
29.80000 428.743
29.81000 427.913
29.82000 423.375
29.83000 418.813
29.84000 418.113
29.85000 420.874
29.86000 423.693
29.87000 430.074
29.88000 438.552
29.89000 446.547
29.90000 444.613
29.91000 438.746
29.92000 433.292
29.93000 429.266
29.94000 425.974
29.95000 424.126
29.96000 431.249
29.97000 439.919
29.98000 447.451
29.99000 450.418
30.00000 452.909
30.01000 454.748
30.02000 461.927
30.03000 467.719
30.04000 467.644
30.05000 456.985
30.06000 446.111
30.07000 442.153
30.08000 446.431
30.09000 450.715
30.10000 453.441
30.11000 454.969
30.12000 456.448
30.13000 456.109
30.14000 454.847
30.15000 453.539
30.16000 451.514
30.17000 449.244
30.18000 447.173
30.19000 445.095
30.20000 443.250
30.21000 442.406
30.22000 446.807
30.23000 451.967
30.24000 454.778
30.25000 449.511
30.26000 443.566
30.27000 439.367
30.28000 433.280
30.29000 428.601
30.30000 423.325
30.31000 417.120
30.32000 410.905
30.33000 410.446
30.34000 415.786
30.35000 421.092
30.36000 422.654
30.37000 421.785
30.38000 421.124
30.39000 425.774
30.40000 432.750
30.41000 439.050
30.42000 437.158
30.43000 432.852
30.44000 429.006
30.45000 431.975
30.46000 435.710
30.47000 439.004
30.48000 440.333
30.49000 441.426
30.50000 441.572
30.51000 438.911
30.52000 436.065
30.53000 434.152
30.54000 442.777
30.55000 449.403
30.56000 452.603
30.57000 451.251
30.58000 449.871
30.59000 444.609
30.60000 436.045
30.61000 427.586
30.62000 428.898
30.63000 435.520
30.64000 442.128
30.65000 448.480
30.66000 454.734
30.67000 459.974
30.68000 455.329
30.69000 448.186
30.70000 441.954
30.71000 447.273
30.72000 453.436
30.73000 458.087
30.74000 456.975
30.75000 455.300
30.76000 455.644
30.77000 461.149
30.78000 466.910
30.79000 470.576
30.80000 466.484
30.81000 463.413
30.82000 460.499
30.83000 457.763
30.84000 455.090
30.85000 462.665
30.86000 477.672
30.87000 492.377
30.88000 497.947
30.89000 499.053
30.90000 500.352
30.91000 504.418
30.92000 509.386
30.93000 514.510
30.94000 520.883
30.95000 527.525
30.96000 533.169
30.97000 553.870
30.98000 572.970
30.99000 591.617
31.00000 608.778
31.01000 625.823
31.02000 642.083
31.03000 656.607
31.04000 671.069
31.05000 679.724
31.06000 722.035
31.07000 752.287
31.08000 794.289
31.09000 847.495
31.10000 900.702
31.11000 954.028
31.12000 1007.428
31.13000 1059.241
31.14000 1144.802
31.15000 1239.303
31.16000 1334.594
31.17000 1438.796
31.18000 1545.499
31.19000 1654.511
31.20000 1778.822
31.21000 1905.938
31.22000 2010.807
31.23000 2208.912
31.24000 2380.681
31.25000 2550.916
31.26000 2716.821
31.27000 2882.465
31.28000 3047.375
31.29000 3210.891
31.30000 3374.372
31.31000 3465.725
31.32000 3640.033
31.33000 3760.874
31.34000 3863.467
31.35000 3951.314
31.36000 4038.301
31.37000 4087.621
31.38000 4116.787
31.39000 4144.751
31.40000 4141.599
31.41000 4128.179
31.42000 4108.543
31.43000 4032.237
31.44000 3942.296
31.45000 3846.742
31.46000 3719.941
31.47000 3588.317
31.48000 3483.219
31.49000 3277.988
31.50000 3104.877
31.51000 2934.701
31.52000 2771.680
31.53000 2608.983
31.54000 2443.331
31.55000 2272.835
31.56000 2102.269
31.57000 2014.047
31.58000 1787.558
31.59000 1634.954
31.60000 1499.500
31.61000 1375.881
31.62000 1253.230
31.63000 1158.722
31.64000 1077.204
31.65000 1000.134
31.66000 924.995
31.67000 856.516
31.68000 791.407
31.69000 751.586
31.70000 716.954
31.71000 682.847
31.72000 651.214
31.73000 619.900
31.74000 595.785
31.75000 573.575
31.76000 556.099
31.77000 539.934
31.78000 526.530
31.79000 513.214
31.80000 503.535
31.81000 498.970
31.82000 494.442
31.83000 488.142
31.84000 480.247
31.85000 472.356
31.86000 464.651
31.87000 457.057
31.88000 449.639
31.89000 445.890
31.90000 443.603
31.91000 441.476
31.92000 446.291
31.93000 452.316
31.94000 456.185
31.95000 446.565
31.96000 434.601
31.97000 426.073
31.98000 431.398
31.99000 438.181
32.00000 443.200
32.01000 429.339
32.02000 417.774
32.03000 409.798
32.04000 408.334
32.05000 407.005
32.06000 406.967
32.07000 408.473
32.08000 409.980
32.09000 409.727
32.10000 408.134
32.11000 406.620
32.12000 408.113
32.13000 411.141
32.14000 413.987
32.15000 414.004
32.16000 413.047
32.17000 412.173
32.18000 402.175
32.19000 391.447
32.20000 383.048
32.21000 386.933
32.22000 392.608
32.23000 397.865
32.24000 401.675
32.25000 405.362
32.26000 407.972
32.27000 404.342
32.28000 401.391
32.29000 398.019
32.30000 393.990
32.31000 389.953
32.32000 390.056
32.33000 394.357
32.34000 398.631
32.35000 400.343
32.36000 400.371
32.37000 400.346
32.38000 398.959
32.39000 396.971
32.40000 394.997
32.41000 393.195
32.42000 391.445
32.43000 389.880
32.44000 397.452
32.45000 405.605
32.46000 410.625
32.47000 401.595
32.48000 390.868
32.49000 383.238
32.50000 384.834
32.51000 387.044
32.52000 388.532
32.53000 386.777
32.54000 385.403
32.55000 380.231
32.56000 369.982
32.57000 359.722
32.58000 360.111
32.59000 369.624
32.60000 379.021
32.61000 381.169
32.62000 379.273
32.63000 377.566
32.64000 379.452
32.65000 382.704
32.66000 385.450
32.67000 383.219
32.68000 379.723
32.69000 376.669
32.70000 370.762
32.71000 365.305
32.72000 361.406
32.73000 363.490
32.74000 366.163
32.75000 367.581
32.76000 365.772
32.77000 363.801
32.78000 362.544
32.79000 363.067
32.80000 363.470
32.81000 364.728
32.82000 366.958
32.83000 369.160
32.84000 366.492
32.85000 360.271
32.86000 354.172
32.87000 356.617
32.88000 362.973
32.89000 368.632
32.90000 364.224
32.91000 356.515
32.92000 349.898
32.93000 352.062
32.94000 356.134
32.95000 359.598
32.96000 357.093
32.97000 354.299
32.98000 352.605
32.99000 354.533
33.00000 356.746
33.01000 358.927
33.02000 361.036
33.03000 363.143
33.04000 364.407
33.05000 363.204
33.06000 362.333
33.07000 360.167
33.08000 356.758
33.09000 353.383
33.10000 352.673
33.11000 353.629
33.12000 354.557
33.13000 347.702
33.14000 338.094
33.15000 329.522
33.16000 332.758
33.17000 339.328
33.18000 344.997
33.19000 344.660
33.20000 343.215
33.21000 342.020
33.22000 345.905
33.23000 349.582
33.24000 351.574
33.25000 348.780
33.26000 345.694
33.27000 343.743
33.28000 343.964
33.29000 344.238
33.30000 344.392
33.31000 348.147
33.32000 350.747
33.33000 348.525
33.34000 342.383
33.35000 336.423
33.36000 338.582
33.37000 345.111
33.38000 351.375
33.39000 354.472
33.40000 356.293
33.41000 357.902
33.42000 357.566
33.43000 356.760
33.44000 354.855
33.45000 346.793
33.46000 337.774
33.47000 330.563
33.48000 335.733
33.49000 340.831
33.50000 342.123
33.51000 334.079
33.52000 325.609
33.53000 325.440
33.54000 338.959
33.55000 352.680
33.56000 359.801
33.57000 352.038
33.58000 346.860
33.59000 349.986
33.60000 358.878
33.61000 367.328
33.62000 362.747
33.63000 352.116
33.64000 342.058
33.65000 340.422
33.66000 341.338
33.67000 342.044
33.68000 341.158
33.69000 339.943
33.70000 337.899
33.71000 331.916
33.72000 325.422
33.73000 320.414
33.74000 336.210
33.75000 349.927
33.76000 357.177
33.77000 350.732
33.78000 343.844
33.79000 338.961
33.80000 336.916
33.81000 334.892
33.82000 332.964
33.83000 331.126
33.84000 329.325
33.85000 329.882
33.86000 331.845
33.87000 333.729
33.88000 333.925
33.89000 333.445
33.90000 332.998
33.91000 333.841
33.92000 334.917
33.93000 336.366
33.94000 340.168
33.95000 344.382
33.96000 347.347
33.97000 345.242
33.98000 342.598
33.99000 340.639
34.00000 338.610
34.01000 337.032
34.02000 335.943
34.03000 335.747
34.04000 335.570
34.05000 336.272
34.06000 338.035
34.07000 339.797
34.08000 336.956
34.09000 330.594
34.10000 324.312
34.11000 321.130
34.12000 319.540
34.13000 318.356
34.14000 323.621
34.15000 331.116
34.16000 337.967
34.17000 336.486
34.18000 333.467
34.19000 330.584
34.20000 328.425
34.21000 326.371
34.22000 324.545
34.23000 323.506
34.24000 322.536
34.25000 321.847
34.26000 329.254
34.27000 335.141
34.28000 336.053
34.29000 329.150
34.30000 322.152
34.31000 322.718
34.32000 331.008
34.33000 339.248
34.34000 338.643
34.35000 332.283
34.36000 326.051
34.37000 323.215
34.38000 321.882
34.39000 321.367
34.40000 330.961
34.41000 343.569
34.42000 354.852
34.43000 351.056
34.44000 345.165
34.45000 339.224
34.46000 333.056
34.47000 326.860
34.48000 322.102
34.49000 321.652
34.50000 321.492
34.51000 321.384
34.52000 314.362
34.53000 308.988
34.54000 314.513
34.55000 334.700
34.56000 354.940
34.57000 356.337
34.58000 341.481
34.59000 326.801
34.60000 318.980
34.61000 315.151
34.62000 311.893
34.63000 319.574
34.64000 331.439
34.65000 341.752
34.66000 336.680
34.67000 327.670
34.68000 319.793
34.69000 323.130
34.70000 327.579
34.71000 330.124
34.72000 325.320
34.73000 319.786
34.74000 314.978
34.75000 312.047
34.76000 309.211
34.77000 307.398
34.78000 312.636
34.79000 316.542
34.80000 320.172
34.81000 323.485
34.82000 326.765
34.83000 324.255
34.84000 317.492
34.85000 310.861
34.86000 314.538
34.87000 322.939
34.88000 330.460
34.89000 325.131
34.90000 315.561
34.91000 307.636
34.92000 313.025
34.93000 321.329
34.94000 328.401
34.95000 330.744
34.96000 332.164
34.97000 331.169
34.98000 322.166
34.99000 312.527
35.00000 307.548
35.01000 312.971
35.02000 318.780
35.03000 322.275
35.04000 319.953
35.05000 318.261
35.06000 316.642
35.07000 315.093
35.08000 313.581
35.09000 314.984
35.10000 318.220
35.11000 321.363
35.12000 318.509
35.13000 313.393
35.14000 308.547
35.15000 306.801
35.16000 305.935
35.17000 305.708
35.18000 309.770
35.19000 314.630
35.20000 318.649
35.21000 319.714
35.22000 320.313
35.23000 319.279
35.24000 313.574
35.25000 307.581
35.26000 305.627
35.27000 311.454
35.28000 317.476
35.29000 320.861
35.30000 316.524
35.31000 313.499
35.32000 311.910
35.33000 311.498
35.34000 311.046
35.35000 308.795
35.36000 305.568
35.37000 302.471
35.38000 301.076
35.39000 300.351
35.40000 300.255
35.41000 305.977
35.42000 313.116
35.43000 318.152
35.44000 311.309
35.45000 302.607
35.46000 295.639
35.47000 296.259
35.48000 297.331
35.49000 299.314
35.50000 303.548
35.51000 307.887
35.52000 311.337
35.53000 313.313
35.54000 315.268
35.55000 316.285
35.56000 310.352
35.57000 306.364
35.58000 305.500
35.59000 306.819
35.60000 307.968
35.61000 304.017
35.62000 297.684
35.63000 291.689
35.64000 294.548
35.65000 299.741
35.66000 305.286
35.67000 313.522
35.68000 322.317
35.69000 328.185
35.70000 320.053
35.71000 310.095
35.72000 302.403
35.73000 296.629
35.74000 292.162
35.75000 290.520
35.76000 294.895
35.77000 299.467
35.78000 302.374
35.79000 302.907
35.80000 303.423
35.81000 304.013
35.82000 304.670
35.83000 305.333
35.84000 306.370
35.85000 307.630
35.86000 309.041
35.87000 313.694
35.88000 319.654
35.89000 325.206
35.90000 317.119
35.91000 306.466
35.92000 296.876
35.93000 294.035
35.94000 292.382
35.95000 292.308
35.96000 298.673
35.97000 305.728
35.98000 310.966
35.99000 317.530
36.00000 322.690
36.01000 322.796
36.02000 313.616
36.03000 304.236
36.04000 299.503
36.05000 300.415
36.06000 301.338
36.07000 302.033
36.08000 302.547
36.09000 303.038
36.10000 302.626
36.11000 301.749
36.12000 301.069
36.13000 303.546
36.14000 307.122
36.15000 310.392
36.16000 307.211
36.17000 303.054
36.18000 299.143
36.19000 296.545
36.20000 294.142
36.21000 292.992
36.22000 296.229
36.23000 299.845
36.24000 302.414
36.25000 294.497
36.26000 288.137
36.27000 286.366
36.28000 291.846
36.29000 297.416
36.30000 301.439
36.31000 303.873
36.32000 306.291
36.33000 305.727
36.34000 303.215
36.35000 300.860
36.36000 302.711
36.37000 306.437
36.38000 309.666
36.39000 306.698
36.40000 301.870
36.41000 297.546
36.42000 290.592
36.43000 284.068
36.44000 279.727
36.45000 285.299
36.46000 292.088
36.47000 298.848
36.48000 305.518
36.49000 312.182
36.50000 316.690
36.51000 311.941
36.52000 308.202
36.53000 305.609
36.54000 304.568
36.55000 303.532
36.56000 299.952
36.57000 294.163
36.58000 288.442
36.59000 286.280
36.60000 286.155
36.61000 286.162
36.62000 288.708
36.63000 292.232
36.64000 295.749
36.65000 299.198
36.66000 302.630
36.67000 305.633
36.68000 306.033
36.69000 306.004
36.70000 304.868
36.71000 299.432
36.72000 293.565
36.73000 290.115
36.74000 292.951
36.75000 296.112
36.76000 298.138
36.77000 301.636
36.78000 304.205
36.79000 302.692
36.80000 296.473
36.81000 290.281
36.82000 289.943
36.83000 293.932
36.84000 297.845
36.85000 301.674
36.86000 305.323
36.87000 308.763
36.88000 309.125
36.89000 308.465
36.90000 307.202
36.91000 301.014
36.92000 293.741
36.93000 287.540
36.94000 292.025
36.95000 297.053
36.96000 301.041
36.97000 301.560
36.98000 301.802
36.99000 300.452
37.00000 295.530
37.01000 290.474
37.02000 287.424
37.03000 299.203
37.04000 307.693
37.05000 312.469
37.06000 313.630
37.07000 314.735
37.08000 311.332
37.09000 305.074
37.10000 298.994
37.11000 295.822
37.12000 293.983
37.13000 292.029
37.14000 288.745
37.15000 285.080
37.16000 282.581
37.17000 287.970
37.18000 294.836
37.19000 300.522
37.20000 300.396
37.21000 299.740
37.22000 300.147
37.23000 303.614
37.24000 307.272
37.25000 309.485
37.26000 308.896
37.27000 308.236
37.28000 307.864
37.29000 301.017
37.30000 296.248
37.31000 292.913
37.32000 290.761
37.33000 288.641
37.34000 288.006
37.35000 288.180
37.36000 288.347
37.37000 290.858
37.38000 294.013
37.39000 296.324
37.40000 290.752
37.41000 283.248
37.42000 277.668
37.43000 283.027
37.44000 290.110
37.45000 295.789
37.46000 290.828
37.47000 286.007
37.48000 283.206
37.49000 285.422
37.50000 287.872
37.51000 289.146
37.52000 288.457
37.53000 287.737
37.54000 287.361
37.55000 297.515
37.56000 304.329
37.57000 303.160
37.58000 296.378
37.59000 289.850
37.60000 291.004
37.61000 295.768
37.62000 300.280
37.63000 295.416
37.64000 288.207
37.65000 281.483
37.66000 278.480
37.67000 276.256
37.68000 276.293
37.69000 287.219
37.70000 299.575
37.71000 309.133
37.72000 301.561
37.73000 294.542
37.74000 290.801
37.75000 294.085
37.76000 297.604
37.77000 302.174
37.78000 308.247
37.79000 314.331
37.80000 314.182
37.81000 308.290
37.82000 302.457
37.83000 300.484
37.84000 300.839
37.85000 301.049
37.86000 298.115
37.87000 293.906
37.88000 289.982
37.89000 290.223
37.90000 291.468
37.91000 292.586
37.92000 292.892
37.93000 293.054
37.94000 292.498
37.95000 288.990
37.96000 285.162
37.97000 282.317
37.98000 288.031
37.99000 292.856
38.00000 294.927
38.01000 291.906
38.02000 288.773
38.03000 288.314
38.04000 291.123
38.05000 293.934
38.06000 293.602
38.07000 290.825
38.08000 288.209
38.09000 292.038
38.10000 299.214
38.11000 306.066
38.12000 307.664
38.13000 307.423
38.14000 307.203
38.15000 306.005
38.16000 304.737
38.17000 303.149
38.18000 299.833
38.19000 296.261
38.20000 294.894
38.21000 301.296
38.22000 308.376
38.23000 313.414
38.24000 313.040
38.25000 312.581
38.26000 312.088
38.27000 311.539
38.28000 310.990
38.29000 307.643
38.30000 301.400
38.31000 295.192
38.32000 296.542
38.33000 302.863
38.34000 309.129
38.35000 313.898
38.36000 317.995
38.37000 322.196
38.38000 327.709
38.39000 333.618
38.40000 338.915
38.41000 344.586
38.42000 349.605
38.43000 354.529
38.44000 359.019
38.45000 363.455
38.46000 370.289
38.47000 384.391
38.48000 398.992
38.49000 408.890
38.50000 414.156
38.51000 417.981
38.52000 429.915
38.53000 452.900
38.54000 475.941
38.55000 492.388
38.56000 503.073
38.57000 513.637
38.58000 530.221
38.59000 549.791
38.60000 569.768
38.61000 597.730
38.62000 628.782
38.63000 658.581
38.64000 675.746
38.65000 689.635
38.66000 701.801
38.67000 711.153
38.68000 718.769
38.69000 725.657
38.70000 729.697
38.71000 733.449
38.72000 738.461
38.73000 746.771
38.74000 755.253
38.75000 760.701
38.76000 738.028
38.77000 721.107
38.78000 708.219
38.79000 700.010
38.80000 691.765
38.81000 675.386
38.82000 652.956
38.83000 630.947
38.84000 617.673
38.85000 609.049
38.86000 599.643
38.87000 578.605
38.88000 553.681
38.89000 529.492
38.90000 511.337
38.91000 494.521
38.92000 480.168
38.93000 458.700
38.94000 439.784
38.95000 420.529
38.96000 400.137
38.97000 379.654
38.98000 365.195
38.99000 364.347
39.00000 364.018
39.01000 363.819
39.02000 347.340
39.03000 335.479
39.04000 326.276
39.05000 319.679
39.06000 313.087
39.07000 306.944
39.08000 301.089
39.09000 295.397
39.10000 296.045
39.11000 299.239
39.12000 301.833
39.13000 297.414
39.14000 290.979
39.15000 285.473
39.16000 286.301
39.17000 288.323
39.18000 290.000
39.19000 288.596
39.20000 287.141
39.21000 286.316
39.22000 287.316
39.23000 288.430
39.24000 287.858
39.25000 283.997
39.26000 280.050
39.27000 277.819
39.28000 280.580
39.29000 282.501
39.30000 278.683
39.31000 270.105
39.32000 261.760
39.33000 264.450
39.34000 273.189
39.35000 281.585
39.36000 281.474
39.37000 278.429
39.38000 275.748
39.39000 276.507
39.40000 278.114
39.41000 279.292
39.42000 278.018
39.43000 276.354
39.44000 275.018
39.45000 268.995
39.46000 263.757
39.47000 260.501
39.48000 262.193
39.49000 264.121
39.50000 266.465
39.51000 269.508
39.52000 272.562
39.53000 274.163
39.54000 266.548
39.55000 261.400
39.56000 257.975
39.57000 255.771
39.58000 253.677
39.59000 254.985
39.60000 257.901
39.61000 260.664
39.62000 265.145
39.63000 269.777
39.64000 273.866
39.65000 273.757
39.66000 272.764
39.67000 272.054
39.68000 272.716
39.69000 273.560
39.70000 274.213
39.71000 270.761
39.72000 267.775
39.73000 266.508
39.74000 268.945
39.75000 271.509
39.76000 274.760
39.77000 279.001
39.78000 283.250
39.79000 281.159
39.80000 273.189
39.81000 265.260
39.82000 260.132
39.83000 256.704
39.84000 253.570
39.85000 256.865
39.86000 262.782
39.87000 268.302
39.88000 266.159
39.89000 262.316
39.90000 259.037
39.91000 259.389
39.92000 260.390
39.93000 261.317
39.94000 261.939
39.95000 262.528
39.96000 262.967
39.97000 258.924
39.98000 255.574
39.99000 254.085
40.00000 256.053
40.01000 258.099
40.02000 261.111
40.03000 265.310
40.04000 269.504
40.05000 273.486
40.06000 277.281
40.07000 280.917
40.08000 278.102
40.09000 271.915
40.10000 266.022
40.11000 264.939
40.12000 265.550
40.13000 266.109
40.14000 264.498
40.15000 262.610
40.16000 260.617
40.17000 258.052
40.18000 255.400
40.19000 253.672
40.20000 255.218
40.21000 257.053
40.22000 258.361
40.23000 257.105
40.24000 256.063
40.25000 255.908
40.26000 257.174
40.27000 258.458
40.28000 261.246
40.29000 265.602
40.30000 269.933
40.31000 267.273
40.32000 259.998
40.33000 252.954
40.34000 252.216
40.35000 254.322
40.36000 256.550
40.37000 260.328
40.38000 264.577
40.39000 268.389
40.40000 261.627
40.41000 253.865
40.42000 248.149
40.43000 251.846
40.44000 256.715
40.45000 259.721
40.46000 257.042
40.47000 253.969
40.48000 251.881
40.49000 246.090
40.50000 241.685
40.51000 242.912
40.52000 251.861
40.53000 260.849
40.54000 263.187
40.55000 259.672
40.56000 256.196
40.57000 253.636
40.58000 251.654
40.59000 249.677
40.60000 247.820
40.61000 246.010
40.62000 244.336
40.63000 244.043
40.64000 244.110
40.65000 244.170
40.66000 243.337
40.67000 242.492
40.68000 242.354
40.69000 244.997
40.70000 247.924
40.71000 250.383
40.72000 251.611
40.73000 252.775
40.74000 253.524
40.75000 255.189
40.76000 256.417
40.77000 254.992
40.78000 250.468
40.79000 245.957
40.80000 245.088
40.81000 246.944
40.82000 248.765
40.83000 252.503
40.84000 257.029
40.85000 261.265
40.86000 261.151
40.87000 259.575
40.88000 257.466
40.89000 250.933
40.90000 243.413
40.91000 236.988
40.92000 237.086
40.93000 237.947
40.94000 239.655
40.95000 244.223
40.96000 249.025
40.97000 250.706
40.98000 245.296
40.99000 239.612
41.00000 236.166
41.01000 238.453
41.02000 240.127
41.03000 242.949
41.04000 246.903
41.05000 250.826
41.06000 252.127
41.07000 251.747
41.08000 251.378
41.09000 253.013
41.10000 255.390
41.11000 257.263
41.12000 253.188
41.13000 247.393
41.14000 242.353
41.15000 242.506
41.16000 243.644
41.17000 244.588
41.18000 241.575
41.19000 238.700
41.20000 237.637
41.21000 241.842
41.22000 246.385
41.23000 248.036
41.24000 244.018
41.25000 239.851
41.26000 237.489
41.27000 244.140
41.28000 248.791
41.29000 250.539
41.30000 249.863
41.31000 249.252
41.32000 251.731
41.33000 255.913
41.34000 259.934
41.35000 258.008
41.36000 254.135
41.37000 250.488
41.38000 248.978
41.39000 247.999
41.40000 247.526
41.41000 249.968
41.42000 252.875
41.43000 255.212
41.44000 255.713
41.45000 255.978
41.46000 254.664
41.47000 249.386
41.48000 243.917
41.49000 240.695
41.50000 241.270
41.51000 241.906
41.52000 242.240
41.53000 238.510
41.54000 235.982
41.55000 233.893
41.56000 232.115
41.57000 230.516
41.58000 234.497
41.59000 241.132
41.60000 247.424
41.61000 244.523
41.62000 239.134
41.63000 234.229
41.64000 233.094
41.65000 232.757
41.66000 233.229
41.67000 237.639
41.68000 242.575
41.69000 246.405
41.70000 240.573
41.71000 235.355
41.72000 233.619
41.73000 239.434
41.74000 245.509
41.75000 248.717
41.76000 247.767
41.77000 246.782
41.78000 242.517
41.79000 235.190
41.80000 227.973
41.81000 228.474
41.82000 233.688
41.83000 238.749
41.84000 240.413
41.85000 240.684
41.86000 240.936
41.87000 237.237
41.88000 232.897
41.89000 228.708
41.90000 225.492
41.91000 222.452
41.92000 221.398
41.93000 228.607
41.94000 236.723
41.95000 242.778
41.96000 238.343
41.97000 234.410
41.98000 231.832
41.99000 231.788
42.00000 231.801
42.01000 233.614
42.02000 237.654
42.03000 241.694
42.04000 239.202
42.05000 231.567
42.06000 224.056
42.07000 221.660
42.08000 221.954
42.09000 222.222
42.10000 222.047
42.11000 221.716
42.12000 221.412
42.13000 224.409
42.14000 227.772
42.15000 230.347
42.16000 228.616
42.17000 226.234
42.18000 225.225
42.19000 229.111
42.20000 233.430
42.21000 236.516
42.22000 239.761
42.23000 242.241
42.24000 240.180
42.25000 230.807
42.26000 221.337
42.27000 221.980
42.28000 233.243
42.29000 244.447
42.30000 243.672
42.31000 234.891
42.32000 226.474
42.33000 228.184
42.34000 234.488
42.35000 240.064
42.36000 236.288
42.37000 229.656
42.38000 223.700
42.39000 227.649
42.40000 232.849
42.41000 237.160
42.42000 237.359
42.43000 237.042
42.44000 234.662
42.45000 225.954
42.46000 216.803
42.47000 210.574
42.48000 217.504
42.49000 222.980
42.50000 226.171
42.51000 226.207
42.52000 226.223
42.53000 224.758
42.54000 221.980
42.55000 219.232
42.56000 222.155
42.57000 228.236
42.58000 233.965
42.59000 232.631
42.60000 228.531
42.61000 224.640
42.62000 222.899
42.63000 221.722
42.64000 220.689
42.65000 222.497
42.66000 224.466
42.67000 226.200
42.68000 227.005
42.69000 227.715
42.70000 229.147
42.71000 232.492
42.72000 235.939
42.73000 238.163
42.74000 234.374
42.75000 231.519
42.76000 229.688
42.77000 229.061
42.78000 228.461
42.79000 233.175
42.80000 241.892
42.81000 250.452
42.82000 244.351
42.83000 231.369
42.84000 219.150
42.85000 218.537
42.86000 221.846
42.87000 225.073
42.88000 227.614
42.89000 230.001
42.90000 232.042
42.91000 229.479
42.92000 226.765
42.93000 224.621
42.94000 224.421
42.95000 224.380
42.96000 224.231
42.97000 223.833
42.98000 223.426
42.99000 223.179
43.00000 218.774
43.01000 215.597
43.02000 217.447
43.03000 224.293
43.04000 231.076
43.05000 232.428
43.06000 230.275
43.07000 228.181
43.08000 224.663
43.09000 220.730
43.10000 217.279
43.11000 219.584
43.12000 223.564
43.13000 227.425
43.14000 230.460
43.15000 233.336
43.16000 235.727
43.17000 234.112
43.18000 232.385
43.19000 230.289
43.20000 227.115
43.21000 223.871
43.22000 223.761
43.23000 229.838
43.24000 236.080
43.25000 239.629
43.26000 231.129
43.27000 225.171
43.28000 220.523
43.29000 216.974
43.30000 213.549
43.31000 216.181
43.32000 222.175
43.33000 227.939
43.34000 228.480
43.35000 227.158
43.36000 226.016
43.37000 226.601
43.38000 227.618
43.39000 228.001
43.40000 224.701
43.41000 220.808
43.42000 217.674
43.43000 221.922
43.44000 225.944
43.45000 226.655
43.46000 219.003
43.47000 210.944
43.48000 206.499
43.49000 208.197
43.50000 209.998
43.51000 210.947
43.52000 216.620
43.53000 220.465
43.54000 223.028
43.55000 224.674
43.56000 226.226
43.57000 224.767
43.58000 221.869
43.59000 219.119
43.60000 224.611
43.61000 232.128
43.62000 238.245
43.63000 233.364
43.64000 226.137
43.65000 219.497
43.66000 215.739
43.67000 212.370
43.68000 209.751
43.69000 217.264
43.70000 223.858
43.71000 229.539
43.72000 233.228
43.73000 236.848
43.74000 235.513
43.75000 226.947
43.76000 218.320
43.77000 215.507
43.78000 218.163
43.79000 220.810
43.80000 222.850
43.81000 224.515
43.82000 226.110
43.83000 226.125
43.84000 225.486
43.85000 224.890
43.86000 216.888
43.87000 207.767
43.88000 200.743
43.89000 207.421
43.90000 216.579
43.91000 224.531
43.92000 227.437
43.93000 229.785
43.94000 231.539
43.95000 232.594
43.96000 233.384
43.97000 231.136
43.98000 223.174
43.99000 215.079
44.00000 208.837
44.01000 204.906
44.02000 200.989
44.03000 201.616
44.04000 205.850
44.05000 210.110
44.06000 215.489
44.07000 221.459
44.08000 227.163
44.09000 228.413
44.10000 228.075
44.11000 227.766
44.12000 225.462
44.13000 222.987
44.14000 220.431
44.15000 217.434
44.16000 214.369
44.17000 213.521
44.18000 220.631
44.19000 228.453
44.20000 234.050
44.21000 227.838
44.22000 222.697
44.23000 218.404
44.24000 215.485
44.25000 212.586
44.26000 213.981
44.27000 219.918
44.28000 225.824
44.29000 227.129
44.30000 225.320
44.31000 223.483
44.32000 220.877
44.33000 217.920
44.34000 215.280
44.35000 216.761
44.36000 219.508
44.37000 221.976
44.38000 223.383
44.39000 224.426
44.40000 225.514
44.41000 226.812
44.42000 228.136
44.43000 229.235
44.44000 229.635
44.45000 229.986
44.46000 230.225
44.47000 229.895
44.48000 229.634
44.49000 226.948
44.50000 220.893
44.51000 214.822
44.52000 215.584
44.53000 222.439
44.54000 229.221
44.55000 232.640
44.56000 234.056
44.57000 235.396
44.58000 235.179
44.59000 234.348
44.60000 233.520
44.61000 232.720
44.62000 231.927
44.63000 231.231
44.64000 236.500
44.65000 241.909
44.66000 245.645
44.67000 242.714
44.68000 239.093
44.69000 238.356
44.70000 245.303
44.71000 252.667
44.72000 257.428
44.73000 251.752
44.74000 247.449
44.75000 247.634
44.76000 253.132
44.77000 258.658
44.78000 268.257
44.79000 280.946
44.80000 293.409
44.81000 301.507
44.82000 307.201
44.83000 312.751
44.84000 316.085
44.85000 318.666
44.86000 321.636
44.87000 327.883
44.88000 334.870
44.89000 340.853
44.90000 349.946
44.91000 357.996
44.92000 365.576
44.93000 371.546
44.94000 377.382
44.95000 384.685
44.96000 395.360
44.97000 406.168
44.98000 412.754
44.99000 439.760
45.00000 459.222
45.01000 466.248
45.02000 460.829
45.03000 455.469
45.04000 455.353
45.05000 458.640
45.06000 461.840
45.07000 465.583
45.08000 469.373
45.09000 472.488
45.10000 467.498
45.11000 460.134
45.12000 453.227
45.13000 449.510
45.14000 446.406
45.15000 443.823
45.16000 439.160
45.17000 435.095
45.18000 430.077
45.19000 422.253
45.20000 414.246
45.21000 406.614
45.22000 399.727
45.23000 392.859
45.24000 388.944
45.25000 378.001
45.26000 370.334
45.27000 355.724
45.28000 335.241
45.29000 315.070
45.30000 310.567
45.31000 314.807
45.32000 318.886
45.33000 309.915
45.34000 296.898
45.35000 284.718
45.36000 280.626
45.37000 278.567
45.38000 276.765
45.39000 276.466
45.40000 276.410
45.41000 276.365
45.42000 267.400
45.43000 259.419
45.44000 253.680
45.45000 253.642
45.46000 253.885
45.47000 252.881
45.48000 249.747
45.49000 246.577
45.50000 244.900
45.51000 245.358
45.52000 245.638
45.53000 240.908
45.54000 232.564
45.55000 224.448
45.56000 223.675
45.57000 226.435
45.58000 229.055
45.59000 229.333
45.60000 228.888
45.61000 228.868
45.62000 232.217
45.63000 236.288
45.64000 238.888
45.65000 234.213
45.66000 228.553
45.67000 224.147
45.68000 223.576
45.69000 223.356
45.70000 221.736
45.71000 217.043
45.72000 212.242
45.73000 209.248
45.74000 208.911
45.75000 208.597
45.76000 213.301
45.77000 222.756
45.78000 232.080
45.79000 231.842
45.80000 225.693
45.81000 219.679
45.82000 216.737
45.83000 215.072
45.84000 213.515
45.85000 207.665
45.86000 201.268
45.87000 195.902
45.88000 197.324
45.89000 199.983
45.90000 203.285
45.91000 209.299
45.92000 215.615
45.93000 220.344
45.94000 214.105
45.95000 208.725
45.96000 204.977
45.97000 204.318
45.98000 203.733
45.99000 203.969
46.00000 205.235
46.01000 206.503
46.02000 205.359
46.03000 202.291
46.04000 199.338
46.05000 201.355
46.06000 206.017
46.07000 210.240
46.08000 207.050
46.09000 201.201
46.10000 195.832
46.11000 194.882
46.12000 194.978
46.13000 195.717
46.14000 200.018
46.15000 204.864
46.16000 208.024
46.17000 205.097
46.18000 201.621
46.19000 199.129
46.20000 206.624
46.21000 212.693
46.22000 214.042
46.23000 207.696
46.24000 201.242
46.25000 200.217
46.26000 204.969
46.27000 209.699
46.28000 209.222
46.29000 205.219
46.30000 201.360
46.31000 201.623
46.32000 203.777
46.33000 205.798
46.34000 206.055
46.35000 205.767
46.36000 205.508
46.37000 202.899
46.38000 200.193
46.39000 198.499
46.40000 201.552
46.41000 205.211
46.42000 207.092
46.43000 203.452
46.44000 199.417
46.45000 196.660
46.46000 197.299
46.47000 197.857
46.48000 197.434
46.49000 195.637
46.50000 193.834
46.51000 195.197
46.52000 199.402
46.53000 203.563
46.54000 205.919
46.55000 207.183
46.56000 208.278
46.57000 205.911
46.58000 202.172
46.59000 198.812
46.60000 199.408
46.61000 201.055
46.62000 202.504
46.63000 205.710
46.64000 208.729
46.65000 210.560
46.66000 207.634
46.67000 204.210
46.68000 201.762
46.69000 201.928
46.70000 202.238
46.71000 202.438
46.72000 197.850
46.73000 194.421
46.74000 193.527
46.75000 195.654
46.76000 197.782
46.77000 198.995
46.78000 199.511
46.79000 200.018
46.80000 197.422
46.81000 193.393
46.82000 189.760
46.83000 192.288
46.84000 196.923
46.85000 200.744
46.86000 197.648
46.87000 192.980
46.88000 188.979
46.89000 185.031
46.90000 181.705
46.91000 179.967
46.92000 183.695
46.93000 187.883
46.94000 190.873
46.95000 191.091
46.96000 191.198
46.97000 191.263
46.98000 194.505
46.99000 196.851
47.00000 198.419
47.01000 199.203
47.02000 200.022
47.03000 204.053
47.04000 210.181
47.05000 216.147
47.06000 212.551
47.07000 205.134
47.08000 198.006
47.09000 194.377
47.10000 191.779
47.11000 189.344
47.12000 188.049
47.13000 186.974
47.14000 186.079
47.15000 185.837
47.16000 185.701
47.17000 185.756
47.18000 186.374
47.19000 187.029
47.20000 186.988
47.21000 185.559
47.22000 184.092
47.23000 183.253
47.24000 190.262
47.25000 195.177
47.26000 196.847
47.27000 195.755
47.28000 194.658
47.29000 193.351
47.30000 191.926
47.31000 190.554
47.32000 190.668
47.33000 191.303
47.34000 191.733
47.35000 190.174
47.36000 188.112
47.37000 186.522
47.38000 187.710
47.39000 189.352
47.40000 190.678
47.41000 198.192
47.42000 204.789
47.43000 207.865
47.44000 201.936
47.45000 195.557
47.46000 188.841
47.47000 181.544
47.48000 174.236
47.49000 170.357
47.50000 181.550
47.51000 189.148
47.52000 192.681
47.53000 193.264
47.54000 193.824
47.55000 193.626
47.56000 193.062
47.57000 192.526
47.58000 189.281
47.59000 185.468
47.60000 182.399
47.61000 185.266
47.62000 189.415
47.63000 192.506
47.64000 190.333
47.65000 187.441
47.66000 185.187
47.67000 181.717
47.68000 178.876
47.69000 176.869
47.70000 176.702
47.71000 176.601
47.72000 180.174
47.73000 189.177
47.74000 198.229
47.75000 200.859
47.76000 197.365
47.77000 193.874
47.78000 190.585
47.79000 187.421
47.80000 184.407
47.81000 184.861
47.82000 186.763
47.83000 188.542
47.84000 188.116
47.85000 187.167
47.86000 186.536
47.87000 188.011
47.88000 189.872
47.89000 190.693
47.90000 187.106
47.91000 183.022
47.92000 179.960
47.93000 184.600
47.94000 188.587
47.95000 190.901
47.96000 190.030
47.97000 189.081
47.98000 185.275
47.99000 177.858
48.00000 170.440
48.01000 171.700
48.02000 179.942
48.03000 188.011
48.04000 188.471
48.05000 184.857
48.06000 181.368
48.07000 180.007
48.08000 179.413
48.09000 178.868
48.10000 177.007
48.11000 175.063
48.12000 174.482
48.13000 181.493
48.14000 189.677
48.15000 195.153
48.16000 190.790
48.17000 185.530
48.18000 181.752
48.19000 183.674
48.20000 185.341
48.21000 187.502
48.22000 190.473
48.23000 193.455
48.24000 195.319
48.25000 195.985
48.26000 196.647
48.27000 194.232
48.28000 189.745
48.29000 185.298
48.30000 182.012
48.31000 179.262
48.32000 176.716
48.33000 176.849
48.34000 177.817
48.35000 178.688
48.36000 181.379
48.37000 184.067
48.38000 185.765
48.39000 182.788
48.40000 179.210
48.41000 177.704
48.42000 182.670
48.43000 188.104
48.44000 191.825
48.45000 188.047
48.46000 185.037
48.47000 183.592
48.48000 184.346
48.49000 185.115
48.50000 185.246
48.51000 184.799
48.52000 184.356
48.53000 186.386
48.54000 189.805
48.55000 193.063
48.56000 192.959
48.57000 191.515
48.58000 190.150
48.59000 189.615
48.60000 189.303
48.61000 189.029
48.62000 189.455
48.63000 189.927
48.64000 189.361
48.65000 184.605
48.66000 179.407
48.67000 176.545
48.68000 179.980
48.69000 183.764
48.70000 186.222
48.71000 191.919
48.72000 196.142
48.73000 198.788
48.74000 199.542
48.75000 200.283
48.76000 198.761
48.77000 195.499
48.78000 192.294
48.79000 185.762
48.80000 177.807
48.81000 170.219
48.82000 168.392
48.83000 168.548
48.84000 168.917
48.85000 171.116
48.86000 173.733
48.87000 175.979
48.88000 182.802
48.89000 189.132
48.90000 193.232
48.91000 189.611
48.92000 185.335
48.93000 181.506
48.94000 178.717
48.95000 175.970
48.96000 174.287
48.97000 176.508
48.98000 178.130
48.99000 179.204
49.00000 179.722
49.01000 180.226
49.02000 179.439
49.03000 177.805
49.04000 176.213
49.05000 171.426
49.06000 165.521
49.07000 160.844
49.08000 171.223
49.09000 186.066
49.10000 198.182
49.11000 191.013
49.12000 180.087
49.13000 170.973
49.14000 179.331
49.15000 188.013
49.16000 193.630
49.17000 190.114
49.18000 185.991
49.19000 182.493
49.20000 180.250
49.21000 178.044
49.22000 176.778
49.23000 180.025
49.24000 182.308
49.25000 183.266
49.26000 183.090
49.27000 182.906
49.28000 182.354
49.29000 181.594
49.30000 180.862
49.31000 177.859
49.32000 174.226
49.33000 171.174
49.34000 173.822
49.35000 177.920
49.36000 181.956
49.37000 185.624
49.38000 189.232
49.39000 192.149
49.40000 187.199
49.41000 182.543
49.42000 179.699
49.43000 181.516
49.44000 183.568
49.45000 184.206
49.46000 182.393
49.47000 180.537
49.48000 179.549
49.49000 180.008
49.50000 180.319
49.51000 180.030
49.52000 179.303
49.53000 178.582
49.54000 178.064
49.55000 177.645
49.56000 177.247
49.57000 177.733
49.58000 178.451
49.59000 178.846
49.60000 176.652
49.61000 173.895
49.62000 171.717
49.63000 172.444
49.64000 173.569
49.65000 174.448
49.66000 174.943
49.67000 175.313
49.68000 176.583
49.69000 179.849
49.70000 183.187
49.71000 184.709
49.72000 183.529
49.73000 182.324
49.74000 181.676
49.75000 181.563
49.76000 181.420
49.77000 178.992
49.78000 175.134
49.79000 171.584
49.80000 175.239
49.81000 181.922
49.82000 188.177
49.83000 185.394
49.84000 180.545
49.85000 176.278
49.86000 175.903
49.87000 176.247
49.88000 176.597
49.89000 176.975
49.90000 177.356
49.91000 177.643
49.92000 175.194
49.93000 173.149
49.94000 173.017
49.95000 176.553
49.96000 180.178
49.97000 181.142
49.98000 178.721
49.99000 176.293
50.00000 170.588
50.01000 162.249
50.02000 154.139
50.03000 156.283
50.04000 163.948
50.05000 171.479
50.06000 176.688
50.07000 181.054
50.08000 185.069
50.09000 185.918
50.10000 185.992
50.11000 186.022
50.12000 185.813
50.13000 185.566
50.14000 184.921
50.15000 182.822
50.16000 180.588
50.17000 178.981
50.18000 177.299
50.19000 176.009
50.20000 173.295
50.21000 168.233
50.22000 163.136
50.23000 165.205
50.24000 175.005
50.25000 184.762
50.26000 189.113
50.27000 189.702
50.28000 190.225
50.29000 188.813
50.30000 186.500
50.31000 184.243
50.32000 182.727
50.33000 181.443
50.34000 180.285
50.35000 182.989
50.36000 186.062
50.37000 189.660
50.38000 195.752
50.39000 202.168
50.40000 206.701
50.41000 205.316
50.42000 203.500
50.43000 202.254
50.44000 203.387
50.45000 204.295
50.46000 205.254
50.47000 206.288
50.48000 207.322
50.49000 209.078
50.50000 211.492
50.51000 213.882
50.52000 221.897
50.53000 233.026
50.54000 243.898
50.55000 249.335
50.56000 252.592
50.57000 255.798
50.58000 258.472
50.59000 261.002
50.60000 263.231
50.61000 266.486
50.62000 269.446
50.63000 272.303
50.64000 274.743
50.65000 277.139
50.66000 278.099
50.67000 275.162
50.68000 272.006
50.69000 269.952
50.70000 278.985
50.71000 285.780
50.72000 288.351
50.73000 285.822
50.74000 283.274
50.75000 279.032
50.76000 273.479
50.77000 268.019
50.78000 272.032
50.79000 280.619
50.80000 288.345
50.81000 282.427
50.82000 271.785
50.83000 262.181
50.84000 261.530
50.85000 262.940
50.86000 264.152
50.87000 252.601
50.88000 241.246
50.89000 231.724
50.90000 228.583
50.91000 225.987
50.92000 223.497
50.93000 221.252
50.94000 219.018
50.95000 217.646
50.96000 215.474
50.97000 213.911
50.98000 212.146
50.99000 210.175
51.00000 208.166
51.01000 202.443
51.02000 194.264
51.03000 186.294
51.04000 186.617
51.05000 190.429
51.06000 193.679
51.07000 189.969
51.08000 184.184
51.09000 178.629
51.10000 174.723
51.11000 171.139
51.12000 168.146
51.13000 175.555
51.14000 182.755
51.15000 186.094
51.16000 177.856
51.17000 168.839
51.18000 165.738
51.19000 174.593
51.20000 183.790
51.21000 189.079
51.22000 175.475
51.23000 165.895
51.24000 161.659
51.25000 162.034
51.26000 162.447
51.27000 164.895
51.28000 168.500
51.29000 171.974
51.30000 171.281
51.31000 169.133
51.32000 167.512
51.33000 171.125
51.34000 176.078
51.35000 180.232
51.36000 179.618
51.37000 178.214
51.38000 177.077
51.39000 178.441
51.40000 179.754
51.41000 178.642
51.42000 171.255
51.43000 163.548
51.44000 160.328
51.45000 164.920
51.46000 169.653
51.47000 172.181
51.48000 173.151
51.49000 173.806
51.50000 173.724
51.51000 173.100
51.52000 172.503
51.53000 172.838
51.54000 173.631
51.55000 174.385
51.56000 171.148
51.57000 166.937
51.58000 163.499
51.59000 166.331
51.60000 170.534
51.61000 174.269
51.62000 175.640
51.63000 176.684
51.64000 177.500
51.65000 174.854
51.66000 172.523
51.67000 169.509
51.68000 164.971
51.69000 160.376
51.70000 158.940
51.71000 162.231
51.72000 165.567
51.73000 166.043
51.74000 163.753
51.75000 161.511
51.76000 162.999
51.77000 166.835
51.78000 170.671
51.79000 174.490
51.80000 178.302
51.81000 181.872
51.82000 173.304
51.83000 162.374
51.84000 152.815
51.85000 152.474
51.86000 153.848
51.87000 155.326
51.88000 157.255
51.89000 159.235
51.90000 160.725
51.91000 159.599
51.92000 158.592
51.93000 158.599
51.94000 160.562
51.95000 162.573
51.96000 164.255
51.97000 165.514
51.98000 166.770
51.99000 166.084
52.00000 163.817
52.01000 161.570
52.02000 160.276
52.03000 159.499
52.04000 158.642
52.05000 156.387
52.06000 153.622
52.07000 151.077
52.08000 148.043
52.09000 145.224
52.10000 143.746
52.11000 149.842
52.12000 157.124
52.13000 162.624
52.14000 161.574
52.15000 159.915
52.16000 158.720
52.17000 157.212
52.18000 156.046
52.19000 156.665
52.20000 160.247
52.21000 163.875
52.22000 165.688
52.23000 165.530
52.24000 165.372
52.25000 162.835
52.26000 158.680
52.27000 154.668
52.28000 154.936
52.29000 157.204
52.30000 159.231
52.31000 158.008
52.32000 155.761
52.33000 153.735
52.34000 155.305
52.35000 157.341
52.36000 159.147
52.37000 159.859
52.38000 160.428
52.39000 160.883
52.40000 160.979
52.41000 161.047
52.42000 161.094
52.43000 162.019
52.44000 162.735
52.45000 162.973
52.46000 162.532
52.47000 162.086
52.48000 161.603
52.49000 161.088
52.50000 160.578
52.51000 159.027
52.52000 156.896
52.53000 154.720
52.54000 151.569
52.55000 148.025
52.56000 145.021
52.57000 147.806
52.58000 152.158
52.59000 155.996
52.60000 159.033
52.61000 161.531
52.62000 163.118
52.63000 160.987
52.64000 158.457
52.65000 157.152
52.66000 159.186
52.67000 161.409
52.68000 162.859
52.69000 171.279
52.70000 177.568
52.71000 178.770
52.72000 173.789
52.73000 168.801
52.74000 165.775
52.75000 164.277
52.76000 162.803
52.77000 162.389
52.78000 162.516
52.79000 162.488
52.80000 159.959
52.81000 156.559
52.82000 153.739
52.83000 155.958
52.84000 159.345
52.85000 162.258
52.86000 159.640
52.87000 156.731
52.88000 154.525
52.89000 154.782
52.90000 155.251
52.91000 155.533
52.92000 155.376
52.93000 155.201
52.94000 155.093
52.95000 157.461
52.96000 159.182
52.97000 158.538
52.98000 155.462
52.99000 152.428
53.00000 153.716
53.01000 157.881
53.02000 161.941
53.03000 162.057
53.04000 160.490
53.05000 159.035
53.06000 158.975
53.07000 159.334
53.08000 160.104
53.09000 163.821
53.10000 168.119
53.11000 171.713
53.12000 163.717
53.13000 155.894
53.14000 150.911
53.15000 154.492
53.16000 158.656
53.17000 162.120
53.18000 164.163
53.19000 166.164
53.20000 167.318
53.21000 161.755
53.22000 157.840
53.23000 159.488
53.24000 165.966
53.25000 172.323
53.26000 172.048
53.27000 167.983
53.28000 164.063
53.29000 162.249
53.30000 161.306
53.31000 160.532
53.32000 161.456
53.33000 162.817
53.34000 164.437
53.35000 167.611
53.36000 171.045
53.37000 173.828
53.38000 172.398
53.39000 170.889
53.40000 168.467
53.41000 163.670
53.42000 158.750
53.43000 156.276
53.44000 158.086
53.45000 159.975
53.46000 160.988
53.47000 151.724
53.48000 145.429
53.49000 145.739
53.50000 150.933
53.51000 156.092
53.52000 160.071
53.53000 163.467
53.54000 166.699
53.55000 161.395
53.56000 153.864
53.57000 147.242
53.58000 148.052
53.59000 150.501
53.60000 152.793
53.61000 154.295
53.62000 155.687
53.63000 156.776
53.64000 158.580
53.65000 160.067
53.66000 160.242
53.67000 157.468
53.68000 154.584
53.69000 154.941
53.70000 160.179
53.71000 165.465
53.72000 165.757
53.73000 161.184
53.74000 156.664
53.75000 156.367
53.76000 158.744
53.77000 161.025
53.78000 160.983
53.79000 159.953
53.80000 158.988
53.81000 157.958
53.82000 157.005
53.83000 156.112
53.84000 155.629
53.85000 155.224
53.86000 154.823
53.87000 154.443
53.88000 154.064
53.89000 153.779
53.90000 152.373
53.91000 151.217
53.92000 149.656
53.93000 147.308
53.94000 144.940
53.95000 145.310
53.96000 149.204
53.97000 153.108
53.98000 156.327
53.99000 158.972
54.00000 161.488
54.01000 157.945
54.02000 151.101
54.03000 144.781
54.04000 147.744
54.05000 154.117
54.06000 159.985
54.07000 153.236
54.08000 144.431
54.09000 137.604
54.10000 142.029
54.11000 148.229
54.12000 152.926
54.13000 152.062
54.14000 150.677
54.15000 149.678
54.16000 154.750
54.17000 158.858
54.18000 161.330
54.19000 161.069
54.20000 160.765
54.21000 161.107
54.22000 162.154
54.23000 163.197
54.24000 163.491
54.25000 163.262
54.26000 163.037
54.27000 162.976
54.28000 162.991
54.29000 162.792
54.30000 159.681
54.31000 155.647
54.32000 152.006
54.33000 151.288
54.34000 151.195
54.35000 151.930
54.36000 156.655
54.37000 161.904
54.38000 164.945
54.39000 160.961
54.40000 156.454
54.41000 153.349
54.42000 153.145
54.43000 153.065
54.44000 154.754
54.45000 158.976
54.46000 163.216
54.47000 163.674
54.48000 160.644
54.49000 157.642
54.50000 155.257
54.51000 153.284
54.52000 151.492
54.53000 153.596
54.54000 157.280
54.55000 160.664
54.56000 160.799
54.57000 160.050
54.58000 159.389
54.59000 155.325
54.60000 151.297
54.61000 148.271
54.62000 149.360
54.63000 150.895
54.64000 152.724
54.65000 155.362
54.66000 158.046
54.67000 159.801
54.68000 163.025
54.69000 165.417
54.70000 164.907
54.71000 160.846
54.72000 156.782
54.73000 154.134
54.74000 152.596
54.75000 151.083
54.76000 150.337
54.77000 150.003
54.78000 149.855
54.79000 152.742
54.80000 156.692
54.81000 160.145
54.82000 159.241
54.83000 157.319
54.84000 155.665
54.85000 158.228
54.86000 160.932
54.87000 162.848
54.88000 161.984
54.89000 160.878
54.90000 159.540
54.91000 157.655
54.92000 155.747
54.93000 154.570
54.94000 159.394
54.95000 162.913
54.96000 163.927
54.97000 162.344
54.98000 160.801
54.99000 163.303
55.00000 168.515
55.01000 173.597
55.02000 170.930
55.03000 165.064
55.04000 159.454
55.05000 157.069
55.06000 155.657
55.07000 154.545
55.08000 155.599
55.09000 157.084
55.10000 158.328
55.11000 161.809
55.12000 164.933
55.13000 167.017
55.14000 165.944
55.15000 164.655
55.16000 163.590
55.17000 162.986
55.18000 162.396
55.19000 162.055
55.20000 164.690
55.21000 166.547
55.22000 166.836
55.23000 165.752
55.24000 164.728
55.25000 167.034
55.26000 171.255
55.27000 175.327
55.28000 175.937
55.29000 175.251
55.30000 174.518
55.31000 173.319
55.32000 172.000
55.33000 171.419
55.34000 175.312
55.35000 179.956
55.36000 183.725
55.37000 177.563
55.38000 171.721
55.39000 167.628
55.40000 168.115
55.41000 168.841
55.42000 169.626
55.43000 170.516
55.44000 171.408
55.45000 171.887
55.46000 179.481
55.47000 184.675
55.48000 189.677
55.49000 194.536
55.50000 199.247
55.51000 198.761
55.52000 195.700
55.53000 192.785
55.54000 201.155
55.55000 212.396
55.56000 222.647
55.57000 224.745
55.58000 225.035
55.59000 225.994
55.60000 230.373
55.61000 235.233
55.62000 239.043
55.63000 246.036
55.64000 251.832
55.65000 258.716
55.66000 268.054
55.67000 277.487
55.68000 288.896
55.69000 303.299
55.70000 317.734
55.71000 332.201
55.72000 346.702
55.73000 361.202
55.74000 375.699
55.75000 390.196
55.76000 405.034
55.77000 428.176
55.78000 454.871
55.79000 479.905
55.80000 501.821
55.81000 520.963
55.82000 539.682
55.83000 555.509
55.84000 570.791
55.85000 584.076
55.86000 588.678
55.87000 592.271
55.88000 594.983
55.89000 606.406
55.90000 615.788
55.91000 625.059
55.92000 634.117
55.93000 643.168
55.94000 649.353
55.95000 651.825
55.96000 654.278
55.97000 652.346
55.98000 646.792
55.99000 641.215
56.00000 634.544
56.01000 627.273
56.02000 620.044
56.03000 613.558
56.04000 607.348
56.05000 601.624
56.06000 582.051
56.07000 561.469
56.08000 541.742
56.09000 526.906
56.10000 512.847
56.11000 497.774
56.12000 478.926
56.13000 459.722
56.14000 445.828
56.15000 426.238
56.16000 410.993
56.17000 398.201
56.18000 389.531
56.19000 380.926
56.20000 368.076
56.21000 350.551
56.22000 333.096
56.23000 316.458
56.24000 300.557
56.25000 284.733
56.26000 271.283
56.27000 258.955
56.28000 247.221
56.29000 243.649
56.30000 242.678
56.31000 241.801
56.32000 236.434
56.33000 230.881
56.34000 225.134
56.35000 218.441
56.36000 211.624
56.37000 204.487
56.38000 196.326
56.39000 188.088
56.40000 182.400
56.41000 188.449
56.42000 193.295
56.43000 192.883
56.44000 184.891
56.45000 176.839
56.46000 172.623
56.47000 171.970
56.48000 171.323
56.49000 169.485
56.50000 166.973
56.51000 164.524
56.52000 163.428
56.53000 162.885
56.54000 162.347
56.55000 161.864
56.56000 161.395
56.57000 160.980
56.58000 162.600
56.59000 164.313
56.60000 164.974
56.61000 161.286
56.62000 157.124
56.63000 153.628
56.64000 151.972
56.65000 150.423
56.66000 149.408
56.67000 155.595
56.68000 160.263
56.69000 161.395
56.70000 158.174
56.71000 154.951
56.72000 154.860
56.73000 157.237
56.74000 159.576
56.75000 157.370
56.76000 152.930
56.77000 148.807
56.78000 149.870
56.79000 152.760
56.80000 155.366
56.81000 155.459
56.82000 154.961
56.83000 154.533
56.84000 154.153
56.85000 153.837
56.86000 152.903
56.87000 149.778
56.88000 146.460
56.89000 143.801
56.90000 142.712
56.91000 141.690
56.92000 141.058
56.93000 144.413
56.94000 146.862
56.95000 147.636
56.96000 146.664
56.97000 145.683
56.98000 143.816
56.99000 141.350
57.00000 138.945
57.01000 137.968
57.02000 137.650
57.03000 137.733
57.04000 142.925
57.05000 149.668
57.06000 155.477
57.07000 154.472
57.08000 152.104
57.09000 150.119
57.10000 151.844
57.11000 153.663
57.12000 154.055
57.13000 150.093
57.14000 145.828
57.15000 143.691
57.16000 145.930
57.17000 148.300
57.18000 149.675
57.19000 141.352
57.20000 135.477
57.21000 134.878
57.22000 138.924
57.23000 142.934
57.24000 144.913
57.25000 145.716
57.26000 146.492
57.27000 146.378
57.28000 145.946
57.29000 145.338
57.30000 142.958
57.31000 140.114
57.32000 138.031
57.33000 140.575
57.34000 143.902
57.35000 146.606
57.36000 146.485
57.37000 146.152
57.38000 145.253
57.39000 142.865
57.40000 140.398
57.41000 136.588
57.42000 130.395
57.43000 124.157
57.44000 120.792
57.45000 132.513
57.46000 140.527
57.47000 145.302
57.48000 147.650
57.49000 149.875
57.50000 147.757
57.51000 143.472
57.52000 139.390
57.53000 143.937
57.54000 150.839
57.55000 156.943
57.56000 156.421
57.57000 154.421
57.58000 152.332
57.59000 149.783
57.60000 147.170
57.61000 145.118
57.62000 147.895
57.63000 150.433
57.64000 151.638
57.65000 149.815
57.66000 147.874
57.67000 145.478
57.68000 142.388
57.69000 139.290
57.70000 138.401
57.71000 139.693
57.72000 140.971
57.73000 141.039
57.74000 140.330
57.75000 139.709
57.76000 141.238
57.77000 143.692
57.78000 145.996
57.79000 143.989
57.80000 141.022
57.81000 138.833
57.82000 141.979
57.83000 146.139
57.84000 148.470
57.85000 142.803
57.86000 136.200
57.87000 131.208
57.88000 134.695
57.89000 137.854
57.90000 139.587
57.91000 138.522
57.92000 137.384
57.93000 137.197
57.94000 138.251
57.95000 139.309
57.96000 138.605
57.97000 136.435
57.98000 134.344
57.99000 136.083
58.00000 139.934
58.01000 143.646
58.02000 144.836
58.03000 145.089
58.04000 145.322
58.05000 143.635
58.06000 141.697
58.07000 140.420
58.08000 142.955
58.09000 146.100
58.10000 148.037
58.11000 145.447
58.12000 142.426
58.13000 140.236
58.14000 142.075
58.15000 143.637
58.16000 143.950
58.17000 142.152
58.18000 140.320
58.19000 139.996
58.20000 141.343
58.21000 142.686
58.22000 141.972
58.23000 139.815
58.24000 137.690
58.25000 136.564
58.26000 135.914
58.27000 135.263
58.28000 134.600
58.29000 133.933
58.30000 133.330
58.31000 133.331
58.32000 133.445
58.33000 133.404
58.34000 132.601
58.35000 131.697
58.36000 131.545
58.37000 133.813
58.38000 136.264
58.39000 137.959
58.40000 135.244
58.41000 133.087
58.42000 132.826
58.43000 135.315
58.44000 137.827
58.45000 139.812
58.46000 141.304
58.47000 142.782
58.48000 144.640
58.49000 146.688
58.50000 148.558
58.51000 146.463
58.52000 142.740
58.53000 139.112
58.54000 136.535
58.55000 134.248
58.56000 132.225
58.57000 131.987
58.58000 132.058
58.59000 132.852
58.60000 136.654
58.61000 140.787
58.62000 142.674
58.63000 138.325
58.64000 133.611
58.65000 130.515
58.66000 131.774
58.67000 132.775
58.68000 132.232
58.69000 129.778
58.70000 127.325
58.71000 126.897
58.72000 128.075
58.73000 129.236
58.74000 126.485
58.75000 121.826
58.76000 117.657
58.77000 121.602
58.78000 128.424
58.79000 135.226
58.80000 141.864
58.81000 148.463
58.82000 154.156
58.83000 150.900
58.84000 146.990
58.85000 142.965
58.86000 138.529
58.87000 134.057
58.88000 131.815
58.89000 134.921
58.90000 138.259
58.91000 140.329
58.92000 138.904
58.93000 137.844
58.94000 139.240
58.95000 143.214
58.96000 147.121
58.97000 143.479
58.98000 134.722
58.99000 126.175
59.00000 127.743
59.01000 133.629
59.02000 139.063
59.03000 138.671
59.04000 136.499
59.05000 134.149
59.06000 130.494
59.07000 126.576
59.08000 123.288
59.09000 126.652
59.10000 130.147
59.11000 133.389
59.12000 135.849
59.13000 138.254
59.14000 138.839
59.15000 135.657
59.16000 132.361
59.17000 130.444
59.18000 130.158
59.19000 129.966
59.20000 132.036
59.21000 136.111
59.22000 140.138
59.23000 141.432
59.24000 141.135
59.25000 140.849
59.26000 138.110
59.27000 134.624
59.28000 131.140
59.29000 127.662
59.30000 124.186
59.31000 121.592
59.32000 124.407
59.33000 128.143
59.34000 131.183
59.35000 137.149
59.36000 142.266
59.37000 144.538
59.38000 139.273
59.39000 133.604
59.40000 131.206
59.41000 134.647
59.42000 138.202
59.43000 140.125
59.44000 130.816
59.45000 124.452
59.46000 122.591
59.47000 124.125
59.48000 125.637
59.49000 126.359
59.50000 126.685
59.51000 126.996
59.52000 128.422
59.53000 130.094
59.54000 131.634
59.55000 132.075
59.56000 132.269
59.57000 133.335
59.58000 138.915
59.59000 145.139
59.60000 150.032
59.61000 145.482
59.62000 141.214
59.63000 137.626
59.64000 135.593
59.65000 133.621
59.66000 131.477
59.67000 129.069
59.68000 126.658
59.69000 126.700
59.70000 129.181
59.71000 131.644
59.72000 132.473
59.73000 132.247
59.74000 131.998
59.75000 131.156
59.76000 130.058
59.77000 129.027
59.78000 126.504
59.79000 123.807
59.80000 121.837
59.81000 124.895
59.82000 128.915
59.83000 132.762
59.84000 135.854
59.85000 138.856
59.86000 141.129
59.87000 137.117
59.88000 133.651
59.89000 131.607
59.90000 132.371
59.91000 133.210
59.92000 134.286
59.93000 135.675
59.94000 137.064
59.95000 137.819
59.96000 138.040
59.97000 138.258
59.98000 138.381
59.99000 138.449
60.00000 138.457
60.01000 137.349
60.02000 135.825
60.03000 134.418
60.04000 133.612
60.05000 133.025
60.06000 132.408
60.07000 131.620
60.08000 130.804
60.09000 129.963
60.10000 129.029
60.11000 128.086
60.12000 127.402
60.13000 130.330
60.14000 132.717
60.15000 133.128
60.16000 130.181
60.17000 127.179
60.18000 130.033
60.19000 139.424
60.20000 148.784
60.21000 148.781
60.22000 142.129
60.23000 135.602
60.24000 133.043
60.25000 132.382
60.26000 131.786
60.27000 132.090
60.28000 132.684
60.29000 133.221
60.30000 132.669
60.31000 131.977
60.32000 130.847
60.33000 127.564
60.34000 123.992
60.35000 122.739
60.36000 128.998
60.37000 135.832
60.38000 140.568
60.39000 139.580
60.40000 138.685
60.41000 136.750
60.42000 133.296
60.43000 129.829
60.44000 129.340
60.45000 131.653
60.46000 133.946
60.47000 133.579
60.48000 131.614
60.49000 129.755
60.50000 130.299
60.51000 131.835
60.52000 133.365
60.53000 134.826
60.54000 136.267
60.55000 137.544
60.56000 134.867
60.57000 131.932
60.58000 129.189
60.59000 127.247
60.60000 125.394
60.61000 125.737
60.62000 132.214
60.63000 139.054
60.64000 143.557
60.65000 137.377
60.66000 132.642
60.67000 131.125
60.68000 133.624
60.69000 136.132
60.70000 137.843
60.71000 138.919
60.72000 139.978
60.73000 137.389
60.74000 133.006
60.75000 128.850
60.76000 128.495
60.77000 129.496
60.78000 130.228
60.79000 128.538
60.80000 126.272
60.81000 124.316
60.82000 129.288
60.83000 134.406
60.84000 138.060
60.85000 136.463
60.86000 134.395
60.87000 132.520
60.88000 131.106
60.89000 129.713
60.90000 128.847
60.91000 127.014
60.92000 125.684
60.93000 125.763
60.94000 127.334
60.95000 128.896
60.96000 129.457
60.97000 129.335
60.98000 129.217
60.99000 133.981
61.00000 140.672
61.01000 146.673
61.02000 143.728
61.03000 138.034
61.04000 133.101
61.05000 133.809
61.06000 135.660
61.07000 137.215
61.08000 137.324
61.09000 137.262
61.10000 137.204
61.11000 137.155
61.12000 137.106
61.13000 137.154
61.14000 137.402
61.15000 137.655
61.16000 137.803
61.17000 141.364
61.18000 143.882
61.19000 143.668
61.20000 141.019
61.21000 138.379
61.22000 136.265
61.23000 134.460
61.24000 132.717
61.25000 135.664
61.26000 140.185
61.27000 143.873
61.28000 138.940
61.29000 131.729
61.30000 126.285
61.31000 131.761
61.32000 139.110
61.33000 145.098
61.34000 140.330
61.35000 135.522
61.36000 132.050
61.37000 132.138
61.38000 132.419
61.39000 134.915
61.40000 141.388
61.41000 147.941
61.42000 151.497
61.43000 149.029
61.44000 147.331
61.45000 145.622
61.46000 143.906
61.47000 142.329
61.48000 145.930
61.49000 152.144
61.50000 158.070
61.51000 167.526
61.52000 177.414
61.53000 188.209
61.54000 206.646
61.55000 226.810
61.56000 244.082
61.57000 246.282
61.58000 246.316
61.59000 246.342
61.60000 261.492
61.61000 274.642
61.62000 287.659
61.63000 300.367
61.64000 313.062
61.65000 318.905
61.66000 314.171
61.67000 309.318
61.68000 306.891
61.69000 322.743
61.70000 333.205
61.71000 333.917
61.72000 328.297
61.73000 322.651
61.74000 316.333
61.75000 309.722
61.76000 303.510
61.77000 290.776
61.78000 277.410
61.79000 263.511
61.80000 245.889
61.81000 227.551
61.82000 209.864
61.83000 195.067
61.84000 180.613
61.85000 169.652
61.86000 165.675
61.87000 162.910
61.88000 160.948
61.89000 160.582
61.90000 160.260
61.91000 157.206
61.92000 150.543
61.93000 143.870
61.94000 141.759
61.95000 143.506
61.96000 145.156
61.97000 141.889
61.98000 135.878
61.99000 130.244
62.00000 131.578
62.01000 135.534
62.02000 139.187
62.03000 139.681
62.04000 139.412
62.05000 139.416
62.06000 141.015
62.07000 142.873
62.08000 144.386
62.09000 144.588
62.10000 144.664
62.11000 144.719
62.12000 142.277
62.13000 140.304
62.14000 140.594
62.15000 144.759
62.16000 148.990
62.17000 149.603
62.18000 146.150
62.19000 142.707
62.20000 140.398
62.21000 138.921
62.22000 137.520
62.23000 138.583
62.24000 140.831
62.25000 142.907
62.26000 142.545
62.27000 141.393
62.28000 140.349
62.29000 141.090
62.30000 142.081
62.31000 143.244
62.32000 145.260
62.33000 147.393
62.34000 148.586
62.35000 146.717
62.36000 144.612
62.37000 143.150
62.38000 140.341
62.39000 138.189
62.40000 137.178
62.41000 137.843
62.42000 138.524
62.43000 139.170
62.44000 139.782
62.45000 140.390
62.46000 139.535
62.47000 137.808
62.48000 136.223
62.49000 137.871
62.50000 140.862
62.51000 143.746
62.52000 145.422
62.53000 146.761
62.54000 147.947
62.55000 148.607
62.56000 149.094
62.57000 149.030
62.58000 146.641
62.59000 143.992
62.60000 142.350
62.61000 143.538
62.62000 144.896
62.63000 145.792
62.64000 144.864
62.65000 144.147
62.66000 143.721
62.67000 143.659
62.68000 143.595
62.69000 142.351
62.70000 140.157
62.71000 137.997
62.72000 137.773
62.73000 138.556
62.74000 139.337
62.75000 140.077
62.76000 140.802
62.77000 141.288
62.78000 139.615
62.79000 137.424
62.80000 135.530
62.81000 140.092
62.82000 144.810
62.83000 148.589
62.84000 148.977
62.85000 149.058
62.86000 147.876
62.87000 143.630
62.88000 139.246
62.89000 136.515
62.90000 145.619
62.91000 152.301
62.92000 153.877
62.93000 150.017
62.94000 146.173
62.95000 144.413
62.96000 144.084
62.97000 143.762
62.98000 145.870
62.99000 148.956
63.00000 151.812
63.01000 151.649
63.02000 150.551
63.03000 149.344
63.04000 147.318
63.05000 145.124
63.06000 143.279
63.07000 142.102
63.08000 141.193
63.09000 140.329
63.10000 139.608
63.11000 138.898
63.12000 138.616
63.13000 139.233
63.14000 139.878
63.15000 140.256
63.16000 149.521
63.17000 156.079
63.18000 157.005
63.19000 152.873
63.20000 148.766
63.21000 146.215
63.22000 144.581
63.23000 143.002
63.24000 141.929
63.25000 141.107
63.26000 140.312
63.27000 139.813
63.28000 139.391
63.29000 139.115
63.30000 139.740
63.31000 140.521
63.32000 141.159
63.33000 144.250
63.34000 146.988
63.35000 147.787
63.36000 143.391
63.37000 138.709
63.38000 137.402
63.39000 142.188
63.40000 147.098
63.41000 149.771
63.42000 143.352
63.43000 138.946
63.44000 136.763
63.45000 136.277
63.46000 135.837
63.47000 137.076
63.48000 139.169
63.49000 141.166
63.50000 143.450
63.51000 145.662
63.52000 147.612
63.53000 147.331
63.54000 146.543
63.55000 146.120
63.56000 147.609
63.57000 149.376
63.58000 150.769
63.59000 149.665
63.60000 148.612
63.61000 147.967
63.62000 148.265
63.63000 148.602
63.64000 149.405
63.65000 150.931
63.66000 152.466
63.67000 153.237
63.68000 149.001
63.69000 146.195
63.70000 145.449
63.71000 146.048
63.72000 146.645
63.73000 147.167
63.74000 147.656
63.75000 148.116
63.76000 151.491
63.77000 155.357
63.78000 158.322
63.79000 154.954
63.80000 150.361
63.81000 147.507
63.82000 152.412
63.83000 158.248
63.84000 162.681
63.85000 161.512
63.86000 160.303
63.87000 157.511
63.88000 151.558
63.89000 145.517
63.90000 145.516
63.91000 153.547
63.92000 161.611
63.93000 165.922
63.94000 167.033
63.95000 168.108
63.96000 167.273
63.97000 165.366
63.98000 163.654
63.99000 165.591
64.00000 168.908
64.01000 171.973
64.02000 169.543
64.03000 166.112
64.04000 162.991
64.05000 161.695
64.06000 160.697
64.07000 160.148
64.08000 161.316
64.09000 162.652
64.10000 163.626
64.11000 158.029
64.12000 153.467
64.13000 152.941
64.14000 159.364
64.15000 165.907
64.16000 169.604
64.17000 170.081
64.18000 170.554
64.19000 167.097
64.20000 160.842
64.21000 154.776
64.22000 154.885
64.23000 157.985
64.24000 160.902
64.25000 161.198
64.26000 160.638
64.27000 160.131
64.28000 163.994
64.29000 168.234
64.30000 171.734
64.31000 171.548
64.32000 170.858
64.33000 170.174
64.34000 169.509
64.35000 168.845
64.36000 168.383
64.37000 170.276
64.38000 171.767
64.39000 171.855
64.40000 169.868
64.41000 167.862
64.42000 168.422
64.43000 171.429
64.44000 174.413
64.45000 173.637
64.46000 170.579
64.47000 167.590
64.48000 166.207
64.49000 165.495
64.50000 164.820
64.51000 164.559
64.52000 164.415
64.53000 164.287
64.54000 162.344
64.55000 160.373
64.56000 159.651
64.57000 164.226
64.58000 169.398
64.59000 174.698
64.60000 180.362
64.61000 186.048
64.62000 189.808
64.63000 178.693
64.64000 170.226
64.65000 167.160
64.66000 170.917
64.67000 174.681
64.68000 173.100
64.69000 167.195
64.70000 161.376
64.71000 165.760
64.72000 175.319
64.73000 184.412
64.74000 185.538
64.75000 183.789
64.76000 181.989
64.77000 179.731
64.78000 177.363
64.79000 175.313
64.80000 177.092
64.81000 179.107
64.82000 181.554
64.83000 185.566
64.84000 189.720
64.85000 192.829
64.86000 193.386
64.87000 193.828
64.88000 194.104
64.89000 194.186
64.90000 194.243
64.91000 194.756
64.92000 195.757
64.93000 196.749
64.94000 196.567
64.95000 195.574
64.96000 194.605
64.97000 193.998
64.98000 193.577
64.99000 193.164
65.00000 192.863
65.01000 192.596
65.02000 192.940
65.03000 197.872
65.04000 203.746
65.05000 208.692
65.06000 210.509
65.07000 211.690
65.08000 211.508
65.09000 207.066
65.10000 202.315
65.11000 201.999
65.12000 211.022
65.13000 220.345
65.14000 225.810
65.15000 237.850
65.16000 246.360
65.17000 248.662
65.18000 245.351
65.19000 242.145
65.20000 245.510
65.21000 252.771
65.22000 259.792
65.23000 262.783
65.24000 264.090
65.25000 265.382
65.26000 266.521
65.27000 267.618
65.28000 270.201
65.29000 282.094
65.30000 295.607
65.31000 306.644
65.32000 306.397
65.33000 305.220
65.34000 306.595
65.35000 314.850
65.36000 323.486
65.37000 330.727
65.38000 335.433
65.39000 340.086
65.40000 342.626
65.41000 354.323
65.42000 362.387
65.43000 374.689
65.44000 390.248
65.45000 405.534
65.46000 410.428
65.47000 410.015
65.48000 409.620
65.49000 415.149
65.50000 422.181
65.51000 429.483
65.52000 439.105
65.53000 449.257
65.54000 459.710
65.55000 471.744
65.56000 484.010
65.57000 493.696
65.58000 503.962
65.59000 512.240
65.60000 519.330
65.61000 523.653
65.62000 527.862
65.63000 533.197
65.64000 540.288
65.65000 547.401
65.66000 550.984
65.67000 583.740
65.68000 605.760
65.69000 639.927
65.70000 682.080
65.71000 724.695
65.72000 779.300
65.73000 839.190
65.74000 895.537
65.75000 954.081
65.76000 1008.179
65.77000 1062.778
65.78000 1120.931
65.79000 1179.775
65.80000 1231.525
65.81000 1251.422
65.82000 1267.469
65.83000 1279.677
65.84000 1308.223
65.85000 1331.538
65.86000 1344.630
65.87000 1337.180
65.88000 1329.150
65.89000 1322.158
65.90000 1316.555
65.91000 1310.963
65.92000 1284.218
65.93000 1239.427
65.94000 1194.243
65.95000 1128.546
65.96000 1051.258
65.97000 973.900
65.98000 895.216
65.99000 816.028
66.00000 742.776
66.01000 677.445
66.02000 620.568
66.03000 564.709
66.04000 514.884
66.05000 466.052
66.06000 424.101
66.07000 408.568
66.08000 395.640
66.09000 386.204
66.10000 363.589
66.11000 345.645
66.12000 334.900
66.13000 336.625
66.14000 338.570
66.15000 337.953
66.16000 334.419
66.17000 330.894
66.18000 330.125
66.19000 331.358
66.20000 332.579
66.21000 333.410
66.22000 334.051
66.23000 335.363
66.24000 346.388
66.25000 360.602
66.26000 373.499
66.27000 381.463
66.28000 387.545
66.29000 393.623
66.30000 399.678
66.31000 405.730
66.32000 415.077
66.33000 435.301
66.34000 456.381
66.35000 471.079
66.36000 472.491
66.37000 473.190
66.38000 477.638
66.39000 487.665
66.40000 497.743
66.41000 501.272
66.42000 498.508
66.43000 495.767
66.44000 493.623
66.45000 491.885
66.46000 490.259
66.47000 491.244
66.48000 493.328
66.49000 494.200
66.50000 481.267
66.51000 464.432
66.52000 449.486
66.53000 436.875
66.54000 426.318
66.55000 415.012
66.56000 400.505
66.57000 385.635
66.58000 373.290
66.59000 368.125
66.60000 363.400
66.61000 360.270
66.62000 351.644
66.63000 345.173
66.64000 340.588
66.65000 338.402
66.66000 336.221
66.67000 333.313
66.68000 329.811
66.69000 326.360
66.70000 322.836
66.71000 319.375
66.72000 316.488
66.73000 323.530
66.74000 334.175
66.75000 343.741
66.76000 343.376
66.77000 340.604
66.78000 338.202
66.79000 340.736
66.80000 343.545
66.81000 344.781
66.82000 340.264
66.83000 335.219
66.84000 333.115
66.85000 338.234
66.86000 343.684
66.87000 347.096
66.88000 343.539
66.89000 340.896
66.90000 343.078
66.91000 350.468
66.92000 357.839
66.93000 362.564
66.94000 365.450
66.95000 368.271
66.96000 362.867
66.97000 354.026
66.98000 346.083
66.99000 350.138
67.00000 357.948
67.01000 365.727
67.02000 373.265
67.03000 380.753
67.04000 387.066
67.05000 381.443
67.06000 375.455
67.07000 370.965
67.08000 371.184
67.09000 371.746
67.10000 373.048
67.11000 375.919
67.12000 378.841
67.13000 380.559
67.14000 394.517
67.15000 404.417
67.16000 404.281
67.17000 395.008
67.18000 385.851
67.19000 384.047
67.20000 386.628
67.21000 389.125
67.22000 395.343
67.23000 402.625
67.24000 409.388
67.25000 410.637
67.26000 410.401
67.27000 410.143
67.28000 409.733
67.29000 409.296
67.30000 408.939
67.31000 411.389
67.32000 413.641
67.33000 415.382
67.34000 415.738
67.35000 416.016
67.36000 417.161
67.37000 419.890
67.38000 422.652
67.39000 424.165
67.40000 436.728
67.41000 445.359
67.42000 447.871
67.43000 445.653
67.44000 443.442
67.45000 441.526
67.46000 439.763
67.47000 438.079
67.48000 444.666
67.49000 453.454
67.50000 461.594
67.51000 464.146
67.52000 465.411
67.53000 467.919
67.54000 477.036
67.55000 487.124
67.56000 495.103
67.57000 487.939
67.58000 481.143
67.59000 476.826
67.60000 478.315
67.61000 480.044
67.62000 481.886
67.63000 483.905
67.64000 485.927
67.65000 486.948
67.66000 481.297
67.67000 477.627
67.68000 484.948
67.69000 499.541
67.70000 513.663
67.71000 515.391
67.72000 511.623
67.73000 508.076
67.74000 513.319
67.75000 520.512
67.76000 527.725
67.77000 535.081
67.78000 542.466
67.79000 547.244
67.80000 540.238
67.81000 531.797
67.82000 525.365
67.83000 531.921
67.84000 537.771
67.85000 541.059
67.86000 539.168
67.87000 537.129
67.88000 534.516
67.89000 531.130
67.90000 527.743
67.91000 529.114
67.92000 534.583
67.93000 540.163
67.94000 551.724
67.95000 566.685
67.96000 580.617
67.97000 574.798
67.98000 561.419
67.99000 549.034
68.00000 559.480
68.01000 574.131
68.02000 587.314
68.03000 591.734
68.04000 594.703
68.05000 597.788
68.06000 601.325
68.07000 604.906
68.08000 607.525
68.09000 613.034
68.10000 617.397
68.11000 619.129
68.12000 616.276
68.13000 613.340
68.14000 615.269
68.15000 622.776
68.16000 630.264
68.17000 632.448
68.18000 630.746
68.19000 629.170
68.20000 631.855
68.21000 636.628
68.22000 641.687
68.23000 650.938
68.24000 661.573
68.25000 671.231
68.26000 674.344
68.27000 675.827
68.28000 678.926
68.29000 690.169
68.30000 702.542
68.31000 712.517
68.32000 714.535
68.33000 715.919
68.34000 716.886
68.35000 706.804
68.36000 698.878
68.37000 702.742
68.38000 724.254
68.39000 745.936
68.40000 761.729
68.41000 771.822
68.42000 781.837
68.43000 790.974
68.44000 799.410
68.45000 807.844
68.46000 816.220
68.47000 824.572
68.48000 833.429
68.49000 848.104
68.50000 864.432
68.51000 878.942
68.52000 904.669
68.53000 928.796
68.54000 952.484
68.55000 974.286
68.56000 995.874
68.57000 1024.942
68.58000 1075.411
68.59000 1127.205
68.60000 1161.597
68.61000 1208.409
68.62000 1243.243
68.63000 1285.589
68.64000 1337.552
68.65000 1389.565
68.66000 1447.858
68.67000 1511.297
68.68000 1573.846
68.69000 1652.329
68.70000 1736.974
68.71000 1821.099
68.72000 1896.119
68.73000 1967.814
68.74000 2038.952
68.75000 2104.916
68.76000 2169.618
68.77000 2225.733
68.78000 2309.430
68.79000 2384.383
68.80000 2466.521
68.81000 2575.099
68.82000 2686.132
68.83000 2818.324
68.84000 3002.761
68.85000 3189.625
68.86000 3306.907
68.87000 3772.412
68.88000 4112.662
68.89000 4643.458
68.90000 5381.328
68.91000 6124.525
68.92000 7550.714
68.93000 9454.547
68.94000 11316.111
68.95000 14836.879
68.96000 18956.295
68.97000 23187.273
68.98000 28923.836
68.99000 35134.500
69.00000 41351.586
69.01000 47617.609
69.02000 53893.820
69.03000 59191.281
69.04000 64636.762
69.05000 69203.453
69.06000 73151.109
69.07000 75139.852
69.08000 76984.289
69.09000 78331.680
69.10000 78619.492
69.11000 78872.313
69.12000 79021.320
69.13000 79770.359
69.14000 80302.258
69.15000 80899.109
69.16000 81555.492
69.17000 82200.070
69.18000 82078.297
69.19000 81496.617
69.20000 80933.695
69.21000 78353.031
69.22000 75144.961
69.23000 71881.547
69.24000 68025.086
69.25000 64008.031
69.26000 60049.238
69.27000 56460.645
69.28000 52937.324
69.29000 50051.852
69.30000 47214.121
69.31000 44892.043
69.32000 42869.168
69.33000 41662.695
69.34000 40502.539
69.35000 39321.852
69.36000 38103.410
69.37000 36884.148
69.38000 36214.469
69.39000 33036.316
69.40000 30842.705
69.41000 28109.000
69.42000 24954.910
69.43000 21805.887
69.44000 18856.768
69.45000 16010.967
69.46000 13290.868
69.47000 11019.775
69.48000 9052.535
69.49000 7161.256
69.50000 5930.813
69.51000 4853.639
69.52000 3866.428
69.53000 3360.782
69.54000 2926.419
69.55000 2582.402
69.56000 2343.433
69.57000 2158.630
69.58000 1997.218
69.59000 1890.909
69.60000 1786.911
69.61000 1700.377
69.62000 1641.469
69.63000 1582.905
69.64000 1553.198
69.65000 1445.984
69.66000 1374.323
69.67000 1319.191
69.68000 1275.061
69.69000 1231.514
69.70000 1203.596
69.71000 1182.648
69.72000 1162.914
69.73000 1132.476
69.74000 1101.682
69.75000 1073.455
69.76000 1063.665
69.77000 1057.517
69.78000 1048.339
69.79000 1025.384
69.80000 1000.737
69.81000 981.928
69.82000 963.977
69.83000 949.877
69.84000 934.591
69.85000 916.891
69.86000 899.121
69.87000 884.308
69.88000 873.502
69.89000 862.725
69.90000 849.577
69.91000 834.397
69.92000 819.323
69.93000 810.046
69.94000 804.085
69.95000 797.783
69.96000 784.877
69.97000 769.428
69.98000 755.117
69.99000 754.840
70.00000 757.846
