20.00000 570.303
20.01000 558.005
20.02000 543.951
20.03000 533.280
20.04000 535.746
20.05000 539.528
20.06000 542.297
20.07000 548.712
20.08000 553.809
20.09000 556.780
20.10000 556.030
20.11000 555.212
20.12000 553.400
20.13000 550.444
20.14000 547.496
20.15000 545.948
20.16000 545.440
20.17000 545.103
20.18000 550.664
20.19000 559.129
20.20000 566.839
20.21000 563.430
20.22000 556.332
20.23000 549.881
20.24000 549.018
20.25000 549.343
20.26000 549.508
20.27000 548.865
20.28000 548.109
20.29000 547.550
20.30000 547.646
20.31000 547.795
20.32000 547.898
20.33000 545.026
20.34000 542.769
20.35000 544.450
20.36000 552.054
20.37000 559.716
20.38000 560.345
20.39000 554.130
20.40000 547.962
20.41000 543.696
20.42000 540.686
20.43000 537.648
20.44000 533.947
20.45000 529.964
20.46000 526.814
20.47000 533.311
20.48000 542.565
20.49000 550.794
20.50000 550.516
20.51000 548.892
20.52000 547.780
20.53000 548.872
20.54000 550.217
20.55000 553.505
20.56000 562.377
20.57000 571.597
20.58000 577.729
20.59000 561.373
20.60000 548.851
20.61000 544.806
20.62000 551.667
20.63000 558.549
20.64000 556.667
20.65000 547.566
20.66000 538.591
20.67000 536.379
20.68000 537.810
20.69000 539.419
20.70000 544.181
20.71000 550.098
20.72000 555.176
20.73000 552.406
20.74000 547.711
20.75000 543.637
20.76000 540.926
20.77000 538.798
20.78000 538.700
20.79000 546.105
20.80000 554.211
20.81000 562.293
20.82000 570.317
20.83000 578.338
20.84000 583.382
20.85000 564.729
20.86000 550.973
20.87000 542.563
20.88000 539.994
20.89000 537.457
20.90000 538.938
20.91000 543.241
20.92000 547.450
20.93000 545.177
20.94000 540.077
20.95000 535.620
20.96000 539.912
20.97000 546.973
20.98000 552.468
20.99000 545.956
21.00000 536.932
21.01000 529.308
21.02000 524.389
21.03000 520.574
21.04000 519.174
21.05000 525.450
21.06000 532.296
21.07000 538.619
21.08000 543.821
21.09000 548.984
21.10000 552.034
21.11000 552.432
21.12000 552.697
21.13000 549.827
21.14000 544.068
21.15000 538.403
21.16000 538.936
21.17000 543.206
21.18000 547.340
21.19000 545.551
21.20000 541.588
21.21000 537.861
21.22000 536.680
21.23000 536.193
21.24000 536.678
21.25000 543.381
21.26000 551.187
21.27000 557.586
21.28000 563.636
21.29000 568.567
21.30000 571.543
21.31000 569.156
21.32000 566.463
21.33000 559.703
21.34000 545.430
21.35000 530.992
21.36000 523.043
21.37000 527.960
21.38000 531.370
21.39000 534.883
21.40000 538.479
21.41000 541.852
21.42000 536.375
21.43000 526.300
21.44000 516.667
21.45000 525.169
21.46000 538.990
21.47000 550.598
21.48000 542.824
21.49000 530.531
21.50000 521.800
21.51000 532.232
21.52000 545.518
21.53000 556.053
21.54000 548.318
21.55000 540.815
21.56000 538.184
21.57000 547.080
21.58000 556.464
21.59000 561.137
21.60000 558.321
21.61000 555.411
21.62000 553.930
21.63000 547.766
21.64000 543.660
21.65000 542.368
21.66000 542.958
21.67000 543.770
21.68000 550.565
21.69000 560.042
21.70000 568.973
21.71000 564.537
21.72000 556.784
21.73000 550.468
21.74000 554.539
21.75000 560.673
21.76000 565.871
21.77000 566.790
21.78000 567.181
21.79000 567.480
21.80000 567.016
21.81000 566.609
21.82000 567.910
21.83000 572.699
21.84000 577.592
21.85000 582.593
21.86000 587.741
21.87000 592.886
21.88000 597.791
21.89000 602.478
21.90000 607.119
21.91000 609.194
21.92000 609.796
21.93000 610.473
21.94000 612.610
21.95000 615.312
21.96000 617.817
21.97000 625.075
21.98000 632.717
21.99000 638.978
22.00000 636.898
22.01000 633.418
22.02000 632.380
22.03000 640.883
22.04000 650.349
22.05000 657.293
22.06000 666.494
22.07000 673.694
22.08000 675.243
22.09000 666.839
22.10000 658.248
22.11000 653.692
22.12000 653.816
22.13000 653.946
22.14000 654.533
22.15000 655.453
22.16000 656.351
22.17000 656.451
22.18000 656.156
22.19000 655.424
22.20000 648.195
22.21000 638.797
22.22000 630.250
22.23000 631.500
22.24000 634.525
22.25000 636.030
22.26000 629.774
22.27000 622.428
22.28000 615.374
22.29000 609.295
22.30000 603.296
22.31000 599.091
22.32000 583.868
22.33000 572.034
22.34000 561.536
22.35000 553.062
22.36000 544.609
22.37000 538.648
22.38000 535.127
22.39000 531.633
22.40000 529.550
22.41000 528.385
22.42000 527.321
22.43000 528.726
22.44000 531.185
22.45000 533.289
22.46000 531.240
22.47000 527.996
22.48000 525.109
22.49000 535.762
22.50000 547.230
22.51000 554.096
22.52000 540.966
22.53000 525.514
22.54000 513.892
22.55000 513.339
22.56000 513.485
22.57000 513.583
22.58000 514.067
22.59000 514.432
22.60000 515.027
22.61000 515.917
22.62000 516.818
22.63000 522.086
22.64000 530.974
22.65000 539.742
22.66000 535.365
22.67000 524.106
22.68000 513.367
22.69000 511.944
22.70000 513.960
22.71000 516.358
22.72000 522.354
22.73000 529.237
22.74000 535.219
22.75000 527.655
22.76000 519.373
22.77000 512.329
22.78000 509.889
22.79000 507.885
22.80000 506.675
22.81000 507.451
22.82000 508.322
22.83000 508.870
22.84000 504.556
22.85000 501.377
22.86000 502.036
22.87000 506.916
22.88000 511.765
22.89000 511.897
22.90000 508.695
22.91000 505.561
22.92000 503.512
22.93000 502.039
22.94000 500.654
22.95000 500.493
22.96000 500.722
22.97000 500.492
22.98000 496.706
22.99000 492.171
23.00000 488.336
23.01000 499.145
23.02000 509.813
23.03000 518.373
23.04000 520.192
23.05000 521.506
23.06000 519.159
23.07000 508.926
23.08000 498.426
23.09000 492.207
23.10000 499.588
23.11000 504.881
23.12000 504.813
23.13000 499.770
23.14000 494.871
23.15000 499.735
23.16000 510.522
23.17000 520.970
23.18000 520.223
23.19000 515.196
23.20000 510.277
23.21000 506.530
23.22000 503.104
23.23000 500.356
23.24000 501.973
23.25000 504.369
23.26000 506.336
23.27000 497.424
23.28000 489.135
23.29000 484.918
23.30000 491.928
23.31000 499.587
23.32000 505.308
23.33000 507.425
23.34000 509.462
23.35000 510.586
23.36000 514.960
23.37000 517.953
23.38000 512.675
23.39000 500.883
23.40000 489.317
23.41000 486.904
23.42000 489.274
23.43000 491.542
23.44000 495.558
23.45000 499.871
23.46000 503.558
23.47000 501.711
23.48000 498.567
23.49000 496.134
23.50000 497.557
23.51000 499.558
23.52000 501.147
23.53000 502.862
23.54000 504.252
23.55000 504.852
23.56000 503.570
23.57000 502.207
23.58000 501.994
23.59000 503.619
23.60000 505.268
23.61000 506.109
23.62000 501.152
23.63000 497.835
23.64000 495.658
23.65000 494.248
23.66000 492.901
23.67000 493.282
23.68000 494.441
23.69000 495.535
23.70000 497.533
23.71000 499.615
23.72000 502.251
23.73000 508.911
23.74000 516.376
23.75000 521.678
23.76000 517.032
23.77000 511.147
23.78000 506.642
23.79000 518.678
23.80000 529.081
23.81000 533.683
23.82000 526.363
23.83000 518.685
23.84000 515.535
23.85000 518.593
23.86000 521.687
23.87000 522.874
23.88000 522.384
23.89000 521.887
23.90000 520.942
23.91000 519.737
23.92000 518.862
23.93000 524.519
23.94000 532.718
23.95000 540.324
23.96000 540.164
23.97000 538.196
23.98000 536.063
23.99000 532.919
24.00000 529.604
24.01000 526.791
24.02000 525.956
24.03000 525.322
24.04000 524.857
24.05000 524.417
24.06000 524.079
24.07000 522.890
24.08000 520.194
24.09000 517.470
24.10000 515.867
24.11000 515.573
24.12000 515.281
24.13000 514.941
24.14000 514.566
24.15000 514.229
24.16000 515.253
24.17000 516.956
24.18000 518.322
24.19000 514.625
24.20000 509.227
24.21000 504.314
24.22000 506.396
24.23000 509.618
24.24000 512.754
24.25000 515.445
24.26000 518.073
24.27000 517.819
24.28000 507.834
24.29000 497.054
24.30000 489.484
24.31000 483.848
24.32000 479.638
24.33000 480.818
24.34000 490.211
24.35000 499.690
24.36000 502.858
24.37000 499.800
24.38000 496.763
24.39000 494.353
24.40000 492.375
24.41000 490.401
24.42000 488.516
24.43000 486.669
24.44000 484.910
24.45000 484.189
24.46000 483.770
24.47000 483.396
24.48000 480.387
24.49000 477.337
24.50000 474.643
24.51000 473.504
24.52000 472.548
24.53000 474.537
24.54000 485.094
24.55000 496.198
24.56000 503.615
24.57000 490.616
24.58000 480.585
24.59000 476.095
24.60000 478.825
24.61000 481.580
24.62000 481.045
24.63000 477.765
24.64000 474.528
24.65000 476.033
24.66000 480.039
24.67000 483.640
24.68000 479.911
24.69000 473.459
24.70000 468.057
24.71000 472.623
24.72000 479.662
24.73000 485.784
24.74000 481.842
24.75000 477.106
24.76000 474.210
24.77000 478.202
24.78000 482.850
24.79000 485.374
24.80000 482.569
24.81000 479.507
24.82000 477.573
24.83000 479.050
24.84000 480.160
24.85000 479.395
24.86000 476.552
24.87000 473.736
24.88000 474.916
24.89000 478.941
24.90000 482.882
24.91000 481.820
24.92000 478.517
24.93000 475.088
24.94000 469.911
24.95000 464.174
24.96000 460.137
24.97000 469.340
24.98000 481.348
24.99000 491.517
25.00000 491.520
25.01000 490.388
25.02000 487.095
25.03000 476.851
25.04000 466.081
25.05000 459.392
25.06000 461.549
25.07000 464.011
25.08000 465.473
25.09000 471.662
25.10000 476.070
25.11000 477.427
25.12000 475.934
25.13000 474.372
25.14000 468.027
25.15000 458.763
25.16000 449.786
25.17000 456.587
25.18000 469.153
25.19000 480.027
25.20000 472.306
25.21000 459.464
25.22000 448.494
25.23000 449.667
25.24000 453.022
25.25000 455.779
25.26000 462.037
25.27000 467.493
25.28000 470.427
25.29000 466.360
25.30000 461.883
25.31000 457.407
25.32000 452.933
25.33000 448.459
25.34000 445.980
25.35000 460.267
25.36000 470.148
25.37000 475.902
25.38000 478.387
25.39000 480.681
25.40000 475.054
25.41000 465.266
25.42000 455.896
25.43000 450.660
25.44000 447.144
25.45000 444.231
25.46000 446.678
25.47000 450.390
25.48000 453.978
25.49000 456.893
25.50000 459.706
25.51000 461.942
25.52000 455.711
25.53000 450.086
25.54000 448.381
25.55000 456.064
25.56000 464.156
25.57000 466.235
25.58000 458.639
25.59000 450.912
25.60000 446.956
25.61000 448.417
25.62000 449.422
25.63000 452.986
25.64000 458.282
25.65000 463.523
25.66000 467.200
25.67000 470.169
25.68000 472.971
25.69000 465.327
25.70000 455.395
25.71000 447.113
25.72000 450.931
25.73000 457.184
25.74000 462.108
25.75000 460.880
25.76000 458.880
25.77000 457.347
25.78000 459.288
25.79000 461.012
25.80000 462.068
25.81000 461.741
25.82000 461.372
25.83000 458.179
25.84000 451.089
25.85000 443.979
25.86000 443.634
25.87000 449.271
25.88000 454.827
25.89000 455.723
25.90000 453.909
25.91000 452.272
25.92000 454.189
25.93000 457.499
25.94000 460.571
25.95000 456.453
25.96000 451.041
25.97000 446.910
25.98000 450.628
25.99000 455.682
26.00000 459.911
26.01000 460.878
26.02000 461.510
26.03000 461.975
26.04000 459.211
26.05000 456.938
26.06000 454.180
26.07000 450.557
26.08000 446.917
26.09000 448.086
26.10000 454.906
26.11000 461.716
26.12000 464.205
26.13000 463.443
26.14000 462.603
26.15000 458.934
26.16000 453.847
26.17000 449.107
26.18000 449.626
26.19000 451.922
26.20000 454.013
26.21000 447.779
26.22000 440.603
26.23000 435.301
26.24000 439.689
26.25000 445.458
26.26000 451.151
26.27000 456.589
26.28000 462.005
26.29000 465.816
26.30000 454.763
26.31000 445.947
26.32000 441.163
26.33000 442.559
26.34000 444.023
26.35000 447.072
26.36000 451.694
26.37000 456.284
26.38000 452.081
26.39000 442.361
26.40000 432.964
26.41000 431.597
26.42000 433.706
26.43000 435.642
26.44000 435.527
26.45000 434.815
26.46000 434.180
26.47000 433.096
26.48000 432.079
26.49000 431.508
26.50000 432.895
26.51000 434.513
26.52000 437.704
26.53000 445.498
26.54000 453.588
26.55000 459.003
26.56000 451.616
26.57000 445.883
26.58000 443.233
26.59000 444.628
26.60000 446.025
26.61000 438.726
26.62000 424.124
26.63000 409.710
26.64000 410.064
26.65000 418.380
26.66000 426.653
26.67000 434.140
26.68000 441.335
26.69000 448.198
26.70000 451.890
26.71000 454.790
26.72000 457.314
26.73000 454.420
26.74000 451.203
26.75000 448.889
26.76000 449.973
26.77000 451.384
26.78000 452.546
26.79000 453.079
26.80000 453.582
26.81000 453.901
26.82000 451.555
26.83000 449.822
26.84000 444.928
26.85000 436.513
26.86000 428.151
26.87000 428.297
26.88000 434.535
26.89000 440.644
26.90000 444.643
26.91000 447.517
26.92000 450.057
26.93000 447.919
26.94000 444.273
26.95000 441.747
26.96000 448.003
26.97000 456.133
26.98000 463.026
26.99000 450.738
27.00000 438.280
27.01000 428.460
27.02000 427.181
27.03000 426.555
27.04000 425.213
27.05000 422.310
27.06000 419.351
27.07000 417.590
27.08000 430.231
27.09000 439.272
27.10000 438.708
27.11000 429.111
27.12000 419.621
27.13000 417.749
27.14000 420.555
27.15000 423.275
27.16000 427.424
27.17000 431.912
27.18000 436.224
27.19000 438.595
27.20000 440.427
27.21000 441.818
27.22000 440.328
27.23000 438.318
27.24000 436.664
27.25000 435.171
27.26000 433.959
27.27000 433.033
27.28000 432.906
27.29000 432.826
27.30000 433.483
27.31000 435.529
27.32000 437.607
27.33000 438.761
27.34000 439.379
27.35000 439.796
27.36000 437.001
27.37000 431.646
27.38000 426.523
27.39000 431.204
27.40000 441.069
27.41000 450.518
27.42000 449.869
27.43000 445.909
27.44000 442.196
27.45000 440.697
27.46000 439.723
27.47000 438.271
27.48000 434.198
27.49000 429.725
27.50000 426.164
27.51000 436.624
27.52000 446.070
27.53000 450.372
27.54000 442.282
27.55000 433.645
27.56000 427.994
27.57000 427.176
27.58000 426.425
27.59000 426.039
27.60000 427.816
27.61000 429.002
27.62000 428.922
27.63000 427.979
27.64000 427.044
27.65000 426.322
27.66000 425.697
27.67000 425.107
27.68000 432.676
27.69000 441.918
27.70000 449.246
27.71000 442.419
27.72000 432.725
27.73000 425.484
27.74000 429.676
27.75000 435.314
27.76000 439.643
27.77000 429.521
27.78000 420.712
27.79000 419.117
27.80000 432.524
27.81000 446.396
27.82000 451.220
27.83000 443.487
27.84000 435.676
27.85000 429.383
27.86000 424.449
27.87000 419.617
27.88000 420.854
27.89000 425.643
27.90000 430.240
27.91000 430.945
27.92000 430.118
27.93000 429.349
27.94000 426.442
27.95000 423.310
27.96000 420.490
27.97000 419.594
27.98000 419.027
27.99000 417.656
28.00000 413.078
28.01000 408.168
28.02000 404.547
28.03000 409.477
28.04000 413.654
28.05000 416.421
28.06000 416.663
28.07000 416.855
28.08000 418.356
28.09000 421.405
28.10000 424.450
28.11000 426.254
28.12000 427.111
28.13000 427.853
28.14000 424.340
28.15000 418.682
28.16000 413.594
28.17000 417.247
28.18000 423.872
28.19000 429.911
28.20000 427.393
28.21000 423.448
28.22000 420.552
28.23000 423.112
28.24000 426.457
28.25000 428.194
28.26000 424.435
28.27000 420.219
28.28000 417.246
28.29000 422.102
28.30000 426.020
28.31000 429.990
28.32000 434.040
28.33000 438.090
28.34000 438.093
28.35000 434.049
28.36000 430.032
28.37000 424.841
28.38000 418.979
28.39000 413.362
28.40000 413.921
28.41000 417.168
28.42000 419.835
28.43000 415.538
28.44000 409.203
28.45000 403.548
28.46000 403.079
28.47000 403.538
28.48000 404.897
28.49000 410.247
28.50000 416.071
28.51000 419.979
28.52000 418.251
28.53000 416.154
28.54000 414.748
28.55000 416.651
28.56000 418.130
28.57000 417.045
28.58000 412.575
28.59000 408.097
28.60000 407.647
28.61000 410.602
28.62000 413.521
28.63000 415.828
28.64000 417.743
28.65000 419.415
28.66000 416.597
28.67000 412.091
28.68000 407.903
28.69000 406.786
28.70000 406.440
28.71000 406.138
28.72000 407.112
28.73000 408.122
28.74000 409.262
28.75000 410.900
28.76000 412.585
28.77000 410.935
28.78000 400.814
28.79000 390.274
28.80000 383.584
28.81000 391.701
28.82000 397.776
28.83000 402.290
28.84000 405.052
28.85000 407.802
28.86000 408.955
28.87000 408.958
28.88000 408.961
28.89000 409.547
28.90000 410.381
28.91000 411.377
28.92000 414.668
28.93000 418.703
28.94000 422.240
28.95000 421.837
28.96000 420.588
28.97000 419.529
28.98000 417.175
28.99000 415.054
29.00000 413.437
29.01000 413.459
29.02000 413.607
29.03000 414.261
29.04000 416.026
29.05000 417.829
29.06000 418.906
29.07000 408.698
29.08000 401.390
29.09000 397.571
29.10000 397.056
29.11000 396.602
29.12000 400.583
29.13000 407.305
29.14000 413.824
29.15000 415.619
29.16000 415.461
29.17000 414.563
29.18000 405.398
29.19000 393.928
29.20000 384.172
29.21000 385.690
29.22000 389.262
29.23000 392.205
29.24000 400.489
29.25000 407.796
29.26000 413.502
29.27000 414.714
29.28000 415.657
29.29000 414.543
29.30000 409.533
29.31000 404.432
29.32000 401.589
29.33000 398.678
29.34000 396.672
29.35000 396.936
29.36000 399.025
29.37000 401.140
29.38000 404.395
29.39000 408.255
29.40000 411.954
29.41000 412.484
29.42000 411.919
29.43000 410.710
29.44000 403.679
29.45000 395.257
29.46000 389.092
29.47000 395.410
29.48000 403.642
29.49000 410.205
29.50000 404.433
29.51000 398.877
29.52000 396.256
29.53000 400.749
29.54000 405.559
29.55000 407.650
29.56000 405.313
29.57000 402.914
29.58000 401.677
29.59000 399.630
29.60000 398.256
29.61000 397.371
29.62000 396.824
29.63000 396.276
29.64000 395.718
29.65000 395.156
29.66000 394.626
29.67000 395.602
29.68000 396.925
29.69000 397.857
29.70000 395.873
29.71000 393.296
29.72000 392.146
29.73000 397.689
29.74000 404.085
29.75000 409.004
29.76000 410.535
29.77000 411.555
29.78000 410.543
29.79000 405.279
29.80000 399.880
29.81000 397.225
29.82000 398.402
29.83000 399.604
29.84000 399.859
29.85000 399.264
29.86000 398.703
29.87000 400.194
29.88000 402.893
29.89000 405.568
29.90000 407.731
29.91000 409.692
29.92000 411.515
29.93000 411.201
29.94000 410.404
29.95000 409.760
29.96000 410.062
29.97000 410.527
29.98000 411.518
29.99000 414.615
30.00000 417.932
30.01000 420.382
30.02000 414.557
30.03000 409.691
30.04000 409.379
30.05000 417.284
30.06000 425.356
30.07000 427.863
30.08000 423.745
30.09000 419.624
30.10000 418.054
30.11000 418.427
30.12000 418.829
30.13000 420.336
30.14000 422.402
30.15000 424.297
30.16000 423.541
30.17000 421.877
30.18000 420.360
30.19000 409.159
30.20000 397.273
30.21000 388.323
30.22000 394.767
30.23000 403.439
30.24000 408.486
30.25000 401.072
30.26000 392.611
30.27000 386.635
30.28000 388.285
30.29000 389.770
30.30000 392.757
30.31000 398.072
30.32000 403.414
30.33000 407.925
30.34000 411.600
30.35000 415.251
30.36000 411.045
30.37000 401.848
30.38000 393.078
30.39000 395.223
30.40000 402.146
30.41000 408.121
30.42000 402.588
30.43000 393.665
30.44000 385.695
30.45000 393.422
30.46000 402.798
30.47000 408.951
30.48000 400.739
30.49000 390.806
30.50000 384.452
30.51000 388.699
30.52000 393.643
30.53000 396.967
30.54000 399.118
30.55000 400.692
30.56000 398.792
30.57000 392.275
30.58000 385.750
30.59000 388.372
30.60000 398.781
30.61000 409.060
30.62000 409.535
30.63000 404.636
30.64000 400.199
30.65000 404.394
30.66000 411.853
30.67000 418.852
30.68000 421.376
30.69000 422.768
30.70000 423.983
30.71000 426.280
30.72000 428.395
30.73000 429.041
30.74000 424.085
30.75000 418.582
30.76000 415.341
30.77000 417.883
30.78000 420.712
30.79000 422.513
30.80000 421.717
30.81000 421.106
30.82000 422.760
30.83000 426.972
30.84000 431.161
30.85000 431.398
30.86000 428.769
30.87000 426.192
30.88000 429.957
30.89000 436.529
30.90000 443.012
30.91000 448.230
30.92000 453.034
30.93000 458.333
30.94000 467.578
30.95000 477.674
30.96000 486.252
30.97000 488.630
30.98000 489.916
30.99000 492.468
31.00000 499.173
31.01000 506.201
31.02000 517.389
31.03000 537.754
31.04000 558.449
31.05000 570.835
31.06000 573.898
31.07000 576.012
31.08000 584.636
31.09000 599.466
31.10000 614.413
31.11000 638.087
31.12000 667.187
31.13000 695.422
31.14000 727.566
31.15000 759.594
31.16000 792.683
31.17000 837.727
31.18000 886.126
31.19000 934.994
31.20000 986.972
31.21000 1039.519
31.22000 1082.871
31.23000 1142.711
31.24000 1193.515
31.25000 1253.338
31.26000 1338.633
31.27000 1425.469
31.28000 1505.305
31.29000 1571.817
31.30000 1638.007
31.31000 1674.994
31.32000 1739.904
31.33000 1784.912
31.34000 1828.653
31.35000 1871.369
31.36000 1913.613
31.37000 1935.212
31.38000 1945.765
31.39000 1955.882
31.40000 1955.478
31.41000 1951.559
31.42000 1945.198
31.43000 1916.582
31.44000 1882.610
31.45000 1847.735
31.46000 1807.831
31.47000 1767.152
31.48000 1734.671
31.49000 1649.250
31.50000 1576.370
31.51000 1508.217
31.52000 1451.588
31.53000 1395.480
31.54000 1329.239
31.55000 1246.391
31.56000 1163.304
31.57000 1120.329
31.58000 1046.335
31.59000 996.411
31.60000 943.560
31.61000 888.687
31.62000 834.121
31.63000 788.481
31.64000 746.960
31.65000 707.704
31.66000 681.973
31.67000 662.195
31.68000 641.409
31.69000 613.054
31.70000 583.147
31.71000 555.611
31.72000 539.270
31.73000 524.368
31.74000 512.892
31.75000 498.550
31.76000 487.032
31.77000 479.746
31.78000 481.369
31.79000 483.276
31.80000 476.596
31.81000 457.845
31.82000 439.017
31.83000 428.684
31.84000 426.030
31.85000 423.399
31.86000 422.288
31.87000 422.077
31.88000 422.029
31.89000 425.391
31.90000 430.112
31.91000 434.504
31.92000 427.285
31.93000 417.961
31.94000 408.400
31.95000 397.352
31.96000 386.045
31.97000 379.196
31.98000 390.320
31.99000 403.336
32.00000 412.966
32.01000 409.681
32.02000 406.577
32.03000 403.563
32.04000 400.712
32.05000 397.864
32.06000 396.145
32.07000 395.779
32.08000 395.417
32.09000 393.018
32.10000 389.081
32.11000 385.284
32.12000 386.865
32.13000 391.188
32.14000 395.185
32.15000 394.052
32.16000 391.155
32.17000 388.510
32.18000 387.626
32.19000 387.199
32.20000 386.992
32.21000 387.943
32.22000 389.062
32.23000 387.797
32.24000 378.283
32.25000 368.069
32.26000 360.842
32.27000 381.461
32.28000 397.989
32.29000 403.946
32.30000 393.400
32.31000 382.660
32.32000 376.519
32.33000 375.045
32.34000 373.580
32.35000 375.748
32.36000 380.238
32.37000 384.439
32.38000 381.171
32.39000 374.614
32.40000 368.563
32.41000 368.709
32.42000 370.691
32.43000 372.464
32.44000 372.435
32.45000 372.103
32.46000 372.230
32.47000 374.411
32.48000 376.840
32.49000 378.989
32.50000 380.301
32.51000 381.559
32.52000 382.405
32.53000 377.843
32.54000 374.337
32.55000 371.615
32.56000 369.942
32.57000 368.274
32.58000 365.708
32.59000 362.373
32.60000 359.079
32.61000 361.856
32.62000 367.905
32.63000 373.531
32.64000 371.167
32.65000 365.764
32.66000 360.589
32.67000 357.650
32.68000 355.280
32.69000 353.210
32.70000 359.068
32.71000 365.197
32.72000 368.155
32.73000 358.946
32.74000 348.538
32.75000 342.115
32.76000 345.933
32.77000 350.268
32.78000 353.034
32.79000 347.282
32.80000 342.990
32.81000 343.378
32.82000 349.090
32.83000 354.783
32.84000 356.383
32.85000 354.995
32.86000 353.635
32.87000 349.991
32.88000 345.414
32.89000 341.435
32.90000 346.083
32.91000 353.561
32.92000 360.119
32.93000 359.289
32.94000 356.852
32.95000 354.779
32.96000 347.823
32.97000 341.417
32.98000 337.721
32.99000 342.957
33.00000 348.896
33.01000 352.625
33.02000 351.451
33.03000 350.098
33.04000 349.286
33.05000 348.691
33.06000 348.269
33.07000 346.813
33.08000 344.363
33.09000 342.012
33.10000 347.322
33.11000 357.422
33.12000 367.227
33.13000 358.508
33.14000 342.850
33.15000 328.620
33.16000 330.645
33.17000 337.259
33.18000 343.228
33.19000 344.891
33.20000 345.759
33.21000 346.475
33.22000 347.791
33.23000 348.932
33.24000 348.504
33.25000 343.619
33.26000 338.462
33.27000 336.246
33.28000 339.663
33.29000 343.218
33.30000 345.210
33.31000 341.167
33.32000 338.349
33.33000 334.775
33.34000 330.588
33.35000 326.614
33.36000 332.168
33.37000 342.850
33.38000 353.097
33.39000 350.425
33.40000 343.550
33.41000 337.301
33.42000 336.813
33.43000 337.719
33.44000 338.706
33.45000 340.147
33.46000 341.658
33.47000 342.866
33.48000 340.330
33.49000 338.001
33.50000 336.062
33.51000 335.079
33.52000 334.140
33.53000 333.992
33.54000 335.151
33.55000 336.328
33.56000 336.939
33.57000 346.744
33.58000 353.320
33.59000 354.287
33.60000 351.360
33.61000 348.524
33.62000 348.387
33.63000 349.503
33.64000 350.558
33.65000 347.425
33.66000 343.341
33.67000 340.098
33.68000 343.222
33.69000 347.661
33.70000 351.189
33.71000 350.387
33.72000 349.024
33.73000 347.973
33.74000 342.745
33.75000 338.362
33.76000 335.841
33.77000 337.263
33.78000 338.813
33.79000 338.632
33.80000 336.003
33.81000 333.357
33.82000 332.660
33.83000 333.732
33.84000 334.839
33.85000 338.081
33.86000 342.596
33.87000 346.948
33.88000 347.854
33.89000 347.378
33.90000 346.935
33.91000 345.224
33.92000 343.369
33.93000 341.602
33.94000 340.386
33.95000 339.266
33.96000 339.277
33.97000 343.870
33.98000 348.950
33.99000 352.714
34.00000 349.507
34.01000 346.714
34.02000 343.883
34.03000 340.983
34.04000 338.083
34.05000 337.901
34.06000 341.000
34.07000 344.100
34.08000 346.414
34.09000 348.111
34.10000 349.779
34.11000 350.301
34.12000 350.236
34.13000 349.840
34.14000 344.207
34.15000 336.762
34.16000 329.958
34.17000 337.999
34.18000 348.177
34.19000 356.369
34.20000 354.008
34.21000 350.099
34.22000 347.617
34.23000 350.105
34.24000 353.018
34.25000 355.084
34.26000 347.410
34.27000 341.269
34.28000 341.690
34.29000 352.418
34.30000 363.271
34.31000 365.086
34.32000 357.671
34.33000 350.301
34.34000 348.531
34.35000 350.435
34.36000 352.260
34.37000 352.021
34.38000 350.868
34.39000 349.909
34.40000 351.339
34.41000 353.482
34.42000 355.399
34.43000 351.667
34.44000 347.445
34.45000 344.682
34.46000 348.504
34.47000 353.128
34.48000 355.515
34.49000 351.196
34.50000 346.426
34.51000 343.205
34.52000 335.205
34.53000 329.148
34.54000 329.029
34.55000 336.897
34.56000 344.799
34.57000 345.486
34.58000 339.950
34.59000 334.479
34.60000 336.996
34.61000 343.877
34.62000 350.421
34.63000 350.525
34.64000 348.165
34.65000 345.633
34.66000 341.395
34.67000 336.720
34.68000 332.634
34.69000 337.783
34.70000 343.503
34.71000 347.339
34.72000 343.899
34.73000 339.737
34.74000 334.848
34.75000 328.080
34.76000 321.216
34.77000 316.828
34.78000 329.301
34.79000 338.602
34.80000 339.506
34.81000 330.795
34.82000 322.114
34.83000 320.657
34.84000 324.505
34.85000 328.279
34.86000 329.023
34.87000 328.310
34.88000 327.528
34.89000 325.727
34.90000 323.590
34.91000 321.515
34.92000 319.941
34.93000 318.478
34.94000 317.231
34.95000 319.311
34.96000 321.446
34.97000 323.564
34.98000 325.621
34.99000 327.674
35.00000 327.923
35.01000 324.147
35.02000 320.222
35.03000 317.860
35.04000 319.612
35.05000 320.886
35.06000 318.304
35.07000 311.995
35.08000 305.779
35.09000 306.937
35.10000 312.734
35.11000 318.364
35.12000 318.643
35.13000 316.761
35.14000 315.136
35.15000 316.467
35.16000 318.637
35.17000 319.766
35.18000 313.892
35.19000 306.716
35.20000 300.781
35.21000 310.330
35.22000 319.665
35.23000 324.918
35.24000 318.504
35.25000 311.368
35.26000 309.402
35.27000 317.394
35.28000 325.636
35.29000 330.268
35.30000 318.615
35.31000 310.499
35.32000 306.842
35.33000 306.837
35.34000 306.762
35.35000 303.503
35.36000 298.519
35.37000 293.735
35.38000 294.116
35.39000 296.234
35.40000 298.417
35.41000 301.200
35.42000 304.130
35.43000 306.159
35.44000 303.107
35.45000 299.259
35.46000 296.179
35.47000 300.092
35.48000 303.781
35.49000 305.449
35.50000 302.126
35.51000 298.572
35.52000 295.913
35.53000 294.738
35.54000 293.586
35.55000 292.986
35.56000 299.366
35.57000 303.665
35.58000 306.123
35.59000 307.296
35.60000 308.334
35.61000 305.329
35.62000 300.436
35.63000 295.804
35.64000 297.609
35.65000 301.133
35.66000 304.285
35.67000 304.595
35.68000 304.315
35.69000 302.682
35.70000 294.579
35.71000 285.632
35.72000 278.722
35.73000 287.110
35.74000 294.654
35.75000 299.508
35.76000 298.635
35.77000 297.572
35.78000 298.096
35.79000 300.879
35.80000 303.678
35.81000 299.815
35.82000 289.860
35.83000 280.063
35.84000 280.487
35.85000 287.041
35.86000 293.178
35.87000 290.441
35.88000 284.124
35.89000 278.240
35.90000 277.370
35.91000 277.811
35.92000 279.029
35.93000 285.184
35.94000 292.208
35.95000 298.603
35.96000 302.430
35.97000 305.981
35.98000 308.617
35.99000 300.558
36.00000 293.825
36.01000 291.138
36.02000 295.886
36.03000 300.794
36.04000 301.541
36.05000 297.232
36.06000 292.921
36.07000 292.547
36.08000 295.221
36.09000 297.846
36.10000 298.574
36.11000 298.322
36.12000 298.058
36.13000 297.591
36.14000 297.054
36.15000 296.563
36.16000 293.050
36.17000 289.306
36.18000 286.202
36.19000 286.518
36.20000 287.341
36.21000 290.444
36.22000 301.532
36.23000 313.310
36.24000 321.677
36.25000 313.825
36.26000 307.332
36.27000 303.167
36.28000 302.681
36.29000 302.241
36.30000 297.348
36.31000 287.876
36.32000 278.461
36.33000 279.974
36.34000 288.635
36.35000 297.082
36.36000 299.802
36.37000 299.970
36.38000 300.094
36.39000 299.681
36.40000 299.107
36.41000 298.593
36.42000 297.840
36.43000 297.140
36.44000 296.618
36.45000 296.903
36.46000 297.287
36.47000 298.749
36.48000 303.462
36.49000 308.396
36.50000 311.734
36.51000 311.563
36.52000 311.360
36.53000 307.610
36.54000 299.059
36.55000 290.488
36.56000 287.375
36.57000 289.001
36.58000 290.609
36.59000 288.298
36.60000 283.859
36.61000 279.741
36.62000 281.857
36.63000 286.372
36.64000 290.731
36.65000 293.535
36.66000 295.938
36.67000 298.041
36.68000 292.876
36.69000 287.409
36.70000 282.549
36.71000 280.044
36.72000 277.775
36.73000 279.387
36.74000 291.095
36.75000 303.324
36.76000 311.161
36.77000 298.133
36.78000 288.360
36.79000 285.377
36.80000 290.222
36.81000 295.055
36.82000 296.021
36.83000 294.129
36.84000 292.272
36.85000 295.365
36.86000 300.692
36.87000 305.627
36.88000 304.764
36.89000 301.977
36.90000 298.832
36.91000 292.768
36.92000 286.062
36.93000 280.344
36.94000 283.515
36.95000 287.225
36.96000 289.333
36.97000 286.093
36.98000 282.424
36.99000 282.403
37.00000 290.574
37.01000 299.053
37.02000 304.168
37.03000 301.069
37.04000 298.806
37.05000 300.176
37.06000 305.082
37.07000 309.903
37.08000 307.905
37.09000 301.588
37.10000 295.451
37.11000 294.538
37.12000 295.782
37.13000 297.285
37.14000 301.792
37.15000 307.159
37.16000 310.957
37.17000 304.141
37.18000 295.338
37.19000 288.048
37.20000 286.451
37.21000 285.674
37.22000 286.810
37.23000 293.450
37.24000 300.433
37.25000 302.389
37.26000 294.600
37.27000 286.563
37.28000 282.033
37.29000 283.042
37.30000 283.758
37.31000 284.867
37.32000 286.301
37.33000 287.872
37.34000 295.832
37.35000 307.272
37.36000 318.258
37.37000 311.032
37.38000 298.018
37.39000 286.440
37.40000 288.280
37.41000 293.410
37.42000 299.226
37.43000 308.937
37.44000 319.263
37.45000 327.541
37.46000 316.972
37.47000 306.989
37.48000 299.021
37.49000 296.052
37.50000 293.319
37.51000 290.112
37.52000 286.117
37.53000 282.110
37.54000 280.017
37.55000 282.818
37.56000 284.736
37.57000 289.567
37.58000 296.446
37.59000 303.054
37.60000 301.460
37.61000 296.011
37.62000 290.850
37.63000 289.858
37.64000 290.160
37.65000 290.315
37.66000 289.355
37.67000 288.160
37.68000 286.643
37.69000 283.570
37.70000 280.293
37.71000 277.757
37.72000 280.063
37.73000 282.178
37.74000 283.529
37.75000 283.244
37.76000 282.903
37.77000 284.303
37.78000 288.195
37.79000 292.106
37.80000 291.119
37.81000 285.618
37.82000 280.171
37.83000 278.252
37.84000 278.460
37.85000 278.875
37.86000 283.749
37.87000 290.431
37.88000 296.660
37.89000 291.627
37.90000 284.297
37.91000 277.375
37.92000 273.070
37.93000 269.229
37.94000 267.780
37.95000 276.159
37.96000 285.600
37.97000 292.620
37.98000 288.806
37.99000 285.358
38.00000 283.985
38.01000 286.449
38.02000 288.997
38.03000 289.243
38.04000 286.676
38.05000 284.107
38.06000 282.807
38.07000 282.503
38.08000 282.298
38.09000 286.060
38.10000 291.883
38.11000 297.247
38.12000 295.160
38.13000 290.465
38.14000 286.168
38.15000 286.097
38.16000 286.909
38.17000 288.853
38.18000 296.891
38.19000 305.835
38.20000 311.188
38.21000 303.884
38.22000 295.478
38.23000 289.496
38.24000 287.302
38.25000 285.754
38.26000 285.731
38.27000 288.132
38.28000 290.565
38.29000 295.071
38.30000 301.724
38.31000 308.339
38.32000 311.181
38.33000 311.493
38.34000 311.854
38.35000 313.548
38.36000 315.839
38.37000 318.796
38.38000 330.146
38.39000 344.029
38.40000 356.476
38.41000 362.319
38.42000 366.279
38.43000 371.585
38.44000 383.051
38.45000 395.277
38.46000 407.716
38.47000 420.799
38.48000 433.926
38.49000 442.824
38.50000 461.810
38.51000 476.188
38.52000 493.779
38.53000 515.748
38.54000 537.749
38.55000 566.982
38.56000 602.535
38.57000 637.686
38.58000 669.221
38.59000 697.977
38.60000 726.322
38.61000 746.624
38.62000 763.812
38.63000 783.286
38.64000 825.785
38.65000 874.254
38.66000 916.710
38.67000 949.903
38.68000 977.042
38.69000 1002.382
38.70000 1020.685
38.71000 1038.276
38.72000 1052.809
38.73000 1059.338
38.74000 1065.448
38.75000 1069.373
38.76000 1052.411
38.77000 1039.754
38.78000 1035.279
38.79000 1040.298
38.80000 1045.252
38.81000 1035.318
38.82000 1014.308
38.83000 993.693
38.84000 956.464
38.85000 912.639
38.86000 869.714
38.87000 840.182
38.88000 815.124
38.89000 789.036
38.90000 754.487
38.91000 718.062
38.92000 686.975
38.93000 652.827
38.94000 623.715
38.95000 593.888
38.96000 561.664
38.97000 529.245
38.98000 500.881
38.99000 481.678
39.00000 462.823
39.01000 451.421
39.02000 427.437
39.03000 410.255
39.04000 394.131
39.05000 379.044
39.06000 363.987
39.07000 351.365
39.08000 340.295
39.09000 329.536
39.10000 322.629
39.11000 317.630
39.12000 312.676
39.13000 308.250
39.14000 303.975
39.15000 300.182
39.16000 299.668
39.17000 299.772
39.18000 299.858
39.19000 299.105
39.20000 298.402
39.21000 296.452
39.22000 290.893
39.23000 285.107
39.24000 281.594
39.25000 282.512
39.26000 283.545
39.27000 284.129
39.28000 283.763
39.29000 283.504
39.30000 282.636
39.31000 281.263
39.32000 279.894
39.33000 278.703
39.34000 277.610
39.35000 276.559
39.36000 275.499
39.37000 274.503
39.38000 273.266
39.39000 269.767
39.40000 265.710
39.41000 262.962
39.42000 267.701
39.43000 273.630
39.44000 278.390
39.45000 279.424
39.46000 279.977
39.47000 280.585
39.48000 281.330
39.49000 282.082
39.50000 280.449
39.51000 274.811
39.52000 269.110
39.53000 266.121
39.54000 276.960
39.55000 284.230
39.56000 280.971
39.57000 270.261
39.58000 259.946
39.59000 261.819
39.60000 269.453
39.61000 276.688
39.62000 273.921
39.63000 268.439
39.64000 263.278
39.65000 260.602
39.66000 258.449
39.67000 257.107
39.68000 259.687
39.69000 262.786
39.70000 265.188
39.71000 259.279
39.72000 254.090
39.73000 250.343
39.74000 249.702
39.75000 249.167
39.76000 251.260
39.77000 257.139
39.78000 263.048
39.79000 263.349
39.80000 258.447
39.81000 253.577
39.82000 250.829
39.83000 249.370
39.84000 248.329
39.85000 256.447
39.86000 268.303
39.87000 279.363
39.88000 284.661
39.89000 288.030
39.90000 289.495
39.91000 278.693
39.92000 265.702
39.93000 254.945
39.94000 253.427
39.95000 252.915
39.96000 252.533
39.97000 253.340
39.98000 254.021
39.99000 254.657
40.00000 255.209
40.01000 255.760
40.02000 260.163
40.03000 269.306
40.04000 278.444
40.05000 279.643
40.06000 274.612
40.07000 269.611
40.08000 265.847
40.09000 262.728
40.10000 259.639
40.11000 257.027
40.12000 254.584
40.13000 252.346
40.14000 250.914
40.15000 249.808
40.16000 249.642
40.17000 254.577
40.18000 260.278
40.19000 264.626
40.20000 264.182
40.21000 263.316
40.22000 262.698
40.23000 262.050
40.24000 261.555
40.25000 258.994
40.26000 253.127
40.27000 247.216
40.28000 244.919
40.29000 246.390
40.30000 247.852
40.31000 248.623
40.32000 248.924
40.33000 249.115
40.34000 246.301
40.35000 242.131
40.36000 238.447
40.37000 240.957
40.38000 245.347
40.39000 249.287
40.40000 251.640
40.41000 253.420
40.42000 254.418
40.43000 251.814
40.44000 248.762
40.45000 246.906
40.46000 248.698
40.47000 250.742
40.48000 252.132
40.49000 254.293
40.50000 255.923
40.51000 254.024
40.52000 247.284
40.53000 240.524
40.54000 242.106
40.55000 251.028
40.56000 259.853
40.57000 256.356
40.58000 245.981
40.59000 236.057
40.60000 235.095
40.61000 237.621
40.62000 239.799
40.63000 238.431
40.64000 236.139
40.65000 234.130
40.66000 233.607
40.67000 233.374
40.68000 233.397
40.69000 234.429
40.70000 235.564
40.71000 236.108
40.72000 235.096
40.73000 234.003
40.74000 233.299
40.75000 241.138
40.76000 246.980
40.77000 250.157
40.78000 250.223
40.79000 250.264
40.80000 246.510
40.81000 239.914
40.82000 233.440
40.83000 235.846
40.84000 242.436
40.85000 248.743
40.86000 250.783
40.87000 251.388
40.88000 251.685
40.89000 249.422
40.90000 246.587
40.91000 244.166
40.92000 247.804
40.93000 251.593
40.94000 253.035
40.95000 246.552
40.96000 239.421
40.97000 236.556
40.98000 243.387
40.99000 250.593
41.00000 254.962
41.01000 248.890
41.02000 244.481
41.03000 239.835
41.04000 234.953
41.05000 230.111
41.06000 228.649
41.07000 229.353
41.08000 230.038
41.09000 229.746
41.10000 229.068
41.11000 228.520
41.12000 229.511
41.13000 230.947
41.14000 232.539
41.15000 235.203
41.16000 238.070
41.17000 240.451
41.18000 236.554
41.19000 232.725
41.20000 231.005
41.21000 235.419
41.22000 240.226
41.23000 243.869
41.24000 245.232
41.25000 246.535
41.26000 247.273
41.27000 237.600
41.28000 230.846
41.29000 229.000
41.30000 231.251
41.31000 233.443
41.32000 232.812
41.33000 230.625
41.34000 228.522
41.35000 229.011
41.36000 230.370
41.37000 232.147
41.38000 237.891
41.39000 244.619
41.40000 249.736
41.41000 245.566
41.42000 239.910
41.43000 235.364
41.44000 230.054
41.45000 225.690
41.46000 225.243
41.47000 234.635
41.48000 244.501
41.49000 249.660
41.50000 246.865
41.51000 243.942
41.52000 242.406
41.53000 233.470
41.54000 227.449
41.55000 227.197
41.56000 231.055
41.57000 234.863
41.58000 237.158
41.59000 238.733
41.60000 240.227
41.61000 241.644
41.62000 242.928
41.63000 244.102
41.64000 244.415
41.65000 244.545
41.66000 244.105
41.67000 240.879
41.68000 237.281
41.69000 234.490
41.70000 238.853
41.71000 242.753
41.72000 244.698
41.73000 242.407
41.74000 239.971
41.75000 235.174
41.76000 226.954
41.77000 218.707
41.78000 219.289
41.79000 228.119
41.80000 236.922
41.81000 243.819
41.82000 249.552
41.83000 254.929
41.84000 252.429
41.85000 246.695
41.86000 241.343
41.87000 238.161
41.88000 235.820
41.89000 234.150
41.90000 236.829
41.91000 240.291
41.92000 243.086
41.93000 243.108
41.94000 242.824
41.95000 242.612
41.96000 241.538
41.97000 240.662
41.98000 239.407
41.99000 237.447
42.00000 235.470
42.01000 236.019
42.02000 239.695
42.03000 243.373
42.04000 240.037
42.05000 231.182
42.06000 222.558
42.07000 223.527
42.08000 229.539
42.09000 235.190
42.10000 234.863
42.11000 232.419
42.12000 230.178
42.13000 234.975
42.14000 240.730
42.15000 245.052
42.16000 241.559
42.17000 236.886
42.18000 232.796
42.19000 230.787
42.20000 228.963
42.21000 227.660
42.22000 235.560
42.23000 241.893
42.24000 244.362
42.25000 240.613
42.26000 236.780
42.27000 233.236
42.28000 229.996
42.29000 226.773
42.30000 224.688
42.31000 223.391
42.32000 222.215
42.33000 224.436
42.34000 228.198
42.35000 231.773
42.36000 232.947
42.37000 233.388
42.38000 233.784
42.39000 230.324
42.40000 226.616
42.41000 224.477
42.42000 229.602
42.43000 235.639
42.44000 239.527
42.45000 236.816
42.46000 233.643
42.47000 231.483
42.48000 234.808
42.49000 237.417
42.50000 239.085
42.51000 239.453
42.52000 239.813
42.53000 239.803
42.54000 239.465
42.55000 239.131
42.56000 237.874
42.57000 236.122
42.58000 234.358
42.59000 232.354
42.60000 230.256
42.61000 228.774
42.62000 233.613
42.63000 240.110
42.64000 245.813
42.65000 244.823
42.66000 242.994
42.67000 241.244
42.68000 239.807
42.69000 238.403
42.70000 238.270
42.71000 241.500
42.72000 244.911
42.73000 247.112
42.74000 244.259
42.75000 242.103
42.76000 238.783
42.77000 234.096
42.78000 229.421
42.79000 227.623
42.80000 227.993
42.81000 228.357
42.82000 227.958
42.83000 227.205
42.84000 226.417
42.85000 225.112
42.86000 223.632
42.87000 222.146
42.88000 220.609
42.89000 219.060
42.90000 217.736
42.91000 215.256
42.92000 213.026
42.93000 212.322
42.94000 216.803
42.95000 221.711
42.96000 224.906
42.97000 224.185
42.98000 223.311
42.99000 222.780
43.00000 219.428
43.01000 217.014
43.02000 216.602
43.03000 218.179
43.04000 219.765
43.05000 222.044
43.06000 224.770
43.07000 227.421
43.08000 231.877
43.09000 236.862
43.10000 241.613
43.11000 243.598
43.12000 244.777
43.13000 245.959
43.14000 247.157
43.15000 248.358
43.16000 249.356
43.17000 233.210
43.18000 218.179
43.19000 208.373
43.20000 213.864
43.21000 220.342
43.22000 225.823
43.23000 229.335
43.24000 232.795
43.25000 234.762
43.26000 230.318
43.27000 227.205
43.28000 225.197
43.29000 224.117
43.30000 223.059
43.31000 223.044
43.32000 223.608
43.33000 224.150
43.34000 225.669
43.35000 227.434
43.36000 228.652
43.37000 224.612
43.38000 219.259
43.39000 215.040
43.40000 217.404
43.41000 220.827
43.42000 223.583
43.43000 220.579
43.44000 217.693
43.45000 216.669
43.46000 220.349
43.47000 224.259
43.48000 226.404
43.49000 225.551
43.50000 224.648
43.51000 224.172
43.52000 226.409
43.53000 227.926
43.54000 229.091
43.55000 230.003
43.56000 230.838
43.57000 229.251
43.58000 226.506
43.59000 223.900
43.60000 222.306
43.61000 221.136
43.62000 220.050
43.63000 219.620
43.64000 219.330
43.65000 219.352
43.66000 220.908
43.67000 222.670
43.68000 224.039
43.69000 225.249
43.70000 226.202
43.71000 225.478
43.72000 221.095
43.73000 216.584
43.74000 214.647
43.75000 216.467
43.76000 218.319
43.77000 217.331
43.78000 213.671
43.79000 210.082
43.80000 211.562
43.81000 216.158
43.82000 220.643
43.83000 222.656
43.84000 223.648
43.85000 224.574
43.86000 223.785
43.87000 222.638
43.88000 221.623
43.89000 221.472
43.90000 221.476
43.91000 220.370
43.92000 214.617
43.93000 208.349
43.94000 203.665
43.95000 213.641
43.96000 222.095
43.97000 225.593
43.98000 219.766
43.99000 213.721
44.00000 210.518
44.01000 210.858
44.02000 211.208
44.03000 213.235
44.04000 216.585
44.05000 219.884
44.06000 220.987
44.07000 220.929
44.08000 220.861
44.09000 220.611
44.10000 220.298
44.11000 220.010
44.12000 215.889
44.13000 211.404
44.14000 207.435
44.15000 206.301
44.16000 205.598
44.17000 205.189
44.18000 205.837
44.19000 206.579
44.20000 207.110
44.21000 211.919
44.22000 215.736
44.23000 217.656
44.24000 216.505
44.25000 215.313
44.26000 214.946
44.27000 215.454
44.28000 215.960
44.29000 215.838
44.30000 215.295
44.31000 214.788
44.32000 215.312
44.33000 216.306
44.34000 217.447
44.35000 220.506
44.36000 224.154
44.37000 227.434
44.38000 222.355
44.39000 216.424
44.40000 212.866
44.41000 220.368
44.42000 229.269
44.43000 234.657
44.44000 229.196
44.45000 222.968
44.46000 218.719
44.47000 215.587
44.48000 213.271
44.49000 212.347
44.50000 213.357
44.51000 214.381
44.52000 217.063
44.53000 221.224
44.54000 225.340
44.55000 223.646
44.56000 218.663
44.57000 213.916
44.58000 213.974
44.59000 215.926
44.60000 217.999
44.61000 221.333
44.62000 225.001
44.63000 228.223
44.64000 227.578
44.65000 226.454
44.66000 226.387
44.67000 230.529
44.68000 235.108
44.69000 239.147
44.70000 241.751
44.71000 244.277
44.72000 245.910
44.73000 243.307
44.74000 241.341
44.75000 242.650
44.76000 247.836
44.77000 252.999
44.78000 251.877
44.79000 245.989
44.80000 240.205
44.81000 244.088
44.82000 252.546
44.83000 260.663
44.84000 263.540
44.85000 264.637
44.86000 265.815
44.87000 267.688
44.88000 269.717
44.89000 271.455
44.90000 274.149
44.91000 276.538
44.92000 278.539
44.93000 279.214
44.94000 279.778
44.95000 280.972
44.96000 283.613
44.97000 286.312
44.98000 287.957
44.99000 293.596
45.00000 297.658
45.01000 301.282
45.02000 304.467
45.03000 307.609
45.04000 306.903
45.05000 303.699
45.06000 300.581
45.07000 304.275
45.08000 310.616
45.09000 316.813
45.10000 321.263
45.11000 325.202
45.12000 328.255
45.13000 325.133
45.14000 320.824
45.15000 317.238
45.16000 322.103
45.17000 326.964
45.18000 327.749
45.19000 316.535
45.20000 304.538
45.21000 298.815
45.22000 305.544
45.23000 312.613
45.24000 316.643
45.25000 301.793
45.26000 291.381
45.27000 285.161
45.28000 282.486
45.29000 279.803
45.30000 276.697
45.31000 273.353
45.32000 270.136
45.33000 268.977
45.34000 268.616
45.35000 268.085
45.36000 265.914
45.37000 263.330
45.38000 260.448
45.39000 255.820
45.40000 250.909
45.41000 246.951
45.42000 244.278
45.43000 242.209
45.44000 240.483
45.45000 239.627
45.46000 238.814
45.47000 239.526
45.48000 242.847
45.49000 246.212
45.50000 247.993
45.51000 245.570
45.52000 243.910
45.53000 240.531
45.54000 235.913
45.55000 231.343
45.56000 228.314
45.57000 226.028
45.58000 223.857
45.59000 221.038
45.60000 218.241
45.61000 216.548
45.62000 223.593
45.63000 232.514
45.64000 238.922
45.65000 232.912
45.66000 225.221
45.67000 219.234
45.68000 216.365
45.69000 214.272
45.70000 211.496
45.71000 207.220
45.72000 202.891
45.73000 203.100
45.74000 209.974
45.75000 216.907
45.76000 219.959
45.77000 219.335
45.78000 218.734
45.79000 219.811
45.80000 221.926
45.81000 223.889
45.82000 222.384
45.83000 219.439
45.84000 216.686
45.85000 215.719
45.86000 215.295
45.87000 214.759
45.88000 213.487
45.89000 212.082
45.90000 210.391
45.91000 207.499
45.92000 204.473
45.93000 202.208
45.94000 204.855
45.95000 207.149
45.96000 208.025
45.97000 206.215
45.98000 204.340
45.99000 202.198
46.00000 199.720
46.01000 197.244
46.02000 198.531
46.03000 202.823
46.04000 207.023
46.05000 207.279
46.06000 205.436
46.07000 203.767
46.08000 205.046
46.09000 207.383
46.10000 209.528
46.11000 206.828
46.12000 203.385
46.13000 200.421
46.14000 200.100
46.15000 200.185
46.16000 200.439
46.17000 201.305
46.18000 202.226
46.19000 202.887
46.20000 203.458
46.21000 203.891
46.22000 203.481
46.23000 201.695
46.24000 199.890
46.25000 199.489
46.26000 200.584
46.27000 201.674
46.28000 201.245
46.29000 199.791
46.30000 198.419
46.31000 199.400
46.32000 201.460
46.33000 203.420
46.34000 204.061
46.35000 204.295
46.36000 204.505
46.37000 200.963
46.38000 197.188
46.39000 194.060
46.40000 193.962
46.41000 194.251
46.42000 195.285
46.43000 198.630
46.44000 202.141
46.45000 204.541
46.46000 199.255
46.47000 195.119
46.48000 192.126
46.49000 190.731
46.50000 189.349
46.51000 191.287
46.52000 196.206
46.53000 201.074
46.54000 202.178
46.55000 201.087
46.56000 199.988
46.57000 198.697
46.58000 197.330
46.59000 196.309
46.60000 198.900
46.61000 202.451
46.62000 205.573
46.63000 206.023
46.64000 206.013
46.65000 205.685
46.66000 204.079
46.67000 202.340
46.68000 202.404
46.69000 207.301
46.70000 212.463
46.71000 215.808
46.72000 210.090
46.73000 205.769
46.74000 201.239
46.75000 196.460
46.76000 191.703
46.77000 191.922
46.78000 195.940
46.79000 199.888
46.80000 203.007
46.81000 205.613
46.82000 207.658
46.83000 200.997
46.84000 191.359
46.85000 182.771
46.86000 183.095
46.87000 185.447
46.88000 187.463
46.89000 195.824
46.90000 203.662
46.91000 209.727
46.92000 209.695
46.93000 209.152
46.94000 207.172
46.95000 201.870
46.96000 196.434
46.97000 193.113
46.98000 189.953
46.99000 187.694
47.00000 188.298
47.01000 191.788
47.02000 195.268
47.03000 197.887
47.04000 199.943
47.05000 201.945
47.06000 201.446
47.07000 199.927
47.08000 198.086
47.09000 192.319
47.10000 185.396
47.11000 179.616
47.12000 181.863
47.13000 185.664
47.14000 188.831
47.15000 185.873
47.16000 182.813
47.17000 180.878
47.18000 182.273
47.19000 183.888
47.20000 187.238
47.21000 194.052
47.22000 200.962
47.23000 204.913
47.24000 192.470
47.25000 183.739
47.26000 183.223
47.27000 189.702
47.28000 196.015
47.29000 193.821
47.30000 186.849
47.31000 180.138
47.32000 183.230
47.33000 189.610
47.34000 195.404
47.35000 195.485
47.36000 194.121
47.37000 192.503
47.38000 189.392
47.39000 186.036
47.40000 183.327
47.41000 184.348
47.42000 185.473
47.43000 186.388
47.44000 186.765
47.45000 187.114
47.46000 185.249
47.47000 179.575
47.48000 173.835
47.49000 170.788
47.50000 176.730
47.51000 180.762
47.52000 182.327
47.53000 182.102
47.54000 181.882
47.55000 181.842
47.56000 181.890
47.57000 181.935
47.58000 183.168
47.59000 184.665
47.60000 186.621
47.61000 192.231
47.62000 198.632
47.63000 202.853
47.64000 196.229
47.65000 188.126
47.66000 181.810
47.67000 181.266
47.68000 181.192
47.69000 180.870
47.70000 180.001
47.71000 179.112
47.72000 178.877
47.73000 179.605
47.74000 180.343
47.75000 183.373
47.76000 188.588
47.77000 193.704
47.78000 191.355
47.79000 184.365
47.80000 177.762
47.81000 180.114
47.82000 186.207
47.83000 191.906
47.84000 189.600
47.85000 185.464
47.86000 181.728
47.87000 180.639
47.88000 180.035
47.89000 180.061
47.90000 182.753
47.91000 185.745
47.92000 187.988
47.93000 186.588
47.94000 185.323
47.95000 184.725
47.96000 185.395
47.97000 186.097
47.98000 187.072
47.99000 188.393
48.00000 189.714
48.01000 188.538
48.02000 185.357
48.03000 182.196
48.04000 179.914
48.05000 178.103
48.06000 176.467
48.07000 177.832
48.08000 180.279
48.09000 182.527
48.10000 182.175
48.11000 181.301
48.12000 181.138
48.13000 184.935
48.14000 189.343
48.15000 192.248
48.16000 189.692
48.17000 186.640
48.18000 184.447
48.19000 181.308
48.20000 178.874
48.21000 178.799
48.22000 182.593
48.23000 186.443
48.24000 185.934
48.25000 180.756
48.26000 175.601
48.27000 172.063
48.28000 169.670
48.29000 167.363
48.30000 167.571
48.31000 168.941
48.32000 170.631
48.33000 176.568
48.34000 183.826
48.35000 190.362
48.36000 185.662
48.37000 179.519
48.38000 174.530
48.39000 174.987
48.40000 176.145
48.41000 177.215
48.42000 178.011
48.43000 178.788
48.44000 179.320
48.45000 176.980
48.46000 175.158
48.47000 173.520
48.48000 172.143
48.49000 170.769
48.50000 172.642
48.51000 177.449
48.52000 182.208
48.53000 183.768
48.54000 183.440
48.55000 183.075
48.56000 181.965
48.57000 180.556
48.58000 179.160
48.59000 177.885
48.60000 176.643
48.61000 175.550
48.62000 173.211
48.63000 171.011
48.64000 169.661
48.65000 171.738
48.66000 174.175
48.67000 175.814
48.68000 175.300
48.69000 174.667
48.70000 174.255
48.71000 174.320
48.72000 174.374
48.73000 174.944
48.74000 176.131
48.75000 177.317
48.76000 177.968
48.77000 178.208
48.78000 178.444
48.79000 177.291
48.80000 175.491
48.81000 173.724
48.82000 172.456
48.83000 171.360
48.84000 170.702
48.85000 173.788
48.86000 177.730
48.87000 181.114
48.88000 180.681
48.89000 179.844
48.90000 179.325
48.91000 179.905
48.92000 180.578
48.93000 180.679
48.94000 179.449
48.95000 178.165
48.96000 177.378
48.97000 176.580
48.98000 176.008
48.99000 175.623
49.00000 175.428
49.01000 175.252
49.02000 176.821
49.03000 179.536
49.04000 182.181
49.05000 180.706
49.06000 177.571
49.07000 174.770
49.08000 176.078
49.09000 178.603
49.10000 180.853
49.11000 181.162
49.12000 181.094
49.13000 181.036
49.14000 182.718
49.15000 184.287
49.16000 183.429
49.17000 175.340
49.18000 166.769
49.19000 164.916
49.20000 176.556
49.21000 188.577
49.22000 195.470
49.23000 184.504
49.24000 176.784
49.25000 174.369
49.26000 176.501
49.27000 178.633
49.28000 180.828
49.29000 183.057
49.30000 185.205
49.31000 181.650
49.32000 176.274
49.33000 171.647
49.34000 174.378
49.35000 178.981
49.36000 182.790
49.37000 181.888
49.38000 180.212
49.39000 178.858
49.40000 177.515
49.41000 176.423
49.42000 175.440
49.43000 174.737
49.44000 174.048
49.45000 175.035
49.46000 178.922
49.47000 182.861
49.48000 184.958
49.49000 177.856
49.50000 173.026
49.51000 170.506
49.52000 169.673
49.53000 168.864
49.54000 168.889
49.55000 169.320
49.56000 169.730
49.57000 173.990
49.58000 179.094
49.59000 183.352
49.60000 180.813
49.61000 176.794
49.62000 173.188
49.63000 171.645
49.64000 170.386
49.65000 169.403
49.66000 173.717
49.67000 177.491
49.68000 179.545
49.69000 177.780
49.70000 175.875
49.71000 176.358
49.72000 180.390
49.73000 184.455
49.74000 184.976
49.75000 182.091
49.76000 179.244
49.77000 179.182
49.78000 180.864
49.79000 182.362
49.80000 179.560
49.81000 174.951
49.82000 170.637
49.83000 171.488
49.84000 173.586
49.85000 175.445
49.86000 175.702
49.87000 175.663
49.88000 175.417
49.89000 174.286
49.90000 173.055
49.91000 172.131
49.92000 170.365
49.93000 168.944
49.94000 168.962
49.95000 171.736
49.96000 174.577
49.97000 177.092
49.98000 179.194
49.99000 181.291
50.00000 177.376
50.01000 168.602
50.02000 160.065
50.03000 162.156
50.04000 169.971
50.05000 177.347
50.06000 177.150
50.07000 174.204
50.08000 171.496
50.09000 168.116
50.10000 164.951
50.11000 162.289
50.12000 162.452
50.13000 163.053
50.14000 164.499
50.15000 169.034
50.16000 173.853
50.17000 177.321
50.18000 176.800
50.19000 176.262
50.20000 175.460
50.21000 174.224
50.22000 172.982
50.23000 175.231
50.24000 181.249
50.25000 187.239
50.26000 185.041
50.27000 177.243
50.28000 169.751
50.29000 171.324
50.30000 177.108
50.31000 182.327
50.32000 180.008
50.33000 175.330
50.34000 171.113
50.35000 174.668
50.36000 179.197
50.37000 182.874
50.38000 182.507
50.39000 181.615
50.40000 181.541
50.41000 184.037
50.42000 186.721
50.43000 188.563
50.44000 181.276
50.45000 175.591
50.46000 174.751
50.47000 180.765
50.48000 186.827
50.49000 190.624
50.50000 192.359
50.51000 194.077
50.52000 193.701
50.53000 192.110
50.54000 190.516
50.55000 188.873
50.56000 187.209
50.57000 186.216
50.58000 192.338
50.59000 200.374
50.60000 207.455
50.61000 213.567
50.62000 218.689
50.63000 223.010
50.64000 224.085
50.65000 224.815
50.66000 223.364
50.67000 215.998
50.68000 208.301
50.69000 203.290
50.70000 204.803
50.71000 206.014
50.72000 209.496
50.73000 215.719
50.74000 221.928
50.75000 223.213
50.76000 220.691
50.77000 218.211
50.78000 216.757
50.79000 215.859
50.80000 215.085
50.81000 216.277
50.82000 218.149
50.83000 219.555
50.84000 216.942
50.85000 213.404
50.86000 210.365
50.87000 208.244
50.88000 206.564
50.89000 204.947
50.90000 203.550
50.91000 202.171
50.92000 201.945
50.93000 204.416
50.94000 206.998
50.95000 208.583
50.96000 199.269
50.97000 192.500
50.98000 187.236
50.99000 183.512
51.00000 179.800
51.01000 177.303
51.02000 175.608
51.03000 173.957
51.04000 175.584
51.05000 178.522
51.06000 181.087
51.07000 179.037
51.08000 175.611
51.09000 172.931
51.10000 175.566
51.11000 179.243
51.12000 182.314
51.13000 176.311
51.14000 170.411
51.15000 166.714
51.16000 169.620
51.17000 172.970
51.18000 175.583
51.19000 176.706
51.20000 177.786
51.21000 178.408
51.22000 177.448
51.23000 176.771
51.24000 176.408
51.25000 176.315
51.26000 176.179
51.27000 173.756
51.28000 170.033
51.29000 166.446
51.30000 164.295
51.31000 162.790
51.32000 161.632
51.33000 163.901
51.34000 167.048
51.35000 169.984
51.36000 171.661
51.37000 173.130
51.38000 174.318
51.39000 171.343
51.40000 168.583
51.41000 166.630
51.42000 166.765
51.43000 167.006
51.44000 163.605
51.45000 153.861
51.46000 144.003
51.47000 138.736
51.48000 156.311
51.49000 168.258
51.50000 171.053
51.51000 167.121
51.52000 163.326
51.53000 164.125
51.54000 167.175
51.55000 170.076
51.56000 167.767
51.57000 164.040
51.58000 160.493
51.59000 158.403
51.60000 156.633
51.61000 155.105
51.62000 154.798
51.63000 154.661
51.64000 154.554
51.65000 155.892
51.66000 157.051
51.67000 157.342
51.68000 155.693
51.69000 153.973
51.70000 153.333
51.71000 154.309
51.72000 155.301
51.73000 154.490
51.74000 151.935
51.75000 149.476
51.76000 154.539
51.77000 164.338
51.78000 173.673
51.79000 172.035
51.80000 165.758
51.81000 159.879
51.82000 158.081
51.83000 157.501
51.84000 156.746
51.85000 154.815
51.86000 152.666
51.87000 150.568
51.88000 148.695
51.89000 146.848
51.90000 145.458
51.91000 151.577
51.92000 156.726
51.93000 161.180
51.94000 164.290
51.95000 167.367
51.96000 167.651
51.97000 164.361
51.98000 161.062
51.99000 161.439
52.00000 164.816
52.01000 168.140
52.02000 169.081
52.03000 168.731
52.04000 168.292
52.05000 166.300
52.06000 163.742
52.07000 161.388
52.08000 159.305
52.09000 157.502
52.10000 156.471
52.11000 159.798
52.12000 163.808
52.13000 166.503
52.14000 164.365
52.15000 161.777
52.16000 159.912
52.17000 160.663
52.18000 161.332
52.19000 160.384
52.20000 156.751
52.21000 153.077
52.22000 151.997
52.23000 153.734
52.24000 155.464
52.25000 153.584
52.26000 149.228
52.27000 145.089
52.28000 147.488
52.29000 152.942
52.30000 158.061
52.31000 158.665
52.32000 157.847
52.33000 157.109
52.34000 158.332
52.35000 159.765
52.36000 160.298
52.37000 156.527
52.38000 152.195
52.39000 148.650
52.40000 147.595
52.41000 146.724
52.42000 146.125
52.43000 150.475
52.44000 153.861
52.45000 155.785
52.46000 155.626
52.47000 155.452
52.48000 156.268
52.49000 157.990
52.50000 159.697
52.51000 161.036
52.52000 162.131
52.53000 163.083
52.54000 160.961
52.55000 157.599
52.56000 154.699
52.57000 156.749
52.58000 160.140
52.59000 163.130
52.60000 154.862
52.61000 146.023
52.62000 141.021
52.63000 151.695
52.64000 164.048
52.65000 172.305
52.66000 169.388
52.67000 165.837
52.68000 163.521
52.69000 165.917
52.70000 167.751
52.71000 164.947
52.72000 156.507
52.73000 148.090
52.74000 148.776
52.75000 156.545
52.76000 164.186
52.77000 165.133
52.78000 162.704
52.79000 160.455
52.80000 161.102
52.81000 162.757
52.82000 164.100
52.83000 162.739
52.84000 160.751
52.85000 159.040
52.86000 159.355
52.87000 159.875
52.88000 159.320
52.89000 155.000
52.90000 150.354
52.91000 146.579
52.92000 144.856
52.93000 143.218
52.94000 142.210
52.95000 145.778
52.96000 148.378
52.97000 150.394
52.98000 151.808
52.99000 153.198
53.00000 152.280
53.01000 149.825
53.02000 147.432
53.03000 152.381
53.04000 160.229
53.05000 167.612
53.06000 169.182
53.07000 169.009
53.08000 168.207
53.09000 162.890
53.10000 156.681
53.11000 151.489
53.12000 152.061
53.13000 153.123
53.14000 153.753
53.15000 153.078
53.16000 152.314
53.17000 152.534
53.18000 154.754
53.19000 157.032
53.20000 158.346
53.21000 160.540
53.22000 162.079
53.23000 161.979
53.24000 160.456
53.25000 158.919
53.26000 156.612
53.27000 153.864
53.28000 151.215
53.29000 157.496
53.30000 166.634
53.31000 174.675
53.32000 171.739
53.33000 165.974
53.34000 160.596
53.35000 157.537
53.36000 154.864
53.37000 152.698
53.38000 154.978
53.39000 157.199
53.40000 159.612
53.41000 162.527
53.42000 165.467
53.43000 167.655
53.44000 168.525
53.45000 169.371
53.46000 169.824
53.47000 169.474
53.48000 169.217
53.49000 165.895
53.50000 160.306
53.51000 154.863
53.52000 154.458
53.53000 156.535
53.54000 158.511
53.55000 157.398
53.56000 155.419
53.57000 153.949
53.58000 156.630
53.59000 160.226
53.60000 163.729
53.61000 166.757
53.62000 169.718
53.63000 172.036
53.64000 170.803
53.65000 169.589
53.66000 167.641
53.67000 164.040
53.68000 160.377
53.69000 156.381
53.70000 151.883
53.71000 147.380
53.72000 146.427
53.73000 148.933
53.74000 151.401
53.75000 150.914
53.76000 148.555
53.77000 146.295
53.78000 146.407
53.79000 147.527
53.80000 148.578
53.81000 151.794
53.82000 155.285
53.83000 158.233
53.84000 157.498
53.85000 156.074
53.86000 154.611
53.87000 152.975
53.88000 151.320
53.89000 150.073
53.90000 149.792
53.91000 149.619
53.92000 148.701
53.93000 146.341
53.94000 143.943
53.95000 144.135
53.96000 147.662
53.97000 151.197
53.98000 152.244
53.99000 151.243
54.00000 150.222
54.01000 148.241
54.02000 145.736
54.03000 143.585
54.04000 147.680
54.05000 154.070
54.06000 159.954
54.07000 161.554
54.08000 162.045
54.09000 162.021
54.10000 159.063
54.11000 155.643
54.12000 152.813
54.13000 152.163
54.14000 151.718
54.15000 151.396
54.16000 152.513
54.17000 153.421
54.18000 155.243
54.19000 158.591
54.20000 161.963
54.21000 162.168
54.22000 158.912
54.23000 155.668
54.24000 155.250
54.25000 156.803
54.26000 158.303
54.27000 158.192
54.28000 157.322
54.29000 156.386
54.30000 154.534
54.31000 152.393
54.32000 150.460
54.33000 147.780
54.34000 145.287
54.35000 143.868
54.36000 147.617
54.37000 152.047
54.38000 155.510
54.39000 155.897
54.40000 156.055
54.41000 156.165
54.42000 154.923
54.43000 153.957
54.44000 152.629
54.45000 150.784
54.46000 148.936
54.47000 151.202
54.48000 157.263
54.49000 163.267
54.50000 165.665
54.51000 165.883
54.52000 166.061
54.53000 165.388
54.54000 164.369
54.55000 163.464
54.56000 163.784
54.57000 164.437
54.58000 165.013
54.59000 161.064
54.60000 156.963
54.61000 153.315
54.62000 151.531
54.63000 149.947
54.64000 150.338
54.65000 156.145
54.66000 162.262
54.67000 166.262
54.68000 161.157
54.69000 157.259
54.70000 156.364
54.71000 159.144
54.72000 161.919
54.73000 160.685
54.74000 156.313
54.75000 152.011
54.76000 151.715
54.77000 153.444
54.78000 155.169
54.79000 156.830
54.80000 158.468
54.81000 160.288
54.82000 163.689
54.83000 167.460
54.84000 170.706
54.85000 162.954
54.86000 154.999
54.87000 149.112
54.88000 150.512
54.89000 152.547
54.90000 153.260
54.91000 150.841
54.92000 148.288
54.93000 146.713
54.94000 150.243
54.95000 152.824
54.96000 157.068
54.97000 163.035
54.98000 168.931
54.99000 167.507
55.00000 161.180
55.01000 155.011
55.02000 154.592
55.03000 156.654
55.04000 158.684
55.05000 160.304
55.06000 161.801
55.07000 162.898
55.08000 161.104
55.09000 158.735
55.10000 156.751
55.11000 155.826
55.12000 155.166
55.13000 155.255
55.14000 157.616
55.15000 160.134
55.16000 160.474
55.17000 156.358
55.18000 152.111
55.19000 149.655
55.20000 156.773
55.21000 161.799
55.22000 164.632
55.23000 165.546
55.24000 166.436
55.25000 165.982
55.26000 164.755
55.27000 163.572
55.28000 167.137
55.29000 172.222
55.30000 176.515
55.31000 172.816
55.32000 167.045
55.33000 162.605
55.34000 166.220
55.35000 171.187
55.36000 175.218
55.37000 173.907
55.38000 172.398
55.39000 171.494
55.40000 172.174
55.41000 172.936
55.42000 172.077
55.43000 168.359
55.44000 164.586
55.45000 162.559
55.46000 160.424
55.47000 159.005
55.48000 164.890
55.49000 176.213
55.50000 187.381
55.51000 193.118
55.52000 196.162
55.53000 199.060
55.54000 196.911
55.55000 193.359
55.56000 191.028
55.57000 198.737
55.58000 208.673
55.59000 217.440
55.60000 220.234
55.61000 222.187
55.62000 223.719
55.63000 229.338
55.64000 234.094
55.65000 240.398
55.66000 250.201
55.67000 260.137
55.68000 268.701
55.69000 275.188
55.70000 281.653
55.71000 291.267
55.72000 303.969
55.73000 316.659
55.74000 328.464
55.75000 339.704
55.76000 351.148
55.77000 367.518
55.78000 385.997
55.79000 403.326
55.80000 418.156
55.81000 431.007
55.82000 443.171
55.83000 450.647
55.84000 457.239
55.85000 465.403
55.86000 480.405
55.87000 496.200
55.88000 508.121
55.89000 519.804
55.90000 528.945
55.91000 539.065
55.92000 551.093
55.93000 563.170
55.94000 568.506
55.95000 565.106
55.96000 561.675
55.97000 564.894
55.98000 573.604
55.99000 582.163
56.00000 583.551
56.01000 581.008
56.02000 578.044
56.03000 567.571
56.04000 554.323
56.05000 542.114
56.06000 523.921
56.07000 506.312
56.08000 489.053
56.09000 473.795
56.10000 458.855
56.11000 445.231
56.12000 436.505
56.13000 428.241
56.14000 422.263
56.15000 408.518
56.16000 397.684
56.17000 387.440
56.18000 378.187
56.19000 368.950
56.20000 358.233
56.21000 345.887
56.22000 333.592
56.23000 319.770
56.24000 305.015
56.25000 290.427
56.26000 281.013
56.27000 274.044
56.28000 267.041
56.29000 259.562
56.30000 251.932
56.31000 245.038
56.32000 233.528
56.33000 222.550
56.34000 213.109
56.35000 211.122
56.36000 210.123
56.37000 208.116
56.38000 202.885
56.39000 197.412
56.40000 193.634
56.41000 189.011
56.42000 185.515
56.43000 182.928
56.44000 181.653
56.45000 180.390
56.46000 180.244
56.47000 181.138
56.48000 182.024
56.49000 180.820
56.50000 178.395
56.51000 176.031
56.52000 174.996
56.53000 174.504
56.54000 173.823
56.55000 171.090
56.56000 167.795
56.57000 164.884
56.58000 162.202
56.59000 159.922
56.60000 158.508
56.61000 160.678
56.62000 163.238
56.63000 164.912
56.64000 164.137
56.65000 163.220
56.66000 162.619
56.67000 166.446
56.68000 169.333
56.69000 168.039
56.70000 161.596
56.71000 155.153
56.72000 152.749
56.73000 153.526
56.74000 154.292
56.75000 153.687
56.76000 152.407
56.77000 151.226
56.78000 151.666
56.79000 152.677
56.80000 153.591
56.81000 153.643
56.82000 153.492
56.83000 153.361
56.84000 149.377
56.85000 145.508
56.86000 143.059
56.87000 145.640
56.88000 148.664
56.89000 150.128
56.90000 147.875
56.91000 145.463
56.92000 143.971
56.93000 148.892
56.94000 152.489
56.95000 153.327
56.96000 151.288
56.97000 149.243
56.98000 146.701
56.99000 143.824
57.00000 141.018
57.01000 140.513
57.02000 141.023
57.03000 141.572
57.04000 142.616
57.05000 143.810
57.06000 145.228
57.07000 148.281
57.08000 151.660
57.09000 154.493
57.10000 148.983
57.11000 143.535
57.12000 139.707
57.13000 140.826
57.14000 142.288
57.15000 144.510
57.16000 148.295
57.17000 152.128
57.18000 154.350
57.19000 145.059
57.20000 138.494
57.21000 135.385
57.22000 135.318
57.23000 135.259
57.24000 135.616
57.25000 136.214
57.26000 136.791
57.27000 141.976
57.28000 148.548
57.29000 154.385
57.30000 152.756
57.31000 149.178
57.32000 146.070
57.33000 145.818
57.34000 146.050
57.35000 146.238
57.36000 142.271
57.37000 138.689
57.38000 137.936
57.39000 144.631
57.40000 151.722
57.41000 154.335
57.42000 149.009
57.43000 143.530
57.44000 140.576
57.45000 132.594
57.46000 127.163
57.47000 128.082
57.48000 133.758
57.49000 139.368
57.50000 142.636
57.51000 144.737
57.52000 146.739
57.53000 149.368
57.54000 152.000
57.55000 153.847
57.56000 149.181
57.57000 143.061
57.58000 137.928
57.59000 137.873
57.60000 138.538
57.61000 139.060
57.62000 138.989
57.63000 138.893
57.64000 139.461
57.65000 141.536
57.66000 143.669
57.67000 144.565
57.68000 143.578
57.69000 142.570
57.70000 141.308
57.71000 139.795
57.72000 138.341
57.73000 141.836
57.74000 148.506
57.75000 154.716
57.76000 149.629
57.77000 139.679
57.78000 130.341
57.79000 129.403
57.80000 130.764
57.81000 131.891
57.82000 131.414
57.83000 130.633
57.84000 131.170
57.85000 137.476
57.86000 144.457
57.87000 149.735
57.88000 138.062
57.89000 128.059
57.90000 123.294
57.91000 128.808
57.92000 134.592
57.93000 136.378
57.94000 132.949
57.95000 129.501
57.96000 131.060
57.97000 136.786
57.98000 142.415
57.99000 143.333
58.00000 141.655
58.01000 140.026
58.02000 139.315
58.03000 138.945
58.04000 138.603
58.05000 139.966
58.06000 141.568
58.07000 143.004
58.08000 143.493
58.09000 143.831
58.10000 144.078
58.11000 143.984
58.12000 143.859
58.13000 143.768
58.14000 140.093
58.15000 137.138
58.16000 136.312
58.17000 139.086
58.18000 141.918
58.19000 143.448
58.20000 143.536
58.21000 143.622
58.22000 140.961
58.23000 136.388
58.24000 131.978
58.25000 132.678
58.26000 135.810
58.27000 138.558
58.28000 135.987
58.29000 131.711
58.30000 127.844
58.31000 131.608
58.32000 136.345
58.33000 140.363
58.34000 140.870
58.35000 140.909
58.36000 140.687
58.37000 139.626
58.38000 138.502
58.39000 137.725
58.40000 137.036
58.41000 136.521
58.42000 136.885
58.43000 138.524
58.44000 140.173
58.45000 139.744
58.46000 137.373
58.47000 135.023
58.48000 137.027
58.49000 141.601
58.50000 145.921
58.51000 144.618
58.52000 141.005
58.53000 137.593
58.54000 136.393
58.55000 135.803
58.56000 135.281
58.57000 136.429
58.58000 137.680
58.59000 138.761
58.60000 139.134
58.61000 139.430
58.62000 138.975
58.63000 136.435
58.64000 133.774
58.65000 132.026
58.66000 132.968
58.67000 133.707
58.68000 133.533
58.69000 132.227
58.70000 130.920
58.71000 130.204
58.72000 129.958
58.73000 129.716
58.74000 129.508
58.75000 129.323
58.76000 129.233
58.77000 130.706
58.78000 132.733
58.79000 134.642
58.80000 135.505
58.81000 136.122
58.82000 136.654
58.83000 132.072
58.84000 127.529
58.85000 125.031
58.86000 129.827
58.87000 135.271
58.88000 139.241
58.89000 139.678
58.90000 139.960
58.91000 140.136
58.92000 136.511
58.93000 133.868
58.94000 133.440
58.95000 135.339
58.96000 137.222
58.97000 137.328
58.98000 136.229
58.99000 135.156
59.00000 138.076
59.01000 142.601
59.02000 146.661
59.03000 144.754
59.04000 141.025
59.05000 137.650
59.06000 136.879
59.07000 136.632
59.08000 136.425
59.09000 136.546
59.10000 136.681
59.11000 136.915
59.12000 137.453
59.13000 138.012
59.14000 137.889
59.15000 136.356
59.16000 134.780
59.17000 133.863
59.18000 135.031
59.19000 135.858
59.20000 134.453
59.21000 131.069
59.22000 127.768
59.23000 129.268
59.24000 133.563
59.25000 137.709
59.26000 135.962
59.27000 132.140
59.28000 128.806
59.29000 130.472
59.30000 133.453
59.31000 136.063
59.32000 136.402
59.33000 136.356
59.34000 136.318
59.35000 136.825
59.36000 137.285
59.37000 136.484
59.38000 132.340
59.39000 128.017
59.40000 126.094
59.41000 128.453
59.42000 130.897
59.43000 132.218
59.44000 132.541
59.45000 132.767
59.46000 134.187
59.47000 136.507
59.48000 138.739
59.49000 137.783
59.50000 135.228
59.51000 132.793
59.52000 135.223
59.53000 139.002
59.54000 141.798
59.55000 136.378
59.56000 129.111
59.57000 123.360
59.58000 125.454
59.59000 128.666
59.60000 131.193
59.61000 129.236
59.62000 127.373
59.63000 126.548
59.64000 128.097
59.65000 129.739
59.66000 130.537
59.67000 130.041
59.68000 129.531
59.69000 131.684
59.70000 136.483
59.71000 141.226
59.72000 141.021
59.73000 137.623
59.74000 134.245
59.75000 131.376
59.76000 128.727
59.77000 126.239
59.78000 127.969
59.79000 130.666
59.80000 133.109
59.81000 133.791
59.82000 134.137
59.83000 134.496
59.84000 134.911
59.85000 135.334
59.86000 135.653
59.87000 132.815
59.88000 130.428
59.89000 129.502
59.90000 131.461
59.91000 133.497
59.92000 135.440
59.93000 137.260
59.94000 139.078
59.95000 137.209
59.96000 132.255
59.97000 127.450
59.98000 130.018
59.99000 136.678
60.00000 142.942
60.01000 141.975
60.02000 138.304
60.03000 134.916
60.04000 133.037
60.05000 131.692
60.06000 130.661
60.07000 131.462
60.08000 132.559
60.09000 133.749
60.10000 135.298
60.11000 136.880
60.12000 138.029
60.13000 132.514
60.14000 128.024
60.15000 127.104
60.16000 132.255
60.17000 137.507
60.18000 137.763
60.19000 132.444
60.20000 127.141
60.21000 126.724
60.22000 129.780
60.23000 132.854
60.24000 136.475
60.25000 140.358
60.26000 143.991
60.27000 144.116
60.28000 143.110
60.29000 142.200
60.30000 142.635
60.31000 143.272
60.32000 143.353
60.33000 140.705
60.34000 137.690
60.35000 135.113
60.36000 133.954
60.37000 132.904
60.38000 132.177
60.39000 134.346
60.40000 136.056
60.41000 135.824
60.42000 132.759
60.43000 129.671
60.44000 130.736
60.45000 135.712
60.46000 140.644
60.47000 141.074
60.48000 138.779
60.49000 136.417
60.50000 132.540
60.51000 128.036
60.52000 123.926
60.53000 124.184
60.54000 125.653
60.55000 126.954
60.56000 123.780
60.57000 120.335
60.58000 118.217
60.59000 121.662
60.60000 125.723
60.61000 128.496
60.62000 127.675
60.63000 126.640
60.64000 125.959
60.65000 131.627
60.66000 135.911
60.67000 137.529
60.68000 135.823
60.69000 134.113
60.70000 134.232
60.71000 135.812
60.72000 137.368
60.73000 136.575
60.74000 134.601
60.75000 132.958
60.76000 136.846
60.77000 142.706
60.78000 147.557
60.79000 143.342
60.80000 136.971
60.81000 131.469
60.82000 130.682
60.83000 130.624
60.84000 130.189
60.85000 128.398
60.86000 126.487
60.87000 125.586
60.88000 127.125
60.89000 128.770
60.90000 129.793
60.91000 132.847
60.92000 135.067
60.93000 136.286
60.94000 136.448
60.95000 136.602
60.96000 135.845
60.97000 134.466
60.98000 133.121
60.99000 135.213
61.00000 138.714
61.01000 141.692
61.02000 137.866
61.03000 131.948
61.04000 126.605
61.05000 125.515
61.06000 125.287
61.07000 125.096
61.08000 128.629
61.09000 131.964
61.10000 134.647
61.11000 135.315
61.12000 135.839
61.13000 134.638
61.14000 129.845
61.15000 124.939
61.16000 122.079
61.17000 127.599
61.18000 131.517
61.19000 133.530
61.20000 133.843
61.21000 134.183
61.22000 136.088
61.23000 138.909
61.24000 141.634
61.25000 140.051
61.26000 136.959
61.27000 134.306
61.28000 136.206
61.29000 139.309
61.30000 141.932
61.31000 141.592
61.32000 140.744
61.33000 140.054
61.34000 139.899
61.35000 139.817
61.36000 140.226
61.37000 141.938
61.38000 143.722
61.39000 143.786
61.40000 140.763
61.41000 137.678
61.42000 136.005
61.43000 137.663
61.44000 138.797
61.45000 138.461
61.46000 137.009
61.47000 135.635
61.48000 137.150
61.49000 140.122
61.50000 142.957
61.51000 146.804
61.52000 150.693
61.53000 154.956
61.54000 162.366
61.55000 170.489
61.56000 179.131
61.57000 190.479
61.58000 202.216
61.59000 211.459
61.60000 221.051
61.61000 228.761
61.62000 233.680
61.63000 232.178
61.64000 230.421
61.65000 230.105
61.66000 232.011
61.67000 233.942
61.68000 234.908
61.69000 249.085
61.70000 258.400
61.71000 255.300
61.72000 244.138
61.73000 233.456
61.74000 234.924
61.75000 241.684
61.76000 248.035
61.77000 239.257
61.78000 227.200
61.79000 215.180
61.80000 203.420
61.81000 191.710
61.82000 180.370
61.83000 170.671
61.84000 161.167
61.85000 153.960
61.86000 153.818
61.87000 154.068
61.88000 152.821
61.89000 148.602
61.90000 144.302
61.91000 142.944
61.92000 145.473
61.93000 148.018
61.94000 150.179
61.95000 152.009
61.96000 153.737
61.97000 150.295
61.98000 143.967
61.99000 137.962
62.00000 137.959
62.01000 140.212
62.02000 142.293
62.03000 143.829
62.04000 145.084
62.05000 146.140
62.06000 146.032
62.07000 145.735
62.08000 145.066
62.09000 142.987
62.10000 140.771
62.11000 139.160
62.12000 141.530
62.13000 143.505
62.14000 143.302
62.15000 139.376
62.16000 135.385
62.17000 134.622
62.18000 137.484
62.19000 140.338
62.20000 140.491
62.21000 138.712
62.22000 137.028
62.23000 138.435
62.24000 141.331
62.25000 143.744
62.26000 139.319
62.27000 132.676
62.28000 126.658
62.29000 125.598
62.30000 125.601
62.31000 126.482
62.32000 131.700
62.33000 137.506
62.34000 142.722
62.35000 146.013
62.36000 149.156
62.37000 151.338
62.38000 140.164
62.39000 131.388
62.40000 127.742
62.41000 131.635
62.42000 135.595
62.43000 139.134
62.44000 142.273
62.45000 145.386
62.46000 145.305
62.47000 143.286
62.48000 141.250
62.49000 138.853
62.50000 136.306
62.51000 134.062
62.52000 135.219
62.53000 137.325
62.54000 139.192
62.55000 138.789
62.56000 138.081
62.57000 137.428
62.58000 137.002
62.59000 136.601
62.60000 136.609
62.61000 137.768
62.62000 138.995
62.63000 139.805
62.64000 146.322
62.65000 151.227
62.66000 151.714
62.67000 146.656
62.68000 141.592
62.69000 140.515
62.70000 142.641
62.71000 144.736
62.72000 143.029
62.73000 139.411
62.74000 136.124
62.75000 138.449
62.76000 142.787
62.77000 146.659
62.78000 146.309
62.79000 144.949
62.80000 143.773
62.81000 145.437
62.82000 147.222
62.83000 147.253
62.84000 140.953
62.85000 134.080
62.86000 130.454
62.87000 134.702
62.88000 139.303
62.89000 142.169
62.90000 143.050
62.91000 143.665
62.92000 142.700
62.93000 140.052
62.94000 137.427
62.95000 137.484
62.96000 139.383
62.97000 141.237
62.98000 139.892
62.99000 137.199
63.00000 134.833
63.01000 136.739
63.02000 139.967
63.03000 142.880
63.04000 143.443
63.05000 143.528
63.06000 143.599
63.07000 146.450
63.08000 149.122
63.09000 151.524
63.10000 153.085
63.11000 154.587
63.12000 154.603
63.13000 151.508
63.14000 148.316
63.15000 146.450
63.16000 140.483
63.17000 136.269
63.18000 137.747
63.19000 144.337
63.20000 150.859
63.21000 153.207
63.22000 153.096
63.23000 152.989
63.24000 154.150
63.25000 155.720
63.26000 156.539
63.27000 149.523
63.28000 140.424
63.29000 132.588
63.30000 132.613
63.31000 133.994
63.32000 135.122
63.33000 139.975
63.34000 144.264
63.35000 146.409
63.36000 142.810
63.37000 138.897
63.38000 138.540
63.39000 144.607
63.40000 150.805
63.41000 154.179
63.42000 148.877
63.43000 145.226
63.44000 141.002
63.45000 136.342
63.46000 131.821
63.47000 132.537
63.48000 135.912
63.49000 139.132
63.50000 143.360
63.51000 147.607
63.52000 151.359
63.53000 150.920
63.54000 149.527
63.55000 147.869
63.56000 144.820
63.57000 141.569
63.58000 139.006
63.59000 144.106
63.60000 148.712
63.61000 150.704
63.62000 146.644
63.63000 142.340
63.64000 140.560
63.65000 142.698
63.66000 144.882
63.67000 145.979
63.68000 144.391
63.69000 143.346
63.70000 143.628
63.71000 144.778
63.72000 145.973
63.73000 148.338
63.74000 151.214
63.75000 153.918
63.76000 151.544
63.77000 148.010
63.78000 145.317
63.79000 148.530
63.80000 152.888
63.81000 156.712
63.82000 158.160
63.83000 159.324
63.84000 160.207
63.85000 159.312
63.86000 158.517
63.87000 157.441
63.88000 155.805
63.89000 154.154
63.90000 151.685
63.91000 148.130
63.92000 144.572
63.93000 146.338
63.94000 152.624
63.95000 158.753
63.96000 156.844
63.97000 150.419
63.98000 144.374
63.99000 145.454
64.00000 149.229
64.01000 152.718
64.02000 150.017
64.03000 146.185
64.04000 143.485
64.05000 147.437
64.06000 152.477
64.07000 156.083
64.08000 154.216
64.09000 151.813
64.10000 150.063
64.11000 148.148
64.12000 146.667
64.13000 146.595
64.14000 148.951
64.15000 151.349
64.16000 153.910
64.17000 156.656
64.18000 159.392
64.19000 158.355
64.20000 154.612
64.21000 151.047
64.22000 153.353
64.23000 158.501
64.24000 163.260
64.25000 162.437
64.26000 159.793
64.27000 157.396
64.28000 159.297
64.29000 161.794
64.30000 163.403
64.31000 160.596
64.32000 157.187
64.33000 154.946
64.34000 156.538
64.35000 158.428
64.36000 159.743
64.37000 156.731
64.38000 154.341
64.39000 152.616
64.40000 151.874
64.41000 151.142
64.42000 154.097
64.43000 160.570
64.44000 166.991
64.45000 169.069
64.46000 168.457
64.47000 167.808
64.48000 166.330
64.49000 164.504
64.50000 162.955
64.51000 164.533
64.52000 166.988
64.53000 169.165
64.54000 167.306
64.55000 165.053
64.56000 163.281
64.57000 163.553
64.58000 164.054
64.59000 165.159
64.60000 167.969
64.61000 170.882
64.62000 172.808
64.63000 170.482
64.64000 168.689
64.65000 166.369
64.66000 163.381
64.67000 160.402
64.68000 161.420
64.69000 165.671
64.70000 169.861
64.71000 172.439
64.72000 174.104
64.73000 175.583
64.74000 173.876
64.75000 171.020
64.76000 168.745
64.77000 171.778
64.78000 176.090
64.79000 179.821
64.80000 177.900
64.81000 175.524
64.82000 172.911
64.83000 169.437
64.84000 165.884
64.85000 164.364
64.86000 167.804
64.87000 171.468
64.88000 173.757
64.89000 172.925
64.90000 172.292
64.91000 171.801
64.92000 171.463
64.93000 171.140
64.94000 172.588
64.95000 175.258
64.96000 177.867
64.97000 181.045
64.98000 184.340
64.99000 187.544
65.00000 189.552
65.01000 191.187
65.02000 192.254
65.03000 189.049
65.04000 184.967
65.05000 181.529
65.06000 181.199
65.07000 181.257
65.08000 182.100
65.09000 185.398
65.10000 188.874
65.11000 191.112
65.12000 190.741
65.13000 190.287
65.14000 190.021
65.15000 195.154
65.16000 198.797
65.17000 201.327
65.18000 202.853
65.19000 204.370
65.20000 205.315
65.21000 205.922
65.22000 206.508
65.23000 211.289
65.24000 217.381
65.25000 222.902
65.26000 222.415
65.27000 220.321
65.28000 219.306
65.29000 225.047
65.30000 231.962
65.31000 237.611
65.32000 240.017
65.33000 241.707
65.34000 243.239
65.35000 244.346
65.36000 245.430
65.37000 248.014
65.38000 253.326
65.39000 258.694
65.40000 261.624
65.41000 257.093
65.42000 254.003
65.43000 258.878
65.44000 269.874
65.45000 280.673
65.46000 283.993
65.47000 283.495
65.48000 283.019
65.49000 283.920
65.50000 285.198
65.51000 286.376
65.52000 286.709
65.53000 286.848
65.54000 288.431
65.55000 297.643
65.56000 307.967
65.57000 316.121
65.58000 320.982
65.59000 324.659
65.60000 328.202
65.61000 331.434
65.62000 334.653
65.63000 338.770
65.64000 344.289
65.65000 349.824
65.66000 352.613
65.67000 371.145
65.68000 383.602
65.69000 402.910
65.70000 426.722
65.71000 450.903
65.72000 484.686
65.73000 522.703
65.74000 558.470
65.75000 598.097
65.76000 635.357
65.77000 671.956
65.78000 703.877
65.79000 734.885
65.80000 766.226
65.81000 799.065
65.82000 832.084
65.83000 857.204
65.84000 869.071
65.85000 877.712
65.86000 881.610
65.87000 875.978
65.88000 870.077
65.89000 866.211
65.90000 865.068
65.91000 863.941
65.92000 857.256
65.93000 845.830
65.94000 834.108
65.95000 806.954
65.96000 771.079
65.97000 734.233
65.98000 678.997
65.99000 616.761
66.00000 559.191
66.01000 510.061
66.02000 467.856
66.03000 427.767
66.04000 400.216
66.05000 374.728
66.06000 351.768
66.07000 338.514
66.08000 326.218
66.09000 317.242
66.10000 298.895
66.11000 284.388
66.12000 274.509
66.13000 272.645
66.14000 270.922
66.15000 269.469
66.16000 268.322
66.17000 267.179
66.18000 264.447
66.19000 260.585
66.20000 256.871
66.21000 258.077
66.22000 261.681
66.23000 265.444
66.24000 271.497
66.25000 278.303
66.26000 284.478
66.27000 293.991
66.28000 303.027
66.29000 313.088
66.30000 328.280
66.31000 344.178
66.32000 357.581
66.33000 362.752
66.34000 367.275
66.35000 370.428
66.36000 375.278
66.37000 378.985
66.38000 379.354
66.39000 374.756
66.40000 370.112
66.41000 368.163
66.42000 368.803
66.43000 369.438
66.44000 375.958
66.45000 385.983
66.46000 395.544
66.47000 394.248
66.48000 388.386
66.49000 382.756
66.50000 379.759
66.51000 377.507
66.52000 375.508
66.53000 361.964
66.54000 348.375
66.55000 336.620
66.56000 332.693
66.57000 329.654
66.58000 325.966
66.59000 320.433
66.60000 314.786
66.61000 311.045
66.62000 303.425
66.63000 297.727
66.64000 292.249
66.65000 287.050
66.66000 281.863
66.67000 281.007
66.68000 283.676
66.69000 286.307
66.70000 291.256
66.71000 297.274
66.72000 302.652
66.73000 296.948
66.74000 287.221
66.75000 278.893
66.76000 283.452
66.77000 291.134
66.78000 297.789
66.79000 292.857
66.80000 287.126
66.81000 284.168
66.82000 291.354
66.83000 299.473
66.84000 305.305
66.85000 305.522
66.86000 305.482
66.87000 305.456
66.88000 304.537
66.89000 303.864
66.90000 304.465
66.91000 306.442
66.92000 308.429
66.93000 311.633
66.94000 315.682
66.95000 319.640
66.96000 320.154
66.97000 319.112
66.98000 317.566
66.99000 309.268
67.00000 298.856
67.01000 289.501
67.02000 288.136
67.03000 288.424
67.04000 288.666
67.05000 304.087
67.06000 318.607
67.07000 330.208
67.08000 332.629
67.09000 334.381
67.10000 336.251
67.11000 338.375
67.12000 340.506
67.13000 341.759
67.14000 340.956
67.15000 340.381
67.16000 341.328
67.17000 343.661
67.18000 345.923
67.19000 343.630
67.20000 338.621
67.21000 333.776
67.22000 335.449
67.23000 339.500
67.24000 343.975
67.25000 352.960
67.26000 363.159
67.27000 371.950
67.28000 371.858
67.29000 370.210
67.30000 368.862
67.31000 365.412
67.32000 362.404
67.33000 360.638
67.34000 362.246
67.35000 364.043
67.36000 365.225
67.37000 365.285
67.38000 365.322
67.39000 365.342
67.40000 374.461
67.41000 380.727
67.42000 382.617
67.43000 381.122
67.44000 379.675
67.45000 380.051
67.46000 381.364
67.47000 382.619
67.48000 391.118
67.49000 401.351
67.50000 409.950
67.51000 404.442
67.52000 395.682
67.53000 389.061
67.54000 393.817
67.55000 400.243
67.56000 405.326
67.57000 413.477
67.58000 420.236
67.59000 421.936
67.60000 411.792
67.61000 401.158
67.62000 399.750
67.63000 412.847
67.64000 426.121
67.65000 432.831
67.66000 425.166
67.67000 420.091
67.68000 420.438
67.69000 424.370
67.70000 428.122
67.71000 427.139
67.72000 424.056
67.73000 421.153
67.74000 425.502
67.75000 431.457
67.76000 436.710
67.77000 436.954
67.78000 436.215
67.79000 435.729
67.80000 436.384
67.81000 437.178
67.82000 437.783
67.83000 447.141
67.84000 454.973
67.85000 460.799
67.86000 462.569
67.87000 464.222
67.88000 467.099
67.89000 471.622
67.90000 476.151
67.91000 479.685
67.92000 482.353
67.93000 484.960
67.94000 484.277
67.95000 481.724
67.96000 479.343
67.97000 480.269
67.98000 482.461
67.99000 484.490
68.00000 486.895
68.01000 489.143
68.02000 491.296
68.03000 492.888
68.04000 494.387
68.05000 495.998
68.06000 498.042
68.07000 500.130
68.08000 501.657
68.09000 502.302
68.10000 502.766
68.11000 508.218
68.12000 522.363
68.13000 536.664
68.14000 541.429
68.15000 535.262
68.16000 529.102
68.17000 527.860
68.18000 530.214
68.19000 532.722
68.20000 540.454
68.21000 550.746
68.22000 560.414
68.23000 560.968
68.24000 558.513
68.25000 556.283
68.26000 564.008
68.27000 572.757
68.28000 580.528
68.29000 583.362
68.30000 585.511
68.31000 586.676
68.32000 584.571
68.33000 582.206
68.34000 580.554
68.35000 597.511
68.36000 610.842
68.37000 623.872
68.38000 636.452
68.39000 649.026
68.40000 651.851
68.41000 645.243
68.42000 638.686
68.43000 642.327
68.44000 652.221
68.45000 662.140
68.46000 672.645
68.47000 683.398
68.48000 694.738
68.49000 712.814
68.50000 732.805
68.51000 750.571
68.52000 746.379
68.53000 739.200
68.54000 736.057
68.55000 750.254
68.56000 766.435
68.57000 786.908
68.58000 819.658
68.59000 853.167
68.60000 875.419
68.61000 897.236
68.62000 913.356
68.63000 939.995
68.64000 980.100
68.65000 1020.266
68.66000 1065.017
68.67000 1113.526
68.68000 1161.355
68.69000 1204.605
68.70000 1244.216
68.71000 1284.351
68.72000 1333.655
68.73000 1386.309
68.74000 1437.246
68.75000 1472.260
68.76000 1503.391
68.77000 1530.390
68.78000 1580.486
68.79000 1626.227
68.80000 1674.324
68.81000 1731.089
68.82000 1788.658
68.83000 1845.266
68.84000 1899.501
68.85000 1953.626
68.86000 1987.597
68.87000 2138.441
68.88000 2248.741
68.89000 2442.272
68.90000 2726.251
68.91000 3012.692
68.92000 3614.838
68.93000 4437.770
68.94000 5242.431
68.95000 7023.124
68.96000 9167.938
68.97000 11399.458
68.98000 14801.152
68.99000 18571.328
69.00000 22386.035
69.01000 26540.275
69.02000 30765.166
69.03000 34331.203
69.04000 38125.664
69.05000 41321.449
69.06000 44116.121
69.07000 45641.527
69.08000 47073.426
69.09000 48113.727
69.10000 48319.250
69.11000 48497.207
69.12000 48602.090
69.13000 48854.598
69.14000 49033.711
69.15000 49442.094
69.16000 50060.613
69.17000 50674.758
69.18000 51004.750
69.19000 51164.219
69.20000 51318.543
69.21000 50168.941
69.22000 48585.359
69.23000 46905.848
69.24000 44198.406
69.25000 41212.594
69.26000 38300.266
69.27000 35854.887
69.28000 33491.836
69.29000 31556.582
69.30000 29745.023
69.31000 28270.842
69.32000 26967.533
69.33000 26130.477
69.34000 25319.871
69.35000 24619.361
69.36000 24121.268
69.37000 23627.563
69.38000 23356.396
69.39000 21838.293
69.40000 20789.461
69.41000 19236.801
69.42000 17291.982
69.43000 15344.235
69.44000 13280.928
69.45000 11157.896
69.46000 9128.641
69.47000 7510.729
69.48000 6138.925
69.49000 4825.841
69.50000 4023.608
69.51000 3339.859
69.52000 2709.815
69.53000 2367.248
69.54000 2067.235
69.55000 1829.623
69.56000 1683.754
69.57000 1572.868
69.58000 1472.992
69.59000 1399.056
69.60000 1326.206
69.61000 1271.537
69.62000 1245.623
69.63000 1220.067
69.64000 1207.104
69.65000 1119.176
69.66000 1060.564
69.67000 1031.555
69.68000 1022.249
69.69000 1012.342
69.70000 986.353
69.71000 953.193
69.72000 921.955
69.73000 900.686
69.74000 883.962
69.75000 867.822
69.76000 855.885
69.77000 844.777
69.78000 832.586
69.79000 815.473
69.80000 797.756
69.81000 784.235
69.82000 780.447
69.83000 777.984
69.84000 769.831
69.85000 750.104
69.86000 730.040
69.87000 717.961
69.88000 716.703
69.89000 715.507
69.90000 707.502
69.91000 693.605
69.92000 679.824
69.93000 672.359
69.94000 668.506
69.95000 664.649
69.96000 660.709
69.97000 656.736
69.98000 653.056
69.99000 645.790
70.00000 638.422
