20.00000 15.261
20.01000 13.066
20.02000 17.265
20.03000 20.093
20.04000 33.378
20.05000 10.121
20.06000 20.335
20.07000 20.428
20.08000 10.036
20.09000 26.402
20.10000 14.054
20.11000 15.244
20.12000 24.276
20.13000 19.280
20.14000 18.135
20.15000 17.342
20.16000 19.308
20.17000 19.147
20.18000 36.150
20.19000 23.390
20.20000 23.305
20.21000 17.466
20.22000 14.252
20.23000 17.078
20.24000 16.482
20.25000 19.190
20.26000 24.547
20.27000 20.313
20.28000 19.115
20.29000 21.273
20.30000 22.284
20.31000 19.267
20.32000 21.198
20.33000 10.315
20.34000 20.151
20.35000 24.132
20.36000 23.248
20.37000 11.279
20.38000 17.103
20.39000 26.276
20.40000 25.357
20.41000 22.398
20.42000 17.124
20.43000 26.350
20.44000 27.333
20.45000 20.335
20.46000 11.238
20.47000 17.191
20.48000 21.220
20.49000 21.334
20.50000 19.129
20.51000 23.360
20.52000 16.214
20.53000 27.435
20.54000 18.262
20.55000 17.221
20.56000 15.123
20.57000 19.149
20.58000 17.176
20.59000 15.239
20.60000 21.098
20.61000 14.330
20.62000 17.045
20.63000 13.011
20.64000 29.186
20.65000 18.265
20.66000 17.074
20.67000 18.164
20.68000 18.162
20.69000 17.225
20.70000 23.521
20.71000 22.158
20.72000 9.083
20.73000 27.467
20.74000 13.996
20.75000 18.136
20.76000 10.080
20.77000 23.405
20.78000 19.113
20.79000 19.150
20.80000 15.142
20.81000 17.101
20.82000 20.249
20.83000 26.128
20.84000 20.162
20.85000 11.027
20.86000 18.204
20.87000 22.144
20.88000 11.070
20.89000 16.145
20.90000 12.185
20.91000 21.226
20.92000 14.217
20.93000 20.302
20.94000 25.358
20.95000 19.064
20.96000 19.191
20.97000 16.178
20.98000 17.228
20.99000 24.219
21.00000 22.349
21.01000 25.272
21.02000 17.166
21.03000 28.291
21.04000 18.357
21.05000 22.209
21.06000 19.204
21.07000 16.173
21.08000 23.228
21.09000 18.109
21.10000 20.197
21.11000 25.526
21.12000 22.389
21.13000 20.146
21.14000 19.287
21.15000 16.189
21.16000 25.343
21.17000 27.153
21.18000 20.301
21.19000 17.053
21.20000 21.344
21.21000 20.169
21.22000 23.300
21.23000 15.147
21.24000 28.295
21.25000 22.146
21.26000 23.312
21.27000 15.046
21.28000 23.281
21.29000 20.191
21.30000 22.434
21.31000 24.321
21.32000 25.272
21.33000 16.244
21.34000 9.106
21.35000 19.340
21.36000 15.203
21.37000 20.302
21.38000 19.280
21.39000 19.232
21.40000 17.106
21.41000 19.488
21.42000 17.388
21.43000 11.187
21.44000 23.289
21.45000 20.294
21.46000 18.314
21.47000 19.269
21.48000 20.417
21.49000 20.274
21.50000 27.210
21.51000 14.225
21.52000 22.156
21.53000 20.431
21.54000 25.537
21.55000 23.577
21.56000 22.210
21.57000 15.177
21.58000 11.111
21.59000 23.299
21.60000 13.287
21.61000 18.174
21.62000 26.237
21.63000 17.181
21.64000 22.592
21.65000 19.257
21.66000 23.186
21.67000 14.202
21.68000 14.182
21.69000 15.177
21.70000 26.189
21.71000 13.233
21.72000 19.093
21.73000 25.281
21.74000 14.173
21.75000 11.047
21.76000 20.341
21.77000 21.427
21.78000 22.363
21.79000 15.142
21.80000 25.169
21.81000 16.110
21.82000 15.228
21.83000 18.384
21.84000 10.130
21.85000 16.150
21.86000 22.299
21.87000 23.356
21.88000 19.028
21.89000 17.392
21.90000 17.127
21.91000 16.458
21.92000 21.228
21.93000 21.312
21.94000 26.377
21.95000 28.317
21.96000 19.172
21.97000 21.099
21.98000 20.433
21.99000 18.238
22.00000 22.232
22.01000 23.347
22.02000 21.296
22.03000 20.443
22.04000 23.174
22.05000 14.223
22.06000 24.357
22.07000 30.498
22.08000 21.251
22.09000 22.416
22.10000 20.111
22.11000 23.414
22.12000 19.210
22.13000 26.328
22.14000 17.189
22.15000 26.503
22.16000 24.187
22.17000 31.332
22.18000 19.211
22.19000 28.439
22.20000 12.358
22.21000 25.324
22.22000 16.284
22.23000 20.215
22.24000 29.356
22.25000 23.327
22.26000 24.375
22.27000 24.382
22.28000 23.352
22.29000 22.259
22.30000 18.232
22.31000 25.281
22.32000 21.235
22.33000 18.319
22.34000 18.309
22.35000 19.030
22.36000 21.291
22.37000 22.266
22.38000 16.213
22.39000 19.134
22.40000 15.193
22.41000 17.148
22.42000 21.163
22.43000 20.304
22.44000 13.251
22.45000 27.484
22.46000 23.351
22.47000 28.263
22.48000 21.278
22.49000 22.239
22.50000 29.533
22.51000 26.442
22.52000 20.363
22.53000 26.349
22.54000 27.214
22.55000 26.198
22.56000 30.458
22.57000 27.440
22.58000 23.347
22.59000 18.350
22.60000 22.189
22.61000 20.140
22.62000 24.506
22.63000 15.217
22.64000 26.034
22.65000 14.233
22.66000 25.217
22.67000 19.350
22.68000 22.389
22.69000 26.324
22.70000 28.269
22.71000 24.487
22.72000 29.363
22.73000 25.529
22.74000 18.182
22.75000 24.418
22.76000 22.114
22.77000 22.216
22.78000 17.323
22.79000 20.125
22.80000 18.222
22.81000 14.266
22.82000 28.353
22.83000 30.233
22.84000 18.992
22.85000 19.123
22.86000 17.209
22.87000 28.213
22.88000 16.100
22.89000 14.252
22.90000 30.345
22.91000 24.178
22.92000 19.413
22.93000 19.131
22.94000 33.401
22.95000 28.495
22.96000 20.291
22.97000 21.278
22.98000 20.213
22.99000 15.303
23.00000 24.265
23.01000 21.282
23.02000 19.366
23.03000 26.190
23.04000 33.542
23.05000 27.252
23.06000 25.292
23.07000 26.454
23.08000 15.324
23.09000 19.293
23.10000 23.357
23.11000 26.531
23.12000 30.258
23.13000 25.337
23.14000 27.279
23.15000 11.186
23.16000 30.458
23.17000 15.212
23.18000 19.234
23.19000 23.335
23.20000 21.260
23.21000 27.289
23.22000 15.138
23.23000 25.307
23.24000 29.390
23.25000 23.303
23.26000 16.281
23.27000 29.484
23.28000 32.492
23.29000 22.281
23.30000 18.241
23.31000 18.395
23.32000 15.210
23.33000 21.247
23.34000 12.069
23.35000 27.369
23.36000 21.330
23.37000 29.521
23.38000 26.340
23.39000 19.164
23.40000 23.447
23.41000 12.123
23.42000 21.212
23.43000 28.425
23.44000 33.489
23.45000 27.327
23.46000 25.153
23.47000 26.201
23.48000 28.385
23.49000 21.145
23.50000 19.995
23.51000 25.245
23.52000 23.342
23.53000 21.443
23.54000 22.355
23.55000 26.361
23.56000 16.260
23.57000 24.214
23.58000 22.097
23.59000 21.120
23.60000 21.271
23.61000 32.361
23.62000 31.202
23.63000 26.218
23.64000 16.336
23.65000 24.310
23.66000 18.320
23.67000 18.170
23.68000 26.349
23.69000 22.180
23.70000 15.035
23.71000 24.183
23.72000 24.339
23.73000 24.349
23.74000 28.557
23.75000 23.419
23.76000 23.449
23.77000 21.148
23.78000 21.293
23.79000 23.348
23.80000 19.273
23.81000 25.905
23.82000 23.383
23.83000 32.366
23.84000 28.472
23.85000 21.439
23.86000 32.392
23.87000 20.365
23.88000 32.580
23.89000 21.183
23.90000 32.400
23.91000 31.450
23.92000 25.427
23.93000 22.224
23.94000 24.203
23.95000 25.359
23.96000 22.605
23.97000 24.422
23.98000 22.529
23.99000 18.212
24.00000 24.194
24.01000 29.274
24.02000 21.194
24.03000 27.280
24.04000 20.179
24.05000 20.285
24.06000 40.465
24.07000 30.247
24.08000 29.263
24.09000 28.421
24.10000 33.297
24.11000 33.361
24.12000 34.355
24.13000 34.542
24.14000 25.354
24.15000 19.099
24.16000 18.400
24.17000 20.372
24.18000 21.383
24.19000 23.398
24.20000 35.491
24.21000 25.484
24.22000 25.203
24.23000 29.512
24.24000 25.146
24.25000 28.542
24.26000 20.480
24.27000 29.445
24.28000 15.145
24.29000 23.148
24.30000 42.532
24.31000 25.461
24.32000 28.270
24.33000 33.231
24.34000 21.202
24.35000 29.325
24.36000 25.125
24.37000 28.450
24.38000 20.318
24.39000 22.279
24.40000 27.159
24.41000 36.315
24.42000 32.295
24.43000 29.277
24.44000 23.132
24.45000 29.214
24.46000 32.527
24.47000 32.365
24.48000 27.331
24.49000 33.569
24.50000 24.512
24.51000 41.500
24.52000 27.447
24.53000 27.238
24.54000 26.394
24.55000 34.522
24.56000 27.060
24.57000 19.019
24.58000 33.347
24.59000 33.333
24.60000 28.419
24.61000 31.301
24.62000 23.340
24.63000 16.394
24.64000 17.145
24.65000 30.299
24.66000 28.338
24.67000 42.556
24.68000 30.472
24.69000 31.369
24.70000 26.268
24.71000 19.369
24.72000 21.565
24.73000 30.689
24.74000 37.314
24.75000 34.329
24.76000 24.268
24.77000 39.491
24.78000 35.411
24.79000 38.334
24.80000 32.244
24.81000 27.421
24.82000 30.450
24.83000 27.372
24.84000 20.360
24.85000 25.299
24.86000 38.433
24.87000 27.096
24.88000 40.707
24.89000 33.422
24.90000 30.504
24.91000 32.450
24.92000 34.425
24.93000 32.384
24.94000 36.468
24.95000 36.616
24.96000 28.315
24.97000 38.514
24.98000 27.266
24.99000 24.007
25.00000 29.366
25.01000 30.104
25.02000 25.340
25.03000 28.225
25.04000 29.553
25.05000 33.336
25.06000 25.285
25.07000 34.523
25.08000 24.205
25.09000 36.270
25.10000 30.241
25.11000 31.453
25.12000 25.283
25.13000 28.627
25.14000 28.337
25.15000 22.439
25.16000 29.238
25.17000 31.579
25.18000 19.337
25.19000 24.320
25.20000 25.501
25.21000 25.357
25.22000 28.495
25.23000 18.131
25.24000 37.362
25.25000 36.473
25.26000 26.074
25.27000 33.490
25.28000 36.413
25.29000 31.621
25.30000 36.527
25.31000 35.435
25.32000 32.727
25.33000 28.210
25.34000 30.654
25.35000 29.402
25.36000 41.339
25.37000 33.560
25.38000 36.620
25.39000 29.414
25.40000 33.747
25.41000 31.352
25.42000 39.577
25.43000 39.460
25.44000 21.209
25.45000 24.445
25.46000 35.689
25.47000 29.374
25.48000 36.362
25.49000 30.190
25.50000 49.788
25.51000 30.402
25.52000 33.581
25.53000 33.231
25.54000 30.360
25.55000 32.442
25.56000 38.478
25.57000 31.398
25.58000 37.394
25.59000 41.639
25.60000 38.232
25.61000 36.320
25.62000 36.356
25.63000 36.627
25.64000 27.524
25.65000 37.625
25.66000 36.271
25.67000 25.050
25.68000 33.257
25.69000 32.402
25.70000 31.512
25.71000 32.311
25.72000 37.707
25.73000 27.295
25.74000 32.456
25.75000 33.284
25.76000 31.208
25.77000 35.483
25.78000 34.333
25.79000 33.399
25.80000 34.696
25.81000 31.571
25.82000 43.526
25.83000 31.291
25.84000 34.637
25.85000 34.180
25.86000 27.253
25.87000 26.214
25.88000 32.243
25.89000 33.442
25.90000 35.459
25.91000 33.379
25.92000 38.672
25.93000 33.362
25.94000 36.271
25.95000 40.316
25.96000 31.338
25.97000 26.296
25.98000 27.295
25.99000 37.536
26.00000 37.395
26.01000 22.230
26.02000 40.829
26.03000 30.412
26.04000 45.442
26.05000 34.543
26.06000 38.316
26.07000 19.267
26.08000 26.494
26.09000 33.447
26.10000 36.475
26.11000 45.572
26.12000 43.748
26.13000 35.396
26.14000 37.286
26.15000 33.342
26.16000 35.346
26.17000 38.332
26.18000 37.356
26.19000 37.485
26.20000 38.630
26.21000 45.417
26.22000 43.696
26.23000 34.288
26.24000 48.441
26.25000 34.242
26.26000 36.507
26.27000 40.541
26.28000 31.296
26.29000 28.095
26.30000 40.481
26.31000 41.486
26.32000 41.284
26.33000 40.723
26.34000 32.436
26.35000 34.530
26.36000 35.328
26.37000 36.409
26.38000 34.334
26.39000 31.338
26.40000 42.500
26.41000 42.453
26.42000 43.561
26.43000 43.511
26.44000 33.298
26.45000 34.427
26.46000 41.613
26.47000 38.487
26.48000 40.602
26.49000 48.366
26.50000 29.295
26.51000 43.670
26.52000 39.565
26.53000 38.444
26.54000 25.440
26.55000 36.373
26.56000 38.288
26.57000 33.402
26.58000 39.440
26.59000 47.675
26.60000 46.328
26.61000 32.580
26.62000 46.845
26.63000 44.597
26.64000 39.300
26.65000 40.539
26.66000 38.689
26.67000 37.233
26.68000 46.737
26.69000 31.275
26.70000 45.587
26.71000 42.390
26.72000 35.652
26.73000 44.518
26.74000 38.539
26.75000 27.247
26.76000 36.507
26.77000 36.258
26.78000 28.163
26.79000 47.809
26.80000 31.287
26.81000 37.498
26.82000 39.643
26.83000 35.381
26.84000 32.134
26.85000 44.487
26.86000 38.372
26.87000 32.575
26.88000 38.322
26.89000 38.648
26.90000 51.523
26.91000 38.386
26.92000 44.528
26.93000 41.821
26.94000 41.650
26.95000 38.670
26.96000 39.446
26.97000 43.592
26.98000 47.626
26.99000 42.534
27.00000 32.278
27.01000 40.750
27.02000 27.250
27.03000 24.530
27.04000 40.632
27.05000 31.352
27.06000 56.791
27.07000 47.711
27.08000 27.232
27.09000 28.450
27.10000 35.470
27.11000 31.452
27.12000 43.433
27.13000 49.875
27.14000 38.418
27.15000 50.670
27.16000 47.382
27.17000 43.483
27.18000 37.476
27.19000 45.691
27.20000 46.666
27.21000 44.403
27.22000 37.504
27.23000 40.614
27.24000 39.377
27.25000 32.102
27.26000 35.562
27.27000 38.429
27.28000 49.839
27.29000 44.553
27.30000 38.297
27.31000 30.329
27.32000 40.699
27.33000 43.685
27.34000 41.481
27.35000 35.482
27.36000 39.451
27.37000 37.492
27.38000 44.747
27.39000 39.658
27.40000 39.297
27.41000 43.556
27.42000 50.740
27.43000 41.352
27.44000 45.326
27.45000 36.654
27.46000 32.523
27.47000 42.470
27.48000 39.482
27.49000 44.526
27.50000 35.308
27.51000 36.653
27.52000 36.375
27.53000 41.607
27.54000 44.464
27.55000 47.502
27.56000 43.639
27.57000 44.060
27.58000 43.589
27.59000 38.209
27.60000 51.603
27.61000 42.449
27.62000 48.664
27.63000 30.431
27.64000 38.360
27.65000 37.516
27.66000 37.362
27.67000 34.445
27.68000 42.488
27.69000 49.668
27.70000 45.298
27.71000 30.511
27.72000 39.518
27.73000 33.386
27.74000 32.590
27.75000 46.586
27.76000 44.629
27.77000 36.582
27.78000 27.379
27.79000 25.080
27.80000 42.525
27.81000 45.753
27.82000 47.906
27.83000 44.527
27.84000 27.352
27.85000 37.858
27.86000 35.325
27.87000 40.427
27.88000 42.619
27.89000 54.802
27.90000 39.727
27.91000 36.479
27.92000 45.440
27.93000 38.533
27.94000 42.622
27.95000 34.581
27.96000 33.431
27.97000 42.484
27.98000 38.302
27.99000 41.493
28.00000 38.314
28.01000 49.477
28.02000 41.396
28.03000 48.695
28.04000 39.498
28.05000 43.636
28.06000 46.508
28.07000 41.426
28.08000 33.347
28.09000 30.516
28.10000 44.674
28.11000 37.530
28.12000 47.477
28.13000 60.920
28.14000 34.330
28.15000 33.371
28.16000 47.549
28.17000 46.404
28.18000 26.356
28.19000 45.295
28.20000 45.507
28.21000 47.632
28.22000 38.525
28.23000 37.625
28.24000 42.697
28.25000 31.312
28.26000 47.587
28.27000 37.461
28.28000 36.409
28.29000 36.424
28.30000 33.437
28.31000 35.485
28.32000 34.218
28.33000 45.548
28.34000 32.521
28.35000 48.360
28.36000 32.594
28.37000 32.311
28.38000 34.343
28.39000 40.658
28.40000 36.522
28.41000 44.585
28.42000 43.490
28.43000 39.318
28.44000 39.593
28.45000 46.320
28.46000 34.412
28.47000 33.333
28.48000 40.437
28.49000 46.515
28.50000 44.591
28.51000 26.364
28.52000 40.955
28.53000 35.395
28.54000 33.425
28.55000 41.644
28.56000 43.804
28.57000 44.618
28.58000 39.519
28.59000 49.600
28.60000 44.457
28.61000 47.554
28.62000 27.331
28.63000 43.569
28.64000 52.925
28.65000 40.373
28.66000 40.448
28.67000 35.389
28.68000 31.429
28.69000 29.231
28.70000 33.343
28.71000 30.626
28.72000 47.605
28.73000 31.240
28.74000 35.586
28.75000 41.619
28.76000 30.612
28.77000 31.441
28.78000 40.784
28.79000 33.508
28.80000 42.252
28.81000 33.469
28.82000 33.289
28.83000 27.437
28.84000 42.623
28.85000 43.602
28.86000 35.276
28.87000 31.362
28.88000 32.259
28.89000 40.397
28.90000 29.532
28.91000 36.580
28.92000 39.644
28.93000 31.573
28.94000 34.772
28.95000 29.337
28.96000 45.661
28.97000 40.695
28.98000 29.259
28.99000 31.708
29.00000 41.382
29.01000 39.365
29.02000 44.941
29.03000 30.373
29.04000 39.560
29.05000 46.482
29.06000 30.413
29.07000 35.560
29.08000 34.373
29.09000 33.400
29.10000 48.598
29.11000 23.431
29.12000 44.728
29.13000 44.585
29.14000 41.634
29.15000 33.406
29.16000 33.483
29.17000 32.336
29.18000 45.379
29.19000 36.543
29.20000 27.324
29.21000 37.535
29.22000 34.696
29.23000 27.288
29.24000 34.471
29.25000 40.671
29.26000 28.390
29.27000 37.461
29.28000 21.385
29.29000 36.524
29.30000 36.373
29.31000 28.253
29.32000 42.322
29.33000 22.371
29.34000 23.316
29.35000 40.487
29.36000 31.629
29.37000 27.302
29.38000 37.576
29.39000 26.429
29.40000 42.401
29.41000 33.565
29.42000 36.543
29.43000 33.302
29.44000 31.618
29.45000 36.573
29.46000 29.091
29.47000 36.286
29.48000 35.443
29.49000 29.373
29.50000 37.413
29.51000 29.378
29.52000 33.462
29.53000 32.529
29.54000 35.532
29.55000 32.311
29.56000 36.496
29.57000 31.454
29.58000 26.374
29.59000 35.379
29.60000 35.437
29.61000 34.512
29.62000 34.594
29.63000 25.097
29.64000 38.492
29.65000 26.198
29.66000 40.500
29.67000 30.304
29.68000 29.549
29.69000 34.362
29.70000 45.510
29.71000 39.446
29.72000 34.732
29.73000 34.184
29.74000 34.224
29.75000 31.508
29.76000 32.263
29.77000 29.252
29.78000 36.496
29.79000 38.349
29.80000 30.419
29.81000 23.615
29.82000 30.474
29.83000 34.513
29.84000 38.626
29.85000 23.259
29.86000 22.107
29.87000 33.580
29.88000 31.465
29.89000 27.186
29.90000 27.536
29.91000 37.600
29.92000 32.428
29.93000 29.412
29.94000 23.285
29.95000 18.380
29.96000 33.353
29.97000 20.306
29.98000 35.669
29.99000 23.284
30.00000 38.766
30.01000 31.273
30.02000 40.531
30.03000 23.222
30.04000 31.708
30.05000 32.408
30.06000 32.418
30.07000 32.560
30.08000 26.234
30.09000 25.308
30.10000 21.355
30.11000 23.427
30.12000 34.497
30.13000 30.562
30.14000 20.043
30.15000 27.344
30.16000 23.320
30.17000 36.425
30.18000 26.249
30.19000 27.611
30.20000 22.267
30.21000 24.450
30.22000 27.448
30.23000 31.399
30.24000 32.414
30.25000 34.498
30.26000 28.174
30.27000 27.542
30.28000 24.190
30.29000 23.350
30.30000 28.266
30.31000 27.217
30.32000 32.330
30.33000 32.379
30.34000 26.268
30.35000 27.194
30.36000 35.828
30.37000 32.310
30.38000 32.148
30.39000 28.418
30.40000 29.503
30.41000 33.291
30.42000 39.436
30.43000 37.603
30.44000 26.546
30.45000 38.456
30.46000 25.258
30.47000 27.343
30.48000 27.284
30.49000 21.094
30.50000 28.291
30.51000 26.489
30.52000 36.382
30.53000 22.372
30.54000 35.169
30.55000 19.360
30.56000 23.190
30.57000 41.539
30.58000 32.060
30.59000 37.502
30.60000 18.206
30.61000 26.289
30.62000 20.448
30.63000 27.513
30.64000 23.357
30.65000 31.346
30.66000 32.196
30.67000 30.434
30.68000 32.510
30.69000 33.413
30.70000 27.390
30.71000 27.379
30.72000 26.448
30.73000 29.433
30.74000 25.348
30.75000 20.168
30.76000 31.526
30.77000 27.224
30.78000 24.321
30.79000 26.241
30.80000 33.368
30.81000 23.303
30.82000 24.465
30.83000 27.209
30.84000 17.366
30.85000 19.249
30.86000 21.243
30.87000 21.249
30.88000 27.375
30.89000 24.342
30.90000 40.550
30.91000 28.358
30.92000 22.138
30.93000 31.443
30.94000 32.324
30.95000 23.097
30.96000 20.261
30.97000 25.272
30.98000 26.424
30.99000 26.374
31.00000 35.049
31.01000 24.612
31.02000 19.304
31.03000 29.240
31.04000 34.397
31.05000 35.364
31.06000 27.464
31.07000 39.661
31.08000 31.543
31.09000 21.244
31.10000 26.294
31.11000 20.121
31.12000 21.229
31.13000 23.312
31.14000 27.374
31.15000 23.334
31.16000 19.238
31.17000 32.494
31.18000 31.457
31.19000 24.081
31.20000 33.447
31.21000 20.334
31.22000 23.248
31.23000 23.186
31.24000 27.175
31.25000 22.315
31.26000 22.373
31.27000 27.425
31.28000 19.266
31.29000 29.328
31.30000 21.099
31.31000 22.331
31.32000 21.462
31.33000 24.501
31.34000 18.240
31.35000 24.534
31.36000 17.276
31.37000 25.268
31.38000 19.281
31.39000 21.442
31.40000 17.175
31.41000 22.360
31.42000 17.309
31.43000 18.231
31.44000 28.181
31.45000 25.519
31.46000 27.362
31.47000 17.386
31.48000 24.272
31.49000 19.167
31.50000 23.503
31.51000 30.439
31.52000 19.319
31.53000 31.387
31.54000 23.104
31.55000 26.265
31.56000 32.419
31.57000 23.300
31.58000 23.380
31.59000 19.378
31.60000 25.170
31.61000 30.285
31.62000 25.244
31.63000 25.015
31.64000 22.337
31.65000 17.126
31.66000 25.488
31.67000 15.278
31.68000 31.171
31.69000 13.115
31.70000 21.278
31.71000 24.037
31.72000 30.387
31.73000 18.140
31.74000 25.286
31.75000 13.046
31.76000 26.235
31.77000 13.301
31.78000 24.186
31.79000 24.215
31.80000 15.192
31.81000 24.320
31.82000 24.309
31.83000 35.718
31.84000 24.206
31.85000 30.487
31.86000 18.220
31.87000 24.419
31.88000 24.270
31.89000 23.263
31.90000 21.467
31.91000 13.166
31.92000 28.422
31.93000 28.456
31.94000 24.324
31.95000 22.283
31.96000 23.195
31.97000 25.216
31.98000 21.376
31.99000 22.195
32.00000 26.634
32.01000 25.278
32.02000 22.187
32.03000 27.387
32.04000 29.571
32.05000 18.408
32.06000 21.384
32.07000 19.268
32.08000 29.611
32.09000 32.491
32.10000 21.038
32.11000 27.320
32.12000 28.366
32.13000 26.616
32.14000 27.398
32.15000 25.212
32.16000 31.384
32.17000 22.152
32.18000 23.097
32.19000 23.601
32.20000 23.388
32.21000 22.969
32.22000 20.237
32.23000 29.385
32.24000 25.164
32.25000 29.279
32.26000 30.332
32.27000 26.248
32.28000 18.217
32.29000 31.497
32.30000 24.375
32.31000 30.329
32.32000 23.377
32.33000 20.036
32.34000 30.040
32.35000 33.313
32.36000 30.322
32.37000 30.299
32.38000 25.370
32.39000 32.417
32.40000 16.319
32.41000 28.395
32.42000 23.395
32.43000 30.694
32.44000 23.220
32.45000 30.640
32.46000 24.529
32.47000 27.661
32.48000 23.258
32.49000 31.359
32.50000 28.274
32.51000 29.421
32.52000 21.232
32.53000 19.232
32.54000 33.324
32.55000 18.261
32.56000 20.254
32.57000 15.007
32.58000 21.422
32.59000 27.340
32.60000 23.256
32.61000 25.396
32.62000 20.334
32.63000 28.415
32.64000 18.225
32.65000 23.214
32.66000 26.360
32.67000 21.191
32.68000 33.425
32.69000 24.341
32.70000 13.222
32.71000 21.377
32.72000 22.397
32.73000 18.317
32.74000 18.270
32.75000 27.395
32.76000 22.255
32.77000 20.378
32.78000 21.261
32.79000 15.239
32.80000 18.191
32.81000 24.251
32.82000 18.081
32.83000 21.046
32.84000 16.277
32.85000 14.177
32.86000 19.306
32.87000 23.321
32.88000 22.115
32.89000 19.295
32.90000 20.359
32.91000 24.381
32.92000 12.233
32.93000 13.111
32.94000 12.249
32.95000 16.205
32.96000 21.231
32.97000 22.346
32.98000 26.459
32.99000 14.136
33.00000 23.368
33.01000 20.211
33.02000 18.294
33.03000 16.251
33.04000 23.393
33.05000 18.204
33.06000 20.274
33.07000 20.449
33.08000 9.128
33.09000 15.281
33.10000 27.334
33.11000 11.064
33.12000 18.185
33.13000 14.062
33.14000 22.389
33.15000 12.100
33.16000 21.256
33.17000 17.153
33.18000 19.314
33.19000 18.170
33.20000 19.184
33.21000 9.160
33.22000 19.277
33.23000 17.204
33.24000 18.363
33.25000 14.113
33.26000 17.219
33.27000 22.212
33.28000 18.158
33.29000 16.220
33.30000 12.023
33.31000 24.196
33.32000 21.385
33.33000 8.153
33.34000 16.168
33.35000 17.406
33.36000 16.105
33.37000 17.148
33.38000 13.163
33.39000 16.214
33.40000 18.476
33.41000 10.102
33.42000 16.355
33.43000 18.224
33.44000 18.293
33.45000 13.345
33.46000 22.271
33.47000 15.226
33.48000 16.242
33.49000 15.120
33.50000 19.194
33.51000 14.173
33.52000 9.137
33.53000 12.214
33.54000 17.055
33.55000 14.245
33.56000 17.258
33.57000 15.229
33.58000 9.176
33.59000 16.339
33.60000 15.188
33.61000 18.141
33.62000 21.330
33.63000 13.140
33.64000 15.223
33.65000 21.259
33.66000 19.331
33.67000 15.016
33.68000 22.254
33.69000 12.011
33.70000 12.210
33.71000 25.305
33.72000 16.110
33.73000 17.043
33.74000 10.048
33.75000 13.016
33.76000 10.165
33.77000 14.089
33.78000 15.243
33.79000 19.289
33.80000 20.345
33.81000 21.143
33.82000 19.338
33.83000 14.020
33.84000 18.408
33.85000 6.126
33.86000 14.090
33.87000 23.214
33.88000 13.203
33.89000 14.149
33.90000 11.244
33.91000 14.129
33.92000 12.180
33.93000 7.089
33.94000 21.448
33.95000 14.219
33.96000 16.120
33.97000 10.082
33.98000 12.159
33.99000 18.216
34.00000 9.124
34.01000 16.120
34.02000 18.254
34.03000 11.177
34.04000 15.345
34.05000 19.240
34.06000 13.207
34.07000 12.998
34.08000 18.192
34.09000 14.156
34.10000 19.272
34.11000 22.316
34.12000 16.155
34.13000 16.245
34.14000 15.386
34.15000 14.995
34.16000 25.200
34.17000 11.006
34.18000 15.176
34.19000 20.207
34.20000 25.419
34.21000 19.325
34.22000 12.239
34.23000 13.079
34.24000 17.224
34.25000 14.232
34.26000 12.074
34.27000 13.294
34.28000 16.024
34.29000 17.350
34.30000 23.444
34.31000 21.119
34.32000 17.314
34.33000 12.276
34.34000 15.231
34.35000 13.035
34.36000 16.207
34.37000 14.256
34.38000 23.154
34.39000 12.190
34.40000 16.105
34.41000 13.173
34.42000 8.111
34.43000 16.123
34.44000 16.191
34.45000 18.316
34.46000 16.201
34.47000 9.164
34.48000 20.286
34.49000 11.075
34.50000 10.025
34.51000 16.203
34.52000 10.111
34.53000 17.227
34.54000 13.142
34.55000 22.293
34.56000 14.348
34.57000 15.164
34.58000 14.141
34.59000 18.280
34.60000 15.276
34.61000 14.248
34.62000 14.204
34.63000 14.302
34.64000 17.156
34.65000 13.160
34.66000 14.108
34.67000 22.365
34.68000 20.126
34.69000 14.285
34.70000 15.243
34.71000 22.341
34.72000 13.077
34.73000 16.270
34.74000 17.116
34.75000 12.159
34.76000 11.094
34.77000 14.281
34.78000 15.234
34.79000 12.113
34.80000 13.174
34.81000 18.266
34.82000 22.327
34.83000 12.119
34.84000 17.408
34.85000 10.970
34.86000 20.422
34.87000 21.354
34.88000 20.257
34.89000 12.251
34.90000 23.414
34.91000 13.250
34.92000 16.329
34.93000 8.989
34.94000 14.158
34.95000 9.169
34.96000 19.117
34.97000 14.193
34.98000 17.289
34.99000 15.481
35.00000 14.092
35.01000 13.061
35.02000 12.163
35.03000 15.185
35.04000 20.245
35.05000 13.047
35.06000 10.089
35.07000 10.165
35.08000 13.131
35.09000 11.174
35.10000 19.439
35.11000 12.129
35.12000 13.210
35.13000 14.130
35.14000 12.162
35.15000 16.157
35.16000 15.313
35.17000 17.265
35.18000 20.405
35.19000 18.377
35.20000 15.032
35.21000 13.311
35.22000 10.037
35.23000 12.143
35.24000 14.127
35.25000 13.194
35.26000 6.001
35.27000 12.182
35.28000 19.299
35.29000 9.097
35.30000 12.179
35.31000 15.006
35.32000 16.259
35.33000 9.180
35.34000 18.127
35.35000 11.073
35.36000 20.055
35.37000 15.215
35.38000 14.141
35.39000 16.305
35.40000 11.069
35.41000 15.256
35.42000 10.251
35.43000 13.170
35.44000 10.122
35.45000 16.238
35.46000 18.297
35.47000 22.334
35.48000 12.151
35.49000 14.089
35.50000 18.276
35.51000 11.142
35.52000 10.025
35.53000 12.160
35.54000 7.064
35.55000 24.252
35.56000 8.105
35.57000 18.228
35.58000 10.209
35.59000 19.214
35.60000 17.153
35.61000 14.034
35.62000 10.133
35.63000 7.026
35.64000 10.119
35.65000 26.436
35.66000 11.129
35.67000 16.166
35.68000 11.307
35.69000 14.199
35.70000 14.103
35.71000 10.061
35.72000 14.196
35.73000 11.985
35.74000 8.966
35.75000 10.191
35.76000 6.024
35.77000 18.157
35.78000 17.202
35.79000 13.221
35.80000 13.258
35.81000 5.085
35.82000 19.274
35.83000 10.114
35.84000 16.239
35.85000 20.179
35.86000 15.151
35.87000 15.300
35.88000 16.175
35.89000 14.216
35.90000 19.119
35.91000 15.243
35.92000 14.250
35.93000 16.106
35.94000 14.205
35.95000 24.278
35.96000 19.411
35.97000 13.279
35.98000 16.302
35.99000 13.144
36.00000 9.065
36.01000 14.140
36.02000 14.121
36.03000 16.021
36.04000 10.162
36.05000 14.050
36.06000 12.207
36.07000 13.198
36.08000 10.044
36.09000 14.176
36.10000 15.226
36.11000 16.100
36.12000 17.241
36.13000 22.406
36.14000 17.244
36.15000 10.140
36.16000 20.174
36.17000 10.187
36.18000 16.227
36.19000 17.362
36.20000 9.113
36.21000 11.003
36.22000 19.097
36.23000 23.480
36.24000 21.234
36.25000 13.297
36.26000 9.128
36.27000 9.087
36.28000 17.987
36.29000 11.228
36.30000 14.035
36.31000 11.275
36.32000 19.236
36.33000 18.109
36.34000 14.220
36.35000 16.346
36.36000 18.225
36.37000 17.364
36.38000 20.304
36.39000 13.430
36.40000 14.002
36.41000 11.179
36.42000 20.128
36.43000 10.035
36.44000 18.055
36.45000 16.255
36.46000 11.380
36.47000 11.139
36.48000 26.377
36.49000 11.211
36.50000 18.209
36.51000 18.346
36.52000 13.225
36.53000 17.347
36.54000 15.168
36.55000 14.123
36.56000 14.175
36.57000 20.217
36.58000 17.192
36.59000 15.114
36.60000 15.127
36.61000 15.237
36.62000 22.295
36.63000 9.187
36.64000 22.309
36.65000 15.447
36.66000 12.011
36.67000 15.048
36.68000 13.088
36.69000 15.179
36.70000 17.318
36.71000 18.072
36.72000 17.199
36.73000 21.313
36.74000 16.097
36.75000 12.062
36.76000 11.275
36.77000 16.345
36.78000 14.165
36.79000 18.055
36.80000 12.241
36.81000 15.327
36.82000 9.148
36.83000 11.086
36.84000 10.070
36.85000 17.204
36.86000 17.212
36.87000 10.009
36.88000 15.249
36.89000 13.031
36.90000 20.312
36.91000 18.152
36.92000 17.131
36.93000 11.087
36.94000 16.125
36.95000 20.391
36.96000 14.264
36.97000 20.434
36.98000 6.099
36.99000 12.114
37.00000 14.116
37.01000 17.173
37.02000 13.124
37.03000 9.078
37.04000 21.358
37.05000 22.049
37.06000 14.178
37.07000 12.215
37.08000 17.293
37.09000 10.180
37.10000 15.189
37.11000 21.524
37.12000 12.109
37.13000 18.158
37.14000 15.282
37.15000 16.328
37.16000 19.367
37.17000 15.337
37.18000 15.157
37.19000 29.514
37.20000 25.056
37.21000 19.234
37.22000 29.255
37.23000 10.210
37.24000 15.184
37.25000 9.125
37.26000 15.123
37.27000 29.167
37.28000 21.240
37.29000 16.199
37.30000 13.097
37.31000 15.101
37.32000 12.068
37.33000 19.154
37.34000 11.105
37.35000 15.159
37.36000 18.281
37.37000 14.253
37.38000 19.283
37.39000 18.094
37.40000 10.992
37.41000 14.225
37.42000 19.096
37.43000 16.137
37.44000 14.200
37.45000 14.199
37.46000 20.027
37.47000 6.054
37.48000 11.026
37.49000 18.234
37.50000 18.128
37.51000 11.103
37.52000 12.255
37.53000 18.354
37.54000 17.383
37.55000 16.217
37.56000 12.285
37.57000 13.176
37.58000 23.246
37.59000 13.061
37.60000 8.118
37.61000 13.109
37.62000 25.374
37.63000 20.177
37.64000 17.147
37.65000 14.096
37.66000 13.222
37.67000 20.316
37.68000 14.978
37.69000 21.200
37.70000 14.025
37.71000 14.057
37.72000 15.148
37.73000 16.178
37.74000 19.290
37.75000 22.075
37.76000 12.193
37.77000 14.017
37.78000 12.173
37.79000 18.273
37.80000 9.128
37.81000 16.089
37.82000 13.291
37.83000 10.230
37.84000 11.991
37.85000 13.219
37.86000 10.001
37.87000 17.329
37.88000 12.097
37.89000 8.960
37.90000 21.293
37.91000 6.058
37.92000 20.238
37.93000 12.189
37.94000 14.206
37.95000 12.101
37.96000 12.044
37.97000 13.143
37.98000 12.146
37.99000 21.422
38.00000 18.199
38.01000 23.130
38.02000 18.277
38.03000 15.041
38.04000 26.044
38.05000 13.094
38.06000 13.222
38.07000 16.189
38.08000 23.258
38.09000 17.244
38.10000 19.345
38.11000 13.135
38.12000 14.009
38.13000 27.443
38.14000 14.138
38.15000 9.182
38.16000 12.050
38.17000 12.342
38.18000 17.242
38.19000 12.135
38.20000 10.088
38.21000 21.092
38.22000 12.176
38.23000 17.296
38.24000 18.215
38.25000 9.064
38.26000 11.103
38.27000 12.067
38.28000 24.238
38.29000 10.028
38.30000 11.289
38.31000 16.128
38.32000 21.069
38.33000 15.066
38.34000 18.000
38.35000 21.289
38.36000 13.157
38.37000 12.261
38.38000 16.231
38.39000 13.217
38.40000 15.174
38.41000 16.116
38.42000 11.159
38.43000 18.095
38.44000 16.293
38.45000 11.154
38.46000 13.071
38.47000 11.074
38.48000 16.207
38.49000 13.049
38.50000 15.135
38.51000 14.266
38.52000 17.024
38.53000 11.069
38.54000 18.273
38.55000 16.193
38.56000 13.973
38.57000 21.210
38.58000 12.186
38.59000 21.269
38.60000 13.088
38.61000 14.151
38.62000 15.278
38.63000 17.257
38.64000 14.275
38.65000 16.489
38.66000 20.338
38.67000 15.269
38.68000 20.446
38.69000 11.088
38.70000 15.266
38.71000 11.268
38.72000 8.081
38.73000 16.109
38.74000 15.255
38.75000 17.053
38.76000 20.423
38.77000 11.223
38.78000 10.043
38.79000 11.071
38.80000 14.286
38.81000 16.202
38.82000 15.266
38.83000 14.201
38.84000 21.242
38.85000 13.240
38.86000 18.217
38.87000 13.150
38.88000 22.198
38.89000 12.149
38.90000 13.120
38.91000 18.268
38.92000 12.151
38.93000 17.195
38.94000 20.094
38.95000 15.274
38.96000 24.365
38.97000 22.264
38.98000 15.212
38.99000 16.347
39.00000 10.134
39.01000 20.361
39.02000 20.141
39.03000 11.168
39.04000 9.185
39.05000 13.267
39.06000 16.268
39.07000 14.198
39.08000 17.184
39.09000 15.132
39.10000 15.246
39.11000 12.230
39.12000 14.106
39.13000 12.231
39.14000 7.256
39.15000 13.206
39.16000 12.203
39.17000 15.192
39.18000 14.230
39.19000 17.251
39.20000 13.194
39.21000 12.031
39.22000 18.126
39.23000 12.046
39.24000 19.177
39.25000 24.494
39.26000 19.176
39.27000 17.420
39.28000 9.144
39.29000 15.144
39.30000 18.174
39.31000 14.272
39.32000 19.423
39.33000 11.155
39.34000 14.271
39.35000 12.093
39.36000 18.285
39.37000 19.342
39.38000 18.002
39.39000 22.323
39.40000 15.195
39.41000 17.224
39.42000 22.254
39.43000 17.195
39.44000 20.273
39.45000 11.267
39.46000 14.184
39.47000 7.189
39.48000 7.131
39.49000 17.317
39.50000 18.307
39.51000 17.313
39.52000 21.336
39.53000 19.197
39.54000 22.348
39.55000 18.265
39.56000 17.229
39.57000 18.139
39.58000 16.241
39.59000 23.192
39.60000 16.259
39.61000 18.409
39.62000 13.126
39.63000 17.137
39.64000 15.171
39.65000 22.344
39.66000 18.106
39.67000 18.112
39.68000 14.072
39.69000 17.286
39.70000 13.136
39.71000 20.356
39.72000 16.261
39.73000 18.113
39.74000 24.366
39.75000 14.237
39.76000 10.212
39.77000 14.041
39.78000 20.336
39.79000 19.280
39.80000 16.296
39.81000 12.080
39.82000 9.111
39.83000 17.126
39.84000 23.284
39.85000 15.141
39.86000 22.223
39.87000 11.031
39.88000 15.193
39.89000 16.310
39.90000 21.181
39.91000 18.221
39.92000 13.060
39.93000 14.067
39.94000 18.057
39.95000 18.407
39.96000 8.173
39.97000 10.202
39.98000 16.182
39.99000 23.245
40.00000 19.172
40.01000 25.283
40.02000 11.079
40.03000 18.265
40.04000 14.090
40.05000 12.044
40.06000 24.293
40.07000 12.941
40.08000 22.400
40.09000 22.249
40.10000 16.189
40.11000 14.155
40.12000 14.300
40.13000 14.256
40.14000 15.143
40.15000 11.082
40.16000 11.175
40.17000 20.303
40.18000 19.207
40.19000 19.305
40.20000 15.237
40.21000 16.212
40.22000 14.082
40.23000 13.104
40.24000 18.561
40.25000 12.145
40.26000 13.336
40.27000 15.120
40.28000 28.197
40.29000 18.259
40.30000 19.243
40.31000 23.292
40.32000 14.178
40.33000 13.063
40.34000 16.121
40.35000 12.179
40.36000 17.159
40.37000 22.304
40.38000 15.148
40.39000 18.369
40.40000 17.296
40.41000 16.344
40.42000 23.417
40.43000 25.314
40.44000 12.148
40.45000 13.230
40.46000 16.191
40.47000 16.129
40.48000 21.227
40.49000 25.330
40.50000 13.310
40.51000 20.352
40.52000 14.175
40.53000 15.173
40.54000 22.375
40.55000 13.069
40.56000 11.098
40.57000 16.283
40.58000 20.169
40.59000 14.084
40.60000 14.249
40.61000 10.158
40.62000 14.262
40.63000 19.204
40.64000 12.107
40.65000 16.211
40.66000 17.313
40.67000 18.320
40.68000 17.260
40.69000 17.338
40.70000 18.298
40.71000 23.333
40.72000 17.354
40.73000 17.246
40.74000 15.153
40.75000 12.055
40.76000 13.215
40.77000 16.051
40.78000 14.171
40.79000 16.125
40.80000 16.149
40.81000 13.321
40.82000 12.040
40.83000 28.441
40.84000 13.157
40.85000 19.192
40.86000 18.380
40.87000 14.055
40.88000 18.224
40.89000 21.283
40.90000 11.140
40.91000 21.419
40.92000 13.244
40.93000 15.100
40.94000 18.286
40.95000 14.202
40.96000 23.364
40.97000 14.240
40.98000 21.495
40.99000 21.364
41.00000 15.276
41.01000 19.100
41.02000 12.147
41.03000 21.322
41.04000 18.193
41.05000 13.049
41.06000 22.216
41.07000 19.255
41.08000 17.258
41.09000 12.190
41.10000 15.264
41.11000 21.205
41.12000 23.536
41.13000 17.273
41.14000 20.170
41.15000 9.116
41.16000 21.266
41.17000 13.070
41.18000 13.082
41.19000 18.285
41.20000 18.252
41.21000 21.264
41.22000 10.966
41.23000 24.278
41.24000 17.079
41.25000 21.083
41.26000 25.268
41.27000 19.172
41.28000 21.209
41.29000 23.175
41.30000 20.270
41.31000 20.226
41.32000 9.201
41.33000 18.174
41.34000 18.310
41.35000 13.111
41.36000 15.208
41.37000 18.209
41.38000 13.144
41.39000 24.467
41.40000 11.215
41.41000 11.260
41.42000 19.181
41.43000 13.287
41.44000 13.225
41.45000 11.056
41.46000 20.289
41.47000 13.266
41.48000 14.167
41.49000 11.276
41.50000 21.208
41.51000 14.249
41.52000 16.165
41.53000 15.164
41.54000 16.183
41.55000 15.163
41.56000 20.372
41.57000 13.259
41.58000 25.161
41.59000 16.381
41.60000 13.115
41.61000 19.267
41.62000 16.219
41.63000 13.096
41.64000 14.044
41.65000 17.172
41.66000 12.344
41.67000 10.111
41.68000 23.346
41.69000 20.303
41.70000 23.159
41.71000 19.188
41.72000 20.228
41.73000 14.127
41.74000 17.241
41.75000 19.195
41.76000 17.076
41.77000 16.363
41.78000 15.279
41.79000 19.131
41.80000 19.218
41.81000 14.969
41.82000 22.315
41.83000 9.094
41.84000 15.031
41.85000 16.135
41.86000 12.100
41.87000 17.094
41.88000 11.115
41.89000 19.208
41.90000 19.242
41.91000 21.356
41.92000 14.143
41.93000 17.244
41.94000 20.121
41.95000 17.222
41.96000 23.443
41.97000 12.219
41.98000 11.062
41.99000 21.473
42.00000 25.286
42.01000 15.326
42.02000 15.025
42.03000 18.105
42.04000 15.358
42.05000 13.120
42.06000 9.081
42.07000 14.060
42.08000 14.156
42.09000 11.012
42.10000 12.136
42.11000 15.129
42.12000 21.272
42.13000 19.371
42.14000 23.307
42.15000 20.166
42.16000 21.454
42.17000 27.191
42.18000 23.379
42.19000 21.219
42.20000 15.193
42.21000 22.172
42.22000 21.336
42.23000 23.275
42.24000 12.152
42.25000 21.122
42.26000 18.162
42.27000 19.351
42.28000 16.180
42.29000 20.190
42.30000 15.202
42.31000 24.173
42.32000 14.312
42.33000 19.267
42.34000 26.328
42.35000 19.065
42.36000 12.096
42.37000 15.326
42.38000 19.292
42.39000 17.047
42.40000 19.352
42.41000 13.305
42.42000 15.241
42.43000 11.105
42.44000 11.148
42.45000 13.182
42.46000 14.117
42.47000 14.098
42.48000 26.413
42.49000 16.328
42.50000 16.203
42.51000 14.136
42.52000 11.196
42.53000 20.279
42.54000 24.179
42.55000 12.057
42.56000 13.160
42.57000 21.379
42.58000 9.272
42.59000 19.280
42.60000 16.261
42.61000 14.219
42.62000 18.403
42.63000 12.102
42.64000 12.173
42.65000 17.211
42.66000 15.312
42.67000 14.342
42.68000 13.203
42.69000 17.180
42.70000 26.401
42.71000 21.358
42.72000 12.209
42.73000 21.227
42.74000 13.130
42.75000 16.195
42.76000 18.310
42.77000 8.211
42.78000 18.171
42.79000 19.228
42.80000 9.056
42.81000 17.249
42.82000 18.144
42.83000 17.280
42.84000 19.409
42.85000 12.136
42.86000 8.133
42.87000 8.991
42.88000 16.117
42.89000 18.304
42.90000 24.479
42.91000 16.102
42.92000 15.075
42.93000 18.289
42.94000 10.953
42.95000 16.357
42.96000 11.188
42.97000 16.073
42.98000 13.182
42.99000 15.141
43.00000 17.074
43.01000 20.375
43.02000 12.080
43.03000 19.160
43.04000 19.210
43.05000 13.114
43.06000 22.388
43.07000 11.045
43.08000 18.346
43.09000 9.080
43.10000 22.356
43.11000 26.416
43.12000 10.170
43.13000 15.319
43.14000 17.247
43.15000 15.262
43.16000 9.265
43.17000 21.265
43.18000 19.204
43.19000 6.132
43.20000 9.327
43.21000 12.034
43.22000 18.148
43.23000 20.245
43.24000 12.026
43.25000 17.356
43.26000 14.223
43.27000 22.300
43.28000 12.069
43.29000 18.341
43.30000 7.143
43.31000 13.036
43.32000 19.192
43.33000 15.104
43.34000 21.172
43.35000 14.242
43.36000 10.116
43.37000 12.240
43.38000 18.305
43.39000 16.209
43.40000 12.992
43.41000 17.115
43.42000 10.015
43.43000 16.113
43.44000 14.168
43.45000 20.072
43.46000 25.173
43.47000 14.318
43.48000 15.385
43.49000 18.270
43.50000 8.162
43.51000 19.413
43.52000 20.267
43.53000 16.274
43.54000 17.050
43.55000 20.107
43.56000 15.011
43.57000 9.117
43.58000 14.249
43.59000 23.429
43.60000 15.311
43.61000 18.131
43.62000 16.271
43.63000 20.309
43.64000 13.123
43.65000 11.059
43.66000 14.318
43.67000 14.238
43.68000 20.222
43.69000 19.201
43.70000 16.271
43.71000 18.240
43.72000 19.177
43.73000 14.160
43.74000 20.142
43.75000 19.360
43.76000 22.422
43.77000 17.193
43.78000 16.216
43.79000 13.085
43.80000 19.356
43.81000 12.284
43.82000 20.226
43.83000 18.245
43.84000 19.220
43.85000 18.339
43.86000 13.171
43.87000 13.211
43.88000 21.105
43.89000 17.211
43.90000 16.186
43.91000 24.373
43.92000 22.276
43.93000 16.231
43.94000 16.151
43.95000 26.379
43.96000 19.248
43.97000 14.150
43.98000 11.115
43.99000 15.189
44.00000 18.310
44.01000 22.501
44.02000 29.468
44.03000 20.420
44.04000 9.122
44.05000 17.246
44.06000 21.162
44.07000 16.189
44.08000 15.233
44.09000 8.194
44.10000 18.339
44.11000 18.168
44.12000 13.079
44.13000 20.348
44.14000 17.283
44.15000 11.181
44.16000 7.041
44.17000 23.367
44.18000 19.237
44.19000 18.276
44.20000 15.148
44.21000 10.087
44.22000 19.321
44.23000 11.171
44.24000 21.177
44.25000 20.500
44.26000 18.189
44.27000 10.061
44.28000 21.204
44.29000 15.199
44.30000 21.321
44.31000 16.190
44.32000 10.220
44.33000 17.174
44.34000 14.347
44.35000 11.201
44.36000 14.201
44.37000 13.163
44.38000 24.335
44.39000 14.363
44.40000 27.539
44.41000 16.321
44.42000 17.312
44.43000 19.455
44.44000 19.138
44.45000 18.334
44.46000 18.268
44.47000 15.191
44.48000 20.283
44.49000 13.172
44.50000 16.234
44.51000 26.330
44.52000 13.164
44.53000 11.208
44.54000 17.160
44.55000 15.209
44.56000 12.087
44.57000 9.089
44.58000 11.081
44.59000 14.283
44.60000 15.228
44.61000 17.156
44.62000 11.220
44.63000 20.305
44.64000 15.242
44.65000 19.306
44.66000 13.245
44.67000 18.117
44.68000 12.251
44.69000 13.215
44.70000 12.110
44.71000 18.128
44.72000 15.224
44.73000 16.146
44.74000 23.130
44.75000 16.103
44.76000 11.136
44.77000 15.188
44.78000 17.253
44.79000 20.318
44.80000 14.220
44.81000 13.310
44.82000 14.245
44.83000 15.235
44.84000 19.030
44.85000 15.276
44.86000 15.158
44.87000 13.126
44.88000 13.078
44.89000 27.298
44.90000 17.270
44.91000 16.280
44.92000 17.155
44.93000 19.219
44.94000 14.189
44.95000 18.245
44.96000 21.296
44.97000 14.083
44.98000 17.122
44.99000 15.050
45.00000 21.493
45.01000 18.188
45.02000 13.325
45.03000 6.070
45.04000 18.390
45.05000 16.193
45.06000 19.244
45.07000 24.324
45.08000 23.194
45.09000 23.344
45.10000 18.371
45.11000 13.167
45.12000 17.112
45.13000 26.536
45.14000 15.339
45.15000 18.082
45.16000 20.249
45.17000 22.448
45.18000 16.277
45.19000 11.215
45.20000 11.168
45.21000 12.091
45.22000 21.247
45.23000 11.161
45.24000 21.190
45.25000 10.129
45.26000 19.453
45.27000 19.171
45.28000 17.282
45.29000 12.143
45.30000 19.101
45.31000 20.157
45.32000 8.089
45.33000 16.068
45.34000 12.099
45.35000 9.188
45.36000 18.136
45.37000 16.307
45.38000 20.349
45.39000 14.200
45.40000 19.134
45.41000 17.238
45.42000 18.328
45.43000 17.328
45.44000 17.209
45.45000 14.100
45.46000 10.030
45.47000 20.083
45.48000 11.081
45.49000 23.236
45.50000 20.139
45.51000 15.065
45.52000 9.130
45.53000 12.212
45.54000 14.204
45.55000 19.110
45.56000 21.112
45.57000 14.119
45.58000 20.142
45.59000 16.150
45.60000 19.286
45.61000 11.205
45.62000 26.230
45.63000 20.134
45.64000 23.494
45.65000 12.220
45.66000 15.039
45.67000 16.088
45.68000 18.267
45.69000 13.173
45.70000 7.122
45.71000 13.115
45.72000 18.431
45.73000 15.163
45.74000 15.177
45.75000 11.132
45.76000 15.152
45.77000 24.436
45.78000 18.363
45.79000 17.161
45.80000 16.192
45.81000 24.316
45.82000 32.418
45.83000 13.216
45.84000 17.032
45.85000 22.294
45.86000 12.140
45.87000 15.184
45.88000 21.118
45.89000 14.131
45.90000 8.096
45.91000 15.282
45.92000 12.190
45.93000 15.125
45.94000 20.232
45.95000 18.356
45.96000 15.302
45.97000 17.243
45.98000 21.038
45.99000 11.177
46.00000 26.209
46.01000 15.205
46.02000 15.268
46.03000 15.208
46.04000 17.117
46.05000 14.320
46.06000 16.024
46.07000 18.072
46.08000 17.145
46.09000 15.137
46.10000 22.333
46.11000 20.464
46.12000 21.225
46.13000 12.939
46.14000 15.391
46.15000 22.386
46.16000 19.137
46.17000 13.213
46.18000 19.392
46.19000 15.206
46.20000 20.166
46.21000 21.353
46.22000 15.156
46.23000 19.059
46.24000 21.424
46.25000 26.364
46.26000 19.167
46.27000 23.541
46.28000 15.290
46.29000 14.190
46.30000 15.105
46.31000 27.323
46.32000 24.365
46.33000 22.176
46.34000 21.368
46.35000 22.260
46.36000 18.260
46.37000 17.302
46.38000 20.395
46.39000 18.255
46.40000 19.241
46.41000 19.297
46.42000 16.274
46.43000 16.238
46.44000 12.135
46.45000 14.280
46.46000 12.084
46.47000 19.210
46.48000 17.284
46.49000 15.165
46.50000 19.479
46.51000 16.216
46.52000 23.353
46.53000 12.151
46.54000 17.246
46.55000 22.255
46.56000 19.276
46.57000 21.289
46.58000 12.189
46.59000 18.286
46.60000 23.445
46.61000 27.435
46.62000 14.299
46.63000 26.675
46.64000 9.107
46.65000 28.435
46.66000 29.482
46.67000 21.260
46.68000 13.247
46.69000 13.027
46.70000 21.167
46.71000 27.347
46.72000 25.337
46.73000 12.217
46.74000 15.090
46.75000 23.155
46.76000 19.222
46.77000 16.182
46.78000 21.093
46.79000 17.291
46.80000 16.067
46.81000 21.260
46.82000 8.195
46.83000 15.190
46.84000 19.416
46.85000 20.302
46.86000 18.260
46.87000 23.248
46.88000 18.232
46.89000 16.094
46.90000 13.259
46.91000 19.160
46.92000 20.383
46.93000 18.306
46.94000 12.122
46.95000 13.175
46.96000 12.100
46.97000 15.249
46.98000 11.118
46.99000 17.282
47.00000 14.134
47.01000 13.189
47.02000 19.267
47.03000 18.116
47.04000 10.118
47.05000 15.174
47.06000 9.067
47.07000 14.121
47.08000 14.272
47.09000 15.196
47.10000 14.177
47.11000 15.118
47.12000 8.139
47.13000 15.218
47.14000 13.087
47.15000 18.275
47.16000 18.375
47.17000 11.320
47.18000 15.242
47.19000 14.230
47.20000 10.233
47.21000 15.312
47.22000 12.074
47.23000 19.228
47.24000 20.362
47.25000 13.138
47.26000 10.229
47.27000 19.345
47.28000 13.222
47.29000 15.082
47.30000 13.233
47.31000 20.333
47.32000 7.095
47.33000 18.243
47.34000 10.166
47.35000 10.092
47.36000 15.188
47.37000 22.346
47.38000 20.323
47.39000 12.157
47.40000 12.125
47.41000 14.162
47.42000 21.267
47.43000 15.039
47.44000 16.241
47.45000 17.227
47.46000 12.292
47.47000 6.144
47.48000 11.142
47.49000 12.221
47.50000 8.042
47.51000 23.380
47.52000 20.353
47.53000 15.015
47.54000 14.297
47.55000 12.131
47.56000 18.227
47.57000 18.167
47.58000 18.304
47.59000 11.166
47.60000 14.042
47.61000 16.026
47.62000 19.026
47.63000 13.173
47.64000 17.265
47.65000 16.403
47.66000 12.204
47.67000 8.142
47.68000 19.175
47.69000 16.135
47.70000 10.993
47.71000 13.125
47.72000 18.377
47.73000 14.203
47.74000 16.087
47.75000 11.192
47.76000 16.150
47.77000 19.338
47.78000 11.097
47.79000 13.166
47.80000 18.193
47.81000 21.225
47.82000 12.033
47.83000 16.080
47.84000 12.065
47.85000 11.996
47.86000 13.055
47.87000 13.138
47.88000 16.199
47.89000 18.098
47.90000 15.114
47.91000 14.061
47.92000 12.139
47.93000 9.143
47.94000 18.179
47.95000 22.233
47.96000 13.269
47.97000 15.137
47.98000 18.386
47.99000 20.238
48.00000 16.085
48.01000 17.214
48.02000 14.107
48.03000 9.153
48.04000 22.367
48.05000 10.269
48.06000 13.125
48.07000 25.479
48.08000 9.151
48.09000 13.154
48.10000 16.175
48.11000 13.088
48.12000 13.985
48.13000 13.194
48.14000 16.212
48.15000 9.132
48.16000 21.398
48.17000 17.313
48.18000 12.203
48.19000 23.310
48.20000 10.247
48.21000 19.404
48.22000 14.317
48.23000 12.123
48.24000 12.180
48.25000 19.224
48.26000 18.268
48.27000 8.084
48.28000 20.084
48.29000 16.131
48.30000 10.068
48.31000 17.334
48.32000 17.091
48.33000 12.042
48.34000 14.124
48.35000 15.162
48.36000 14.203
48.37000 12.138
48.38000 18.218
48.39000 14.184
48.40000 15.021
48.41000 12.115
48.42000 18.417
48.43000 10.097
48.44000 9.076
48.45000 18.118
48.46000 13.110
48.47000 12.123
48.48000 13.029
48.49000 20.281
48.50000 20.235
48.51000 15.013
48.52000 15.203
48.53000 13.239
48.54000 12.177
48.55000 15.239
48.56000 23.247
48.57000 13.037
48.58000 14.102
48.59000 17.238
48.60000 11.961
48.61000 20.115
48.62000 9.213
48.63000 8.082
48.64000 5.112
48.65000 15.240
48.66000 15.258
48.67000 19.349
48.68000 10.178
48.69000 22.497
48.70000 14.335
48.71000 20.277
48.72000 8.197
48.73000 19.313
48.74000 15.255
48.75000 13.122
48.76000 8.198
48.77000 10.104
48.78000 20.346
48.79000 21.119
48.80000 14.158
48.81000 15.283
48.82000 16.303
48.83000 17.337
48.84000 14.103
48.85000 17.241
48.86000 11.054
48.87000 12.143
48.88000 8.254
48.89000 9.101
48.90000 14.195
48.91000 18.360
48.92000 11.193
48.93000 13.231
48.94000 18.202
48.95000 14.228
48.96000 12.118
48.97000 22.415
48.98000 14.208
48.99000 15.170
49.00000 14.264
49.01000 19.081
49.02000 21.407
49.03000 15.241
49.04000 18.404
49.05000 17.224
49.06000 18.116
49.07000 14.282
49.08000 14.301
49.09000 10.170
49.10000 16.364
49.11000 9.210
49.12000 18.136
49.13000 11.185
49.14000 11.247
49.15000 13.343
49.16000 9.124
49.17000 13.213
49.18000 11.991
49.19000 19.019
49.20000 13.189
49.21000 10.988
49.22000 10.160
49.23000 15.187
49.24000 16.085
49.25000 13.449
49.26000 8.067
49.27000 11.131
49.28000 10.052
49.29000 17.251
49.30000 17.143
49.31000 12.022
49.32000 14.122
49.33000 15.369
49.34000 19.155
49.35000 6.059
49.36000 9.055
49.37000 11.062
49.38000 12.083
49.39000 7.103
49.40000 21.285
49.41000 14.301
49.42000 13.200
49.43000 10.104
49.44000 10.138
49.45000 18.226
49.46000 11.062
49.47000 14.171
49.48000 15.287
49.49000 15.288
49.50000 16.218
49.51000 16.981
49.52000 12.128
49.53000 14.220
49.54000 13.196
49.55000 16.210
49.56000 10.059
49.57000 7.943
49.58000 17.132
49.59000 14.176
49.60000 7.058
49.61000 14.237
49.62000 14.041
49.63000 10.039
49.64000 18.316
49.65000 23.613
49.66000 11.084
49.67000 11.119
49.68000 19.298
49.69000 17.083
49.70000 11.095
49.71000 13.141
49.72000 14.109
49.73000 19.323
49.74000 12.198
49.75000 17.496
49.76000 13.320
49.77000 16.020
49.78000 18.276
49.79000 14.066
49.80000 19.049
49.81000 8.056
49.82000 13.143
49.83000 12.168
49.84000 11.072
49.85000 11.166
49.86000 22.448
49.87000 8.056
49.88000 14.023
49.89000 14.025
49.90000 16.122
49.91000 14.174
49.92000 19.364
49.93000 15.093
49.94000 21.348
49.95000 11.203
49.96000 13.085
49.97000 11.190
49.98000 11.035
49.99000 17.032
50.00000 13.036
50.01000 12.232
50.02000 14.143
50.03000 16.272
50.04000 15.207
50.05000 13.158
50.06000 14.215
50.07000 16.174
50.08000 21.438
50.09000 12.168
50.10000 13.107
50.11000 19.383
50.12000 14.152
50.13000 14.219
50.14000 17.274
50.15000 7.046
50.16000 7.069
50.17000 12.136
50.18000 14.070
50.19000 10.038
50.20000 13.331
50.21000 10.126
50.22000 12.067
50.23000 17.225
50.24000 16.097
50.25000 19.362
50.26000 16.052
50.27000 14.247
50.28000 11.288
50.29000 20.347
50.30000 27.393
50.31000 15.221
50.32000 11.131
50.33000 12.255
50.34000 17.077
50.35000 18.171
50.36000 7.998
50.37000 12.117
50.38000 18.147
50.39000 19.047
50.40000 9.121
50.41000 16.996
50.42000 9.258
50.43000 17.273
50.44000 14.183
50.45000 11.279
50.46000 21.565
50.47000 12.206
50.48000 9.216
50.49000 15.999
50.50000 18.136
50.51000 18.253
50.52000 14.083
50.53000 7.075
50.54000 10.054
50.55000 15.146
50.56000 10.080
50.57000 16.238
50.58000 15.307
50.59000 10.071
50.60000 14.322
50.61000 12.216
50.62000 14.405
50.63000 10.119
50.64000 14.147
50.65000 12.194
50.66000 16.269
50.67000 13.209
50.68000 13.211
50.69000 12.090
50.70000 15.222
50.71000 13.183
50.72000 14.275
50.73000 15.204
50.74000 11.114
50.75000 18.090
50.76000 17.167
50.77000 6.124
50.78000 11.207
50.79000 10.173
50.80000 15.292
50.81000 20.221
50.82000 17.205
50.83000 16.227
50.84000 15.112
50.85000 19.278
50.86000 16.227
50.87000 9.217
50.88000 26.078
50.89000 14.197
50.90000 12.102
50.91000 14.240
50.92000 17.315
50.93000 15.322
50.94000 17.407
50.95000 18.158
50.96000 11.091
50.97000 13.986
50.98000 19.374
50.99000 15.094
51.00000 13.292
51.01000 16.112
51.02000 12.134
51.03000 15.102
51.04000 18.061
51.05000 18.287
51.06000 10.221
51.07000 13.305
51.08000 16.190
51.09000 14.146
51.10000 15.218
51.11000 11.109
51.12000 14.169
51.13000 15.190
51.14000 9.232
51.15000 13.201
51.16000 11.197
51.17000 10.156
51.18000 18.207
51.19000 19.159
51.20000 12.137
51.21000 13.159
51.22000 13.173
51.23000 12.275
51.24000 14.402
51.25000 10.168
51.26000 17.308
51.27000 9.117
51.28000 16.307
51.29000 11.135
51.30000 13.124
51.31000 18.131
51.32000 13.170
51.33000 17.256
51.34000 10.214
51.35000 17.424
51.36000 19.201
51.37000 17.270
51.38000 12.174
51.39000 16.160
51.40000 16.200
51.41000 11.216
51.42000 19.242
51.43000 17.127
51.44000 12.140
51.45000 12.111
51.46000 13.153
51.47000 10.074
51.48000 13.314
51.49000 8.120
51.50000 7.135
51.51000 14.210
51.52000 17.082
51.53000 14.268
51.54000 14.063
51.55000 13.198
51.56000 20.202
51.57000 13.174
51.58000 11.060
51.59000 18.192
51.60000 11.202
51.61000 12.170
51.62000 13.270
51.63000 15.253
51.64000 12.147
51.65000 10.154
51.66000 14.194
51.67000 10.330
51.68000 20.056
51.69000 10.132
51.70000 12.163
51.71000 14.290
51.72000 12.245
51.73000 11.204
51.74000 15.104
51.75000 12.308
51.76000 18.338
51.77000 19.140
51.78000 11.099
51.79000 18.350
51.80000 10.096
51.81000 8.070
51.82000 13.082
51.83000 16.291
51.84000 18.367
51.85000 15.081
51.86000 10.132
51.87000 10.044
51.88000 15.202
51.89000 9.023
51.90000 18.243
51.91000 15.103
51.92000 10.071
51.93000 17.324
51.94000 10.164
51.95000 9.127
51.96000 10.239
51.97000 14.180
51.98000 7.008
51.99000 11.041
52.00000 28.290
52.01000 7.104
52.02000 8.094
52.03000 21.012
52.04000 15.088
52.05000 12.086
52.06000 13.129
52.07000 21.196
52.08000 13.229
52.09000 22.164
52.10000 11.065
52.11000 18.314
52.12000 9.082
52.13000 18.442
52.14000 19.217
52.15000 20.532
52.16000 10.132
52.17000 9.177
52.18000 8.174
52.19000 18.218
52.20000 9.196
52.21000 14.237
52.22000 19.148
52.23000 15.206
52.24000 16.179
52.25000 12.214
52.26000 8.031
52.27000 11.197
52.28000 11.202
52.29000 11.990
52.30000 15.082
52.31000 15.383
52.32000 14.226
52.33000 9.047
52.34000 15.221
52.35000 16.446
52.36000 18.276
52.37000 12.094
52.38000 10.181
52.39000 14.205
52.40000 11.279
52.41000 15.227
52.42000 11.091
52.43000 15.384
52.44000 20.061
52.45000 16.398
52.46000 11.152
52.47000 21.160
52.48000 11.085
52.49000 20.483
52.50000 16.303
52.51000 19.187
52.52000 16.128
52.53000 16.239
52.54000 19.156
52.55000 20.225
52.56000 12.269
52.57000 14.145
52.58000 15.160
52.59000 12.252
52.60000 18.341
52.61000 14.195
52.62000 16.238
52.63000 16.140
52.64000 9.098
52.65000 13.142
52.66000 13.122
52.67000 17.229
52.68000 18.156
52.69000 13.222
52.70000 18.273
52.71000 22.338
52.72000 16.193
52.73000 21.264
52.74000 13.059
52.75000 13.030
52.76000 14.101
52.77000 6.168
52.78000 16.173
52.79000 12.052
52.80000 14.375
52.81000 12.211
52.82000 16.174
52.83000 12.161
52.84000 15.177
52.85000 13.253
52.86000 6.151
52.87000 14.149
52.88000 14.258
52.89000 10.253
52.90000 17.148
52.91000 12.136
52.92000 5.065
52.93000 9.109
52.94000 11.197
52.95000 10.048
52.96000 10.152
52.97000 13.351
52.98000 11.167
52.99000 10.181
53.00000 10.219
53.01000 11.228
53.02000 12.229
53.03000 11.098
53.04000 12.143
53.05000 12.177
53.06000 12.082
53.07000 9.135
53.08000 12.143
53.09000 16.146
53.10000 21.225
53.11000 8.084
53.12000 9.223
53.13000 21.120
53.14000 8.073
53.15000 10.148
53.16000 10.042
53.17000 17.346
53.18000 20.124
53.19000 16.175
53.20000 13.128
53.21000 11.999
53.22000 15.361
53.23000 17.194
53.24000 16.083
53.25000 10.101
53.26000 14.063
53.27000 12.214
53.28000 10.193
53.29000 11.108
53.30000 12.123
53.31000 23.261
53.32000 13.150
53.33000 10.346
53.34000 19.284
53.35000 12.091
53.36000 11.182
53.37000 10.137
53.38000 10.159
53.39000 12.269
53.40000 15.058
53.41000 13.033
53.42000 5.144
53.43000 12.108
53.44000 9.142
53.45000 13.357
53.46000 13.191
53.47000 16.172
53.48000 11.095
53.49000 5.982
53.50000 15.264
53.51000 17.210
53.52000 13.314
53.53000 14.238
53.54000 10.110
53.55000 8.108
53.56000 14.082
53.57000 22.245
53.58000 19.202
53.59000 12.250
53.60000 8.228
53.61000 9.097
53.62000 13.141
53.63000 10.037
53.64000 14.370
53.65000 13.297
53.66000 8.110
53.67000 12.175
53.68000 11.062
53.69000 13.243
53.70000 9.023
53.71000 11.228
53.72000 14.214
53.73000 8.139
53.74000 10.104
53.75000 16.126
53.76000 16.320
53.77000 14.173
53.78000 13.263
53.79000 6.167
53.80000 12.138
53.81000 9.231
53.82000 15.176
53.83000 17.247
53.84000 13.100
53.85000 9.026
53.86000 11.119
53.87000 15.262
53.88000 18.189
53.89000 15.178
53.90000 10.975
53.91000 5.090
53.92000 6.029
53.93000 15.174
53.94000 7.050
53.95000 10.104
53.96000 9.027
53.97000 13.287
53.98000 16.337
53.99000 12.177
54.00000 16.198
54.01000 15.306
54.02000 11.194
54.03000 12.138
54.04000 12.148
54.05000 11.079
54.06000 14.074
54.07000 11.209
54.08000 12.085
54.09000 13.148
54.10000 11.172
54.11000 13.284
54.12000 9.080
54.13000 11.268
54.14000 12.059
54.15000 13.145
54.16000 8.033
54.17000 13.296
54.18000 12.111
54.19000 10.101
54.20000 13.158
54.21000 13.317
54.22000 11.038
54.23000 9.130
54.24000 7.102
54.25000 17.198
54.26000 9.032
54.27000 20.309
54.28000 5.008
54.29000 10.205
54.30000 6.027
54.31000 10.101
54.32000 12.322
54.33000 7.049
54.34000 10.141
54.35000 14.187
54.36000 16.125
54.37000 14.203
54.38000 14.050
54.39000 7.052
54.40000 18.282
54.41000 12.281
54.42000 22.268
54.43000 7.012
54.44000 6.066
54.45000 14.176
54.46000 13.241
54.47000 10.110
54.48000 15.120
54.49000 20.269
54.50000 14.035
54.51000 11.168
54.52000 16.090
54.53000 16.242
54.54000 15.143
54.55000 16.254
54.56000 8.178
54.57000 10.174
54.58000 9.223
54.59000 11.160
54.60000 7.105
54.61000 10.080
54.62000 13.061
54.63000 17.144
54.64000 10.095
54.65000 7.010
54.66000 11.201
54.67000 2.970
54.68000 13.282
54.69000 10.287
54.70000 5.105
54.71000 12.077
54.72000 6.137
54.73000 10.152
54.74000 13.167
54.75000 6.059
54.76000 10.120
54.77000 14.040
54.78000 10.084
54.79000 6.134
54.80000 8.164
54.81000 8.990
54.82000 10.197
54.83000 8.040
54.84000 5.042
54.85000 15.333
54.86000 9.151
54.87000 8.143
54.88000 12.118
54.89000 24.295
54.90000 15.116
54.91000 12.148
54.92000 8.109
54.93000 9.187
54.94000 7.222
54.95000 16.168
54.96000 12.231
54.97000 14.096
54.98000 17.212
54.99000 7.067
55.00000 6.071
55.01000 11.119
55.02000 15.265
55.03000 15.217
55.04000 6.064
55.05000 10.008
55.06000 6.164
55.07000 9.159
55.08000 16.305
55.09000 12.203
55.10000 7.170
55.11000 18.233
55.12000 12.100
55.13000 14.286
55.14000 11.039
55.15000 20.065
55.16000 12.103
55.17000 9.194
55.18000 16.146
55.19000 15.207
55.20000 14.157
55.21000 7.239
55.22000 7.127
55.23000 17.175
55.24000 10.140
55.25000 10.106
55.26000 12.249
55.27000 12.137
55.28000 11.035
55.29000 15.341
55.30000 13.239
55.31000 11.146
55.32000 7.201
55.33000 14.027
55.34000 11.039
55.35000 11.304
55.36000 11.190
55.37000 10.304
55.38000 14.199
55.39000 19.161
55.40000 18.151
55.41000 9.287
55.42000 12.201
55.43000 11.205
55.44000 11.218
55.45000 6.010
55.46000 9.155
55.47000 15.198
55.48000 7.101
55.49000 10.111
55.50000 13.226
55.51000 9.093
55.52000 17.087
55.53000 11.125
55.54000 15.318
55.55000 12.099
55.56000 14.238
55.57000 11.067
55.58000 13.181
55.59000 17.049
55.60000 11.241
55.61000 15.266
55.62000 15.240
55.63000 6.095
55.64000 7.992
55.65000 8.109
55.66000 12.064
55.67000 12.247
55.68000 6.113
55.69000 15.090
55.70000 19.195
55.71000 18.307
55.72000 16.159
55.73000 10.081
55.74000 12.137
55.75000 11.170
55.76000 8.974
55.77000 14.160
55.78000 7.057
55.79000 20.389
55.80000 3.057
55.81000 9.171
55.82000 13.140
55.83000 13.188
55.84000 11.279
55.85000 14.170
55.86000 13.227
55.87000 11.114
55.88000 18.154
55.89000 14.122
55.90000 12.184
55.91000 10.200
55.92000 9.084
55.93000 11.157
55.94000 9.244
55.95000 9.049
55.96000 8.058
55.97000 9.035
55.98000 11.035
55.99000 7.130
56.00000 7.096
56.01000 10.166
56.02000 13.188
56.03000 10.164
56.04000 9.143
56.05000 9.105
56.06000 11.263
56.07000 14.156
56.08000 9.112
56.09000 9.215
56.10000 7.097
56.11000 11.172
56.12000 10.195
56.13000 9.174
56.14000 11.046
56.15000 17.118
56.16000 11.215
56.17000 12.145
56.18000 16.185
56.19000 12.065
56.20000 7.014
56.21000 8.969
56.22000 11.145
56.23000 8.138
56.24000 17.310
56.25000 6.115
56.26000 18.179
56.27000 8.124
56.28000 9.057
56.29000 18.427
56.30000 21.236
56.31000 7.085
56.32000 12.166
56.33000 13.192
56.34000 9.114
56.35000 5.171
56.36000 11.066
56.37000 10.119
56.38000 13.035
56.39000 7.996
56.40000 17.114
56.41000 15.229
56.42000 7.123
56.43000 13.088
56.44000 11.404
56.45000 12.205
56.46000 11.254
56.47000 13.200
56.48000 13.233
56.49000 9.109
56.50000 10.107
56.51000 14.142
56.52000 18.314
56.53000 10.080
56.54000 8.071
56.55000 13.141
56.56000 15.048
56.57000 7.103
56.58000 15.284
56.59000 11.179
56.60000 10.127
56.61000 8.058
56.62000 12.217
56.63000 12.211
56.64000 13.168
56.65000 22.479
56.66000 20.130
56.67000 11.092
56.68000 8.152
56.69000 5.056
56.70000 7.083
56.71000 18.302
56.72000 13.914
56.73000 13.245
56.74000 10.117
56.75000 6.157
56.76000 9.206
56.77000 13.451
56.78000 11.184
56.79000 5.018
56.80000 8.161
56.81000 14.168
56.82000 21.381
56.83000 5.024
56.84000 15.279
56.85000 10.199
56.86000 12.191
56.87000 7.982
56.88000 11.279
56.89000 9.165
56.90000 7.080
56.91000 6.141
56.92000 4.161
56.93000 10.083
56.94000 4.992
56.95000 18.128
56.96000 15.248
56.97000 5.060
56.98000 18.127
56.99000 9.019
57.00000 13.091
57.01000 6.074
57.02000 10.255
57.03000 10.189
57.04000 10.113
57.05000 8.027
57.06000 12.086
57.07000 10.081
57.08000 11.225
57.09000 17.091
57.10000 11.076
57.11000 9.180
57.12000 17.145
57.13000 8.121
57.14000 10.235
57.15000 14.185
57.16000 10.116
57.17000 6.130
57.18000 10.944
57.19000 5.111
57.20000 8.222
57.21000 15.309
57.22000 13.284
57.23000 12.253
57.24000 10.116
57.25000 9.048
57.26000 17.181
57.27000 17.323
57.28000 12.054
57.29000 8.225
57.30000 5.028
57.31000 9.080
57.32000 14.298
57.33000 9.952
57.34000 11.148
57.35000 8.168
57.36000 14.258
57.37000 11.100
57.38000 11.938
57.39000 13.118
57.40000 10.118
57.41000 3.065
57.42000 15.245
57.43000 11.083
57.44000 10.012
57.45000 11.120
57.46000 10.110
57.47000 16.269
57.48000 8.169
57.49000 10.193
57.50000 12.302
57.51000 19.385
57.52000 13.256
57.53000 13.149
57.54000 13.160
57.55000 15.286
57.56000 16.000
57.57000 16.207
57.58000 15.159
57.59000 14.054
57.60000 18.419
57.61000 10.195
57.62000 11.123
57.63000 10.261
57.64000 16.193
57.65000 10.245
57.66000 14.101
57.67000 16.086
57.68000 8.077
57.69000 13.152
57.70000 11.344
57.71000 14.246
57.72000 9.186
57.73000 10.168
57.74000 16.264
57.75000 15.198
57.76000 13.157
57.77000 9.114
57.78000 13.180
57.79000 10.063
57.80000 6.004
57.81000 9.274
57.82000 14.216
57.83000 9.093
57.84000 17.166
57.85000 11.243
57.86000 10.229
57.87000 14.273
57.88000 14.102
57.89000 15.231
57.90000 10.216
57.91000 15.202
57.92000 11.952
57.93000 13.195
57.94000 13.065
57.95000 10.115
57.96000 7.150
57.97000 6.119
57.98000 10.092
57.99000 13.154
58.00000 8.107
58.01000 4.092
58.02000 14.069
58.03000 12.099
58.04000 9.081
58.05000 8.220
58.06000 12.066
58.07000 12.182
58.08000 11.160
58.09000 10.994
58.10000 12.229
58.11000 11.207
58.12000 17.273
58.13000 17.225
58.14000 13.084
58.15000 7.147
58.16000 10.123
58.17000 21.404
58.18000 6.020
58.19000 13.165
58.20000 10.163
58.21000 12.100
58.22000 10.188
58.23000 8.219
58.24000 6.977
58.25000 9.107
58.26000 10.189
58.27000 11.055
58.28000 10.146
58.29000 9.101
58.30000 16.289
58.31000 4.050
58.32000 9.091
58.33000 8.140
58.34000 9.098
58.35000 12.106
58.36000 4.985
58.37000 15.296
58.38000 6.132
58.39000 20.236
58.40000 8.051
58.41000 8.054
58.42000 10.157
58.43000 14.189
58.44000 9.164
58.45000 24.213
58.46000 9.065
58.47000 4.024
58.48000 14.144
58.49000 12.163
58.50000 15.260
58.51000 6.041
58.52000 12.302
58.53000 11.125
58.54000 11.997
58.55000 9.187
58.56000 6.083
58.57000 10.193
58.58000 15.320
58.59000 12.144
58.60000 13.309
58.61000 8.165
58.62000 6.039
58.63000 13.219
58.64000 7.121
58.65000 12.040
58.66000 7.983
58.67000 12.062
58.68000 7.106
58.69000 3.027
58.70000 6.214
58.71000 11.092
58.72000 7.046
58.73000 15.145
58.74000 11.147
58.75000 11.367
58.76000 13.125
58.77000 10.076
58.78000 14.187
58.79000 13.165
58.80000 13.208
58.81000 8.107
58.82000 11.110
58.83000 11.084
58.84000 8.184
58.85000 5.066
58.86000 10.090
58.87000 12.145
58.88000 3.062
58.89000 16.349
58.90000 5.025
58.91000 9.155
58.92000 1.963
58.93000 12.145
58.94000 5.111
58.95000 12.250
58.96000 12.048
58.97000 10.095
58.98000 13.089
58.99000 14.274
59.00000 11.167
59.01000 16.181
59.02000 7.144
59.03000 6.163
59.04000 12.149
59.05000 14.182
59.06000 8.035
59.07000 16.149
59.08000 6.052
59.09000 6.174
59.10000 8.060
59.11000 5.967
59.12000 12.087
59.13000 10.243
59.14000 7.092
59.15000 12.226
59.16000 13.061
59.17000 7.148
59.18000 9.226
59.19000 5.062
59.20000 14.244
59.21000 11.066
59.22000 9.139
59.23000 6.973
59.24000 8.050
59.25000 10.155
59.26000 11.199
59.27000 7.142
59.28000 11.098
59.29000 13.147
59.30000 13.164
59.31000 8.047
59.32000 7.113
59.33000 15.202
59.34000 6.079
59.35000 9.134
59.36000 10.153
59.37000 13.161
59.38000 9.117
59.39000 10.062
59.40000 7.075
59.41000 11.161
59.42000 8.180
59.43000 4.065
59.44000 11.197
59.45000 7.176
59.46000 11.231
59.47000 13.083
59.48000 5.009
59.49000 13.210
59.50000 12.033
59.51000 15.278
59.52000 13.212
59.53000 16.172
59.54000 7.032
59.55000 11.131
59.56000 9.089
59.57000 14.035
59.58000 12.037
59.59000 10.022
59.60000 10.116
59.61000 12.244
59.62000 7.054
59.63000 10.102
59.64000 15.191
59.65000 14.126
59.66000 12.087
59.67000 16.260
59.68000 7.119
59.69000 13.088
59.70000 7.138
59.71000 12.076
59.72000 9.228
59.73000 12.069
59.74000 5.066
59.75000 13.164
59.76000 10.950
59.77000 5.105
59.78000 4.058
59.79000 17.217
59.80000 7.162
59.81000 8.022
59.82000 10.121
59.83000 7.135
59.84000 10.054
59.85000 6.077
59.86000 12.130
59.87000 8.146
59.88000 11.169
59.89000 6.052
59.90000 11.113
59.91000 6.185
59.92000 11.272
59.93000 13.152
59.94000 9.171
59.95000 3.091
59.96000 9.192
59.97000 12.157
59.98000 9.114
59.99000 9.215
60.00000 7.030
60.01000 8.117
60.02000 11.262
60.03000 12.160
60.04000 10.151
60.05000 7.085
60.06000 12.160
60.07000 4.050
60.08000 12.107
60.09000 9.049
60.10000 8.008
60.11000 3.954
60.12000 16.309
60.13000 6.176
60.14000 3.968
60.15000 11.244
60.16000 5.084
60.17000 11.299
60.18000 6.121
60.19000 13.186
60.20000 11.094
60.21000 13.098
60.22000 12.192
60.23000 8.146
60.24000 11.143
60.25000 7.081
60.26000 8.031
60.27000 9.250
60.28000 13.203
60.29000 15.100
60.30000 12.209
60.31000 11.190
60.32000 9.108
60.33000 5.055
60.34000 9.194
60.35000 11.105
60.36000 13.198
60.37000 13.210
60.38000 8.099
60.39000 15.176
60.40000 11.043
60.41000 12.115
60.42000 5.062
60.43000 11.158
60.44000 15.269
60.45000 5.040
60.46000 5.087
60.47000 12.002
60.48000 9.192
60.49000 18.257
60.50000 7.109
60.51000 7.168
60.52000 6.065
60.53000 14.215
60.54000 8.129
60.55000 6.107
60.56000 11.166
60.57000 7.040
60.58000 10.128
60.59000 4.131
60.60000 11.112
60.61000 7.138
60.62000 8.083
60.63000 9.018
60.64000 9.213
60.65000 7.126
60.66000 7.182
60.67000 15.164
60.68000 7.066
60.69000 10.051
60.70000 17.086
60.71000 9.093
60.72000 15.348
60.73000 8.074
60.74000 7.014
60.75000 8.160
60.76000 12.085
60.77000 6.035
60.78000 11.116
60.79000 7.153
60.80000 12.064
60.81000 8.957
60.82000 10.243
60.83000 7.147
60.84000 12.249
60.85000 13.093
60.86000 7.069
60.87000 6.967
60.88000 12.052
60.89000 12.171
60.90000 8.019
60.91000 12.281
60.92000 9.189
60.93000 14.185
60.94000 7.064
60.95000 11.181
60.96000 9.109
60.97000 10.108
60.98000 5.987
60.99000 10.162
61.00000 8.176
61.01000 9.064
61.02000 6.125
61.03000 11.276
61.04000 10.017
61.05000 15.206
61.06000 5.147
61.07000 10.111
61.08000 4.115
61.09000 11.128
61.10000 9.096
61.11000 12.323
61.12000 6.094
61.13000 5.024
61.14000 13.122
61.15000 9.082
61.16000 6.054
61.17000 8.077
61.18000 4.091
61.19000 5.092
61.20000 10.036
61.21000 10.256
61.22000 6.038
61.23000 9.148
61.24000 7.051
61.25000 15.187
61.26000 13.244
61.27000 8.246
61.28000 3.070
61.29000 10.032
61.30000 5.095
61.31000 12.226
61.32000 9.205
61.33000 8.140
61.34000 17.233
61.35000 4.975
61.36000 14.312
61.37000 11.975
61.38000 7.100
61.39000 10.123
61.40000 8.995
61.41000 5.978
61.42000 6.105
61.43000 7.057
61.44000 9.067
61.45000 12.040
61.46000 10.096
61.47000 12.061
61.48000 9.265
61.49000 13.176
61.50000 4.981
61.51000 7.137
61.52000 8.168
61.53000 10.987
61.54000 8.176
61.55000 4.029
61.56000 10.166
61.57000 9.973
61.58000 11.154
61.59000 10.971
61.60000 8.096
61.61000 8.144
61.62000 8.028
61.63000 22.152
61.64000 15.146
61.65000 7.044
61.66000 10.100
61.67000 11.137
61.68000 9.153
61.69000 4.072
61.70000 12.130
61.71000 7.090
61.72000 11.173
61.73000 11.047
61.74000 10.154
61.75000 6.043
61.76000 12.251
61.77000 4.044
61.78000 9.053
61.79000 4.080
61.80000 9.138
61.81000 9.120
61.82000 13.221
61.83000 12.180
61.84000 5.110
61.85000 7.160
61.86000 10.184
61.87000 2.051
61.88000 15.426
61.89000 10.109
61.90000 10.064
61.91000 9.213
61.92000 8.053
61.93000 10.202
61.94000 6.212
61.95000 10.071
61.96000 10.246
61.97000 7.080
61.98000 7.035
61.99000 10.124
62.00000 12.304
62.01000 13.094
62.02000 9.201
62.03000 9.170
62.04000 3.048
62.05000 8.128
62.06000 8.125
62.07000 10.043
62.08000 6.086
62.09000 8.989
62.10000 14.272
62.11000 10.063
62.12000 10.169
62.13000 8.050
62.14000 9.306
62.15000 7.217
62.16000 14.058
62.17000 6.132
62.18000 10.096
62.19000 8.113
62.20000 6.153
62.21000 5.005
62.22000 9.991
62.23000 9.134
62.24000 11.242
62.25000 4.003
62.26000 12.134
62.27000 15.281
62.28000 6.076
62.29000 8.086
62.30000 9.137
62.31000 7.017
62.32000 11.156
62.33000 7.036
62.34000 5.056
62.35000 7.196
62.36000 11.059
62.37000 10.274
62.38000 11.101
62.39000 7.168
62.40000 9.044
62.41000 11.165
62.42000 12.213
62.43000 12.129
62.44000 6.026
62.45000 10.104
62.46000 7.136
62.47000 5.022
62.48000 9.080
62.49000 3.978
62.50000 9.093
62.51000 8.079
62.52000 6.053
62.53000 6.037
62.54000 13.333
62.55000 6.982
62.56000 7.021
62.57000 12.098
62.58000 6.109
62.59000 5.059
62.60000 5.109
62.61000 7.015
62.62000 7.125
62.63000 4.994
62.64000 11.020
62.65000 6.023
62.66000 8.031
62.67000 7.006
62.68000 17.068
62.69000 10.207
62.70000 9.205
62.71000 10.168
62.72000 9.099
62.73000 9.214
62.74000 2.058
62.75000 7.027
62.76000 8.069
62.77000 8.230
62.78000 10.122
62.79000 6.036
62.80000 11.255
62.81000 10.114
62.82000 13.015
62.83000 15.134
62.84000 6.028
62.85000 10.119
62.86000 12.000
62.87000 13.068
62.88000 6.074
62.89000 10.199
62.90000 9.148
62.91000 10.119
62.92000 9.170
62.93000 9.065
62.94000 6.105
62.95000 11.145
62.96000 8.342
62.97000 8.047
62.98000 13.277
62.99000 2.027
63.00000 4.180
63.01000 6.192
63.02000 9.040
63.03000 10.119
63.04000 7.020
63.05000 7.139
63.06000 8.988
63.07000 13.197
63.08000 3.952
63.09000 8.124
63.10000 15.195
63.11000 6.954
63.12000 9.031
63.13000 5.099
63.14000 8.160
63.15000 5.951
63.16000 7.054
63.17000 5.999
63.18000 16.206
63.19000 10.094
63.20000 16.330
63.21000 15.183
63.22000 10.101
63.23000 12.229
63.24000 7.094
63.25000 8.183
63.26000 12.220
63.27000 7.125
63.28000 9.019
63.29000 6.974
63.30000 7.032
63.31000 9.004
63.32000 10.189
63.33000 17.354
63.34000 8.033
63.35000 9.111
63.36000 8.084
63.37000 7.136
63.38000 8.066
63.39000 14.131
63.40000 10.145
63.41000 10.102
63.42000 14.062
63.43000 13.074
63.44000 5.055
63.45000 8.085
63.46000 12.116
63.47000 12.186
63.48000 9.036
63.49000 13.109
63.50000 7.107
63.51000 6.081
63.52000 14.180
63.53000 13.131
63.54000 8.126
63.55000 13.148
63.56000 5.094
63.57000 11.002
63.58000 9.190
63.59000 13.202
63.60000 8.083
63.61000 7.043
63.62000 16.262
63.63000 7.073
63.64000 8.140
63.65000 13.201
63.66000 9.204
63.67000 9.109
63.68000 14.211
63.69000 13.083
63.70000 5.993
63.71000 15.371
63.72000 8.124
63.73000 13.201
63.74000 9.129
63.75000 10.217
63.76000 7.098
63.77000 9.127
63.78000 4.998
63.79000 6.073
63.80000 9.154
63.81000 5.988
63.82000 4.003
63.83000 8.107
63.84000 9.166
63.85000 10.265
63.86000 7.098
63.87000 9.045
63.88000 10.174
63.89000 11.049
63.90000 6.150
63.91000 10.064
63.92000 8.142
63.93000 9.130
63.94000 12.195
63.95000 7.205
63.96000 12.247
63.97000 6.148
63.98000 5.138
63.99000 7.040
64.00000 6.066
64.01000 7.043
64.02000 8.173
64.03000 10.198
64.04000 14.302
64.05000 9.141
64.06000 3.981
64.07000 16.248
64.08000 12.119
64.09000 13.068
64.10000 5.047
64.11000 8.217
64.12000 9.099
64.13000 9.111
64.14000 8.008
64.15000 9.114
64.16000 6.059
64.17000 7.122
64.18000 7.071
64.19000 3.999
64.20000 7.996
64.21000 13.322
64.22000 12.078
64.23000 7.001
64.24000 12.130
64.25000 8.990
64.26000 12.232
64.27000 7.146
64.28000 7.161
64.29000 11.158
64.30000 17.170
64.31000 7.133
64.32000 6.110
64.33000 7.036
64.34000 11.091
64.35000 9.212
64.36000 11.242
64.37000 9.153
64.38000 9.157
64.39000 11.075
64.40000 11.991
64.41000 10.258
64.42000 6.068
64.43000 8.194
64.44000 6.061
64.45000 7.148
64.46000 16.116
64.47000 6.238
64.48000 14.081
64.49000 6.011
64.50000 9.247
64.51000 7.140
64.52000 11.171
64.53000 7.096
64.54000 2.956
64.55000 11.143
64.56000 3.054
64.57000 15.266
64.58000 14.128
64.59000 7.023
64.60000 6.136
64.61000 11.274
64.62000 10.146
64.63000 3.061
64.64000 13.286
64.65000 9.105
64.66000 13.142
64.67000 8.171
64.68000 12.038
64.69000 7.967
64.70000 10.117
64.71000 3.993
64.72000 8.173
64.73000 9.081
64.74000 8.087
64.75000 7.039
64.76000 13.298
64.77000 7.077
64.78000 11.139
64.79000 9.076
64.80000 9.011
64.81000 9.161
64.82000 8.084
64.83000 7.057
64.84000 4.089
64.85000 6.011
64.86000 11.078
64.87000 13.247
64.88000 11.050
64.89000 9.135
64.90000 6.049
64.91000 8.126
64.92000 7.148
64.93000 5.067
64.94000 8.072
64.95000 8.031
64.96000 9.099
64.97000 11.145
64.98000 11.240
64.99000 8.989
65.00000 13.228
