20.00000 15.102
20.01000 16.190
20.02000 15.149
20.03000 19.247
20.04000 16.198
20.05000 22.227
20.06000 19.182
20.07000 27.345
20.08000 18.278
20.09000 25.364
20.10000 25.576
20.11000 15.106
20.12000 18.214
20.13000 12.143
20.14000 15.208
20.15000 13.271
20.16000 22.265
20.17000 16.230
20.18000 22.104
20.19000 24.214
20.20000 15.197
20.21000 23.291
20.22000 25.447
20.23000 21.309
20.24000 23.341
20.25000 21.460
20.26000 20.250
20.27000 15.428
20.28000 19.193
20.29000 17.111
20.30000 23.487
20.31000 16.201
20.32000 24.209
20.33000 15.156
20.34000 26.322
20.35000 15.210
20.36000 20.313
20.37000 24.260
20.38000 14.201
20.39000 20.239
20.40000 13.057
20.41000 26.591
20.42000 15.113
20.43000 21.297
20.44000 15.229
20.45000 19.329
20.46000 20.277
20.47000 20.250
20.48000 18.155
20.49000 19.223
20.50000 20.354
20.51000 16.143
20.52000 13.280
20.53000 20.370
20.54000 18.285
20.55000 20.225
20.56000 13.186
20.57000 16.427
20.58000 24.318
20.59000 15.198
20.60000 24.516
20.61000 17.127
20.62000 18.050
20.63000 26.283
20.64000 18.347
20.65000 26.314
20.66000 13.214
20.67000 20.417
20.68000 21.273
20.69000 19.484
20.70000 26.374
20.71000 16.230
20.72000 17.453
20.73000 16.219
20.74000 25.351
20.75000 20.066
20.76000 18.352
20.77000 20.407
20.78000 22.229
20.79000 20.051
20.80000 22.252
20.81000 26.288
20.82000 23.260
20.83000 17.174
20.84000 17.245
20.85000 19.396
20.86000 23.340
20.87000 22.390
20.88000 22.535
20.89000 16.300
20.90000 19.301
20.91000 19.294
20.92000 19.421
20.93000 15.111
20.94000 16.072
20.95000 23.354
20.96000 21.468
20.97000 15.211
20.98000 23.540
20.99000 16.480
21.00000 14.175
21.01000 14.274
21.02000 21.509
21.03000 22.277
21.04000 24.357
21.05000 26.339
21.06000 18.276
21.07000 18.212
21.08000 18.174
21.09000 26.301
21.10000 16.307
21.11000 25.254
21.12000 15.323
21.13000 21.168
21.14000 24.394
21.15000 17.155
21.16000 18.138
21.17000 19.198
21.18000 20.172
21.19000 21.359
21.20000 23.409
21.21000 17.358
21.22000 28.396
21.23000 18.334
21.24000 20.124
21.25000 21.131
21.26000 25.219
21.27000 19.355
21.28000 19.228
21.29000 21.266
21.30000 23.290
21.31000 20.279
21.32000 20.209
21.33000 18.244
21.34000 18.138
21.35000 19.156
21.36000 27.417
21.37000 20.459
21.38000 21.318
21.39000 21.452
21.40000 17.258
21.41000 18.256
21.42000 18.206
21.43000 21.333
21.44000 19.366
21.45000 20.328
21.46000 20.261
21.47000 23.192
21.48000 21.272
21.49000 20.177
21.50000 27.315
21.51000 18.479
21.52000 19.299
21.53000 28.502
21.54000 23.200
21.55000 16.224
21.56000 22.742
21.57000 13.073
21.58000 27.338
21.59000 13.179
21.60000 15.423
21.61000 17.314
21.62000 12.130
21.63000 14.265
21.64000 18.181
21.65000 15.286
21.66000 21.265
21.67000 14.140
21.68000 24.475
21.69000 22.298
21.70000 20.056
21.71000 18.165
21.72000 20.278
21.73000 20.245
21.74000 18.315
21.75000 11.211
21.76000 23.246
21.77000 20.245
21.78000 17.329
21.79000 12.195
21.80000 15.535
21.81000 22.246
21.82000 22.231
21.83000 21.296
21.84000 23.294
21.85000 25.341
21.86000 23.171
21.87000 18.351
21.88000 13.198
21.89000 19.177
21.90000 20.304
21.91000 18.110
21.92000 17.155
21.93000 26.202
21.94000 20.394
21.95000 19.158
21.96000 24.152
21.97000 16.116
21.98000 26.501
21.99000 20.451
22.00000 19.222
22.01000 18.225
22.02000 21.201
22.03000 15.107
22.04000 23.348
22.05000 23.214
22.06000 20.378
22.07000 16.174
22.08000 20.106
22.09000 25.400
22.10000 20.300
22.11000 18.432
22.12000 15.258
22.13000 22.354
22.14000 20.223
22.15000 19.337
22.16000 24.232
22.17000 15.053
22.18000 18.486
22.19000 24.358
22.20000 21.445
22.21000 23.342
22.22000 24.344
22.23000 23.224
22.24000 19.205
22.25000 21.281
22.26000 15.105
22.27000 15.188
22.28000 18.243
22.29000 17.194
22.30000 20.271
22.31000 26.247
22.32000 17.117
22.33000 26.439
22.34000 21.298
22.35000 20.354
22.36000 20.351
22.37000 11.259
22.38000 26.374
22.39000 23.192
22.40000 26.111
22.41000 12.085
22.42000 22.205
22.43000 24.328
22.44000 17.178
22.45000 17.077
22.46000 21.339
22.47000 19.269
22.48000 22.418
22.49000 28.342
22.50000 20.232
22.51000 26.318
22.52000 16.268
22.53000 18.146
22.54000 26.098
22.55000 16.046
22.56000 24.175
22.57000 25.621
22.58000 28.450
22.59000 27.430
22.60000 25.170
22.61000 18.182
22.62000 18.283
22.63000 21.308
22.64000 21.361
22.65000 17.298
22.66000 16.273
22.67000 19.439
22.68000 24.137
22.69000 24.302
22.70000 15.235
22.71000 20.239
22.72000 20.272
22.73000 19.170
22.74000 16.368
22.75000 21.207
22.76000 21.360
22.77000 24.218
22.78000 27.534
22.79000 15.057
22.80000 18.376
22.81000 22.142
22.82000 14.217
22.83000 26.211
22.84000 32.581
22.85000 28.443
22.86000 28.300
22.87000 17.307
22.88000 31.379
22.89000 26.642
22.90000 19.367
22.91000 24.439
22.92000 20.249
22.93000 23.367
22.94000 24.389
22.95000 23.240
22.96000 29.341
22.97000 30.380
22.98000 23.482
22.99000 25.188
23.00000 27.415
23.01000 16.187
23.02000 21.214
23.03000 17.082
23.04000 23.284
23.05000 21.111
23.06000 27.400
23.07000 18.362
23.08000 27.143
23.09000 21.294
23.10000 23.272
23.11000 21.036
23.12000 25.055
23.13000 18.101
23.14000 31.433
23.15000 19.226
23.16000 21.223
23.17000 25.313
23.18000 25.269
23.19000 21.149
23.20000 21.210
23.21000 18.255
23.22000 24.273
23.23000 23.244
23.24000 29.289
23.25000 34.059
23.26000 14.151
23.27000 24.229
23.28000 24.358
23.29000 16.327
23.30000 30.503
23.31000 22.302
23.32000 22.293
23.33000 18.236
23.34000 18.295
23.35000 21.015
23.36000 21.046
23.37000 27.125
23.38000 32.410
23.39000 26.586
23.40000 21.413
23.41000 18.176
23.42000 21.228
23.43000 22.387
23.44000 31.450
23.45000 22.246
23.46000 19.255
23.47000 27.202
23.48000 19.016
23.49000 27.296
23.50000 25.208
23.51000 30.301
23.52000 20.375
23.53000 32.234
23.54000 25.368
23.55000 17.138
23.56000 29.239
23.57000 20.146
23.58000 26.287
23.59000 23.276
23.60000 19.201
23.61000 28.362
23.62000 26.353
23.63000 22.021
23.64000 18.093
23.65000 23.209
23.66000 25.166
23.67000 32.355
23.68000 21.225
23.69000 33.431
23.70000 27.242
23.71000 31.382
23.72000 33.362
23.73000 25.379
23.74000 25.281
23.75000 29.257
23.76000 23.674
23.77000 21.213
23.78000 27.302
23.79000 35.303
23.80000 26.585
23.81000 24.208
23.82000 16.231
23.83000 24.240
23.84000 28.286
23.85000 25.216
23.86000 28.341
23.87000 28.290
23.88000 26.266
23.89000 29.356
23.90000 25.152
23.91000 36.624
23.92000 28.447
23.93000 30.454
23.94000 31.491
23.95000 20.242
23.96000 25.305
23.97000 35.542
23.98000 24.088
23.99000 29.493
24.00000 27.211
24.01000 29.354
24.02000 19.419
24.03000 20.277
24.04000 25.262
24.05000 30.345
24.06000 37.462
24.07000 20.374
24.08000 32.481
24.09000 26.486
24.10000 30.549
24.11000 30.485
24.12000 35.655
24.13000 12.127
24.14000 32.441
24.15000 25.424
24.16000 33.678
24.17000 24.127
24.18000 23.271
24.19000 26.354
24.20000 26.496
24.21000 24.245
24.22000 24.323
24.23000 32.355
24.24000 29.658
24.25000 29.324
24.26000 27.575
24.27000 21.174
24.28000 24.161
24.29000 24.447
24.30000 26.398
24.31000 17.261
24.32000 25.443
24.33000 28.506
24.34000 40.351
24.35000 28.327
24.36000 23.312
24.37000 33.284
24.38000 32.463
24.39000 29.204
24.40000 28.538
24.41000 28.462
24.42000 40.688
24.43000 32.437
24.44000 33.417
24.45000 24.313
24.46000 26.112
24.47000 25.471
24.48000 20.106
24.49000 26.220
24.50000 32.477
24.51000 27.157
24.52000 32.549
24.53000 30.431
24.54000 35.413
24.55000 26.525
24.56000 22.337
24.57000 24.531
24.58000 29.379
24.59000 24.272
24.60000 28.594
24.61000 30.535
24.62000 37.195
24.63000 36.330
24.64000 29.519
24.65000 28.258
24.66000 34.499
24.67000 35.472
24.68000 35.315
24.69000 23.362
24.70000 33.461
24.71000 32.401
24.72000 32.349
24.73000 27.369
24.74000 29.458
24.75000 20.337
24.76000 22.201
24.77000 25.259
24.78000 32.198
24.79000 22.264
24.80000 21.465
24.81000 29.532
24.82000 22.421
24.83000 37.440
24.84000 24.451
24.85000 28.965
24.86000 31.570
24.87000 24.392
24.88000 31.339
24.89000 29.590
24.90000 38.349
24.91000 31.446
24.92000 24.268
24.93000 27.347
24.94000 28.239
24.95000 37.475
24.96000 32.513
24.97000 33.320
24.98000 29.298
24.99000 27.467
25.00000 33.335
25.01000 31.376
25.02000 42.549
25.03000 33.347
25.04000 33.405
25.05000 30.403
25.06000 31.389
25.07000 44.617
25.08000 33.492
25.09000 30.273
25.10000 20.326
25.11000 42.354
25.12000 26.226
25.13000 28.366
25.14000 39.733
25.15000 35.741
25.16000 30.396
25.17000 41.548
25.18000 33.345
25.19000 34.603
25.20000 31.365
25.21000 42.400
25.22000 36.422
25.23000 42.727
25.24000 34.477
25.25000 33.608
25.26000 32.523
25.27000 31.336
25.28000 34.639
25.29000 32.450
25.30000 30.455
25.31000 32.382
25.32000 32.521
25.33000 33.524
25.34000 26.336
25.35000 30.246
25.36000 42.701
25.37000 36.518
25.38000 36.223
25.39000 49.536
25.40000 43.415
25.41000 35.311
25.42000 31.403
25.43000 32.322
25.44000 35.530
25.45000 33.390
25.46000 47.761
25.47000 40.682
25.48000 30.269
25.49000 28.405
25.50000 30.507
25.51000 31.453
25.52000 44.567
25.53000 32.332
25.54000 43.486
25.55000 26.006
25.56000 29.337
25.57000 28.304
25.58000 41.655
25.59000 37.672
25.60000 42.773
25.61000 36.576
25.62000 35.582
25.63000 42.453
25.64000 35.595
25.65000 44.636
25.66000 37.477
25.67000 46.823
25.68000 33.502
25.69000 31.369
25.70000 32.735
25.71000 38.372
25.72000 38.591
25.73000 30.302
25.74000 33.706
25.75000 25.228
25.76000 40.366
25.77000 38.826
25.78000 40.444
25.79000 33.258
25.80000 40.408
25.81000 38.449
25.82000 44.605
25.83000 45.647
25.84000 38.405
25.85000 39.496
25.86000 34.303
25.87000 41.533
25.88000 32.100
25.89000 41.508
25.90000 43.338
25.91000 38.822
25.92000 35.602
25.93000 37.466
25.94000 41.516
25.95000 40.291
25.96000 37.603
25.97000 36.521
25.98000 40.474
25.99000 37.516
26.00000 33.306
26.01000 34.419
26.02000 42.679
26.03000 42.748
26.04000 41.711
26.05000 32.256
26.06000 43.420
26.07000 45.437
26.08000 42.448
26.09000 29.339
26.10000 34.436
26.11000 36.474
26.12000 34.579
26.13000 42.407
26.14000 37.466
26.15000 42.664
26.16000 34.331
26.17000 52.639
26.18000 42.546
26.19000 36.478
26.20000 52.916
26.21000 38.559
26.22000 27.572
26.23000 39.344
26.24000 43.693
26.25000 46.654
26.26000 36.547
26.27000 42.424
26.28000 44.252
26.29000 48.601
26.30000 34.565
26.31000 42.344
26.32000 44.383
26.33000 48.657
26.34000 46.716
26.35000 55.571
26.36000 42.520
26.37000 40.668
26.38000 40.746
26.39000 54.577
26.40000 39.509
26.41000 36.273
26.42000 41.659
26.43000 43.466
26.44000 45.599
26.45000 53.011
26.46000 17.183
26.47000 35.848
26.48000 32.283
26.49000 42.576
26.50000 35.428
26.51000 40.666
26.52000 50.601
26.53000 35.343
26.54000 27.529
26.55000 33.585
26.56000 32.398
26.57000 47.579
26.58000 39.561
26.59000 52.874
26.60000 55.774
26.61000 40.577
26.62000 42.390
26.63000 44.501
26.64000 38.558
26.65000 46.440
26.66000 41.547
26.67000 44.516
26.68000 32.274
26.69000 39.490
26.70000 44.666
26.71000 47.379
26.72000 46.330
26.73000 47.571
26.74000 48.640
26.75000 40.308
26.76000 44.673
26.77000 42.374
26.78000 31.386
26.79000 48.563
26.80000 47.482
26.81000 47.560
26.82000 52.667
26.83000 52.820
26.84000 38.766
26.85000 33.323
26.86000 46.661
26.87000 44.696
26.88000 46.640
26.89000 49.809
26.90000 34.336
26.91000 37.181
26.92000 38.078
26.93000 44.496
26.94000 44.562
26.95000 40.492
26.96000 47.338
26.97000 55.801
26.98000 45.116
26.99000 37.317
27.00000 49.581
27.01000 51.670
27.02000 44.459
27.03000 40.449
27.04000 56.988
27.05000 52.588
27.06000 59.718
27.07000 45.953
27.08000 38.570
27.09000 41.603
27.10000 43.541
27.11000 52.652
27.12000 41.723
27.13000 45.462
27.14000 44.769
27.15000 35.563
27.16000 40.503
27.17000 49.519
27.18000 49.491
27.19000 34.567
27.20000 49.932
27.21000 40.558
27.22000 44.614
27.23000 39.574
27.24000 43.852
27.25000 53.520
27.26000 47.539
27.27000 51.498
27.28000 43.534
27.29000 29.264
27.30000 33.469
27.31000 44.676
27.32000 41.314
27.33000 45.599
27.34000 45.862
27.35000 37.618
27.36000 52.608
27.37000 47.548
27.38000 45.225
27.39000 45.566
27.40000 55.762
27.41000 47.500
27.42000 39.403
27.43000 44.340
27.44000 37.515
27.45000 43.679
27.46000 49.328
27.47000 46.348
27.48000 37.584
27.49000 53.253
27.50000 49.131
27.51000 46.791
27.52000 47.433
27.53000 45.633
27.54000 54.667
27.55000 54.898
27.56000 53.844
27.57000 45.500
27.58000 61.727
27.59000 38.640
27.60000 50.797
27.61000 47.564
27.62000 53.843
27.63000 44.753
27.64000 42.308
27.65000 31.652
27.66000 51.532
27.67000 51.635
27.68000 41.455
27.69000 39.377
27.70000 44.666
27.71000 54.775
27.72000 48.748
27.73000 46.873
27.74000 43.533
27.75000 48.604
27.76000 42.729
27.77000 40.584
27.78000 50.997
27.79000 49.641
27.80000 37.562
27.81000 53.755
27.82000 49.702
27.83000 55.581
27.84000 42.604
27.85000 49.693
27.86000 43.610
27.87000 35.232
27.88000 57.509
27.89000 51.744
27.90000 46.603
27.91000 49.665
27.92000 53.528
27.93000 45.584
27.94000 50.563
27.95000 41.344
27.96000 43.653
27.97000 32.695
27.98000 43.611
27.99000 45.895
28.00000 49.294
28.01000 48.830
28.02000 64.953
28.03000 49.609
28.04000 62.882
28.05000 48.628
28.06000 52.400
28.07000 41.484
28.08000 49.906
28.09000 52.082
28.10000 45.692
28.11000 39.641
28.12000 57.794
28.13000 44.459
28.14000 44.459
28.15000 29.420
28.16000 36.318
28.17000 44.617
28.18000 64.816
28.19000 46.639
28.20000 49.747
28.21000 49.913
28.22000 32.634
28.23000 40.439
28.24000 47.788
28.25000 40.414
28.26000 45.792
28.27000 56.704
28.28000 36.475
28.29000 60.538
28.30000 35.449
28.31000 42.499
28.32000 51.652
28.33000 30.267
28.34000 54.908
28.35000 46.511
28.36000 29.153
28.37000 36.516
28.38000 36.531
28.39000 43.972
28.40000 40.528
28.41000 48.507
28.42000 45.627
28.43000 44.513
28.44000 52.495
28.45000 34.560
28.46000 50.626
28.47000 48.922
28.48000 35.546
28.49000 37.490
28.50000 39.215
28.51000 36.467
28.52000 55.725
28.53000 32.616
28.54000 43.471
28.55000 41.531
28.56000 44.675
28.57000 45.251
28.58000 44.408
28.59000 32.545
28.60000 38.509
28.61000 43.735
28.62000 44.676
28.63000 35.492
28.64000 52.775
28.65000 43.605
28.66000 44.834
28.67000 42.539
28.68000 44.695
28.69000 38.573
28.70000 35.344
28.71000 51.588
28.72000 39.480
28.73000 50.798
28.74000 51.684
28.75000 40.497
28.76000 43.007
28.77000 43.374
28.78000 36.691
28.79000 34.574
28.80000 27.400
28.81000 41.329
28.82000 49.859
28.83000 31.466
28.84000 45.867
28.85000 44.469
28.86000 32.235
28.87000 52.943
28.88000 47.871
28.89000 41.407
28.90000 50.806
28.91000 40.521
28.92000 45.617
28.93000 52.491
28.94000 39.492
28.95000 51.628
28.96000 30.552
28.97000 40.511
28.98000 43.775
28.99000 38.839
29.00000 41.373
29.01000 48.257
29.02000 45.643
29.03000 38.691
29.04000 38.337
29.05000 42.644
29.06000 40.425
29.07000 36.512
29.08000 50.862
29.09000 39.607
29.10000 42.560
29.11000 31.500
29.12000 33.437
29.13000 35.363
29.14000 40.533
29.15000 34.595
29.16000 42.480
29.17000 33.640
29.18000 35.358
29.19000 49.728
29.20000 40.459
29.21000 31.448
29.22000 25.219
29.23000 41.620
29.24000 29.639
29.25000 47.684
29.26000 35.778
29.27000 40.572
29.28000 31.383
29.29000 41.614
29.30000 37.373
29.31000 41.537
29.32000 46.731
29.33000 48.800
29.34000 36.457
29.35000 31.199
29.36000 37.589
29.37000 34.549
29.38000 41.500
29.39000 43.277
29.40000 42.630
29.41000 33.531
29.42000 39.584
29.43000 34.380
29.44000 32.489
29.45000 36.352
29.46000 30.597
29.47000 34.665
29.48000 35.606
29.49000 29.382
29.50000 33.659
29.51000 40.550
29.52000 42.487
29.53000 37.358
29.54000 28.529
29.55000 36.565
29.56000 30.311
29.57000 36.564
29.58000 42.531
29.59000 37.781
29.60000 40.438
29.61000 33.639
29.62000 32.478
29.63000 30.324
29.64000 33.551
29.65000 39.452
29.66000 41.563
29.67000 31.216
29.68000 37.325
29.69000 41.726
29.70000 31.320
29.71000 45.706
29.72000 35.361
29.73000 27.382
29.74000 45.230
29.75000 34.641
29.76000 33.580
29.77000 40.481
29.78000 28.357
29.79000 41.351
29.80000 38.456
29.81000 36.359
29.82000 35.428
29.83000 36.284
29.84000 30.201
29.85000 40.371
29.86000 33.366
29.87000 39.077
29.88000 31.610
29.89000 39.288
29.90000 42.508
29.91000 38.600
29.92000 28.664
29.93000 36.452
29.94000 33.267
29.95000 42.840
29.96000 25.272
29.97000 38.338
29.98000 28.254
29.99000 31.360
30.00000 39.635
30.01000 33.513
30.02000 35.422
30.03000 40.452
30.04000 38.398
30.05000 37.480
30.06000 42.582
30.07000 24.339
30.08000 28.337
30.09000 25.373
30.10000 53.759
30.11000 41.530
30.12000 34.549
30.13000 28.428
30.14000 24.258
30.15000 33.520
30.16000 30.230
30.17000 31.303
30.18000 30.355
30.19000 40.581
30.20000 25.377
30.21000 26.239
30.22000 24.140
30.23000 23.570
30.24000 31.424
30.25000 24.321
30.26000 41.309
30.27000 32.398
30.28000 26.462
30.29000 33.398
30.30000 28.243
30.31000 25.130
30.32000 32.357
30.33000 29.535
30.34000 26.428
30.35000 32.325
30.36000 34.491
30.37000 35.522
30.38000 22.347
30.39000 33.455
30.40000 33.374
30.41000 17.287
30.42000 32.420
30.43000 31.425
30.44000 33.378
30.45000 27.550
30.46000 37.182
30.47000 31.485
30.48000 22.079
30.49000 24.372
30.50000 38.436
30.51000 22.500
30.52000 34.615
30.53000 25.340
30.54000 38.419
30.55000 22.381
30.56000 34.214
30.57000 29.412
30.58000 32.492
30.59000 31.727
30.60000 34.655
30.61000 31.605
30.62000 28.294
30.63000 27.378
30.64000 28.674
30.65000 28.586
30.66000 31.575
30.67000 27.263
30.68000 22.342
30.69000 33.681
30.70000 29.379
30.71000 30.403
30.72000 32.446
30.73000 22.232
30.74000 26.499
30.75000 33.278
30.76000 37.559
30.77000 18.439
30.78000 24.238
30.79000 36.318
30.80000 28.426
30.81000 34.614
30.82000 24.187
30.83000 20.345
30.84000 23.125
30.85000 34.445
30.86000 26.284
30.87000 32.499
30.88000 20.241
30.89000 31.443
30.90000 29.471
30.91000 25.399
30.92000 23.104
30.93000 28.510
30.94000 31.334
30.95000 28.284
30.96000 25.323
30.97000 20.223
30.98000 25.383
30.99000 23.359
31.00000 16.268
31.01000 30.548
31.02000 26.361
31.03000 22.193
31.04000 26.207
31.05000 33.389
31.06000 28.281
31.07000 27.288
31.08000 27.420
31.09000 23.555
31.10000 30.509
31.11000 35.527
31.12000 24.137
31.13000 23.220
31.14000 23.007
31.15000 28.412
31.16000 24.417
31.17000 27.452
31.18000 34.267
31.19000 29.414
31.20000 21.501
31.21000 15.065
31.22000 26.421
31.23000 32.486
31.24000 21.359
31.25000 31.373
31.26000 26.435
31.27000 29.472
31.28000 23.261
31.29000 18.176
31.30000 19.077
31.31000 35.373
31.32000 27.103
31.33000 22.065
31.34000 21.351
31.35000 24.394
31.36000 22.430
31.37000 25.327
31.38000 27.431
31.39000 23.273
31.40000 27.479
31.41000 35.517
31.42000 28.332
31.43000 39.463
31.44000 27.357
31.45000 33.474
31.46000 30.484
31.47000 22.404
31.48000 28.409
31.49000 32.416
31.50000 24.224
31.51000 20.387
31.52000 25.411
31.53000 20.291
31.54000 24.347
31.55000 31.436
31.56000 22.370
31.57000 25.171
31.58000 15.090
31.59000 17.329
31.60000 21.165
31.61000 26.260
31.62000 26.234
31.63000 16.160
31.64000 24.206
31.65000 35.440
31.66000 20.379
31.67000 19.406
31.68000 19.297
31.69000 32.282
31.70000 30.440
31.71000 30.257
31.72000 32.326
31.73000 19.266
31.74000 16.225
31.75000 17.177
31.76000 26.386
31.77000 31.669
31.78000 23.532
31.79000 20.214
31.80000 27.502
31.81000 22.299
31.82000 31.390
31.83000 26.475
31.84000 24.172
31.85000 29.118
31.86000 34.268
31.87000 27.339
31.88000 27.314
31.89000 25.167
31.90000 18.287
31.91000 24.335
31.92000 24.462
31.93000 22.288
31.94000 23.104
31.95000 23.347
31.96000 24.301
31.97000 28.408
31.98000 25.393
31.99000 28.353
32.00000 27.419
32.01000 29.479
32.02000 25.520
32.03000 16.214
32.04000 20.196
32.05000 18.156
32.06000 25.454
32.07000 19.210
32.08000 26.276
32.09000 26.446
32.10000 26.419
32.11000 17.198
32.12000 35.406
32.13000 31.432
32.14000 29.449
32.15000 33.364
32.16000 34.487
32.17000 31.373
32.18000 30.450
32.19000 33.511
32.20000 17.137
32.21000 20.475
32.22000 32.347
32.23000 21.243
32.24000 26.205
32.25000 33.497
32.26000 29.385
32.27000 25.311
32.28000 39.630
32.29000 26.372
32.30000 27.623
32.31000 32.467
32.32000 34.569
32.33000 24.100
32.34000 22.307
32.35000 30.305
32.36000 31.448
32.37000 27.272
32.38000 30.504
32.39000 28.494
32.40000 27.277
32.41000 30.097
32.42000 32.384
32.43000 30.338
32.44000 29.013
32.45000 23.186
32.46000 27.344
32.47000 29.398
32.48000 25.378
32.49000 31.475
32.50000 33.538
32.51000 28.366
32.52000 20.367
32.53000 20.165
32.54000 20.359
32.55000 29.387
32.56000 33.567
32.57000 28.275
32.58000 32.307
32.59000 24.336
32.60000 30.284
32.61000 16.263
32.62000 17.263
32.63000 23.394
32.64000 24.258
32.65000 18.200
32.66000 27.424
32.67000 25.442
32.68000 20.501
32.69000 18.349
32.70000 15.207
32.71000 25.103
32.72000 26.251
32.73000 25.292
32.74000 22.163
32.75000 20.352
32.76000 13.132
32.77000 24.351
32.78000 17.255
32.79000 16.205
32.80000 15.103
32.81000 24.423
32.82000 21.322
32.83000 27.429
32.84000 22.287
32.85000 18.164
32.86000 20.077
32.87000 15.167
32.88000 18.369
32.89000 15.145
32.90000 22.180
32.91000 18.169
32.92000 26.244
32.93000 20.205
32.94000 19.322
32.95000 27.156
32.96000 27.514
32.97000 19.333
32.98000 17.199
32.99000 17.264
33.00000 23.375
33.01000 17.071
33.02000 28.381
33.03000 21.173
33.04000 22.162
33.05000 18.394
33.06000 25.273
33.07000 22.181
33.08000 19.286
33.09000 15.140
33.10000 21.535
33.11000 14.186
33.12000 19.225
33.13000 15.293
33.14000 21.266
33.15000 24.208
33.16000 18.172
33.17000 18.169
33.18000 19.209
33.19000 20.289
33.20000 22.224
33.21000 16.974
33.22000 11.129
33.23000 10.131
33.24000 15.176
33.25000 15.000
33.26000 21.401
33.27000 20.330
33.28000 23.520
33.29000 14.072
33.30000 25.300
33.31000 21.309
33.32000 27.353
33.33000 22.424
33.34000 23.332
33.35000 9.192
33.36000 22.234
33.37000 19.221
33.38000 16.298
33.39000 8.038
33.40000 19.024
33.41000 21.291
33.42000 22.240
33.43000 23.206
33.44000 13.330
33.45000 17.994
33.46000 9.098
33.47000 24.507
33.48000 15.116
33.49000 28.131
33.50000 15.265
33.51000 22.187
33.52000 14.140
33.53000 17.090
33.54000 15.211
33.55000 21.271
33.56000 20.270
33.57000 18.145
33.58000 24.329
33.59000 17.161
33.60000 14.208
33.61000 23.319
33.62000 20.145
33.63000 16.220
33.64000 22.280
33.65000 13.175
33.66000 9.171
33.67000 13.178
33.68000 14.071
33.69000 20.166
33.70000 17.123
33.71000 23.437
33.72000 15.064
33.73000 15.237
33.74000 14.213
33.75000 14.207
33.76000 13.108
33.77000 22.187
33.78000 17.295
33.79000 19.424
33.80000 17.235
33.81000 19.306
33.82000 10.136
33.83000 22.369
33.84000 24.235
33.85000 15.224
33.86000 10.250
33.87000 18.204
33.88000 17.150
33.89000 22.423
33.90000 18.242
33.91000 12.311
33.92000 22.393
33.93000 18.245
33.94000 12.185
33.95000 20.298
33.96000 12.297
33.97000 14.127
33.98000 12.190
33.99000 19.237
34.00000 11.066
34.01000 21.191
34.02000 21.114
34.03000 19.233
34.04000 19.157
34.05000 16.053
34.06000 16.360
34.07000 13.087
34.08000 23.339
34.09000 26.231
34.10000 19.139
34.11000 12.057
34.12000 13.115
34.13000 14.236
34.14000 22.332
34.15000 18.263
34.16000 13.154
34.17000 23.185
34.18000 7.081
34.19000 12.207
34.20000 16.210
34.21000 12.033
34.22000 13.146
34.23000 14.130
34.24000 17.212
34.25000 12.225
34.26000 16.239
34.27000 17.247
34.28000 12.140
34.29000 17.265
34.30000 13.155
34.31000 15.220
34.32000 15.156
34.33000 16.108
34.34000 14.167
34.35000 17.117
34.36000 22.264
34.37000 16.301
34.38000 18.206
34.39000 20.414
34.40000 14.181
34.41000 20.180
34.42000 13.128
34.43000 15.012
34.44000 10.204
34.45000 17.127
34.46000 12.151
34.47000 13.095
34.48000 14.140
34.49000 10.087
34.50000 8.018
34.51000 14.982
34.52000 18.127
34.53000 13.183
34.54000 16.261
34.55000 17.215
34.56000 9.132
34.57000 19.220
34.58000 13.088
34.59000 18.198
34.60000 10.194
34.61000 14.178
34.62000 19.263
34.63000 14.132
34.64000 9.193
34.65000 10.042
34.66000 18.139
34.67000 16.079
34.68000 14.176
34.69000 18.250
34.70000 20.271
34.71000 23.181
34.72000 17.109
34.73000 13.205
34.74000 11.233
34.75000 20.348
34.76000 9.156
34.77000 15.183
34.78000 21.344
34.79000 10.231
34.80000 16.139
34.81000 11.068
34.82000 22.453
34.83000 20.246
34.84000 11.342
34.85000 19.064
34.86000 17.338
34.87000 17.252
34.88000 10.240
34.89000 15.351
34.90000 11.174
34.91000 15.143
34.92000 16.203
34.93000 18.133
34.94000 12.113
34.95000 15.322
34.96000 12.076
34.97000 11.120
34.98000 16.403
34.99000 5.074
35.00000 13.113
35.01000 9.085
35.02000 11.041
35.03000 10.005
35.04000 17.276
35.05000 26.339
35.06000 19.329
35.07000 16.099
35.08000 17.510
35.09000 14.147
35.10000 9.031
35.11000 12.115
35.12000 17.274
35.13000 14.384
35.14000 9.092
35.15000 19.385
35.16000 15.127
35.17000 11.185
35.18000 14.174
35.19000 14.188
35.20000 14.309
35.21000 18.126
35.22000 20.323
35.23000 9.138
35.24000 12.078
35.25000 16.081
35.26000 7.089
35.27000 12.184
35.28000 9.963
35.29000 17.143
35.30000 12.040
35.31000 13.148
35.32000 14.015
35.33000 13.096
35.34000 12.012
35.35000 17.341
35.36000 19.258
35.37000 10.227
35.38000 22.221
35.39000 17.192
35.40000 20.358
35.41000 13.185
35.42000 8.130
35.43000 17.091
35.44000 9.060
35.45000 13.336
35.46000 14.109
35.47000 18.126
35.48000 12.088
35.49000 20.305
35.50000 23.353
35.51000 11.290
35.52000 13.216
35.53000 11.004
35.54000 19.390
35.55000 14.301
35.56000 6.051
35.57000 13.143
35.58000 20.220
35.59000 17.266
35.60000 16.178
35.61000 11.097
35.62000 24.042
35.63000 16.352
35.64000 13.161
35.65000 12.148
35.66000 12.051
35.67000 13.079
35.68000 18.330
35.69000 12.385
35.70000 14.309
35.71000 14.196
35.72000 16.152
35.73000 19.446
35.74000 14.101
35.75000 15.272
35.76000 14.267
35.77000 18.084
35.78000 19.171
35.79000 18.338
35.80000 10.031
35.81000 17.148
35.82000 10.140
35.83000 14.166
35.84000 22.347
35.85000 10.047
35.86000 11.303
35.87000 18.317
35.88000 14.197
35.89000 18.312
35.90000 19.088
35.91000 20.356
35.92000 14.143
35.93000 16.146
35.94000 16.181
35.95000 14.336
35.96000 9.103
35.97000 10.106
35.98000 12.248
35.99000 15.148
36.00000 17.302
36.01000 17.200
36.02000 20.186
36.03000 23.290
36.04000 11.063
36.05000 7.065
36.06000 15.267
36.07000 12.246
36.08000 17.142
36.09000 17.267
36.10000 20.277
36.11000 17.168
36.12000 18.163
36.13000 12.187
36.14000 15.180
36.15000 11.207
36.16000 12.288
36.17000 19.181
36.18000 16.172
36.19000 20.114
36.20000 14.220
36.21000 17.116
36.22000 11.045
36.23000 21.391
36.24000 13.094
36.25000 17.988
36.26000 16.110
36.27000 16.214
36.28000 9.185
36.29000 23.355
36.30000 19.343
36.31000 14.264
36.32000 13.298
36.33000 15.300
36.34000 22.295
36.35000 24.251
36.36000 16.121
36.37000 15.079
36.38000 17.233
36.39000 18.164
36.40000 12.227
36.41000 17.108
36.42000 7.196
36.43000 11.260
36.44000 12.992
36.45000 12.110
36.46000 18.285
36.47000 16.366
36.48000 13.113
36.49000 13.051
36.50000 13.155
36.51000 17.227
36.52000 11.185
36.53000 18.314
36.54000 13.169
36.55000 15.203
36.56000 16.318
36.57000 14.275
36.58000 11.270
36.59000 16.152
36.60000 15.153
36.61000 13.157
36.62000 17.287
36.63000 15.110
36.64000 24.124
36.65000 17.228
36.66000 16.121
36.67000 7.969
36.68000 18.277
36.69000 11.110
36.70000 18.217
36.71000 8.997
36.72000 14.121
36.73000 23.318
36.74000 16.273
36.75000 18.276
36.76000 19.333
36.77000 22.537
36.78000 16.396
36.79000 15.138
36.80000 11.140
36.81000 18.229
36.82000 19.187
36.83000 16.274
36.84000 17.174
36.85000 17.035
36.86000 14.194
36.87000 12.171
36.88000 12.299
36.89000 13.107
36.90000 14.229
36.91000 14.181
36.92000 25.287
36.93000 20.410
36.94000 14.161
36.95000 10.978
36.96000 22.285
36.97000 10.334
36.98000 16.297
36.99000 17.321
37.00000 17.163
37.01000 18.311
37.02000 9.030
37.03000 13.231
37.04000 15.235
37.05000 20.301
37.06000 20.220
37.07000 17.279
37.08000 16.034
37.09000 20.159
37.10000 22.423
37.11000 18.177
37.12000 19.257
37.13000 13.134
37.14000 17.410
37.15000 14.244
37.16000 19.215
37.17000 22.243
37.18000 12.081
37.19000 19.173
37.20000 13.283
37.21000 14.209
37.22000 15.150
37.23000 13.244
37.24000 19.313
37.25000 12.114
37.26000 18.126
37.27000 21.450
37.28000 8.059
37.29000 18.352
37.30000 14.126
37.31000 13.308
37.32000 12.207
37.33000 17.343
37.34000 23.268
37.35000 20.377
37.36000 12.190
37.37000 19.314
37.38000 14.118
37.39000 14.999
37.40000 22.424
37.41000 13.276
37.42000 15.175
37.43000 14.137
37.44000 20.409
37.45000 28.302
37.46000 21.317
37.47000 9.034
37.48000 22.330
37.49000 16.194
37.50000 11.153
37.51000 18.328
37.52000 16.130
37.53000 21.391
37.54000 14.147
37.55000 10.006
37.56000 21.289
37.57000 17.252
37.58000 15.215
37.59000 13.390
37.60000 13.107
37.61000 16.113
37.62000 16.182
37.63000 15.137
37.64000 10.158
37.65000 15.197
37.66000 15.182
37.67000 12.265
37.68000 15.224
37.69000 18.067
37.70000 11.131
37.71000 21.373
37.72000 18.291
37.73000 21.470
37.74000 13.142
37.75000 10.047
37.76000 15.132
37.77000 14.190
37.78000 10.213
37.79000 15.098
37.80000 15.238
37.81000 13.247
37.82000 18.373
37.83000 21.565
37.84000 11.123
37.85000 21.228
37.86000 17.179
37.87000 18.268
37.88000 18.188
37.89000 21.455
37.90000 12.222
37.91000 16.267
37.92000 16.376
37.93000 13.167
37.94000 22.231
37.95000 12.051
37.96000 14.222
37.97000 14.266
37.98000 17.052
37.99000 18.194
38.00000 19.496
38.01000 16.249
38.02000 12.094
38.03000 24.241
38.04000 12.307
38.05000 16.992
38.06000 14.305
38.07000 14.109
38.08000 17.276
38.09000 15.335
38.10000 18.141
38.11000 14.276
38.12000 23.228
38.13000 18.220
38.14000 13.167
38.15000 25.345
38.16000 19.175
38.17000 21.200
38.18000 16.206
38.19000 21.277
38.20000 19.181
38.21000 19.387
38.22000 12.276
38.23000 19.234
38.24000 21.408
38.25000 17.047
38.26000 20.301
38.27000 15.189
38.28000 18.169
38.29000 26.267
38.30000 15.098
38.31000 12.213
38.32000 25.051
38.33000 10.093
38.34000 17.270
38.35000 14.094
38.36000 16.157
38.37000 16.287
38.38000 22.258
38.39000 18.225
38.40000 17.195
38.41000 17.139
38.42000 20.130
38.43000 22.421
38.44000 21.506
38.45000 13.983
38.46000 16.189
38.47000 13.232
38.48000 14.250
38.49000 17.304
38.50000 18.217
38.51000 14.142
38.52000 19.359
38.53000 19.237
38.54000 14.097
38.55000 22.410
38.56000 18.221
38.57000 11.149
38.58000 11.130
38.59000 17.220
38.60000 22.463
38.61000 14.175
38.62000 19.341
38.63000 18.279
38.64000 19.247
38.65000 28.383
38.66000 22.216
38.67000 21.207
38.68000 17.312
38.69000 20.126
38.70000 15.179
38.71000 23.329
38.72000 12.068
38.73000 19.318
38.74000 13.206
38.75000 29.361
38.76000 19.379
38.77000 16.116
38.78000 17.282
38.79000 18.431
38.80000 16.214
38.81000 14.193
38.82000 12.057
38.83000 15.095
38.84000 9.152
38.85000 23.166
38.86000 22.198
38.87000 13.018
38.88000 13.197
38.89000 21.242
38.90000 14.364
38.91000 10.199
38.92000 19.194
38.93000 20.208
38.94000 18.217
38.95000 16.196
38.96000 15.204
38.97000 12.072
38.98000 16.203
38.99000 15.285
39.00000 18.263
39.01000 11.245
39.02000 17.110
39.03000 18.200
39.04000 13.193
39.05000 17.376
39.06000 20.280
39.07000 17.127
39.08000 16.202
39.09000 24.178
39.10000 21.211
39.11000 20.235
39.12000 19.307
39.13000 14.238
39.14000 20.158
39.15000 20.244
39.16000 21.470
39.17000 20.277
39.18000 15.146
39.19000 20.229
39.20000 22.311
39.21000 12.122
39.22000 8.042
39.23000 10.139
39.24000 15.212
39.25000 16.194
39.26000 15.298
39.27000 22.195
39.28000 17.260
39.29000 17.285
39.30000 18.353
39.31000 15.196
39.32000 14.391
39.33000 18.279
39.34000 19.248
39.35000 19.255
39.36000 16.279
39.37000 10.061
39.38000 13.070
39.39000 12.132
39.40000 17.255
39.41000 12.148
39.42000 20.373
39.43000 15.153
39.44000 29.507
39.45000 15.254
39.46000 17.215
39.47000 18.364
39.48000 24.433
39.49000 13.304
39.50000 15.183
39.51000 21.131
39.52000 15.107
39.53000 28.342
39.54000 28.381
39.55000 32.475
39.56000 21.316
39.57000 13.215
39.58000 14.950
39.59000 18.475
39.60000 22.345
39.61000 16.286
39.62000 13.177
39.63000 14.137
39.64000 28.510
39.65000 22.294
39.66000 29.777
39.67000 26.472
39.68000 29.335
39.69000 19.130
39.70000 22.431
39.71000 18.399
39.72000 24.192
39.73000 21.390
39.74000 20.078
39.75000 20.222
39.76000 13.244
39.77000 18.146
39.78000 16.335
39.79000 16.038
39.80000 14.059
39.81000 16.337
39.82000 22.241
39.83000 24.430
39.84000 23.336
39.85000 18.317
39.86000 16.120
39.87000 28.328
39.88000 20.064
39.89000 21.267
39.90000 30.365
39.91000 18.273
39.92000 21.426
39.93000 26.392
39.94000 17.176
39.95000 16.282
39.96000 23.409
39.97000 18.237
39.98000 10.289
39.99000 19.474
40.00000 20.424
40.01000 24.266
40.02000 18.297
40.03000 18.174
40.04000 25.208
40.05000 27.256
40.06000 23.120
40.07000 20.123
40.08000 21.274
40.09000 22.188
40.10000 16.054
40.11000 21.432
40.12000 24.475
40.13000 12.079
40.14000 18.290
40.15000 12.194
40.16000 29.407
40.17000 13.279
40.18000 20.286
40.19000 15.508
40.20000 22.428
40.21000 24.256
40.22000 17.132
40.23000 18.327
40.24000 22.197
40.25000 19.434
40.26000 14.257
40.27000 8.140
40.28000 16.254
40.29000 18.071
40.30000 18.056
40.31000 21.312
40.32000 15.133
40.33000 22.231
40.34000 16.210
40.35000 18.423
40.36000 17.074
40.37000 13.234
40.38000 15.125
40.39000 22.291
40.40000 13.138
40.41000 20.338
40.42000 21.270
40.43000 8.126
40.44000 19.278
40.45000 14.225
40.46000 25.343
40.47000 16.149
40.48000 17.264
40.49000 16.209
40.50000 12.165
40.51000 23.358
40.52000 16.203
40.53000 17.093
40.54000 16.352
40.55000 19.333
40.56000 11.220
40.57000 19.239
40.58000 19.236
40.59000 14.097
40.60000 15.145
40.61000 19.295
40.62000 15.226
40.63000 14.153
40.64000 19.129
40.65000 17.153
40.66000 15.245
40.67000 18.282
40.68000 20.269
40.69000 13.103
40.70000 19.324
40.71000 18.195
40.72000 18.467
40.73000 15.117
40.74000 21.280
40.75000 17.098
40.76000 23.328
40.77000 20.399
40.78000 19.476
40.79000 22.443
40.80000 16.373
40.81000 14.104
40.82000 22.371
40.83000 15.295
40.84000 16.288
40.85000 17.203
40.86000 15.192
40.87000 15.065
40.88000 15.078
40.89000 16.093
40.90000 13.106
40.91000 17.273
40.92000 26.446
40.93000 15.246
40.94000 17.186
40.95000 20.392
40.96000 25.574
40.97000 18.205
40.98000 15.108
40.99000 25.429
41.00000 15.317
41.01000 19.198
41.02000 17.222
41.03000 18.235
41.04000 16.212
41.05000 15.163
41.06000 23.381
41.07000 15.135
41.08000 18.196
41.09000 22.449
41.10000 21.176
41.11000 16.206
41.12000 18.201
41.13000 14.105
41.14000 15.363
41.15000 17.159
41.16000 21.308
41.17000 13.026
41.18000 21.286
41.19000 12.074
41.20000 23.364
41.21000 14.248
41.22000 19.198
41.23000 20.286
41.24000 14.263
41.25000 23.102
41.26000 10.125
41.27000 23.288
41.28000 20.468
41.29000 21.369
41.30000 14.191
41.31000 19.293
41.32000 20.212
41.33000 22.186
41.34000 18.291
41.35000 11.261
41.36000 13.057
41.37000 16.160
41.38000 20.170
41.39000 19.161
41.40000 18.201
41.41000 22.152
41.42000 10.193
41.43000 25.550
41.44000 21.237
41.45000 27.241
41.46000 15.337
41.47000 22.265
41.48000 24.200
41.49000 16.256
41.50000 16.347
41.51000 16.279
41.52000 14.144
41.53000 15.204
41.54000 16.104
41.55000 12.280
41.56000 22.162
41.57000 19.149
41.58000 16.274
41.59000 17.222
41.60000 13.176
41.61000 17.281
41.62000 17.233
41.63000 19.353
41.64000 14.083
41.65000 19.183
41.66000 23.317
41.67000 24.426
41.68000 21.145
41.69000 10.081
41.70000 22.261
41.71000 16.312
41.72000 11.182
41.73000 15.163
41.74000 19.253
41.75000 21.183
41.76000 17.282
41.77000 22.290
41.78000 11.018
41.79000 17.078
41.80000 16.154
41.81000 13.152
41.82000 22.108
41.83000 17.083
41.84000 11.117
41.85000 25.248
41.86000 13.111
41.87000 18.192
41.88000 25.247
41.89000 16.155
41.90000 19.213
41.91000 17.310
41.92000 24.321
41.93000 19.271
41.94000 11.130
41.95000 20.348
41.96000 17.357
41.97000 16.241
41.98000 22.222
41.99000 21.129
42.00000 19.281
42.01000 24.430
42.02000 13.236
42.03000 22.279
42.04000 18.287
42.05000 23.762
42.06000 28.502
42.07000 13.204
42.08000 17.307
42.09000 18.207
42.10000 16.259
42.11000 17.927
42.12000 21.198
42.13000 23.327
42.14000 19.214
42.15000 12.221
42.16000 20.331
42.17000 13.223
42.18000 17.277
42.19000 15.179
42.20000 17.281
42.21000 12.268
42.22000 18.153
42.23000 9.117
42.24000 13.115
42.25000 15.246
42.26000 14.213
42.27000 14.253
42.28000 16.283
42.29000 27.409
42.30000 19.290
42.31000 20.044
42.32000 13.240
42.33000 22.220
42.34000 18.249
42.35000 16.139
42.36000 23.169
42.37000 16.073
42.38000 17.365
42.39000 13.245
42.40000 22.402
42.41000 19.183
42.42000 18.350
42.43000 16.327
42.44000 19.173
42.45000 20.293
42.46000 26.547
42.47000 11.129
42.48000 17.281
42.49000 18.266
42.50000 15.325
42.51000 19.088
42.52000 21.122
42.53000 30.573
42.54000 16.265
42.55000 21.320
42.56000 14.222
42.57000 14.313
42.58000 19.222
42.59000 16.542
42.60000 31.436
42.61000 14.237
42.62000 16.157
42.63000 24.238
42.64000 9.163
42.65000 27.290
42.66000 12.102
42.67000 18.206
42.68000 19.304
42.69000 21.341
42.70000 24.161
42.71000 23.433
42.72000 16.169
42.73000 22.346
42.74000 12.134
42.75000 24.302
42.76000 21.088
42.77000 14.264
42.78000 16.354
42.79000 18.239
42.80000 16.162
42.81000 25.235
42.82000 23.301
42.83000 18.357
42.84000 22.429
42.85000 23.627
42.86000 20.482
42.87000 10.190
42.88000 11.148
42.89000 8.037
42.90000 20.183
42.91000 20.273
42.92000 10.015
42.93000 20.278
42.94000 18.133
42.95000 11.124
42.96000 29.356
42.97000 19.231
42.98000 15.352
42.99000 21.190
43.00000 16.292
43.01000 19.309
43.02000 21.184
43.03000 19.287
43.04000 19.349
43.05000 15.169
43.06000 19.218
43.07000 22.110
43.08000 22.248
43.09000 13.298
43.10000 18.320
43.11000 16.136
43.12000 20.281
43.13000 16.240
43.14000 19.358
43.15000 16.167
43.16000 19.264
43.17000 24.392
43.18000 15.219
43.19000 15.117
43.20000 20.092
43.21000 14.220
43.22000 18.013
43.23000 16.072
43.24000 13.173
43.25000 22.555
43.26000 20.351
43.27000 16.251
43.28000 16.363
43.29000 11.261
43.30000 10.051
43.31000 24.352
43.32000 13.143
43.33000 18.477
43.34000 19.342
43.35000 22.363
43.36000 15.157
43.37000 13.138
43.38000 23.235
43.39000 12.095
43.40000 11.014
43.41000 22.199
43.42000 23.149
43.43000 16.297
43.44000 22.279
43.45000 16.236
43.46000 14.271
43.47000 14.131
43.48000 23.431
43.49000 24.192
43.50000 15.288
43.51000 19.357
43.52000 17.280
43.53000 17.149
43.54000 27.589
43.55000 17.170
43.56000 18.222
43.57000 20.139
43.58000 17.122
43.59000 11.237
43.60000 12.150
43.61000 18.296
43.62000 23.389
43.63000 12.148
43.64000 18.200
43.65000 23.235
43.66000 16.061
43.67000 9.054
43.68000 24.134
43.69000 12.069
43.70000 25.332
43.71000 22.321
43.72000 17.195
43.73000 15.248
43.74000 15.107
43.75000 11.198
43.76000 20.286
43.77000 18.176
43.78000 23.562
43.79000 9.053
43.80000 17.103
43.81000 24.303
43.82000 19.233
43.83000 22.448
43.84000 12.107
43.85000 23.340
43.86000 14.167
43.87000 16.138
43.88000 11.240
43.89000 17.236
43.90000 24.316
43.91000 23.376
43.92000 18.431
43.93000 10.053
43.94000 23.307
43.95000 16.200
43.96000 21.401
43.97000 17.223
43.98000 10.048
43.99000 17.280
44.00000 26.287
44.01000 23.193
44.02000 17.440
44.03000 15.185
44.04000 15.202
44.05000 20.106
44.06000 21.355
44.07000 20.216
44.08000 26.376
44.09000 19.289
44.10000 23.320
44.11000 26.418
44.12000 18.239
44.13000 14.290
44.14000 21.203
44.15000 21.336
44.16000 20.268
44.17000 20.241
44.18000 16.180
44.19000 19.197
44.20000 15.192
44.21000 13.099
44.22000 12.268
44.23000 17.343
44.24000 15.385
44.25000 10.136
44.26000 14.161
44.27000 14.232
44.28000 10.190
44.29000 15.483
44.30000 14.058
44.31000 13.316
44.32000 11.047
44.33000 15.054
44.34000 15.120
44.35000 17.308
44.36000 17.175
44.37000 31.394
44.38000 18.420
44.39000 10.204
44.40000 15.318
44.41000 20.106
44.42000 17.296
44.43000 21.209
44.44000 24.560
44.45000 17.203
44.46000 19.184
44.47000 18.164
44.48000 21.347
44.49000 21.306
44.50000 18.349
44.51000 18.121
44.52000 13.106
44.53000 20.429
44.54000 16.279
44.55000 22.338
44.56000 12.051
44.57000 18.125
44.58000 16.107
44.59000 20.149
44.60000 18.162
44.61000 18.038
44.62000 6.042
44.63000 14.198
44.64000 26.313
44.65000 19.442
44.66000 19.355
44.67000 11.189
44.68000 18.111
44.69000 19.224
44.70000 13.149
44.71000 25.523
44.72000 14.082
44.73000 19.250
44.74000 21.563
44.75000 20.249
44.76000 22.409
44.77000 14.302
44.78000 8.279
44.79000 16.259
44.80000 19.225
44.81000 11.132
44.82000 18.212
44.83000 18.086
44.84000 16.281
44.85000 13.254
44.86000 16.284
44.87000 21.156
44.88000 22.377
44.89000 20.149
44.90000 17.285
44.91000 23.444
44.92000 21.387
44.93000 16.052
44.94000 15.282
44.95000 19.233
44.96000 11.304
44.97000 16.086
44.98000 20.181
44.99000 13.265
45.00000 17.117
45.01000 20.283
45.02000 18.962
45.03000 16.347
45.04000 12.151
45.05000 18.431
45.06000 15.205
45.07000 18.168
45.08000 20.032
45.09000 16.355
45.10000 16.219
45.11000 20.360
45.12000 12.082
45.13000 12.263
45.14000 23.213
45.15000 12.087
45.16000 17.225
45.17000 22.379
45.18000 14.113
45.19000 21.322
45.20000 20.345
45.21000 17.151
45.22000 16.207
45.23000 26.446
45.24000 13.270
45.25000 18.246
45.26000 15.163
45.27000 18.126
45.28000 15.329
45.29000 7.114
45.30000 22.210
45.31000 19.399
45.32000 15.007
45.33000 11.174
45.34000 17.269
45.35000 13.160
45.36000 14.214
45.37000 15.196
45.38000 20.101
45.39000 16.262
45.40000 14.264
45.41000 16.138
45.42000 22.281
45.43000 19.112
45.44000 20.138
45.45000 27.306
45.46000 8.996
45.47000 26.204
45.48000 17.282
45.49000 16.333
45.50000 9.029
45.51000 10.153
45.52000 16.149
45.53000 19.274
45.54000 22.264
45.55000 18.153
45.56000 17.217
45.57000 14.158
45.58000 15.088
45.59000 16.415
45.60000 13.136
45.61000 20.334
45.62000 14.153
45.63000 23.456
45.64000 18.197
45.65000 18.179
45.66000 14.118
45.67000 18.195
45.68000 20.361
45.69000 15.246
45.70000 15.133
45.71000 13.203
45.72000 22.253
45.73000 22.430
45.74000 16.238
45.75000 19.279
45.76000 23.485
45.77000 24.347
45.78000 17.270
45.79000 20.276
45.80000 22.051
45.81000 10.183
45.82000 22.342
45.83000 14.245
45.84000 12.189
45.85000 12.183
45.86000 12.316
45.87000 13.318
45.88000 13.285
45.89000 20.164
45.90000 15.164
45.91000 19.328
45.92000 26.383
45.93000 19.354
45.94000 11.073
45.95000 14.174
45.96000 17.058
45.97000 13.106
45.98000 21.260
45.99000 19.155
46.00000 16.176
46.01000 15.108
46.02000 22.266
46.03000 18.087
46.04000 23.327
46.05000 22.410
46.06000 19.095
46.07000 18.214
46.08000 12.114
46.09000 16.177
46.10000 10.003
46.11000 14.114
46.12000 22.155
46.13000 15.216
46.14000 24.107
46.15000 24.221
46.16000 17.236
46.17000 14.060
46.18000 18.301
46.19000 19.210
46.20000 14.171
46.21000 19.305
46.22000 17.240
46.23000 19.254
46.24000 23.309
46.25000 17.158
46.26000 15.167
46.27000 16.175
46.28000 22.480
46.29000 10.198
46.30000 17.282
46.31000 14.071
46.32000 19.194
46.33000 14.108
46.34000 25.297
46.35000 25.445
46.36000 30.553
46.37000 22.378
46.38000 14.329
46.39000 20.485
46.40000 20.386
46.41000 11.123
46.42000 19.234
46.43000 13.120
46.44000 18.192
46.45000 14.222
46.46000 20.271
46.47000 11.231
46.48000 22.344
46.49000 20.290
46.50000 27.215
46.51000 16.321
46.52000 17.150
46.53000 17.480
46.54000 22.333
46.55000 18.273
46.56000 19.451
46.57000 21.108
46.58000 13.092
46.59000 22.340
46.60000 20.186
46.61000 22.441
46.62000 15.137
46.63000 15.121
46.64000 19.368
46.65000 21.168
46.66000 19.189
46.67000 21.052
46.68000 15.366
46.69000 26.142
46.70000 19.047
46.71000 24.264
46.72000 17.210
46.73000 17.214
46.74000 28.322
46.75000 22.314
46.76000 17.252
46.77000 16.140
46.78000 13.236
46.79000 22.408
46.80000 16.149
46.81000 9.105
46.82000 17.148
46.83000 13.059
46.84000 14.180
46.85000 20.279
46.86000 16.336
46.87000 13.203
46.88000 19.324
46.89000 15.104
46.90000 17.153
46.91000 14.137
46.92000 25.260
46.93000 20.332
46.94000 15.203
46.95000 27.468
46.96000 16.205
46.97000 24.375
46.98000 21.381
46.99000 12.175
47.00000 13.236
47.01000 22.108
47.02000 22.272
47.03000 27.449
47.04000 12.061
47.05000 18.136
47.06000 18.398
47.07000 12.312
47.08000 18.218
47.09000 20.033
47.10000 15.098
47.11000 21.208
47.12000 17.157
47.13000 14.347
47.14000 13.208
47.15000 19.107
47.16000 6.213
47.17000 16.335
47.18000 18.277
47.19000 16.167
47.20000 16.211
47.21000 24.461
47.22000 9.274
47.23000 19.073
47.24000 21.258
47.25000 22.291
47.26000 12.117
47.27000 16.259
47.28000 25.384
47.29000 8.986
47.30000 18.233
47.31000 21.463
47.32000 10.301
47.33000 11.156
47.34000 18.100
47.35000 13.392
47.36000 15.160
47.37000 17.261
47.38000 13.158
47.39000 14.217
47.40000 18.101
47.41000 16.141
47.42000 28.210
47.43000 22.167
47.44000 23.099
47.45000 20.322
47.46000 13.253
47.47000 14.175
47.48000 18.308
47.49000 9.120
47.50000 15.238
47.51000 17.249
47.52000 19.348
47.53000 10.024
47.54000 17.171
47.55000 17.040
47.56000 17.201
47.57000 20.208
47.58000 13.093
47.59000 20.086
47.60000 17.192
47.61000 24.504
47.62000 13.160
47.63000 19.123
47.64000 17.202
47.65000 13.030
47.66000 20.319
47.67000 20.131
47.68000 19.449
47.69000 17.178
47.70000 20.233
47.71000 14.140
47.72000 21.244
47.73000 15.105
47.74000 12.129
47.75000 15.167
47.76000 17.118
47.77000 11.213
47.78000 11.215
47.79000 24.451
47.80000 18.277
47.81000 17.197
47.82000 20.133
47.83000 13.111
47.84000 17.249
47.85000 11.108
47.86000 13.052
47.87000 17.234
47.88000 10.239
47.89000 16.202
47.90000 15.197
47.91000 15.026
47.92000 15.082
47.93000 18.325
47.94000 11.203
47.95000 24.187
47.96000 18.269
47.97000 17.172
47.98000 15.057
47.99000 22.300
48.00000 16.083
48.01000 10.156
48.02000 18.217
48.03000 18.204
48.04000 9.085
48.05000 17.431
48.06000 10.124
48.07000 13.148
48.08000 15.191
48.09000 10.167
48.10000 8.202
48.11000 15.096
48.12000 15.272
48.13000 14.232
48.14000 15.383
48.15000 18.166
48.16000 13.156
48.17000 24.311
48.18000 14.052
48.19000 18.369
48.20000 19.385
48.21000 22.464
48.22000 18.090
48.23000 11.087
48.24000 15.139
48.25000 16.389
48.26000 10.156
48.27000 17.315
48.28000 17.212
48.29000 14.156
48.30000 11.112
48.31000 16.248
48.32000 14.300
48.33000 21.027
48.34000 15.166
48.35000 21.358
48.36000 15.222
48.37000 14.271
48.38000 11.096
48.39000 15.154
48.40000 22.269
48.41000 13.030
48.42000 18.314
48.43000 10.083
48.44000 23.202
48.45000 19.281
48.46000 26.468
48.47000 17.209
48.48000 14.195
48.49000 21.208
48.50000 20.138
48.51000 20.251
48.52000 18.208
48.53000 26.132
48.54000 19.031
48.55000 11.172
48.56000 19.174
48.57000 14.145
48.58000 18.348
48.59000 20.251
48.60000 18.321
48.61000 16.315
48.62000 11.088
48.63000 15.248
48.64000 6.027
48.65000 21.302
48.66000 14.316
48.67000 21.202
48.68000 19.220
48.69000 8.114
48.70000 14.054
48.71000 14.014
48.72000 16.934
48.73000 21.320
48.74000 18.274
48.75000 13.131
48.76000 20.274
48.77000 15.172
48.78000 12.190
48.79000 15.243
48.80000 24.414
48.81000 21.188
48.82000 10.278
48.83000 18.112
48.84000 18.204
48.85000 30.139
48.86000 13.062
48.87000 22.284
48.88000 19.207
48.89000 23.331
48.90000 17.215
48.91000 7.181
48.92000 16.279
48.93000 17.121
48.94000 22.383
48.95000 14.085
48.96000 17.227
48.97000 21.329
48.98000 17.200
48.99000 15.318
49.00000 15.169
49.01000 17.139
49.02000 8.986
49.03000 17.317
49.04000 17.294
49.05000 13.191
49.06000 9.128
49.07000 23.470
49.08000 16.226
49.09000 13.160
49.10000 13.102
49.11000 21.093
49.12000 21.410
49.13000 13.081
49.14000 24.435
49.15000 16.153
49.16000 15.259
49.17000 20.355
49.18000 20.297
49.19000 17.190
49.20000 14.227
49.21000 17.068
49.22000 16.158
49.23000 13.214
49.24000 20.268
49.25000 19.374
49.26000 18.293
49.27000 19.361
49.28000 13.260
49.29000 28.249
49.30000 21.350
49.31000 16.136
49.32000 14.188
49.33000 17.244
49.34000 18.432
49.35000 12.104
49.36000 12.225
49.37000 21.228
49.38000 11.073
49.39000 18.382
49.40000 14.166
49.41000 13.180
49.42000 11.975
49.43000 18.052
49.44000 20.208
49.45000 14.231
49.46000 21.286
49.47000 18.287
49.48000 19.136
49.49000 12.941
49.50000 16.234
49.51000 13.336
49.52000 20.384
49.53000 16.291
49.54000 23.194
49.55000 15.129
49.56000 15.184
49.57000 10.129
49.58000 18.242
49.59000 14.218
49.60000 11.151
49.61000 18.391
49.62000 12.113
49.63000 8.153
49.64000 18.306
49.65000 16.100
49.66000 13.204
49.67000 17.382
49.68000 14.093
49.69000 18.516
49.70000 15.193
49.71000 9.111
49.72000 12.123
49.73000 11.002
49.74000 21.190
49.75000 22.316
49.76000 16.180
49.77000 15.162
49.78000 12.174
49.79000 8.134
49.80000 15.253
49.81000 14.251
49.82000 10.239
49.83000 19.458
49.84000 18.381
49.85000 11.115
49.86000 17.176
49.87000 13.089
49.88000 12.165
49.89000 19.345
49.90000 12.352
49.91000 13.006
49.92000 16.070
49.93000 16.443
49.94000 15.135
49.95000 14.075
49.96000 14.259
49.97000 22.067
49.98000 14.286
49.99000 12.049
50.00000 21.291
50.01000 16.372
50.02000 15.270
50.03000 14.027
50.04000 14.251
50.05000 14.276
50.06000 12.274
50.07000 19.076
50.08000 9.033
50.09000 15.212
50.10000 12.111
50.11000 20.197
50.12000 12.254
50.13000 10.155
50.14000 13.229
50.15000 15.247
50.16000 7.162
50.17000 17.215
50.18000 15.121
50.19000 18.282
50.20000 18.048
50.21000 16.120
50.22000 16.223
50.23000 22.235
50.24000 14.156
50.25000 18.264
50.26000 9.195
50.27000 12.069
50.28000 24.348
50.29000 11.142
50.30000 14.121
50.31000 15.065
50.32000 18.125
50.33000 9.267
50.34000 15.175
50.35000 24.309
50.36000 16.062
50.37000 15.198
50.38000 16.309
50.39000 19.017
50.40000 19.192
50.41000 12.255
50.42000 12.049
50.43000 28.460
50.44000 10.146
50.45000 16.230
50.46000 21.354
50.47000 13.132
50.48000 19.413
50.49000 23.303
50.50000 12.291
50.51000 14.182
50.52000 9.193
50.53000 15.259
50.54000 14.206
50.55000 12.208
50.56000 16.175
50.57000 12.203
50.58000 18.336
50.59000 14.181
50.60000 12.077
50.61000 10.231
50.62000 21.290
50.63000 24.403
50.64000 15.138
50.65000 20.063
50.66000 9.134
50.67000 20.241
50.68000 10.039
50.69000 23.281
50.70000 20.276
50.71000 12.121
50.72000 7.062
50.73000 15.167
50.74000 17.162
50.75000 8.015
50.76000 14.291
50.77000 11.046
50.78000 16.137
50.79000 16.267
50.80000 16.201
50.81000 12.155
50.82000 13.072
50.83000 14.246
50.84000 16.255
50.85000 15.176
50.86000 8.115
50.87000 23.476
50.88000 12.167
50.89000 15.326
50.90000 16.357
50.91000 10.097
50.92000 13.130
50.93000 17.277
50.94000 17.117
50.95000 15.114
50.96000 19.238
50.97000 21.267
50.98000 12.253
50.99000 11.167
51.00000 14.211
51.01000 13.171
51.02000 15.182
51.03000 14.339
51.04000 16.337
51.05000 16.215
51.06000 20.212
51.07000 20.156
51.08000 15.100
51.09000 12.260
51.10000 13.190
51.11000 19.255
51.12000 10.125
51.13000 11.214
51.14000 11.253
51.15000 10.141
51.16000 8.155
51.17000 12.049
51.18000 17.057
51.19000 17.267
51.20000 9.228
51.21000 15.071
51.22000 11.136
51.23000 14.222
51.24000 3.985
51.25000 16.319
51.26000 11.305
51.27000 12.156
51.28000 14.106
51.29000 19.153
51.30000 10.203
51.31000 16.236
51.32000 17.137
51.33000 23.336
51.34000 18.162
51.35000 18.269
51.36000 10.095
51.37000 16.086
51.38000 12.156
51.39000 16.244
51.40000 18.161
51.41000 11.113
51.42000 14.308
51.43000 12.281
51.44000 18.182
51.45000 13.224
51.46000 17.059
51.47000 11.987
51.48000 16.170
51.49000 19.318
51.50000 16.283
51.51000 15.323
51.52000 19.286
51.53000 15.090
51.54000 15.162
51.55000 18.141
51.56000 12.169
51.57000 22.174
51.58000 13.221
51.59000 20.396
51.60000 8.212
51.61000 11.063
51.62000 10.167
51.63000 13.094
51.64000 18.247
51.65000 12.247
51.66000 23.273
51.67000 17.194
51.68000 14.201
51.69000 17.214
51.70000 3.049
51.71000 14.178
51.72000 21.291
51.73000 16.062
51.74000 14.172
51.75000 18.319
51.76000 19.261
51.77000 12.203
51.78000 13.037
51.79000 20.279
51.80000 15.322
51.81000 16.033
51.82000 13.156
51.83000 11.149
51.84000 14.343
51.85000 18.135
51.86000 13.286
51.87000 14.207
51.88000 10.103
51.89000 7.075
51.90000 14.180
51.91000 14.109
51.92000 17.231
51.93000 27.415
51.94000 14.257
51.95000 18.312
51.96000 18.366
51.97000 10.089
51.98000 17.209
51.99000 17.207
52.00000 18.294
52.01000 12.372
52.02000 15.274
52.03000 18.415
52.04000 15.168
52.05000 11.145
52.06000 17.393
52.07000 16.187
52.08000 19.104
52.09000 16.032
52.10000 15.106
52.11000 8.192
52.12000 16.065
52.13000 14.242
52.14000 12.088
52.15000 17.084
52.16000 16.265
52.17000 14.234
52.18000 16.303
52.19000 15.259
52.20000 19.249
52.21000 21.421
52.22000 23.348
52.23000 12.015
52.24000 16.236
52.25000 18.197
52.26000 9.170
52.27000 16.342
52.28000 16.267
52.29000 18.017
52.30000 13.211
52.31000 13.162
52.32000 15.248
52.33000 12.387
52.34000 18.292
52.35000 20.223
52.36000 27.335
52.37000 17.150
52.38000 15.349
52.39000 17.292
52.40000 13.997
52.41000 12.068
52.42000 16.151
52.43000 20.166
52.44000 13.013
52.45000 10.102
52.46000 18.245
52.47000 14.330
52.48000 18.422
52.49000 11.111
52.50000 12.038
52.51000 16.155
52.52000 19.435
52.53000 9.175
52.54000 19.272
52.55000 13.023
52.56000 14.185
52.57000 13.395
52.58000 19.201
52.59000 21.295
52.60000 14.162
52.61000 13.154
52.62000 12.141
52.63000 12.237
52.64000 19.247
52.65000 15.109
52.66000 16.200
52.67000 18.172
52.68000 13.053
52.69000 18.491
52.70000 14.199
52.71000 16.218
52.72000 14.147
52.73000 17.234
52.74000 16.270
52.75000 11.108
52.76000 16.277
52.77000 20.336
52.78000 7.119
52.79000 20.179
52.80000 17.379
52.81000 10.215
52.82000 13.165
52.83000 16.370
52.84000 11.337
52.85000 11.049
52.86000 14.428
52.87000 11.246
52.88000 13.271
52.89000 13.213
52.90000 8.050
52.91000 21.085
52.92000 11.107
52.93000 14.166
52.94000 18.144
52.95000 10.965
52.96000 16.075
52.97000 14.097
52.98000 32.384
52.99000 13.173
53.00000 12.089
53.01000 9.108
53.02000 11.103
53.03000 8.151
53.04000 11.473
53.05000 15.111
53.06000 9.144
53.07000 9.064
53.08000 16.211
53.09000 20.213
53.10000 16.131
53.11000 9.127
53.12000 9.149
53.13000 12.370
53.14000 12.169
53.15000 15.107
53.16000 14.181
53.17000 12.288
53.18000 13.147
53.19000 15.233
53.20000 11.186
53.21000 13.056
53.22000 21.380
53.23000 14.269
53.24000 13.123
53.25000 10.033
53.26000 17.219
53.27000 9.038
53.28000 11.037
53.29000 10.163
53.30000 11.967
53.31000 18.237
53.32000 12.159
53.33000 11.235
53.34000 22.300
53.35000 21.187
53.36000 9.214
53.37000 18.126
53.38000 15.151
53.39000 14.104
53.40000 11.156
53.41000 13.259
53.42000 15.090
53.43000 14.225
53.44000 18.230
53.45000 15.239
53.46000 23.280
53.47000 12.161
53.48000 7.221
53.49000 9.133
53.50000 16.075
53.51000 15.169
53.52000 14.112
53.53000 14.445
53.54000 13.188
53.55000 19.256
53.56000 16.126
53.57000 13.032
53.58000 6.926
53.59000 11.202
53.60000 16.268
53.61000 17.154
53.62000 21.242
53.63000 6.098
53.64000 12.273
53.65000 16.159
53.66000 8.104
53.67000 18.274
53.68000 12.194
53.69000 16.243
53.70000 12.060
53.71000 18.332
53.72000 12.207
53.73000 6.208
53.74000 15.183
53.75000 19.181
53.76000 16.241
53.77000 17.214
53.78000 16.147
53.79000 15.256
53.80000 8.018
53.81000 8.091
53.82000 19.364
53.83000 14.134
53.84000 14.206
53.85000 15.223
53.86000 10.261
53.87000 11.186
53.88000 13.249
53.89000 17.057
53.90000 11.243
53.91000 11.206
53.92000 12.114
53.93000 14.383
53.94000 15.346
53.95000 12.210
53.96000 14.144
53.97000 10.144
53.98000 15.098
53.99000 12.040
54.00000 19.372
54.01000 6.119
54.02000 15.181
54.03000 20.320
54.04000 9.124
54.05000 14.272
54.06000 10.236
54.07000 20.493
54.08000 16.132
54.09000 17.166
54.10000 9.104
54.11000 11.148
54.12000 15.143
54.13000 10.138
54.14000 12.168
54.15000 4.997
54.16000 17.280
54.17000 20.405
54.18000 12.166
54.19000 14.129
54.20000 19.228
54.21000 14.044
54.22000 14.226
54.23000 13.099
54.24000 10.153
54.25000 13.940
54.26000 22.462
54.27000 14.305
54.28000 16.139
54.29000 19.334
54.30000 12.377
54.31000 12.153
54.32000 20.412
54.33000 11.182
54.34000 7.020
54.35000 12.215
54.36000 16.275
54.37000 16.152
54.38000 11.140
54.39000 9.069
54.40000 6.069
54.41000 9.098
54.42000 15.184
54.43000 15.220
54.44000 6.181
54.45000 13.080
54.46000 15.197
54.47000 17.240
54.48000 10.372
54.49000 13.155
54.50000 12.181
54.51000 18.208
54.52000 16.309
54.53000 12.120
54.54000 10.946
54.55000 20.222
54.56000 10.070
54.57000 11.222
54.58000 11.036
54.59000 12.116
54.60000 8.030
54.61000 8.947
54.62000 12.069
54.63000 15.263
54.64000 16.078
54.65000 12.178
54.66000 12.091
54.67000 14.048
54.68000 9.035
54.69000 15.158
54.70000 14.165
54.71000 13.138
54.72000 14.120
54.73000 5.103
54.74000 9.114
54.75000 14.159
54.76000 11.191
54.77000 19.101
54.78000 11.116
54.79000 13.158
54.80000 14.163
54.81000 19.348
54.82000 15.260
54.83000 15.223
54.84000 6.035
54.85000 13.214
54.86000 11.102
54.87000 14.066
54.88000 22.315
54.89000 14.088
54.90000 15.161
54.91000 13.160
54.92000 13.117
54.93000 17.244
54.94000 14.173
54.95000 17.264
54.96000 15.192
54.97000 16.358
54.98000 8.263
54.99000 11.087
55.00000 20.513
55.01000 12.222
55.02000 7.088
55.03000 14.218
55.04000 13.197
55.05000 11.104
55.06000 16.260
55.07000 13.116
55.08000 12.159
55.09000 12.146
55.10000 17.487
55.11000 12.364
55.12000 15.144
55.13000 17.230
55.14000 14.990
55.15000 21.169
55.16000 15.251
55.17000 14.202
55.18000 11.260
55.19000 23.070
55.20000 13.076
55.21000 12.268
55.22000 13.143
55.23000 9.055
55.24000 6.036
55.25000 13.343
55.26000 16.166
55.27000 10.260
55.28000 9.184
55.29000 17.046
55.30000 7.094
55.31000 16.365
55.32000 17.197
55.33000 11.075
55.34000 15.261
55.35000 8.092
55.36000 16.178
55.37000 11.136
55.38000 10.091
55.39000 10.226
55.40000 11.317
55.41000 14.235
55.42000 18.063
55.43000 15.156
55.44000 9.137
55.45000 10.161
55.46000 11.333
55.47000 13.992
55.48000 8.052
55.49000 11.251
55.50000 11.101
55.51000 9.252
55.52000 8.242
55.53000 17.252
55.54000 14.084
55.55000 12.044
55.56000 10.962
55.57000 10.995
55.58000 14.094
55.59000 9.134
55.60000 13.236
55.61000 6.042
55.62000 14.151
55.63000 7.079
55.64000 10.145
55.65000 17.396
55.66000 15.103
55.67000 17.082
55.68000 20.275
55.69000 23.438
55.70000 10.330
55.71000 14.116
55.72000 12.177
55.73000 13.067
55.74000 14.075
55.75000 9.242
55.76000 10.082
55.77000 17.276
55.78000 11.136
55.79000 13.160
55.80000 12.247
55.81000 12.221
55.82000 12.246
55.83000 15.218
55.84000 10.079
55.85000 11.122
55.86000 11.129
55.87000 9.073
55.88000 17.012
55.89000 15.102
55.90000 14.164
55.91000 9.215
55.92000 12.279
55.93000 10.129
55.94000 10.934
55.95000 8.016
55.96000 11.146
55.97000 13.269
55.98000 10.116
55.99000 13.242
56.00000 9.180
56.01000 8.138
56.02000 15.308
56.03000 12.032
56.04000 11.255
56.05000 14.046
56.06000 16.201
56.07000 13.158
56.08000 8.068
56.09000 9.040
56.10000 8.071
56.11000 13.068
56.12000 12.220
56.13000 9.139
56.14000 9.974
56.15000 7.028
56.16000 16.231
56.17000 13.182
56.18000 14.308
56.19000 10.010
56.20000 18.140
56.21000 15.228
56.22000 3.944
56.23000 11.187
56.24000 14.073
56.25000 9.103
56.26000 10.244
56.27000 14.123
56.28000 13.304
56.29000 9.070
56.30000 9.180
56.31000 12.376
56.32000 9.135
56.33000 10.266
56.34000 14.337
56.35000 10.083
56.36000 16.186
56.37000 14.076
56.38000 12.258
56.39000 14.060
56.40000 11.222
56.41000 15.252
56.42000 13.319
56.43000 16.132
56.44000 17.235
56.45000 13.258
56.46000 6.087
56.47000 17.227
56.48000 15.131
56.49000 12.276
56.50000 11.142
56.51000 15.221
56.52000 16.180
56.53000 22.227
56.54000 6.233
56.55000 14.096
56.56000 11.071
56.57000 10.169
56.58000 17.305
56.59000 12.150
56.60000 16.109
56.61000 15.191
56.62000 13.218
56.63000 7.951
56.64000 12.047
56.65000 14.134
56.66000 12.096
56.67000 8.071
56.68000 13.198
56.69000 14.115
56.70000 10.161
56.71000 10.201
56.72000 12.292
56.73000 7.103
56.74000 16.288
56.75000 13.225
56.76000 10.074
56.77000 14.164
56.78000 13.103
56.79000 12.186
56.80000 16.203
56.81000 10.197
56.82000 8.105
56.83000 14.087
56.84000 8.047
56.85000 11.193
56.86000 9.086
56.87000 13.131
56.88000 18.345
56.89000 10.012
56.90000 12.063
56.91000 10.219
56.92000 24.342
56.93000 12.141
56.94000 11.275
56.95000 12.282
56.96000 15.086
56.97000 10.186
56.98000 13.075
56.99000 12.164
57.00000 10.193
57.01000 14.102
57.02000 9.068
57.03000 9.070
57.04000 10.060
57.05000 10.168
57.06000 18.230
57.07000 11.304
57.08000 15.118
57.09000 19.299
57.10000 23.314
57.11000 9.147
57.12000 17.386
57.13000 11.274
57.14000 10.020
57.15000 20.241
57.16000 14.220
57.17000 13.031
57.18000 8.107
57.19000 14.123
57.20000 12.188
57.21000 15.166
57.22000 8.200
57.23000 12.005
57.24000 13.185
57.25000 18.159
57.26000 14.054
57.27000 10.076
57.28000 10.992
57.29000 11.199
57.30000 12.350
57.31000 12.160
57.32000 14.345
57.33000 14.184
57.34000 5.992
57.35000 11.250
57.36000 11.262
57.37000 10.172
57.38000 11.135
57.39000 11.247
57.40000 11.122
57.41000 21.229
57.42000 14.303
57.43000 6.055
57.44000 17.243
57.45000 9.138
57.46000 16.121
57.47000 8.064
57.48000 8.162
57.49000 15.205
57.50000 14.178
57.51000 13.092
57.52000 18.133
57.53000 16.377
57.54000 6.108
57.55000 21.266
57.56000 16.141
57.57000 11.200
57.58000 15.052
57.59000 24.359
57.60000 20.399
57.61000 18.185
57.62000 10.090
57.63000 18.095
57.64000 8.972
57.65000 12.074
57.66000 22.368
57.67000 21.158
57.68000 14.360
57.69000 10.022
57.70000 10.049
57.71000 16.262
57.72000 18.454
57.73000 10.048
57.74000 13.081
57.75000 12.132
57.76000 8.974
57.77000 13.151
57.78000 20.185
57.79000 11.187
57.80000 14.154
57.81000 17.354
57.82000 18.261
57.83000 6.999
57.84000 13.198
57.85000 17.105
57.86000 11.221
57.87000 9.101
57.88000 7.059
57.89000 12.131
57.90000 17.283
57.91000 13.180
57.92000 8.048
57.93000 15.283
57.94000 16.314
57.95000 12.230
57.96000 24.356
57.97000 9.200
57.98000 16.119
57.99000 11.167
58.00000 9.185
58.01000 13.149
58.02000 11.087
58.03000 12.192
58.04000 11.023
58.05000 14.164
58.06000 11.260
58.07000 20.310
58.08000 16.223
58.09000 10.106
58.10000 5.998
58.11000 8.170
58.12000 12.036
58.13000 24.353
58.14000 11.191
58.15000 5.074
58.16000 11.196
58.17000 14.258
58.18000 16.143
58.19000 12.173
58.20000 13.033
58.21000 11.181
58.22000 10.088
58.23000 16.203
58.24000 12.186
58.25000 10.193
58.26000 13.252
58.27000 11.136
58.28000 6.203
58.29000 7.055
58.30000 8.151
58.31000 18.275
58.32000 14.292
58.33000 15.277
58.34000 12.075
58.35000 15.186
58.36000 12.255
58.37000 17.241
58.38000 6.998
58.39000 17.291
58.40000 14.121
58.41000 9.066
58.42000 14.329
58.43000 9.112
58.44000 10.063
58.45000 8.142
58.46000 12.095
58.47000 14.319
58.48000 10.171
58.49000 12.092
58.50000 16.153
58.51000 14.329
58.52000 16.249
58.53000 9.187
58.54000 9.063
58.55000 3.999
58.56000 8.051
58.57000 9.231
58.58000 13.178
58.59000 10.146
58.60000 17.162
58.61000 15.173
58.62000 10.143
58.63000 13.347
58.64000 15.027
58.65000 11.091
58.66000 12.263
58.67000 11.134
58.68000 6.979
58.69000 16.373
58.70000 21.337
58.71000 16.073
58.72000 7.101
58.73000 11.130
58.74000 18.131
58.75000 10.110
58.76000 9.104
58.77000 3.110
58.78000 5.038
58.79000 11.080
58.80000 6.163
58.81000 19.228
58.82000 14.247
58.83000 13.208
58.84000 7.086
58.85000 10.246
58.86000 10.069
58.87000 4.955
58.88000 9.162
58.89000 9.170
58.90000 12.050
58.91000 8.096
58.92000 15.263
58.93000 8.075
58.94000 10.110
58.95000 12.131
58.96000 14.203
58.97000 9.126
58.98000 12.206
58.99000 8.070
59.00000 9.029
59.01000 14.299
59.02000 17.104
59.03000 9.205
59.04000 11.097
59.05000 10.907
59.06000 8.094
59.07000 11.284
59.08000 9.060
59.09000 12.138
59.10000 14.247
59.11000 17.239
59.12000 14.256
59.13000 15.277
59.14000 12.157
59.15000 14.202
59.16000 6.131
59.17000 10.090
59.18000 8.092
59.19000 10.271
59.20000 16.080
59.21000 13.002
59.22000 12.153
59.23000 7.094
59.24000 17.222
59.25000 7.114
59.26000 10.035
59.27000 10.099
59.28000 10.036
59.29000 7.116
59.30000 9.247
59.31000 13.161
59.32000 10.175
59.33000 6.066
59.34000 11.107
59.35000 8.192
59.36000 9.108
59.37000 12.142
59.38000 4.037
59.39000 12.136
59.40000 11.027
59.41000 9.141
59.42000 16.199
59.43000 12.079
59.44000 9.019
59.45000 14.217
59.46000 8.102
59.47000 9.188
59.48000 19.257
59.49000 13.173
59.50000 9.963
59.51000 10.110
59.52000 10.197
59.53000 13.249
59.54000 9.084
59.55000 14.392
59.56000 4.008
59.57000 10.133
59.58000 12.980
59.59000 12.021
59.60000 12.285
59.61000 9.114
59.62000 10.064
59.63000 7.213
59.64000 10.184
59.65000 13.108
59.66000 6.008
59.67000 9.105
59.68000 6.117
59.69000 13.043
59.70000 15.269
59.71000 5.014
59.72000 6.070
59.73000 6.191
59.74000 11.073
59.75000 9.081
59.76000 8.066
59.77000 10.222
59.78000 11.248
59.79000 8.224
59.80000 7.118
59.81000 10.115
59.82000 18.462
59.83000 3.996
59.84000 12.104
59.85000 11.169
59.86000 13.042
59.87000 5.976
59.88000 11.182
59.89000 10.275
59.90000 7.015
59.91000 12.084
59.92000 10.153
59.93000 12.254
59.94000 13.252
59.95000 8.120
59.96000 12.130
59.97000 13.268
59.98000 12.245
59.99000 10.119
60.00000 9.055
60.01000 11.122
60.02000 18.225
60.03000 4.959
60.04000 10.135
60.05000 13.142
60.06000 16.317
60.07000 10.136
60.08000 7.084
60.09000 8.106
60.10000 8.002
60.11000 8.190
60.12000 7.987
60.13000 10.097
60.14000 6.082
60.15000 5.041
60.16000 10.079
60.17000 5.964
60.18000 12.053
60.19000 10.138
60.20000 13.186
60.21000 11.134
60.22000 12.001
60.23000 14.151
60.24000 9.981
60.25000 13.242
60.26000 11.043
60.27000 9.129
60.28000 8.131
60.29000 12.179
60.30000 13.128
60.31000 7.135
60.32000 10.103
60.33000 7.106
60.34000 13.187
60.35000 12.301
60.36000 15.247
60.37000 10.054
60.38000 9.212
60.39000 13.106
60.40000 13.133
60.41000 9.074
60.42000 6.087
60.43000 10.223
60.44000 15.143
60.45000 10.080
60.46000 10.201
60.47000 8.148
60.48000 10.043
60.49000 15.111
60.50000 9.247
60.51000 10.131
60.52000 10.068
60.53000 11.099
60.54000 6.022
60.55000 7.997
60.56000 11.052
60.57000 7.053
60.58000 10.147
60.59000 11.202
60.60000 7.049
60.61000 17.043
60.62000 12.243
60.63000 11.263
60.64000 10.021
60.65000 7.997
60.66000 11.148
60.67000 9.189
60.68000 11.294
60.69000 7.167
60.70000 14.063
60.71000 10.073
60.72000 12.248
60.73000 10.160
60.74000 9.152
60.75000 15.177
60.76000 11.111
60.77000 14.297
60.78000 12.199
60.79000 11.189
60.80000 11.979
60.81000 7.054
60.82000 9.070
60.83000 8.073
60.84000 16.105
60.85000 6.082
60.86000 6.153
60.87000 14.255
60.88000 8.107
60.89000 7.010
60.90000 6.099
60.91000 7.079
60.92000 10.275
60.93000 7.050
60.94000 13.246
60.95000 11.087
60.96000 15.079
60.97000 10.149
60.98000 14.136
60.99000 6.996
61.00000 8.120
61.01000 8.119
61.02000 17.299
61.03000 9.067
61.04000 9.073
61.05000 9.104
61.06000 10.140
61.07000 8.153
61.08000 10.094
61.09000 8.006
61.10000 8.067
61.11000 6.096
61.12000 11.096
61.13000 9.088
61.14000 5.124
61.15000 12.278
61.16000 9.090
61.17000 15.328
61.18000 8.182
61.19000 11.211
61.20000 11.067
61.21000 7.171
61.22000 12.093
61.23000 11.184
61.24000 9.018
61.25000 17.499
61.26000 4.078
61.27000 9.107
61.28000 11.148
61.29000 12.218
61.30000 9.075
61.31000 13.235
61.32000 7.999
61.33000 9.063
61.34000 10.087
61.35000 7.114
61.36000 21.122
61.37000 13.161
61.38000 13.085
61.39000 8.062
61.40000 8.136
61.41000 9.231
61.42000 10.153
61.43000 11.109
61.44000 12.174
61.45000 18.018
61.46000 9.287
61.47000 7.083
61.48000 13.289
61.49000 6.095
61.50000 9.111
61.51000 17.093
61.52000 14.185
61.53000 15.091
61.54000 13.242
61.55000 12.132
61.56000 6.112
61.57000 10.229
61.58000 10.155
61.59000 13.079
61.60000 7.109
61.61000 11.196
61.62000 8.209
61.63000 14.151
61.64000 10.153
61.65000 10.203
61.66000 9.128
61.67000 13.267
61.68000 13.162
61.69000 8.996
61.70000 7.118
61.71000 8.197
61.72000 10.093
61.73000 6.123
61.74000 17.227
61.75000 7.199
61.76000 12.146
61.77000 9.012
61.78000 9.071
61.79000 16.088
61.80000 7.997
61.81000 7.069
61.82000 12.166
61.83000 7.018
61.84000 11.236
61.85000 10.193
61.86000 8.021
61.87000 8.003
61.88000 13.192
61.89000 12.229
61.90000 9.214
61.91000 12.045
61.92000 8.081
61.93000 12.226
61.94000 10.978
61.95000 10.132
61.96000 14.208
61.97000 15.204
61.98000 4.087
61.99000 13.226
62.00000 12.241
62.01000 11.216
62.02000 11.060
62.03000 10.203
62.04000 8.224
62.05000 7.111
62.06000 14.070
62.07000 12.103
62.08000 10.945
62.09000 7.073
62.10000 6.174
62.11000 8.202
62.12000 4.073
62.13000 5.971
62.14000 10.195
62.15000 9.141
62.16000 4.966
62.17000 11.953
62.18000 10.392
62.19000 10.211
62.20000 10.106
62.21000 11.034
62.22000 9.090
62.23000 13.117
62.24000 11.146
62.25000 16.273
62.26000 10.201
62.27000 7.071
62.28000 9.102
62.29000 7.998
62.30000 10.055
62.31000 16.176
62.32000 11.102
62.33000 10.192
62.34000 6.212
62.35000 9.166
62.36000 5.036
62.37000 9.108
62.38000 8.072
62.39000 13.307
62.40000 11.173
62.41000 10.022
62.42000 10.075
62.43000 9.038
62.44000 9.059
62.45000 11.136
62.46000 10.157
62.47000 8.162
62.48000 13.302
62.49000 3.973
62.50000 11.231
62.51000 6.062
62.52000 9.041
62.53000 8.032
62.54000 8.194
62.55000 4.105
62.56000 12.201
62.57000 9.189
62.58000 3.074
62.59000 7.055
62.60000 7.006
62.61000 3.069
62.62000 6.005
62.63000 4.029
62.64000 4.139
62.65000 11.155
62.66000 10.251
62.67000 11.201
62.68000 12.087
62.69000 8.020
62.70000 6.104
62.71000 13.108
62.72000 15.181
62.73000 8.203
62.74000 6.128
62.75000 7.009
62.76000 10.063
62.77000 15.991
62.78000 8.147
62.79000 10.260
62.80000 8.022
62.81000 15.124
62.82000 16.190
62.83000 8.120
62.84000 10.020
62.85000 7.296
62.86000 8.068
62.87000 9.106
62.88000 8.106
62.89000 12.237
62.90000 10.112
62.91000 5.053
62.92000 8.097
62.93000 14.186
62.94000 11.220
62.95000 8.130
62.96000 9.212
62.97000 9.137
62.98000 12.255
62.99000 6.044
63.00000 14.130
63.01000 10.102
63.02000 8.146
63.03000 6.960
63.04000 7.060
63.05000 6.103
63.06000 7.088
63.07000 12.108
63.08000 10.200
63.09000 6.021
63.10000 7.094
63.11000 10.078
63.12000 8.149
63.13000 8.078
63.14000 8.179
63.15000 14.239
63.16000 9.171
63.17000 8.046
63.18000 8.064
63.19000 7.129
63.20000 9.063
63.21000 8.096
63.22000 1.979
63.23000 8.190
63.24000 7.053
63.25000 7.033
63.26000 10.139
63.27000 10.110
63.28000 9.131
63.29000 9.174
63.30000 9.089
63.31000 12.179
63.32000 10.197
63.33000 11.072
63.34000 9.043
63.35000 10.111
63.36000 6.119
63.37000 12.172
63.38000 12.319
63.39000 8.161
63.40000 10.051
63.41000 17.276
63.42000 7.180
63.43000 14.191
63.44000 9.181
63.45000 15.157
63.46000 12.132
63.47000 8.052
63.48000 12.118
63.49000 9.045
63.50000 10.262
63.51000 8.142
63.52000 8.098
63.53000 22.086
63.54000 10.205
63.55000 8.109
63.56000 8.060
63.57000 8.973
63.58000 10.051
63.59000 5.979
63.60000 6.096
63.61000 11.105
63.62000 6.086
63.63000 8.167
63.64000 9.124
63.65000 7.116
63.66000 13.147
63.67000 15.268
63.68000 10.053
63.69000 10.090
63.70000 5.067
63.71000 13.224
63.72000 11.063
63.73000 6.081
63.74000 14.134
63.75000 8.111
63.76000 9.204
63.77000 12.067
63.78000 3.983
63.79000 11.066
63.80000 9.211
63.81000 15.129
63.82000 10.029
63.83000 8.009
63.84000 14.133
63.85000 10.108
63.86000 6.133
63.87000 10.237
63.88000 8.120
63.89000 5.086
63.90000 10.145
63.91000 6.121
63.92000 13.341
63.93000 6.162
63.94000 11.281
63.95000 11.147
63.96000 12.268
63.97000 16.338
63.98000 15.149
63.99000 10.081
64.00000 6.092
64.01000 7.977
64.02000 7.073
64.03000 5.018
64.04000 5.024
64.05000 12.223
64.06000 7.018
64.07000 15.171
64.08000 9.937
64.09000 5.241
64.10000 10.110
64.11000 10.171
64.12000 4.035
64.13000 6.988
64.14000 6.027
64.15000 9.118
64.16000 8.146
64.17000 9.169
64.18000 12.172
64.19000 7.167
64.20000 7.135
64.21000 7.991
64.22000 5.997
64.23000 12.105
64.24000 6.070
64.25000 10.067
64.26000 9.073
64.27000 11.127
64.28000 9.014
64.29000 6.254
64.30000 11.059
64.31000 11.115
64.32000 9.122
64.33000 12.156
64.34000 11.090
64.35000 4.055
64.36000 7.995
64.37000 8.108
64.38000 8.051
64.39000 11.299
64.40000 11.249
64.41000 12.065
64.42000 6.030
64.43000 6.048
64.44000 10.076
64.45000 10.242
64.46000 13.048
64.47000 8.111
64.48000 11.047
64.49000 8.093
64.50000 10.152
64.51000 10.172
64.52000 8.112
64.53000 10.184
64.54000 7.055
64.55000 8.084
64.56000 8.987
64.57000 8.103
64.58000 9.002
64.59000 12.163
64.60000 6.023
64.61000 6.096
64.62000 8.108
64.63000 7.096
64.64000 9.064
64.65000 10.062
64.66000 5.970
64.67000 6.048
64.68000 6.141
64.69000 7.096
64.70000 8.023
64.71000 6.065
64.72000 15.190
64.73000 10.176
64.74000 6.035
64.75000 7.091
64.76000 15.311
64.77000 4.929
64.78000 8.081
64.79000 8.142
64.80000 11.163
64.81000 11.075
64.82000 9.089
64.83000 15.249
64.84000 9.165
64.85000 11.088
64.86000 13.160
64.87000 10.028
64.88000 11.089
64.89000 11.149
64.90000 16.094
64.91000 12.262
64.92000 8.046
64.93000 10.163
64.94000 12.198
64.95000 10.201
64.96000 14.140
64.97000 7.130
64.98000 8.126
64.99000 10.117
65.00000 3.071
