20.00000 20.239
20.01000 19.252
20.02000 21.227
20.03000 14.171
20.04000 18.251
20.05000 20.252
20.06000 20.219
20.07000 15.143
20.08000 17.269
20.09000 22.348
20.10000 21.087
20.11000 19.007
20.12000 18.502
20.13000 11.124
20.14000 19.305
20.15000 16.428
20.16000 22.369
20.17000 19.275
20.18000 18.346
20.19000 23.306
20.20000 24.498
20.21000 14.223
20.22000 26.241
20.23000 16.307
20.24000 19.118
20.25000 28.353
20.26000 17.371
20.27000 22.325
20.28000 22.230
20.29000 20.301
20.30000 20.265
20.31000 16.221
20.32000 14.279
20.33000 25.518
20.34000 20.254
20.35000 22.490
20.36000 19.268
20.37000 23.357
20.38000 24.471
20.39000 31.332
20.40000 14.186
20.41000 19.349
20.42000 15.097
20.43000 17.278
20.44000 19.326
20.45000 15.308
20.46000 18.192
20.47000 21.344
20.48000 23.361
20.49000 23.987
20.50000 17.446
20.51000 24.388
20.52000 19.480
20.53000 14.260
20.54000 18.192
20.55000 33.561
20.56000 23.249
20.57000 18.136
20.58000 16.167
20.59000 19.385
20.60000 19.109
20.61000 25.313
20.62000 14.268
20.63000 20.198
20.64000 27.585
20.65000 24.331
20.66000 25.283
20.67000 21.120
20.68000 19.259
20.69000 21.255
20.70000 20.153
20.71000 22.162
20.72000 20.289
20.73000 15.032
20.74000 25.290
20.75000 25.306
20.76000 16.103
20.77000 18.319
20.78000 19.265
20.79000 25.241
20.80000 24.418
20.81000 18.283
20.82000 21.317
20.83000 17.327
20.84000 20.127
20.85000 14.189
20.86000 18.472
20.87000 17.069
20.88000 17.319
20.89000 29.698
20.90000 27.447
20.91000 15.168
20.92000 22.385
20.93000 14.252
20.94000 25.253
20.95000 16.254
20.96000 21.189
20.97000 23.220
20.98000 21.155
20.99000 26.463
21.00000 27.332
21.01000 25.242
21.02000 20.352
21.03000 23.297
21.04000 16.138
21.05000 22.340
21.06000 20.261
21.07000 14.194
21.08000 29.206
21.09000 25.198
21.10000 25.233
21.11000 20.190
21.12000 12.977
21.13000 20.353
21.14000 20.384
21.15000 12.093
21.16000 18.134
21.17000 21.268
21.18000 19.307
21.19000 12.076
21.20000 17.049
21.21000 19.181
21.22000 21.316
21.23000 21.497
21.24000 25.475
21.25000 18.161
21.26000 19.447
21.27000 25.247
21.28000 21.240
21.29000 23.342
21.30000 28.317
21.31000 23.278
21.32000 16.144
21.33000 17.172
21.34000 15.977
21.35000 26.488
21.36000 19.330
21.37000 20.390
21.38000 15.322
21.39000 22.148
21.40000 26.346
21.41000 19.196
21.42000 23.209
21.43000 24.136
21.44000 14.182
21.45000 24.102
21.46000 20.318
21.47000 22.227
21.48000 23.178
21.49000 16.293
21.50000 30.460
21.51000 15.176
21.52000 20.238
21.53000 17.107
21.54000 24.562
21.55000 25.322
21.56000 19.425
21.57000 20.228
21.58000 21.314
21.59000 25.405
21.60000 14.111
21.61000 20.248
21.62000 24.259
21.63000 19.266
21.64000 27.422
21.65000 24.383
21.66000 17.205
21.67000 26.223
21.68000 25.271
21.69000 12.198
21.70000 32.329
21.71000 17.129
21.72000 29.624
21.73000 27.454
21.74000 27.474
21.75000 19.421
21.76000 24.267
21.77000 16.040
21.78000 24.267
21.79000 22.149
21.80000 16.204
21.81000 23.388
21.82000 18.245
21.83000 19.145
21.84000 22.345
21.85000 21.281
21.86000 30.409
21.87000 29.371
21.88000 15.304
21.89000 20.229
21.90000 18.256
21.91000 22.409
21.92000 28.448
21.93000 27.246
21.94000 27.429
21.95000 29.424
21.96000 25.523
21.97000 20.052
21.98000 31.554
21.99000 28.195
22.00000 25.445
22.01000 19.256
22.02000 18.161
22.03000 25.468
22.04000 22.135
22.05000 21.400
22.06000 25.168
22.07000 25.235
22.08000 25.354
22.09000 16.176
22.10000 22.363
22.11000 22.352
22.12000 22.371
22.13000 18.218
22.14000 20.363
22.15000 27.344
22.16000 16.163
22.17000 18.177
22.18000 24.255
22.19000 20.389
22.20000 25.242
22.21000 30.183
22.22000 33.456
22.23000 25.329
22.24000 14.069
22.25000 13.163
22.26000 29.351
22.27000 32.501
22.28000 15.207
22.29000 26.224
22.30000 24.430
22.31000 30.291
22.32000 22.257
22.33000 22.231
22.34000 21.230
22.35000 26.131
22.36000 18.339
22.37000 25.301
22.38000 27.245
22.39000 21.276
22.40000 12.357
22.41000 29.249
22.42000 23.406
22.43000 17.240
22.44000 23.163
22.45000 24.384
22.46000 19.297
22.47000 29.442
22.48000 18.301
22.49000 26.373
22.50000 15.094
22.51000 23.340
22.52000 30.316
22.53000 20.283
22.54000 19.156
22.55000 27.333
22.56000 20.163
22.57000 26.135
22.58000 30.348
22.59000 21.189
22.60000 34.508
22.61000 24.339
22.62000 23.452
22.63000 23.460
22.64000 25.196
22.65000 20.394
22.66000 34.528
22.67000 24.427
22.68000 19.247
22.69000 27.360
22.70000 24.129
22.71000 22.267
22.72000 18.431
22.73000 26.251
22.74000 29.440
22.75000 33.414
22.76000 21.437
22.77000 24.207
22.78000 27.272
22.79000 29.387
22.80000 24.410
22.81000 28.357
22.82000 21.346
22.83000 16.275
22.84000 31.428
22.85000 25.205
22.86000 27.337
22.87000 21.258
22.88000 21.360
22.89000 21.153
22.90000 30.458
22.91000 31.479
22.92000 18.163
22.93000 31.447
22.94000 18.188
22.95000 28.173
22.96000 17.300
22.97000 32.273
22.98000 33.578
22.99000 28.158
23.00000 27.398
23.01000 20.316
23.02000 31.302
23.03000 27.199
23.04000 28.478
23.05000 24.217
23.06000 40.652
23.07000 16.215
23.08000 25.188
23.09000 30.634
23.10000 35.463
23.11000 22.217
23.12000 28.380
23.13000 24.315
23.14000 21.173
23.15000 28.447
23.16000 33.148
23.17000 26.109
23.18000 26.579
23.19000 32.394
23.20000 26.209
23.21000 31.219
23.22000 26.428
23.23000 24.503
23.24000 27.351
23.25000 24.321
23.26000 23.352
23.27000 27.318
23.28000 31.356
23.29000 36.509
23.30000 34.277
23.31000 34.468
23.32000 21.267
23.33000 30.574
23.34000 22.226
23.35000 24.136
23.36000 23.213
23.37000 30.336
23.38000 23.362
23.39000 28.562
23.40000 32.622
23.41000 34.868
23.42000 24.448
23.43000 26.389
23.44000 25.464
23.45000 28.205
23.46000 23.496
23.47000 26.560
23.48000 22.307
23.49000 31.469
23.50000 22.328
23.51000 25.131
23.52000 35.346
23.53000 30.404
23.54000 25.485
23.55000 33.298
23.56000 18.186
23.57000 31.458
23.58000 36.609
23.59000 33.350
23.60000 31.216
23.61000 27.361
23.62000 26.295
23.63000 28.402
23.64000 31.372
23.65000 27.966
23.66000 26.502
23.67000 32.531
23.68000 15.141
23.69000 26.138
23.70000 41.320
23.71000 29.367
23.72000 36.744
23.73000 30.590
23.74000 26.341
23.75000 40.546
23.76000 29.269
23.77000 38.364
23.78000 32.629
23.79000 25.550
23.80000 29.551
23.81000 15.127
23.82000 19.365
23.83000 32.343
23.84000 22.233
23.85000 18.302
23.86000 41.603
23.87000 34.231
23.88000 32.506
23.89000 23.474
23.90000 32.173
23.91000 35.660
23.92000 30.492
23.93000 28.445
23.94000 27.234
23.95000 36.564
23.96000 32.390
23.97000 34.383
23.98000 34.771
23.99000 30.735
24.00000 40.562
24.01000 27.510
24.02000 20.374
24.03000 23.617
24.04000 29.269
24.05000 40.486
24.06000 23.316
24.07000 26.114
24.08000 45.662
24.09000 20.370
24.10000 38.531
24.11000 22.324
24.12000 35.574
24.13000 45.688
24.14000 34.385
24.15000 30.415
24.16000 33.577
24.17000 32.630
24.18000 28.434
24.19000 33.408
24.20000 26.324
24.21000 30.386
24.22000 32.411
24.23000 26.204
24.24000 39.561
24.25000 34.928
24.26000 37.459
24.27000 27.414
24.28000 30.202
24.29000 34.381
24.30000 30.519
24.31000 33.457
24.32000 34.793
24.33000 40.249
24.34000 25.445
24.35000 38.270
24.36000 31.496
24.37000 41.564
24.38000 28.369
24.39000 38.497
24.40000 35.457
24.41000 31.249
24.42000 34.379
24.43000 40.312
24.44000 32.412
24.45000 29.478
24.46000 29.444
24.47000 43.273
24.48000 39.577
24.49000 33.478
24.50000 28.098
24.51000 30.347
24.52000 46.557
24.53000 37.733
24.54000 43.559
24.55000 36.541
24.56000 28.465
24.57000 44.728
24.58000 33.423
24.59000 43.504
24.60000 36.357
24.61000 40.858
24.62000 40.536
24.63000 37.607
24.64000 36.386
24.65000 48.464
24.66000 31.274
24.67000 30.392
24.68000 34.389
24.69000 52.909
24.70000 39.468
24.71000 44.542
24.72000 30.489
24.73000 30.569
24.74000 28.368
24.75000 26.457
24.76000 36.445
24.77000 47.638
24.78000 39.580
24.79000 36.855
24.80000 29.365
24.81000 41.645
24.82000 35.476
24.83000 33.256
24.84000 42.447
24.85000 25.318
24.86000 36.428
24.87000 40.648
24.88000 40.417
24.89000 36.661
24.90000 32.534
24.91000 42.471
24.92000 40.553
24.93000 39.611
24.94000 34.396
24.95000 47.617
24.96000 39.662
24.97000 33.557
24.98000 35.206
24.99000 40.518
25.00000 38.940
25.01000 40.326
25.02000 41.607
25.03000 35.304
25.04000 37.290
25.05000 47.623
25.06000 39.490
25.07000 27.325
25.08000 40.412
25.09000 36.241
25.10000 46.551
25.11000 46.600
25.12000 34.535
25.13000 45.613
25.14000 38.495
25.15000 41.412
25.16000 45.506
25.17000 51.618
25.18000 36.468
25.19000 38.649
25.20000 44.696
25.21000 48.749
25.22000 40.407
25.23000 40.516
25.24000 43.752
25.25000 44.649
25.26000 38.503
25.27000 49.525
25.28000 31.479
25.29000 42.534
25.30000 40.349
25.31000 31.377
25.32000 35.405
25.33000 37.339
25.34000 54.899
25.35000 33.618
25.36000 38.548
25.37000 55.721
25.38000 45.618
25.39000 37.363
25.40000 37.657
25.41000 48.906
25.42000 41.346
25.43000 41.487
25.44000 45.620
25.45000 43.338
25.46000 41.604
25.47000 52.419
25.48000 30.485
25.49000 40.494
25.50000 41.911
25.51000 45.822
25.52000 47.518
25.53000 44.693
25.54000 47.424
25.55000 48.433
25.56000 44.735
25.57000 44.478
25.58000 45.645
25.59000 51.654
25.60000 46.640
25.61000 38.464
25.62000 46.268
25.63000 38.767
25.64000 42.592
25.65000 37.787
25.66000 58.962
25.67000 52.117
25.68000 35.750
25.69000 48.580
25.70000 53.793
25.71000 53.569
25.72000 49.478
25.73000 46.599
25.74000 46.639
25.75000 58.555
25.76000 43.517
25.77000 50.106
25.78000 42.619
25.79000 50.856
25.80000 36.500
25.81000 37.459
25.82000 51.679
25.83000 45.870
25.84000 45.623
25.85000 43.375
25.86000 42.659
25.87000 48.890
25.88000 71.994
25.89000 39.144
25.90000 42.481
25.91000 52.677
25.92000 51.777
25.93000 48.535
25.94000 60.816
25.95000 63.668
25.96000 53.649
25.97000 48.536
25.98000 48.658
25.99000 39.312
26.00000 46.674
26.01000 56.766
26.02000 55.476
26.03000 43.521
26.04000 54.373
26.05000 57.683
26.06000 74.208
26.07000 66.616
26.08000 51.562
26.09000 50.416
26.10000 65.586
26.11000 44.544
26.12000 52.715
26.13000 46.924
26.14000 53.973
26.15000 54.755
26.16000 48.495
26.17000 65.046
26.18000 38.654
26.19000 45.815
26.20000 44.406
26.21000 53.770
26.22000 61.836
26.23000 64.733
26.24000 45.586
26.25000 40.590
26.26000 61.881
26.27000 51.965
26.28000 54.973
26.29000 49.807
26.30000 57.779
26.31000 46.376
26.32000 61.912
26.33000 48.757
26.34000 47.599
26.35000 54.402
26.36000 60.566
26.37000 51.376
26.38000 46.713
26.39000 53.762
26.40000 67.033
26.41000 54.567
26.42000 51.795
26.43000 63.737
26.44000 54.871
26.45000 50.627
26.46000 62.845
26.47000 45.702
26.48000 56.684
26.49000 48.809
26.50000 53.421
26.51000 56.786
26.52000 53.596
26.53000 60.758
26.54000 56.806
26.55000 47.579
26.56000 68.219
26.57000 47.787
26.58000 46.735
26.59000 54.756
26.60000 58.778
26.61000 67.235
26.62000 61.690
26.63000 75.097
26.64000 60.110
26.65000 61.458
26.66000 56.542
26.67000 52.650
26.68000 53.550
26.69000 51.661
26.70000 65.510
26.71000 53.795
26.72000 59.483
26.73000 58.894
26.74000 49.430
26.75000 63.919
26.76000 66.498
26.77000 78.316
26.78000 65.763
26.79000 44.593
26.80000 65.062
26.81000 67.793
26.82000 54.697
26.83000 58.507
26.84000 60.768
26.85000 55.330
26.86000 59.860
26.87000 64.883
26.88000 59.886
26.89000 52.478
26.90000 54.565
26.91000 52.880
26.92000 63.917
26.93000 58.628
26.94000 59.535
26.95000 45.562
26.96000 51.949
26.97000 55.984
26.98000 61.867
26.99000 69.105
27.00000 58.876
27.01000 63.999
27.02000 63.948
27.03000 55.761
27.04000 59.641
27.05000 52.613
27.06000 73.533
27.07000 53.506
27.08000 58.984
27.09000 62.035
27.10000 60.968
27.11000 53.681
27.12000 77.292
27.13000 60.783
27.14000 59.658
27.15000 57.882
27.16000 53.910
27.17000 60.911
27.18000 62.048
27.19000 49.615
27.20000 54.590
27.21000 57.708
27.22000 64.803
27.23000 50.654
27.24000 63.673
27.25000 49.529
27.26000 56.716
27.27000 59.818
27.28000 57.680
27.29000 56.697
27.30000 53.508
27.31000 54.602
27.32000 55.861
27.33000 69.310
27.34000 61.963
27.35000 59.854
27.36000 61.730
27.37000 72.082
27.38000 55.956
27.39000 57.932
27.40000 69.091
27.41000 47.789
27.42000 66.168
27.43000 62.787
27.44000 50.940
27.45000 56.015
27.46000 75.133
27.47000 62.984
27.48000 67.986
27.49000 49.412
27.50000 55.568
27.51000 59.478
27.52000 66.735
27.53000 58.899
27.54000 60.721
27.55000 55.846
27.56000 58.664
27.57000 76.904
27.58000 66.912
27.59000 56.442
27.60000 58.647
27.61000 57.700
27.62000 62.845
27.63000 61.640
27.64000 49.528
27.65000 58.981
27.66000 58.770
27.67000 51.554
27.68000 61.833
27.69000 62.622
27.70000 63.892
27.71000 55.558
27.72000 55.877
27.73000 48.800
27.74000 54.659
27.75000 57.396
27.76000 65.902
27.77000 66.512
27.78000 56.629
27.79000 51.614
27.80000 55.867
27.81000 60.782
27.82000 76.296
27.83000 44.546
27.84000 43.620
27.85000 62.827
27.86000 69.123
27.87000 66.048
27.88000 71.784
27.89000 66.055
27.90000 59.685
27.91000 57.502
27.92000 58.098
27.93000 60.676
27.94000 63.667
27.95000 59.809
27.96000 60.869
27.97000 61.996
27.98000 69.818
27.99000 56.920
28.00000 56.621
28.01000 52.895
28.02000 56.111
28.03000 51.873
28.04000 58.870
28.05000 54.876
28.06000 56.599
28.07000 61.955
28.08000 53.904
28.09000 65.065
28.10000 80.048
28.11000 64.661
28.12000 45.945
28.13000 62.499
28.14000 72.991
28.15000 49.824
28.16000 58.694
28.17000 62.691
28.18000 50.495
28.19000 60.652
28.20000 63.713
28.21000 48.537
28.22000 72.275
28.23000 51.899
28.24000 49.693
28.25000 71.042
28.26000 67.733
28.27000 76.988
28.28000 59.518
28.29000 67.855
28.30000 63.604
28.31000 50.414
28.32000 64.736
28.33000 62.070
28.34000 57.781
28.35000 67.913
28.36000 66.987
28.37000 65.185
28.38000 61.901
28.39000 65.791
28.40000 43.535
28.41000 60.130
28.42000 56.708
28.43000 58.832
28.44000 56.724
28.45000 65.798
28.46000 54.686
28.47000 70.936
28.48000 56.984
28.49000 56.633
28.50000 53.719
28.51000 55.726
28.52000 66.285
28.53000 76.234
28.54000 66.008
28.55000 50.696
28.56000 52.721
28.57000 57.856
28.58000 50.661
28.59000 45.456
28.60000 44.696
28.61000 57.716
28.62000 51.778
28.63000 47.646
28.64000 56.813
28.65000 64.979
28.66000 55.854
28.67000 53.734
28.68000 68.141
28.69000 59.660
28.70000 55.776
28.71000 58.129
28.72000 53.932
28.73000 65.157
28.74000 45.418
28.75000 51.485
28.76000 60.618
28.77000 51.498
28.78000 54.553
28.79000 55.574
28.80000 66.990
28.81000 55.737
28.82000 52.766
28.83000 59.810
28.84000 55.032
28.85000 64.913
28.86000 48.483
28.87000 50.637
28.88000 53.989
28.89000 59.719
28.90000 53.703
28.91000 52.724
28.92000 50.602
28.93000 59.805
28.94000 47.443
28.95000 38.758
28.96000 61.663
28.97000 41.459
28.98000 64.879
28.99000 58.690
29.00000 67.945
29.01000 48.560
29.02000 53.557
29.03000 44.807
29.04000 48.775
29.05000 52.485
29.06000 59.778
29.07000 54.233
29.08000 53.833
29.09000 53.719
29.10000 55.394
29.11000 43.539
29.12000 45.533
29.13000 52.771
29.14000 53.484
29.15000 51.985
29.16000 50.827
29.17000 54.872
29.18000 52.881
29.19000 52.546
29.20000 52.607
29.21000 81.125
29.22000 43.825
29.23000 54.792
29.24000 55.469
29.25000 52.966
29.26000 46.654
29.27000 47.066
29.28000 39.689
29.29000 37.704
29.30000 64.469
29.31000 40.616
29.32000 53.208
29.33000 39.522
29.34000 41.629
29.35000 41.955
29.36000 35.363
29.37000 56.690
29.38000 30.190
29.39000 55.094
29.40000 43.583
29.41000 46.543
29.42000 55.771
29.43000 42.457
29.44000 47.429
29.45000 51.534
29.46000 50.776
29.47000 47.855
29.48000 55.784
29.49000 65.851
29.50000 53.621
29.51000 44.596
29.52000 48.814
29.53000 43.628
29.54000 42.322
29.55000 41.504
29.56000 44.353
29.57000 49.676
29.58000 42.829
29.59000 50.734
29.60000 51.583
29.61000 41.208
29.62000 47.853
29.63000 51.790
29.64000 45.558
29.65000 48.608
29.66000 45.895
29.67000 40.530
29.68000 54.664
29.69000 51.962
29.70000 51.456
29.71000 45.749
29.72000 51.538
29.73000 43.763
29.74000 59.730
29.75000 62.893
29.76000 43.576
29.77000 36.485
29.78000 42.349
29.79000 32.316
29.80000 46.747
29.81000 45.379
29.82000 45.402
29.83000 43.801
29.84000 37.694
29.85000 53.776
29.86000 42.381
29.87000 44.217
29.88000 56.874
29.89000 46.187
29.90000 43.726
29.91000 49.859
29.92000 48.484
29.93000 63.577
29.94000 45.492
29.95000 41.425
29.96000 51.542
29.97000 38.692
29.98000 31.256
29.99000 43.577
30.00000 56.745
30.01000 42.762
30.02000 38.728
30.03000 51.444
30.04000 30.628
30.05000 41.583
30.06000 48.788
30.07000 39.286
30.08000 42.568
30.09000 38.417
30.10000 51.819
30.11000 36.697
30.12000 34.522
30.13000 44.542
30.14000 37.574
30.15000 32.184
30.16000 37.518
30.17000 44.629
30.18000 42.798
30.19000 43.415
30.20000 40.456
30.21000 40.362
30.22000 44.463
30.23000 34.480
30.24000 30.262
30.25000 54.589
30.26000 35.413
30.27000 44.403
30.28000 48.905
30.29000 39.353
30.30000 33.460
30.31000 43.553
30.32000 47.647
30.33000 56.594
30.34000 44.910
30.35000 40.648
30.36000 40.392
30.37000 39.481
30.38000 45.947
30.39000 44.842
30.40000 37.518
30.41000 32.438
30.42000 31.307
30.43000 37.665
30.44000 31.576
30.45000 45.677
30.46000 46.679
30.47000 36.675
30.48000 38.448
30.49000 39.876
30.50000 48.895
30.51000 43.751
30.52000 26.329
30.53000 32.320
30.54000 37.738
30.55000 32.427
30.56000 38.580
30.57000 41.841
30.58000 45.743
30.59000 40.249
30.60000 36.763
30.61000 44.688
30.62000 43.614
30.63000 37.497
30.64000 45.606
30.65000 33.665
30.66000 42.275
30.67000 41.364
30.68000 53.710
30.69000 35.471
30.70000 37.208
30.71000 45.572
30.72000 35.651
30.73000 36.741
30.74000 33.481
30.75000 44.390
30.76000 38.321
30.77000 39.732
30.78000 41.442
30.79000 34.486
30.80000 42.005
30.81000 33.345
30.82000 28.339
30.83000 41.733
30.84000 38.472
30.85000 37.436
30.86000 33.436
30.87000 38.538
30.88000 30.322
30.89000 34.350
30.90000 41.381
30.91000 38.486
30.92000 56.656
30.93000 36.614
30.94000 27.317
30.95000 40.520
30.96000 19.368
30.97000 36.500
30.98000 44.860
30.99000 33.723
31.00000 29.506
31.01000 35.392
31.02000 26.424
31.03000 32.551
31.04000 26.314
31.05000 25.247
31.06000 35.431
31.07000 31.494
31.08000 48.345
31.09000 39.413
31.10000 28.250
31.11000 42.613
31.12000 38.588
31.13000 34.895
31.14000 36.455
31.15000 27.409
31.16000 33.341
31.17000 39.483
31.18000 30.640
31.19000 31.436
31.20000 41.048
31.21000 34.503
31.22000 36.492
31.23000 36.604
31.24000 42.595
31.25000 35.421
31.26000 35.624
31.27000 29.527
31.28000 35.373
31.29000 29.318
31.30000 33.524
31.31000 45.464
31.32000 19.350
31.33000 33.326
31.34000 37.299
31.35000 28.390
31.36000 39.648
31.37000 33.530
31.38000 29.435
31.39000 31.397
31.40000 22.382
31.41000 31.628
31.42000 33.619
31.43000 50.960
31.44000 37.306
31.45000 32.342
31.46000 33.432
31.47000 31.391
31.48000 31.536
31.49000 39.745
31.50000 28.528
31.51000 29.514
31.52000 30.401
31.53000 25.278
31.54000 33.755
31.55000 27.215
31.56000 38.643
31.57000 22.471
31.58000 36.246
31.59000 33.347
31.60000 24.377
31.61000 27.500
31.62000 33.551
31.63000 21.226
31.64000 32.353
31.65000 20.299
31.66000 21.183
31.67000 19.345
31.68000 32.457
31.69000 37.471
31.70000 36.528
31.71000 26.432
31.72000 32.490
31.73000 25.443
31.74000 37.504
31.75000 17.123
31.76000 31.244
31.77000 37.452
31.78000 25.363
31.79000 23.243
31.80000 35.340
31.81000 34.564
31.82000 29.191
31.83000 25.310
31.84000 28.295
31.85000 36.605
31.86000 29.401
31.87000 26.369
31.88000 24.359
31.89000 26.277
31.90000 31.445
31.91000 27.482
31.92000 38.600
31.93000 24.353
31.94000 27.365
31.95000 28.384
31.96000 22.284
31.97000 32.375
31.98000 25.457
31.99000 28.467
32.00000 21.541
32.01000 33.239
32.02000 32.542
32.03000 33.351
32.04000 29.464
32.05000 26.524
32.06000 31.574
32.07000 32.188
32.08000 39.852
32.09000 23.421
32.10000 31.468
32.11000 34.728
32.12000 36.791
32.13000 32.404
32.14000 30.455
32.15000 28.317
32.16000 37.404
32.17000 30.163
32.18000 25.289
32.19000 31.317
32.20000 28.594
32.21000 24.206
32.22000 34.528
32.23000 26.519
32.24000 25.184
32.25000 21.427
32.26000 26.276
32.27000 34.357
32.28000 33.440
32.29000 31.446
32.30000 29.454
32.31000 33.467
32.32000 44.683
32.33000 38.428
32.34000 26.374
32.35000 31.276
32.36000 35.785
32.37000 26.299
32.38000 23.347
32.39000 29.236
32.40000 23.469
32.41000 33.475
32.42000 31.339
32.43000 31.407
32.44000 28.261
32.45000 32.390
32.46000 29.331
32.47000 31.644
32.48000 25.209
32.49000 27.415
32.50000 31.503
32.51000 32.374
32.52000 23.454
32.53000 33.452
32.54000 30.259
32.55000 18.135
32.56000 22.197
32.57000 35.263
32.58000 27.401
32.59000 26.317
32.60000 33.511
32.61000 23.261
32.62000 40.394
32.63000 30.230
32.64000 25.320
32.65000 29.342
32.66000 37.745
32.67000 31.447
32.68000 25.405
32.69000 27.083
32.70000 33.545
32.71000 20.118
32.72000 27.365
32.73000 24.409
32.74000 18.483
32.75000 20.277
32.76000 19.112
32.77000 24.139
32.78000 21.138
32.79000 28.484
32.80000 23.242
32.81000 25.386
32.82000 28.611
32.83000 31.392
32.84000 22.280
32.85000 27.712
32.86000 24.366
32.87000 18.249
32.88000 15.080
32.89000 22.224
32.90000 19.332
32.91000 23.390
32.92000 20.271
32.93000 24.296
32.94000 32.282
32.95000 24.270
32.96000 21.439
32.97000 28.374
32.98000 30.401
32.99000 26.380
33.00000 28.317
33.01000 25.324
33.02000 8.007
33.03000 17.275
33.04000 9.127
33.05000 26.370
33.06000 31.445
33.07000 25.478
33.08000 24.328
33.09000 14.264
33.10000 23.248
33.11000 27.271
33.12000 26.201
33.13000 23.114
33.14000 19.350
33.15000 19.319
33.16000 24.325
33.17000 24.415
33.18000 23.466
33.19000 15.270
33.20000 23.317
33.21000 23.582
33.22000 22.264
33.23000 25.223
33.24000 26.067
33.25000 31.366
33.26000 25.290
33.27000 23.518
33.28000 17.150
33.29000 20.183
33.30000 24.403
33.31000 23.193
33.32000 19.368
33.33000 22.235
33.34000 21.162
33.35000 20.182
33.36000 34.588
33.37000 11.244
33.38000 21.209
33.39000 21.444
33.40000 26.297
33.41000 21.309
33.42000 25.258
33.43000 23.487
33.44000 23.311
33.45000 19.320
33.46000 23.096
33.47000 21.349
33.48000 31.569
33.49000 22.252
33.50000 22.402
33.51000 17.063
33.52000 26.430
33.53000 28.362
33.54000 22.237
33.55000 16.150
33.56000 20.361
33.57000 23.465
33.58000 20.216
33.59000 13.258
33.60000 15.333
33.61000 17.136
33.62000 20.320
33.63000 21.355
33.64000 28.509
33.65000 21.409
33.66000 16.094
33.67000 14.273
33.68000 30.462
33.69000 26.428
33.70000 23.403
33.71000 20.439
33.72000 19.048
33.73000 16.342
33.74000 19.231
33.75000 20.196
33.76000 19.175
33.77000 17.259
33.78000 20.257
33.79000 11.188
33.80000 15.064
33.81000 21.344
33.82000 24.398
33.83000 22.323
33.84000 26.367
33.85000 18.031
33.86000 18.275
33.87000 23.292
33.88000 18.191
33.89000 18.252
33.90000 21.377
33.91000 18.229
33.92000 23.389
33.93000 15.102
33.94000 20.144
33.95000 17.279
33.96000 11.242
33.97000 22.316
33.98000 28.290
33.99000 14.151
34.00000 18.298
34.01000 16.379
34.02000 14.238
34.03000 17.183
34.04000 19.310
34.05000 18.287
34.06000 26.335
34.07000 17.082
34.08000 16.246
34.09000 16.295
34.10000 18.266
34.11000 22.477
34.12000 19.370
34.13000 18.268
34.14000 16.032
34.15000 16.141
34.16000 16.170
34.17000 20.192
34.18000 11.141
34.19000 10.175
34.20000 21.111
34.21000 30.401
34.22000 20.209
34.23000 15.349
34.24000 19.517
34.25000 16.207
34.26000 16.273
34.27000 24.360
34.28000 19.300
34.29000 26.279
34.30000 28.316
34.31000 18.157
34.32000 23.292
34.33000 20.268
34.34000 21.300
34.35000 22.344
34.36000 11.073
34.37000 19.252
34.38000 16.316
34.39000 18.103
34.40000 19.061
34.41000 23.208
34.42000 15.094
34.43000 29.349
34.44000 16.151
34.45000 20.202
34.46000 28.341
34.47000 17.328
34.48000 19.193
34.49000 18.154
34.50000 18.310
34.51000 24.391
34.52000 12.179
34.53000 23.341
34.54000 21.375
34.55000 14.200
34.56000 16.246
34.57000 18.149
34.58000 19.336
34.59000 17.336
34.60000 26.352
34.61000 15.407
34.62000 13.122
34.63000 14.217
34.64000 15.164
34.65000 23.260
34.66000 14.227
34.67000 18.272
34.68000 16.155
34.69000 15.059
34.70000 25.302
34.71000 21.232
34.72000 16.226
34.73000 20.377
34.74000 17.195
34.75000 26.385
34.76000 11.182
34.77000 13.075
34.78000 20.290
34.79000 17.350
34.80000 8.136
34.81000 22.147
34.82000 23.254
34.83000 20.238
34.84000 12.212
34.85000 17.216
34.86000 27.152
34.87000 13.183
34.88000 22.279
34.89000 17.081
34.90000 15.203
34.91000 24.269
34.92000 18.323
34.93000 18.287
34.94000 20.229
34.95000 23.223
34.96000 16.143
34.97000 21.045
34.98000 18.210
34.99000 14.253
35.00000 13.246
35.01000 15.131
35.02000 23.516
35.03000 20.101
35.04000 18.349
35.05000 18.285
35.06000 21.521
35.07000 24.355
35.08000 18.377
35.09000 22.148
35.10000 18.247
35.11000 16.266
35.12000 18.298
35.13000 16.169
35.14000 19.128
35.15000 16.370
35.16000 19.147
35.17000 13.292
35.18000 13.219
35.19000 19.315
35.20000 15.126
35.21000 25.422
35.22000 14.165
35.23000 13.187
35.24000 13.070
35.25000 16.239
35.26000 14.135
35.27000 23.539
35.28000 21.532
35.29000 14.070
35.30000 15.151
35.31000 14.052
35.32000 15.109
35.33000 18.101
35.34000 20.400
35.35000 16.410
35.36000 23.284
35.37000 14.232
35.38000 22.259
35.39000 12.087
35.40000 24.556
35.41000 16.378
35.42000 24.432
35.43000 11.012
35.44000 22.292
35.45000 20.047
35.46000 18.240
35.47000 20.172
35.48000 23.399
35.49000 25.414
35.50000 21.250
35.51000 13.102
35.52000 18.350
35.53000 17.282
35.54000 17.137
35.55000 18.179
35.56000 19.391
35.57000 21.124
35.58000 25.434
35.59000 14.142
35.60000 16.273
35.61000 21.295
35.62000 12.337
35.63000 14.047
35.64000 13.220
35.65000 29.429
35.66000 25.357
35.67000 17.093
35.68000 15.395
35.69000 15.122
35.70000 15.170
35.71000 35.764
35.72000 27.429
35.73000 21.445
35.74000 21.234
35.75000 23.105
35.76000 25.408
35.77000 22.400
35.78000 22.163
35.79000 24.193
35.80000 22.338
35.81000 20.253
35.82000 17.326
35.83000 21.220
35.84000 16.156
35.85000 9.008
35.86000 21.226
35.87000 19.365
35.88000 20.519
35.89000 17.297
35.90000 17.334
35.91000 22.318
35.92000 15.044
35.93000 10.209
35.94000 19.320
35.95000 17.236
35.96000 21.525
35.97000 17.331
35.98000 17.242
35.99000 15.190
36.00000 19.254
36.01000 22.335
36.02000 25.343
36.03000 23.318
36.04000 19.331
36.05000 15.238
36.06000 14.330
36.07000 14.213
36.08000 18.202
36.09000 9.167
36.10000 24.185
36.11000 22.233
36.12000 18.245
36.13000 13.220
36.14000 27.246
36.15000 9.173
36.16000 16.045
36.17000 27.544
36.18000 18.286
36.19000 13.069
36.20000 24.303
36.21000 18.285
36.22000 19.195
36.23000 22.368
36.24000 13.126
36.25000 23.615
36.26000 19.204
36.27000 14.388
36.28000 16.195
36.29000 18.386
36.30000 28.233
36.31000 13.282
36.32000 18.343
36.33000 24.043
36.34000 21.044
36.35000 22.426
36.36000 19.367
36.37000 15.160
36.38000 18.172
36.39000 22.385
36.40000 19.440
36.41000 28.420
36.42000 17.064
36.43000 15.253
36.44000 16.073
36.45000 20.387
36.46000 22.307
36.47000 23.322
36.48000 18.058
36.49000 18.320
36.50000 13.215
36.51000 17.317
36.52000 12.133
36.53000 24.374
36.54000 15.215
36.55000 19.195
36.56000 17.165
36.57000 16.382
36.58000 16.370
36.59000 19.444
36.60000 17.197
36.61000 10.129
36.62000 20.217
36.63000 21.038
36.64000 19.168
36.65000 20.307
36.66000 13.144
36.67000 15.116
36.68000 22.217
36.69000 15.132
36.70000 19.394
36.71000 27.293
36.72000 18.272
36.73000 16.191
36.74000 24.251
36.75000 24.305
36.76000 20.231
36.77000 22.111
36.78000 15.150
36.79000 21.206
36.80000 30.403
36.81000 19.323
36.82000 21.570
36.83000 25.337
36.84000 24.325
36.85000 17.202
36.86000 11.256
36.87000 14.073
36.88000 17.427
36.89000 16.187
36.90000 17.372
36.91000 17.351
36.92000 8.013
36.93000 20.178
36.94000 23.177
36.95000 16.085
36.96000 17.157
36.97000 22.513
36.98000 18.339
36.99000 16.336
37.00000 14.146
37.01000 17.259
37.02000 19.253
37.03000 17.417
37.04000 18.158
37.05000 12.388
37.06000 21.218
37.07000 22.528
37.08000 17.214
37.09000 14.202
37.10000 21.044
37.11000 32.499
37.12000 12.116
37.13000 18.336
37.14000 20.333
37.15000 22.406
37.16000 17.254
37.17000 17.127
37.18000 23.356
37.19000 13.164
37.20000 20.374
37.21000 17.199
37.22000 24.422
37.23000 15.972
37.24000 24.300
37.25000 15.198
37.26000 21.219
37.27000 18.227
37.28000 24.230
37.29000 18.371
37.30000 22.441
37.31000 22.199
37.32000 11.370
37.33000 22.326
37.34000 20.319
37.35000 20.380
37.36000 28.401
37.37000 13.167
37.38000 27.182
37.39000 18.051
37.40000 16.095
37.41000 17.149
37.42000 18.144
37.43000 24.035
37.44000 21.092
37.45000 15.199
37.46000 17.288
37.47000 21.280
37.48000 19.156
37.49000 16.128
37.50000 20.228
37.51000 17.211
37.52000 16.122
37.53000 19.248
37.54000 12.240
37.55000 18.255
37.56000 19.189
37.57000 22.478
37.58000 17.195
37.59000 23.257
37.60000 23.968
37.61000 23.352
37.62000 19.388
37.63000 24.318
37.64000 22.294
37.65000 20.416
37.66000 21.242
37.67000 18.142
37.68000 19.224
37.69000 19.117
37.70000 14.171
37.71000 25.228
37.72000 17.325
37.73000 17.221
37.74000 23.166
37.75000 16.192
37.76000 21.237
37.77000 16.176
37.78000 23.277
37.79000 29.392
37.80000 26.638
37.81000 24.591
37.82000 23.136
37.83000 14.247
37.84000 15.185
37.85000 21.260
37.86000 22.325
37.87000 12.245
37.88000 21.255
37.89000 15.271
37.90000 17.442
37.91000 23.357
37.92000 15.185
37.93000 19.151
37.94000 25.341
37.95000 30.308
37.96000 20.360
37.97000 23.450
37.98000 19.269
37.99000 23.156
38.00000 21.155
38.01000 16.285
38.02000 18.211
38.03000 21.301
38.04000 20.160
38.05000 22.227
38.06000 20.373
38.07000 20.128
38.08000 14.261
38.09000 21.314
38.10000 21.299
38.11000 24.134
38.12000 20.354
38.13000 14.027
38.14000 12.284
38.15000 18.227
38.16000 24.401
38.17000 20.207
38.18000 12.333
38.19000 18.165
38.20000 18.341
38.21000 27.267
38.22000 19.068
38.23000 11.012
38.24000 28.324
38.25000 24.192
38.26000 24.220
38.27000 19.383
38.28000 17.277
38.29000 21.526
38.30000 22.291
38.31000 16.236
38.32000 37.259
38.33000 25.386
38.34000 18.223
38.35000 14.174
38.36000 20.284
38.37000 28.358
38.38000 24.336
38.39000 19.147
38.40000 23.528
38.41000 18.208
38.42000 17.188
38.43000 17.306
38.44000 17.255
38.45000 14.309
38.46000 23.165
38.47000 18.162
38.48000 20.120
38.49000 21.421
38.50000 19.248
38.51000 21.138
38.52000 24.535
38.53000 23.353
38.54000 28.434
38.55000 19.264
38.56000 17.231
38.57000 30.264
38.58000 19.312
38.59000 27.309
38.60000 16.327
38.61000 25.103
38.62000 24.503
38.63000 17.251
38.64000 21.178
38.65000 33.592
38.66000 18.372
38.67000 20.388
38.68000 20.329
38.69000 25.526
38.70000 26.329
38.71000 18.153
38.72000 12.113
38.73000 29.307
38.74000 27.234
38.75000 21.350
38.76000 18.232
38.77000 21.277
38.78000 15.214
38.79000 17.194
38.80000 24.158
38.81000 24.185
38.82000 22.371
38.83000 23.467
38.84000 23.150
38.85000 21.483
38.86000 21.217
38.87000 25.267
38.88000 13.100
38.89000 24.209
38.90000 16.285
38.91000 18.318
38.92000 27.498
38.93000 23.394
38.94000 22.338
38.95000 28.335
38.96000 25.418
38.97000 15.213
38.98000 22.270
38.99000 23.431
39.00000 23.380
39.01000 20.171
39.02000 16.421
39.03000 22.098
39.04000 20.384
39.05000 17.198
39.06000 22.309
39.07000 20.293
39.08000 23.244
39.09000 21.472
39.10000 15.291
39.11000 24.467
39.12000 24.415
39.13000 21.274
39.14000 26.469
39.15000 28.240
39.16000 29.350
39.17000 21.420
39.18000 15.162
39.19000 20.327
39.20000 24.165
39.21000 23.197
39.22000 23.153
39.23000 35.453
39.24000 26.532
39.25000 14.249
39.26000 28.389
39.27000 22.136
39.28000 19.312
39.29000 23.099
39.30000 20.219
39.31000 20.415
39.32000 20.336
39.33000 24.377
39.34000 23.230
39.35000 25.449
39.36000 23.290
39.37000 17.270
39.38000 15.293
39.39000 29.384
39.40000 24.381
39.41000 21.195
39.42000 17.133
39.43000 19.250
39.44000 24.314
39.45000 19.420
39.46000 21.260
39.47000 21.167
39.48000 18.349
39.49000 27.434
39.50000 21.232
39.51000 20.214
39.52000 30.203
39.53000 26.445
39.54000 18.190
39.55000 25.121
39.56000 23.201
39.57000 22.179
39.58000 23.236
39.59000 39.783
39.60000 13.112
39.61000 28.294
39.62000 21.304
39.63000 13.266
39.64000 16.265
39.65000 29.207
39.66000 19.207
39.67000 25.405
39.68000 17.182
39.69000 19.382
39.70000 19.547
39.71000 30.445
39.72000 18.194
39.73000 22.270
39.74000 23.393
39.75000 23.437
39.76000 26.405
39.77000 19.222
39.78000 23.141
39.79000 28.289
39.80000 30.345
39.81000 18.388
39.82000 25.103
39.83000 27.284
39.84000 19.175
39.85000 18.079
39.86000 24.306
39.87000 23.127
39.88000 21.139
39.89000 23.261
39.90000 22.370
39.91000 23.123
39.92000 29.320
39.93000 28.691
39.94000 20.230
39.95000 28.485
39.96000 30.373
39.97000 26.119
39.98000 14.103
39.99000 18.299
40.00000 18.244
40.01000 26.332
40.02000 21.385
40.03000 21.324
40.04000 19.196
40.05000 17.288
40.06000 25.251
40.07000 23.146
40.08000 30.421
40.09000 14.276
40.10000 16.218
40.11000 20.166
40.12000 24.206
40.13000 22.358
40.14000 20.260
40.15000 17.231
40.16000 12.237
40.17000 18.034
40.18000 22.307
40.19000 19.333
40.20000 27.372
40.21000 24.252
40.22000 25.357
40.23000 14.320
40.24000 13.128
40.25000 17.259
40.26000 25.237
40.27000 23.155
40.28000 25.299
40.29000 23.140
40.30000 16.271
40.31000 25.466
40.32000 30.294
40.33000 29.361
40.34000 23.495
40.35000 24.329
40.36000 29.287
40.37000 19.231
40.38000 25.407
40.39000 21.528
40.40000 23.434
40.41000 20.142
40.42000 34.369
40.43000 14.235
40.44000 20.406
40.45000 23.285
40.46000 17.269
40.47000 30.358
40.48000 20.263
40.49000 28.381
40.50000 19.334
40.51000 18.299
40.52000 25.512
40.53000 23.230
40.54000 19.148
40.55000 32.603
40.56000 24.270
40.57000 28.193
40.58000 18.345
40.59000 30.290
40.60000 25.338
40.61000 28.530
40.62000 18.192
40.63000 21.254
40.64000 21.171
40.65000 15.220
40.66000 17.211
40.67000 26.378
40.68000 30.375
40.69000 26.340
40.70000 26.484
40.71000 24.495
40.72000 22.215
40.73000 21.117
40.74000 23.699
40.75000 27.507
40.76000 20.330
40.77000 14.219
40.78000 25.466
40.79000 23.201
40.80000 16.314
40.81000 24.247
40.82000 25.145
40.83000 19.201
40.84000 27.237
40.85000 27.575
40.86000 29.514
40.87000 26.203
40.88000 28.318
40.89000 19.304
40.90000 23.253
40.91000 30.310
40.92000 22.266
40.93000 15.240
40.94000 16.208
40.95000 27.234
40.96000 29.244
40.97000 22.216
40.98000 18.275
40.99000 27.487
41.00000 21.142
41.01000 22.325
41.02000 27.281
41.03000 20.312
41.04000 29.372
41.05000 22.214
41.06000 24.327
41.07000 27.292
41.08000 18.125
41.09000 20.176
41.10000 18.212
41.11000 20.307
41.12000 19.330
41.13000 21.192
41.14000 21.421
41.15000 25.312
41.16000 18.382
41.17000 25.438
41.18000 25.352
41.19000 19.230
41.20000 20.200
41.21000 33.467
41.22000 22.453
41.23000 24.414
41.24000 10.257
41.25000 22.269
41.26000 31.524
41.27000 21.117
41.28000 21.273
41.29000 14.159
41.30000 19.270
41.31000 28.498
41.32000 16.197
41.33000 20.242
41.34000 17.245
41.35000 25.430
41.36000 19.158
41.37000 22.438
41.38000 18.291
41.39000 22.434
41.40000 29.366
41.41000 19.099
41.42000 14.215
41.43000 24.184
41.44000 20.190
41.45000 27.343
41.46000 31.432
41.47000 14.091
41.48000 29.470
41.49000 27.446
41.50000 23.299
41.51000 25.169
41.52000 24.316
41.53000 22.308
41.54000 15.220
41.55000 22.285
41.56000 21.280
41.57000 17.236
41.58000 25.232
41.59000 29.357
41.60000 27.373
41.61000 12.139
41.62000 23.531
41.63000 21.303
41.64000 22.295
41.65000 19.145
41.66000 22.297
41.67000 18.431
41.68000 22.421
41.69000 26.363
41.70000 28.339
41.71000 20.169
41.72000 24.206
41.73000 19.284
41.74000 30.247
41.75000 22.177
41.76000 29.416
41.77000 19.166
41.78000 28.408
41.79000 18.126
41.80000 24.234
41.81000 20.369
41.82000 22.253
41.83000 22.342
41.84000 26.307
41.85000 21.308
41.86000 24.218
41.87000 16.224
41.88000 15.858
41.89000 23.330
41.90000 27.400
41.91000 25.186
41.92000 22.205
41.93000 23.356
41.94000 23.384
41.95000 20.266
41.96000 29.481
41.97000 26.511
41.98000 30.497
41.99000 24.188
42.00000 23.364
42.01000 26.191
42.02000 18.124
42.03000 26.092
42.04000 28.380
42.05000 28.396
42.06000 24.330
42.07000 25.468
42.08000 29.589
42.09000 27.503
42.10000 19.312
42.11000 17.271
42.12000 23.288
42.13000 16.343
42.14000 23.265
42.15000 26.299
42.16000 23.399
42.17000 25.336
42.18000 17.150
42.19000 23.379
42.20000 18.160
42.21000 26.432
42.22000 19.298
42.23000 18.344
42.24000 15.245
42.25000 23.219
42.26000 18.203
42.27000 23.498
42.28000 27.256
42.29000 26.552
42.30000 25.346
42.31000 21.433
42.32000 31.380
42.33000 16.257
42.34000 16.256
42.35000 24.203
42.36000 7.139
42.37000 13.174
42.38000 22.612
42.39000 24.177
42.40000 15.290
42.41000 22.103
42.42000 29.478
42.43000 25.199
42.44000 30.372
42.45000 19.110
42.46000 19.652
42.47000 15.056
42.48000 25.367
42.49000 26.248
42.50000 20.155
42.51000 20.330
42.52000 17.138
42.53000 27.396
42.54000 26.521
42.55000 19.271
42.56000 31.458
42.57000 30.444
42.58000 20.244
42.59000 23.230
42.60000 23.107
42.61000 28.229
42.62000 30.433
42.63000 15.256
42.64000 15.125
42.65000 21.331
42.66000 19.603
42.67000 15.205
42.68000 21.346
42.69000 17.429
42.70000 23.423
42.71000 16.262
42.72000 22.067
42.73000 22.408
42.74000 24.564
42.75000 25.490
42.76000 27.414
42.77000 24.319
42.78000 21.420
42.79000 22.262
42.80000 18.305
42.81000 32.404
42.82000 26.543
42.83000 23.284
42.84000 14.308
42.85000 21.163
42.86000 29.299
42.87000 21.265
42.88000 26.237
42.89000 20.231
42.90000 20.275
42.91000 26.182
42.92000 25.459
42.93000 9.076
42.94000 22.175
42.95000 21.205
42.96000 23.335
42.97000 14.233
42.98000 28.286
42.99000 18.338
43.00000 25.167
43.01000 24.284
43.02000 24.328
43.03000 19.283
43.04000 12.087
43.05000 25.171
43.06000 24.407
43.07000 14.196
43.08000 27.270
43.09000 26.216
43.10000 24.421
43.11000 22.510
43.12000 26.350
43.13000 21.581
43.14000 20.331
43.15000 17.138
43.16000 16.289
43.17000 18.264
43.18000 22.316
43.19000 26.633
43.20000 20.357
43.21000 20.103
43.22000 34.493
43.23000 24.289
43.24000 12.104
43.25000 19.314
43.26000 25.102
43.27000 26.356
43.28000 31.441
43.29000 23.388
43.30000 26.331
43.31000 25.208
43.32000 21.175
43.33000 20.158
43.34000 20.260
43.35000 24.261
43.36000 23.246
43.37000 18.212
43.38000 19.315
43.39000 22.427
43.40000 23.338
43.41000 12.088
43.42000 21.075
43.43000 24.196
43.44000 26.293
43.45000 18.163
43.46000 22.341
43.47000 21.178
43.48000 24.331
43.49000 11.299
43.50000 23.176
43.51000 16.267
43.52000 27.510
43.53000 25.246
43.54000 19.374
43.55000 24.307
43.56000 15.137
43.57000 19.318
43.58000 18.328
43.59000 25.234
43.60000 24.436
43.61000 21.251
43.62000 26.407
43.63000 17.298
43.64000 27.242
43.65000 21.109
43.66000 20.234
43.67000 19.186
43.68000 15.164
43.69000 19.192
43.70000 20.122
43.71000 26.279
43.72000 20.230
43.73000 22.292
43.74000 15.041
43.75000 24.363
43.76000 22.084
43.77000 18.388
43.78000 23.296
43.79000 20.293
43.80000 30.324
43.81000 22.410
43.82000 19.110
43.83000 18.171
43.84000 28.518
43.85000 27.433
43.86000 18.295
43.87000 23.170
43.88000 22.474
43.89000 16.120
43.90000 25.342
43.91000 14.118
43.92000 22.180
43.93000 25.307
43.94000 29.440
43.95000 18.289
43.96000 22.312
43.97000 22.287
43.98000 16.165
43.99000 20.293
44.00000 25.463
44.01000 16.063
44.02000 19.177
44.03000 22.416
44.04000 26.451
44.05000 20.270
44.06000 21.214
44.07000 22.415
44.08000 17.161
44.09000 21.077
44.10000 23.222
44.11000 19.140
44.12000 17.208
44.13000 21.353
44.14000 24.263
44.15000 16.166
44.16000 16.043
44.17000 22.542
44.18000 23.357
44.19000 19.475
44.20000 20.363
44.21000 23.491
44.22000 15.288
44.23000 26.151
44.24000 25.403
44.25000 20.390
44.26000 26.390
44.27000 29.314
44.28000 27.383
44.29000 23.392
44.30000 24.459
44.31000 21.227
44.32000 20.287
44.33000 23.084
44.34000 17.249
44.35000 22.162
44.36000 17.153
44.37000 19.086
44.38000 21.279
44.39000 25.427
44.40000 20.319
44.41000 23.341
44.42000 19.220
44.43000 33.617
44.44000 21.103
44.45000 25.259
44.46000 25.328
44.47000 24.099
44.48000 18.208
44.49000 19.226
44.50000 12.159
44.51000 20.133
44.52000 19.230
44.53000 22.145
44.54000 12.131
44.55000 21.340
44.56000 22.409
44.57000 24.284
44.58000 26.466
44.59000 24.322
44.60000 12.026
44.61000 25.350
44.62000 19.044
44.63000 25.443
44.64000 18.974
44.65000 31.317
44.66000 15.382
44.67000 16.332
44.68000 20.204
44.69000 18.474
44.70000 22.243
44.71000 19.064
44.72000 24.404
44.73000 19.984
44.74000 23.523
44.75000 19.177
44.76000 27.370
44.77000 29.159
44.78000 24.340
44.79000 21.210
44.80000 25.285
44.81000 25.172
44.82000 24.177
44.83000 21.128
44.84000 18.170
44.85000 23.293
44.86000 20.215
44.87000 18.167
44.88000 17.171
44.89000 32.505
44.90000 20.677
44.91000 21.361
44.92000 25.459
44.93000 31.722
44.94000 21.289
44.95000 24.360
44.96000 17.253
44.97000 25.242
44.98000 16.112
44.99000 19.644
45.00000 18.316
45.01000 26.490
45.02000 26.275
45.03000 29.320
45.04000 25.495
45.05000 22.367
45.06000 28.628
45.07000 18.028
45.08000 22.183
45.09000 23.040
45.10000 21.279
45.11000 19.502
45.12000 14.184
45.13000 20.147
45.14000 26.395
45.15000 20.149
45.16000 23.376
45.17000 17.115
45.18000 27.665
45.19000 24.354
45.20000 24.110
45.21000 24.241
45.22000 24.394
45.23000 29.390
45.24000 27.307
45.25000 17.151
45.26000 25.438
45.27000 18.251
45.28000 20.416
45.29000 18.188
45.30000 25.403
45.31000 33.308
45.32000 21.245
45.33000 31.627
45.34000 20.316
45.35000 26.491
45.36000 24.503
45.37000 20.275
45.38000 25.336
45.39000 22.440
45.40000 16.220
45.41000 27.332
45.42000 18.156
45.43000 17.151
45.44000 25.134
45.45000 15.157
45.46000 11.146
45.47000 26.328
45.48000 24.251
45.49000 28.424
45.50000 19.309
45.51000 18.099
45.52000 19.298
45.53000 27.346
45.54000 22.254
45.55000 14.270
45.56000 33.399
45.57000 27.608
45.58000 16.011
45.59000 28.477
45.60000 29.412
45.61000 18.138
45.62000 14.133
45.63000 22.421
45.64000 19.222
45.65000 16.283
45.66000 22.458
45.67000 22.251
45.68000 30.450
45.69000 21.260
45.70000 21.251
45.71000 23.366
45.72000 24.413
45.73000 10.043
45.74000 23.198
45.75000 23.390
45.76000 15.135
45.77000 23.320
45.78000 14.095
45.79000 24.407
45.80000 23.201
45.81000 20.097
45.82000 28.228
45.83000 20.240
45.84000 20.141
45.85000 21.462
45.86000 18.173
45.87000 17.214
45.88000 23.463
45.89000 22.253
45.90000 25.383
45.91000 17.311
45.92000 17.341
45.93000 27.256
45.94000 29.630
45.95000 25.268
45.96000 15.102
45.97000 23.413
45.98000 22.461
45.99000 21.226
46.00000 19.350
46.01000 12.977
46.02000 30.672
46.03000 22.363
46.04000 20.267
46.05000 14.180
46.06000 21.282
46.07000 22.140
46.08000 18.119
46.09000 19.132
46.10000 19.297
46.11000 23.216
46.12000 19.207
46.13000 27.349
46.14000 21.463
46.15000 16.346
46.16000 15.258
46.17000 16.420
46.18000 22.475
46.19000 21.291
46.20000 19.224
46.21000 22.227
46.22000 24.340
46.23000 23.297
46.24000 16.072
46.25000 26.457
46.26000 20.326
46.27000 22.411
46.28000 22.131
46.29000 31.441
46.30000 21.273
46.31000 20.174
46.32000 18.180
46.33000 20.156
46.34000 23.388
46.35000 17.183
46.36000 31.668
46.37000 19.103
46.38000 30.303
46.39000 17.193
46.40000 21.395
46.41000 25.385
46.42000 22.143
46.43000 20.424
46.44000 21.413
46.45000 22.210
46.46000 18.324
46.47000 25.291
46.48000 23.331
46.49000 21.294
46.50000 16.342
46.51000 14.347
46.52000 21.362
46.53000 34.342
46.54000 23.330
46.55000 20.404
46.56000 15.302
46.57000 20.226
46.58000 20.506
46.59000 19.364
46.60000 15.141
46.61000 20.226
46.62000 18.277
46.63000 24.247
46.64000 24.352
46.65000 12.117
46.66000 22.218
46.67000 21.401
46.68000 15.366
46.69000 18.235
46.70000 22.078
46.71000 22.470
46.72000 21.422
46.73000 25.252
46.74000 18.296
46.75000 24.440
46.76000 19.281
46.77000 15.206
46.78000 20.230
46.79000 26.304
46.80000 19.300
46.81000 20.322
46.82000 22.363
46.83000 24.301
46.84000 33.477
46.85000 32.512
46.86000 20.134
46.87000 20.163
46.88000 20.179
46.89000 21.426
46.90000 26.233
46.91000 16.032
46.92000 19.151
46.93000 16.224
46.94000 15.167
46.95000 13.314
46.96000 27.395
46.97000 19.273
46.98000 19.135
46.99000 20.353
47.00000 18.049
47.01000 25.111
47.02000 17.197
47.03000 22.424
47.04000 27.380
47.05000 18.212
47.06000 15.113
47.07000 17.336
47.08000 18.191
47.09000 19.268
47.10000 21.252
47.11000 21.518
47.12000 21.413
47.13000 21.276
47.14000 21.258
47.15000 19.212
47.16000 13.237
47.17000 18.520
47.18000 23.458
47.19000 20.181
47.20000 23.189
47.21000 23.331
47.22000 19.019
47.23000 23.156
47.24000 28.414
47.25000 14.197
47.26000 18.126
47.27000 22.118
47.28000 15.143
47.29000 29.326
47.30000 19.310
47.31000 13.114
47.32000 21.290
47.33000 15.959
47.34000 14.239
47.35000 22.388
47.36000 18.264
47.37000 16.139
47.38000 26.237
47.39000 18.291
47.40000 19.230
47.41000 14.104
47.42000 11.235
47.43000 16.405
47.44000 29.255
47.45000 16.183
47.46000 15.221
47.47000 16.191
47.48000 15.266
47.49000 21.207
47.50000 12.069
47.51000 16.390
47.52000 17.172
47.53000 14.299
47.54000 35.557
47.55000 20.226
47.56000 19.130
47.57000 16.217
47.58000 22.385
47.59000 20.193
47.60000 20.160
47.61000 25.131
47.62000 24.338
47.63000 21.189
47.64000 27.262
47.65000 21.225
47.66000 15.134
47.67000 10.146
47.68000 24.341
47.69000 25.346
47.70000 14.196
47.71000 16.135
47.72000 15.162
47.73000 16.285
47.74000 19.497
47.75000 20.310
47.76000 25.298
47.77000 12.180
47.78000 17.353
47.79000 19.398
47.80000 19.071
47.81000 28.267
47.82000 20.297
47.83000 14.469
47.84000 17.196
47.85000 21.374
47.86000 20.198
47.87000 18.321
47.88000 19.474
47.89000 16.091
47.90000 20.258
47.91000 12.059
47.92000 23.338
47.93000 11.083
47.94000 18.232
47.95000 21.405
47.96000 17.355
47.97000 18.311
47.98000 22.191
47.99000 21.417
48.00000 20.487
48.01000 15.052
48.02000 19.316
48.03000 22.321
48.04000 17.283
48.05000 14.042
48.06000 20.220
48.07000 13.143
48.08000 21.418
48.09000 17.303
48.10000 22.087
48.11000 13.170
48.12000 21.383
48.13000 11.157
48.14000 16.252
48.15000 15.008
48.16000 15.017
48.17000 20.260
48.18000 23.375
48.19000 19.219
48.20000 18.085
48.21000 16.160
48.22000 18.224
48.23000 20.357
48.24000 19.190
48.25000 15.247
48.26000 20.375
48.27000 15.156
48.28000 24.357
48.29000 10.146
48.30000 17.379
48.31000 23.446
48.32000 19.344
48.33000 18.054
48.34000 21.266
48.35000 18.365
48.36000 13.222
48.37000 16.227
48.38000 20.225
48.39000 19.287
48.40000 16.437
48.41000 18.213
48.42000 14.199
48.43000 21.402
48.44000 23.398
48.45000 21.451
48.46000 17.063
48.47000 20.152
48.48000 18.195
48.49000 18.577
48.50000 17.175
48.51000 17.149
48.52000 17.349
48.53000 20.104
48.54000 8.172
48.55000 15.170
48.56000 22.193
48.57000 18.150
48.58000 21.336
48.59000 16.218
48.60000 19.364
48.61000 19.234
48.62000 25.281
48.63000 23.259
48.64000 24.254
48.65000 22.450
48.66000 18.294
48.67000 18.138
48.68000 15.331
48.69000 14.106
48.70000 13.023
48.71000 20.313
48.72000 12.046
48.73000 21.109
48.74000 19.258
48.75000 19.336
48.76000 14.082
48.77000 26.443
48.78000 20.243
48.79000 20.123
48.80000 22.332
48.81000 20.330
48.82000 16.317
48.83000 15.218
48.84000 24.185
48.85000 26.111
48.86000 16.044
48.87000 13.095
48.88000 13.205
48.89000 23.319
48.90000 11.014
48.91000 21.425
48.92000 14.277
48.93000 14.272
48.94000 14.206
48.95000 15.225
48.96000 21.309
48.97000 14.043
48.98000 9.089
48.99000 27.452
49.00000 23.446
49.01000 16.241
49.02000 11.147
49.03000 22.305
49.04000 26.286
49.05000 22.285
49.06000 16.083
49.07000 13.187
49.08000 20.187
49.09000 24.374
49.10000 14.108
49.11000 10.075
49.12000 14.057
49.13000 20.199
49.14000 18.178
49.15000 19.329
49.16000 17.333
49.17000 20.281
49.18000 23.173
49.19000 15.256
49.20000 23.397
49.21000 16.203
49.22000 17.233
49.23000 20.167
49.24000 20.204
49.25000 22.099
49.26000 17.268
49.27000 20.303
49.28000 20.417
49.29000 17.191
49.30000 12.014
49.31000 16.154
49.32000 22.171
49.33000 15.101
49.34000 16.362
49.35000 18.126
49.36000 22.200
49.37000 23.159
49.38000 19.948
49.39000 12.078
49.40000 23.258
49.41000 17.248
49.42000 11.016
49.43000 23.276
49.44000 21.162
49.45000 12.285
49.46000 16.400
49.47000 18.244
49.48000 19.161
49.49000 18.428
49.50000 13.135
49.51000 13.198
49.52000 22.240
49.53000 21.128
49.54000 15.348
49.55000 11.211
49.56000 26.273
49.57000 18.170
49.58000 17.366
49.59000 21.367
49.60000 17.247
49.61000 15.359
49.62000 17.260
49.63000 16.284
49.64000 15.303
49.65000 18.395
49.66000 12.143
49.67000 9.116
49.68000 14.214
49.69000 18.120
49.70000 16.298
49.71000 18.216
49.72000 21.410
49.73000 12.006
49.74000 19.276
49.75000 16.176
49.76000 20.253
49.77000 13.178
49.78000 16.244
49.79000 18.236
49.80000 21.158
49.81000 20.351
49.82000 12.112
49.83000 14.123
49.84000 19.253
49.85000 12.100
49.86000 28.353
49.87000 19.386
49.88000 17.145
49.89000 17.159
49.90000 24.297
49.91000 18.201
49.92000 14.268
49.93000 17.123
49.94000 17.326
49.95000 16.183
49.96000 16.262
49.97000 20.315
49.98000 20.200
49.99000 13.115
50.00000 20.158
50.01000 17.297
50.02000 19.295
50.03000 18.158
50.04000 19.196
50.05000 18.195
50.06000 14.267
50.07000 18.080
50.08000 14.126
50.09000 22.033
50.10000 21.385
50.11000 21.369
50.12000 14.161
50.13000 24.301
50.14000 18.218
50.15000 23.612
50.16000 16.005
50.17000 23.279
50.18000 16.125
50.19000 15.119
50.20000 17.423
50.21000 25.474
50.22000 23.447
50.23000 16.167
50.24000 19.314
50.25000 19.249
50.26000 9.112
50.27000 14.135
50.28000 19.400
50.29000 17.133
50.30000 18.320
50.31000 15.109
50.32000 10.088
50.33000 14.155
50.34000 22.439
50.35000 15.243
50.36000 14.371
50.37000 20.425
50.38000 14.136
50.39000 20.353
50.40000 21.302
50.41000 16.259
50.42000 21.260
50.43000 21.204
50.44000 17.214
50.45000 20.268
50.46000 19.295
50.47000 18.252
50.48000 9.088
50.49000 24.577
50.50000 19.202
50.51000 15.268
50.52000 19.089
50.53000 17.224
50.54000 16.242
50.55000 22.368
50.56000 23.544
50.57000 19.173
50.58000 24.339
50.59000 17.221
50.60000 18.187
50.61000 19.478
50.62000 22.224
50.63000 17.072
50.64000 25.258
50.65000 16.127
50.66000 12.991
50.67000 19.170
50.68000 16.232
50.69000 18.279
50.70000 13.161
50.71000 10.230
50.72000 14.019
50.73000 10.027
50.74000 23.435
50.75000 19.222
50.76000 15.245
50.77000 23.417
50.78000 19.316
50.79000 16.205
50.80000 12.039
50.81000 16.385
50.82000 22.368
50.83000 20.418
50.84000 19.318
50.85000 16.393
50.86000 15.147
50.87000 16.230
50.88000 16.137
50.89000 22.278
50.90000 25.280
50.91000 13.202
50.92000 15.069
50.93000 21.172
50.94000 15.234
50.95000 25.111
50.96000 14.054
50.97000 12.318
50.98000 16.148
50.99000 11.168
51.00000 13.069
51.01000 13.169
51.02000 16.162
51.03000 17.084
51.04000 12.161
51.05000 15.988
51.06000 16.181
51.07000 17.192
51.08000 18.152
51.09000 19.243
51.10000 20.181
51.11000 13.164
51.12000 18.269
51.13000 13.200
51.14000 12.195
51.15000 22.281
51.16000 18.219
51.17000 17.377
51.18000 20.130
51.19000 11.164
51.20000 24.279
51.21000 20.339
51.22000 18.434
51.23000 16.027
51.24000 14.185
51.25000 15.423
51.26000 17.011
51.27000 14.179
51.28000 16.181
51.29000 13.035
51.30000 16.141
51.31000 17.344
51.32000 15.185
51.33000 18.260
51.34000 12.123
51.35000 18.192
51.36000 19.423
51.37000 10.082
51.38000 19.428
51.39000 14.269
51.40000 10.143
51.41000 19.055
51.42000 8.263
51.43000 9.178
51.44000 19.099
51.45000 21.332
51.46000 21.230
51.47000 10.232
51.48000 17.096
51.49000 16.346
51.50000 17.204
51.51000 16.049
51.52000 17.386
51.53000 14.061
51.54000 19.241
51.55000 19.245
51.56000 10.167
51.57000 19.397
51.58000 12.051
51.59000 15.278
51.60000 17.123
51.61000 14.244
51.62000 12.189
51.63000 14.302
51.64000 19.094
51.65000 15.236
51.66000 18.164
51.67000 12.114
51.68000 10.020
51.69000 17.245
51.70000 15.010
51.71000 15.384
51.72000 19.335
51.73000 21.235
51.74000 15.141
51.75000 18.445
51.76000 16.336
51.77000 22.367
51.78000 10.286
51.79000 10.080
51.80000 12.213
51.81000 15.171
51.82000 11.094
51.83000 18.238
51.84000 19.308
51.85000 16.255
51.86000 15.222
51.87000 19.070
51.88000 15.335
51.89000 18.154
51.90000 15.180
51.91000 23.259
51.92000 12.074
51.93000 13.104
51.94000 8.056
51.95000 12.196
51.96000 14.206
51.97000 9.076
51.98000 17.228
51.99000 9.044
52.00000 22.017
52.01000 11.285
52.02000 20.188
52.03000 13.190
52.04000 11.248
52.05000 10.177
52.06000 18.356
52.07000 9.186
52.08000 20.496
52.09000 8.108
52.10000 14.165
52.11000 20.134
52.12000 11.062
52.13000 15.079
52.14000 21.095
52.15000 12.219
52.16000 15.465
52.17000 18.354
52.18000 19.177
52.19000 19.141
52.20000 17.166
52.21000 20.187
52.22000 15.061
52.23000 15.133
52.24000 31.558
52.25000 15.964
52.26000 15.191
52.27000 13.166
52.28000 17.118
52.29000 14.169
52.30000 15.083
52.31000 8.010
52.32000 8.991
52.33000 16.276
52.34000 15.266
52.35000 20.163
52.36000 23.440
52.37000 23.325
52.38000 12.125
52.39000 18.167
52.40000 16.211
52.41000 14.102
52.42000 15.295
52.43000 11.210
52.44000 15.218
52.45000 12.175
52.46000 19.300
52.47000 19.125
52.48000 13.173
52.49000 19.146
52.50000 21.323
52.51000 15.221
52.52000 12.040
52.53000 15.225
52.54000 20.365
52.55000 15.352
52.56000 12.133
52.57000 14.311
52.58000 19.337
52.59000 12.196
52.60000 22.298
52.61000 17.369
52.62000 18.369
52.63000 10.086
52.64000 13.159
52.65000 18.250
52.66000 16.287
52.67000 20.111
52.68000 11.139
52.69000 20.198
52.70000 19.301
52.71000 18.043
52.72000 17.100
52.73000 16.132
52.74000 9.184
52.75000 15.416
52.76000 13.117
52.77000 13.139
52.78000 14.170
52.79000 23.457
52.80000 23.336
52.81000 12.402
52.82000 11.145
52.83000 23.264
52.84000 18.173
52.85000 14.270
52.86000 14.371
52.87000 23.488
52.88000 15.194
52.89000 19.138
52.90000 12.194
52.91000 13.117
52.92000 11.029
52.93000 25.183
52.94000 19.392
52.95000 12.158
52.96000 7.138
52.97000 11.317
52.98000 13.204
52.99000 13.322
53.00000 12.048
53.01000 15.243
53.02000 12.165
53.03000 16.347
53.04000 6.122
53.05000 21.292
53.06000 12.251
53.07000 11.118
53.08000 16.105
53.09000 16.328
53.10000 19.205
53.11000 18.048
53.12000 17.283
53.13000 13.123
53.14000 15.151
53.15000 14.261
53.16000 13.072
53.17000 15.094
53.18000 10.173
53.19000 13.214
53.20000 17.482
53.21000 17.210
53.22000 18.162
53.23000 9.080
53.24000 10.266
53.25000 10.130
53.26000 19.387
53.27000 9.020
53.28000 18.255
53.29000 11.184
53.30000 23.204
53.31000 12.106
53.32000 11.076
53.33000 13.167
53.34000 15.223
53.35000 16.229
53.36000 9.126
53.37000 17.242
53.38000 12.138
53.39000 16.226
53.40000 13.249
53.41000 10.152
53.42000 17.944
53.43000 11.873
53.44000 19.360
53.45000 21.381
53.46000 9.131
53.47000 15.145
53.48000 22.460
53.49000 13.199
53.50000 9.137
53.51000 13.069
53.52000 13.183
53.53000 15.216
53.54000 6.142
53.55000 17.134
53.56000 12.123
53.57000 15.209
53.58000 8.077
53.59000 16.263
53.60000 10.072
53.61000 15.225
53.62000 16.163
53.63000 11.074
53.64000 16.126
53.65000 11.184
53.66000 20.280
53.67000 11.182
53.68000 20.423
53.69000 12.140
53.70000 17.312
53.71000 13.136
53.72000 17.270
53.73000 19.046
53.74000 12.183
53.75000 15.173
53.76000 15.193
53.77000 12.152
53.78000 19.203
53.79000 11.167
53.80000 7.123
53.81000 11.156
53.82000 17.210
53.83000 15.261
53.84000 10.112
53.85000 19.223
53.86000 14.247
53.87000 16.321
53.88000 12.102
53.89000 14.154
53.90000 18.207
53.91000 15.147
53.92000 14.124
53.93000 11.039
53.94000 6.053
53.95000 16.215
53.96000 11.077
53.97000 16.245
53.98000 12.102
53.99000 20.388
54.00000 15.145
54.01000 13.044
54.02000 13.041
54.03000 20.201
54.04000 14.005
54.05000 11.170
54.06000 16.122
54.07000 14.314
54.08000 14.191
54.09000 11.085
54.10000 14.163
54.11000 13.251
54.12000 16.244
54.13000 21.448
54.14000 14.273
54.15000 20.094
54.16000 10.150
54.17000 16.347
54.18000 9.185
54.19000 15.360
54.20000 16.307
54.21000 14.100
54.22000 20.461
54.23000 17.381
54.24000 12.225
54.25000 15.312
54.26000 12.219
54.27000 19.222
54.28000 13.267
54.29000 5.062
54.30000 14.171
54.31000 11.168
54.32000 12.220
54.33000 11.086
54.34000 17.201
54.35000 14.229
54.36000 18.190
54.37000 8.108
54.38000 12.149
54.39000 14.091
54.40000 13.179
54.41000 10.143
54.42000 19.279
54.43000 6.125
54.44000 15.226
54.45000 21.289
54.46000 20.326
54.47000 15.082
54.48000 17.355
54.49000 13.328
54.50000 13.257
54.51000 10.119
54.52000 15.121
54.53000 17.338
54.54000 19.192
54.55000 17.300
54.56000 16.164
54.57000 19.176
54.58000 15.193
54.59000 18.427
54.60000 14.120
54.61000 14.177
54.62000 22.220
54.63000 17.305
54.64000 12.399
54.65000 12.195
54.66000 12.057
54.67000 17.303
54.68000 14.237
54.69000 12.114
54.70000 13.272
54.71000 16.146
54.72000 10.197
54.73000 9.103
54.74000 16.276
54.75000 16.112
54.76000 4.994
54.77000 16.189
54.78000 9.085
54.79000 17.043
54.80000 15.066
54.81000 18.293
54.82000 13.220
54.83000 11.262
54.84000 10.036
54.85000 16.198
54.86000 16.053
54.87000 8.189
54.88000 12.311
54.89000 15.381
54.90000 12.248
54.91000 8.010
54.92000 18.351
54.93000 17.041
54.94000 12.013
54.95000 12.138
54.96000 11.042
54.97000 14.362
54.98000 10.167
54.99000 17.288
55.00000 13.230
55.01000 14.995
55.02000 14.169
55.03000 12.127
55.04000 11.159
55.05000 8.127
55.06000 9.075
55.07000 17.196
55.08000 16.191
55.09000 18.322
55.10000 11.164
55.11000 11.068
55.12000 13.125
55.13000 14.367
55.14000 16.302
55.15000 12.163
55.16000 12.206
55.17000 13.152
55.18000 11.171
55.19000 15.203
55.20000 10.124
55.21000 14.166
55.22000 13.127
55.23000 14.199
55.24000 15.172
55.25000 14.103
55.26000 15.150
55.27000 16.106
55.28000 11.249
55.29000 13.169
55.30000 15.279
55.31000 11.998
55.32000 19.221
55.33000 10.172
55.34000 15.074
55.35000 15.047
55.36000 16.239
55.37000 20.269
55.38000 15.214
55.39000 18.303
55.40000 15.093
55.41000 15.339
55.42000 10.159
55.43000 11.128
55.44000 15.240
55.45000 17.177
55.46000 24.390
55.47000 13.394
55.48000 14.194
55.49000 7.136
55.50000 12.147
55.51000 17.321
55.52000 9.166
55.53000 25.417
55.54000 17.320
55.55000 10.069
55.56000 11.039
55.57000 16.276
55.58000 7.020
55.59000 8.127
55.60000 15.210
55.61000 14.028
55.62000 16.255
55.63000 14.224
55.64000 13.116
55.65000 20.180
55.66000 12.172
55.67000 6.078
55.68000 13.066
55.69000 11.192
55.70000 7.166
55.71000 7.119
55.72000 15.191
55.73000 13.003
55.74000 12.290
55.75000 11.020
55.76000 13.352
55.77000 12.090
55.78000 8.060
55.79000 14.204
55.80000 12.114
55.81000 13.188
55.82000 15.067
55.83000 12.187
55.84000 13.185
55.85000 14.180
55.86000 7.979
55.87000 13.208
55.88000 11.087
55.89000 13.167
55.90000 8.128
55.91000 18.042
55.92000 16.200
55.93000 9.116
55.94000 8.128
55.95000 11.106
55.96000 11.136
55.97000 12.180
55.98000 13.203
55.99000 21.255
56.00000 10.087
56.01000 14.242
56.02000 10.065
56.03000 7.046
56.04000 15.234
56.05000 11.134
56.06000 14.076
56.07000 13.097
56.08000 13.129
56.09000 12.015
56.10000 8.094
56.11000 9.149
56.12000 10.039
56.13000 11.094
56.14000 10.056
56.15000 17.329
56.16000 7.062
56.17000 9.998
56.18000 11.153
56.19000 8.039
56.20000 7.084
56.21000 13.185
56.22000 16.172
56.23000 11.272
56.24000 16.314
56.25000 11.138
56.26000 11.204
56.27000 15.169
56.28000 10.115
56.29000 8.063
56.30000 15.289
56.31000 9.056
56.32000 10.234
56.33000 13.970
56.34000 11.117
56.35000 14.175
56.36000 8.126
56.37000 10.157
56.38000 16.174
56.39000 15.268
56.40000 16.080
56.41000 13.161
56.42000 13.184
56.43000 5.076
56.44000 8.146
56.45000 12.139
56.46000 12.099
56.47000 14.120
56.48000 10.195
56.49000 19.131
56.50000 11.065
56.51000 8.180
56.52000 12.050
56.53000 10.158
56.54000 20.230
56.55000 12.057
56.56000 12.118
56.57000 8.069
56.58000 12.029
56.59000 12.233
56.60000 14.270
56.61000 13.196
56.62000 23.079
56.63000 8.114
56.64000 8.156
56.65000 15.356
56.66000 13.216
56.67000 11.162
56.68000 15.147
56.69000 18.380
56.70000 11.191
56.71000 14.151
56.72000 17.145
56.73000 9.116
56.74000 14.171
56.75000 17.130
56.76000 9.102
56.77000 14.228
56.78000 9.127
56.79000 6.033
56.80000 17.301
56.81000 7.010
56.82000 14.370
56.83000 10.181
56.84000 10.090
56.85000 14.135
56.86000 7.068
56.87000 11.231
56.88000 5.099
56.89000 12.191
56.90000 11.137
56.91000 12.146
56.92000 11.113
56.93000 4.027
56.94000 20.277
56.95000 11.090
56.96000 16.084
56.97000 12.034
56.98000 19.304
56.99000 16.312
57.00000 15.291
57.01000 12.238
57.02000 7.077
57.03000 13.155
57.04000 10.219
57.05000 14.111
57.06000 13.097
57.07000 16.236
57.08000 18.119
57.09000 11.293
57.10000 13.156
57.11000 14.150
57.12000 13.178
57.13000 13.160
57.14000 12.109
57.15000 17.114
57.16000 13.169
57.17000 11.042
57.18000 9.193
57.19000 10.029
57.20000 15.209
57.21000 10.131
57.22000 18.231
57.23000 10.107
57.24000 12.124
57.25000 13.090
57.26000 11.010
57.27000 16.113
57.28000 14.329
57.29000 15.146
57.30000 6.163
57.31000 10.231
57.32000 12.150
57.33000 9.016
57.34000 7.037
57.35000 8.163
57.36000 10.105
57.37000 8.141
57.38000 8.149
57.39000 12.134
57.40000 10.034
57.41000 10.151
57.42000 13.031
57.43000 12.126
57.44000 18.362
57.45000 15.156
57.46000 12.243
57.47000 15.193
57.48000 20.241
57.49000 13.227
57.50000 9.101
57.51000 10.111
57.52000 15.075
57.53000 15.184
57.54000 12.020
57.55000 15.235
57.56000 13.247
57.57000 9.100
57.58000 10.201
57.59000 14.081
57.60000 7.932
57.61000 11.016
57.62000 12.131
57.63000 15.319
57.64000 15.140
57.65000 10.158
57.66000 11.203
57.67000 8.068
57.68000 13.248
57.69000 15.900
57.70000 16.320
57.71000 10.102
57.72000 10.069
57.73000 13.168
57.74000 9.277
57.75000 13.037
57.76000 11.286
57.77000 10.229
57.78000 12.148
57.79000 14.192
57.80000 8.208
57.81000 12.182
57.82000 7.113
57.83000 10.087
57.84000 16.166
57.85000 13.053
57.86000 10.195
57.87000 9.180
57.88000 12.074
57.89000 7.109
57.90000 8.259
57.91000 11.102
57.92000 13.216
57.93000 14.193
57.94000 15.133
57.95000 15.170
57.96000 9.115
57.97000 13.065
57.98000 17.221
57.99000 12.146
58.00000 10.116
58.01000 7.931
58.02000 11.134
58.03000 14.083
58.04000 8.073
58.05000 12.200
58.06000 15.218
58.07000 18.224
58.08000 10.038
58.09000 13.066
58.10000 13.180
58.11000 13.038
58.12000 14.325
58.13000 12.363
58.14000 17.145
58.15000 14.142
58.16000 9.148
58.17000 7.138
58.18000 11.244
58.19000 11.120
58.20000 10.061
58.21000 12.075
58.22000 8.102
58.23000 15.133
58.24000 12.362
58.25000 7.997
58.26000 11.275
58.27000 10.089
58.28000 12.117
58.29000 10.302
58.30000 8.087
58.31000 11.270
58.32000 14.056
58.33000 12.235
58.34000 12.255
58.35000 14.060
58.36000 5.111
58.37000 11.103
58.38000 15.072
58.39000 14.120
58.40000 13.096
58.41000 12.084
58.42000 9.150
58.43000 9.046
58.44000 14.284
58.45000 13.101
58.46000 4.008
58.47000 11.197
58.48000 9.045
58.49000 19.207
58.50000 10.344
58.51000 15.013
58.52000 9.103
58.53000 12.189
58.54000 11.276
58.55000 12.070
58.56000 6.059
58.57000 7.063
58.58000 8.120
58.59000 14.222
58.60000 7.112
58.61000 11.210
58.62000 7.997
58.63000 6.119
58.64000 8.095
58.65000 8.963
58.66000 12.160
58.67000 13.347
58.68000 10.120
58.69000 14.129
58.70000 13.022
58.71000 11.098
58.72000 11.050
58.73000 9.029
58.74000 19.116
58.75000 11.092
58.76000 13.220
58.77000 8.244
58.78000 8.050
58.79000 8.106
58.80000 9.107
58.81000 8.115
58.82000 17.390
58.83000 12.089
58.84000 15.350
58.85000 8.090
58.86000 9.048
58.87000 2.094
58.88000 9.010
58.89000 16.151
58.90000 12.160
58.91000 6.063
58.92000 9.154
58.93000 11.142
58.94000 9.078
58.95000 16.263
58.96000 12.042
58.97000 12.142
58.98000 13.220
58.99000 13.263
59.00000 9.026
59.01000 10.110
59.02000 10.122
59.03000 5.022
59.04000 7.996
59.05000 11.122
59.06000 9.127
59.07000 5.985
59.08000 9.227
59.09000 12.178
59.10000 13.339
59.11000 13.242
59.12000 11.273
59.13000 6.066
59.14000 12.040
59.15000 10.078
59.16000 7.093
59.17000 7.107
59.18000 6.198
59.19000 10.190
59.20000 6.121
59.21000 12.165
59.22000 6.138
59.23000 11.119
59.24000 5.043
59.25000 10.096
59.26000 12.132
59.27000 14.163
59.28000 6.083
59.29000 9.066
59.30000 10.154
59.31000 8.206
59.32000 18.263
59.33000 10.995
59.34000 12.235
59.35000 12.109
59.36000 14.164
59.37000 7.096
59.38000 14.062
59.39000 9.138
59.40000 11.153
59.41000 7.966
59.42000 15.164
59.43000 7.109
59.44000 10.126
59.45000 11.074
59.46000 10.202
59.47000 11.072
59.48000 6.128
59.49000 8.129
59.50000 8.238
59.51000 9.170
59.52000 17.254
59.53000 15.342
59.54000 5.983
59.55000 15.140
59.56000 20.206
59.57000 9.105
59.58000 7.134
59.59000 9.110
59.60000 6.030
59.61000 11.086
59.62000 9.114
59.63000 12.129
59.64000 9.065
59.65000 9.990
59.66000 14.135
59.67000 11.278
59.68000 10.145
59.69000 6.083
59.70000 13.104
59.71000 6.042
59.72000 6.136
59.73000 17.126
59.74000 11.109
59.75000 8.999
59.76000 18.214
59.77000 11.028
59.78000 6.001
59.79000 12.144
59.80000 13.224
59.81000 10.077
59.82000 7.211
59.83000 17.238
59.84000 10.216
59.85000 11.166
59.86000 15.189
59.87000 14.196
59.88000 15.056
59.89000 9.134
59.90000 8.137
59.91000 5.046
59.92000 16.143
59.93000 10.120
59.94000 8.008
59.95000 18.176
59.96000 16.331
59.97000 7.088
59.98000 13.137
59.99000 12.256
60.00000 10.089
60.01000 7.117
60.02000 7.075
60.03000 12.148
60.04000 8.111
60.05000 8.112
60.06000 5.010
60.07000 11.033
60.08000 6.082
60.09000 9.138
60.10000 9.138
60.11000 11.118
60.12000 3.042
60.13000 6.093
60.14000 7.038
60.15000 8.083
60.16000 12.069
60.17000 16.118
60.18000 10.189
60.19000 11.049
60.20000 10.196
60.21000 9.076
60.22000 8.104
60.23000 16.017
60.24000 7.084
60.25000 11.067
60.26000 10.044
60.27000 8.169
60.28000 11.069
60.29000 12.082
60.30000 17.219
60.31000 6.997
60.32000 15.277
60.33000 12.321
60.34000 9.264
60.35000 11.072
60.36000 17.071
60.37000 8.197
60.38000 7.062
60.39000 11.418
60.40000 13.236
60.41000 10.148
60.42000 9.177
60.43000 11.238
60.44000 11.186
60.45000 9.157
60.46000 14.151
60.47000 9.012
60.48000 11.035
60.49000 10.111
60.50000 10.186
60.51000 11.196
60.52000 9.123
60.53000 9.191
60.54000 11.248
60.55000 10.198
60.56000 17.397
60.57000 12.165
60.58000 5.962
60.59000 11.147
60.60000 8.136
60.61000 5.975
60.62000 8.306
60.63000 5.023
60.64000 10.229
60.65000 8.169
60.66000 7.107
60.67000 5.056
60.68000 17.289
60.69000 14.959
60.70000 13.971
60.71000 12.161
60.72000 4.009
60.73000 10.317
60.74000 7.000
60.75000 8.187
60.76000 13.210
60.77000 8.146
60.78000 7.993
60.79000 10.210
60.80000 13.127
60.81000 12.293
60.82000 6.956
60.83000 17.302
60.84000 5.065
60.85000 8.049
60.86000 10.187
60.87000 11.961
60.88000 7.094
60.89000 5.145
60.90000 14.174
60.91000 5.029
60.92000 8.099
60.93000 6.992
60.94000 12.141
60.95000 15.178
60.96000 9.132
60.97000 6.054
60.98000 7.053
60.99000 10.131
61.00000 7.068
61.01000 9.094
61.02000 12.008
61.03000 8.161
61.04000 12.224
61.05000 6.170
61.06000 14.186
61.07000 10.206
61.08000 13.084
61.09000 5.096
61.10000 13.367
61.11000 17.177
61.12000 9.209
61.13000 10.174
61.14000 3.020
61.15000 11.148
61.16000 13.136
61.17000 5.031
61.18000 8.125
61.19000 12.253
61.20000 9.123
61.21000 8.039
61.22000 15.105
61.23000 11.143
61.24000 9.162
61.25000 12.235
61.26000 12.082
61.27000 13.387
61.28000 10.071
61.29000 8.043
61.30000 7.045
61.31000 14.100
61.32000 4.071
61.33000 6.030
61.34000 4.087
61.35000 11.225
61.36000 14.145
61.37000 8.066
61.38000 4.006
61.39000 9.017
61.40000 11.192
61.41000 12.119
61.42000 9.998
61.43000 6.095
61.44000 10.104
61.45000 5.120
61.46000 8.002
61.47000 4.158
61.48000 6.037
61.49000 5.046
61.50000 8.124
61.51000 7.095
61.52000 6.160
61.53000 11.311
61.54000 10.279
61.55000 4.977
61.56000 15.336
61.57000 10.119
61.58000 12.167
61.59000 7.086
61.60000 8.189
61.61000 7.123
61.62000 9.097
61.63000 10.187
61.64000 14.196
61.65000 8.187
61.66000 5.120
61.67000 7.221
61.68000 4.082
61.69000 11.023
61.70000 6.096
61.71000 8.043
61.72000 10.232
61.73000 11.302
61.74000 8.171
61.75000 7.076
61.76000 8.162
61.77000 9.144
61.78000 7.986
61.79000 12.118
61.80000 5.244
61.81000 5.029
61.82000 13.092
61.83000 3.041
61.84000 15.088
61.85000 13.096
61.86000 9.142
61.87000 10.072
61.88000 3.990
61.89000 10.135
61.90000 8.041
61.91000 13.042
61.92000 6.106
61.93000 8.094
61.94000 6.053
61.95000 14.168
61.96000 6.982
61.97000 7.981
61.98000 8.024
61.99000 7.027
62.00000 7.067
62.01000 8.006
62.02000 8.094
62.03000 12.092
62.04000 7.012
62.05000 8.089
62.06000 8.136
62.07000 7.097
62.08000 4.991
62.09000 9.073
62.10000 7.086
62.11000 6.165
62.12000 7.072
62.13000 6.113
62.14000 9.107
62.15000 11.937
62.16000 7.070
62.17000 11.186
62.18000 5.050
62.19000 5.990
62.20000 10.199
62.21000 10.079
62.22000 7.033
62.23000 12.261
62.24000 8.030
62.25000 11.163
62.26000 7.004
62.27000 7.076
62.28000 9.053
62.29000 9.201
62.30000 8.059
62.31000 12.280
62.32000 8.114
62.33000 6.075
62.34000 5.968
62.35000 10.086
62.36000 11.078
62.37000 8.123
62.38000 10.100
62.39000 3.015
62.40000 13.198
62.41000 6.983
62.42000 7.184
62.43000 8.088
62.44000 7.142
62.45000 10.170
62.46000 9.084
62.47000 7.037
62.48000 8.079
62.49000 6.032
62.50000 8.075
62.51000 10.098
62.52000 7.070
62.53000 7.070
62.54000 12.035
62.55000 8.198
62.56000 11.105
62.57000 12.311
62.58000 10.130
62.59000 12.020
62.60000 6.142
62.61000 10.147
62.62000 8.027
62.63000 9.044
62.64000 9.149
62.65000 7.065
62.66000 7.066
62.67000 9.065
62.68000 12.048
62.69000 5.047
62.70000 6.096
62.71000 8.094
62.72000 13.097
62.73000 12.031
62.74000 13.220
62.75000 6.194
62.76000 9.978
62.77000 5.062
62.78000 8.057
62.79000 1.980
62.80000 6.110
62.81000 9.111
62.82000 6.218
62.83000 7.086
62.84000 8.102
62.85000 5.012
62.86000 9.108
62.87000 8.096
62.88000 8.074
62.89000 10.201
62.90000 9.080
62.91000 6.052
62.92000 6.052
62.93000 8.112
62.94000 7.055
62.95000 4.141
62.96000 12.168
62.97000 8.162
62.98000 8.147
62.99000 11.217
63.00000 12.059
63.01000 9.097
63.02000 12.264
63.03000 8.064
63.04000 13.156
63.05000 8.058
63.06000 9.146
63.07000 10.121
63.08000 12.204
63.09000 12.188
63.10000 9.253
63.11000 13.168
63.12000 10.133
63.13000 11.133
63.14000 12.195
63.15000 6.064
63.16000 11.232
63.17000 7.061
63.18000 7.066
63.19000 8.093
63.20000 4.117
63.21000 5.102
63.22000 10.036
63.23000 5.146
63.24000 6.124
63.25000 12.229
63.26000 12.206
63.27000 3.010
63.28000 9.254
63.29000 9.041
63.30000 10.025
63.31000 11.116
63.32000 10.161
63.33000 7.111
63.34000 8.164
63.35000 14.060
63.36000 12.382
63.37000 3.989
63.38000 11.099
63.39000 16.431
63.40000 9.138
63.41000 7.161
63.42000 7.140
63.43000 7.072
63.44000 14.115
63.45000 7.121
63.46000 6.071
63.47000 4.051
63.48000 9.082
63.49000 9.156
63.50000 8.275
63.51000 7.035
63.52000 11.180
63.53000 10.227
63.54000 7.059
63.55000 6.975
63.56000 12.228
63.57000 4.057
63.58000 5.028
63.59000 13.260
63.60000 6.016
63.61000 6.061
63.62000 12.104
63.63000 10.980
63.64000 13.094
63.65000 7.264
63.66000 6.062
63.67000 12.183
63.68000 3.084
63.69000 6.120
63.70000 1.983
63.71000 8.205
63.72000 9.221
63.73000 3.039
63.74000 6.001
63.75000 6.048
63.76000 7.101
63.77000 7.028
63.78000 8.142
63.79000 10.085
63.80000 5.077
63.81000 2.059
63.82000 4.043
63.83000 9.065
63.84000 8.114
63.85000 9.072
63.86000 16.348
63.87000 8.024
63.88000 10.117
63.89000 5.000
63.90000 5.081
63.91000 6.006
63.92000 10.051
63.93000 4.170
63.94000 3.947
63.95000 1.070
63.96000 7.086
63.97000 2.048
63.98000 12.150
63.99000 11.078
64.00000 6.018
64.01000 8.087
64.02000 10.116
64.03000 13.131
64.04000 7.057
64.05000 11.052
64.06000 7.297
64.07000 10.174
64.08000 5.089
64.09000 10.156
64.10000 7.994
64.11000 9.318
64.12000 10.088
64.13000 6.173
64.14000 6.083
64.15000 3.073
64.16000 9.088
64.17000 4.016
64.18000 9.090
64.19000 6.097
64.20000 6.103
64.21000 3.994
64.22000 8.127
64.23000 15.157
64.24000 6.028
64.25000 8.046
64.26000 13.106
64.27000 3.082
64.28000 6.141
64.29000 6.038
64.30000 5.036
64.31000 2.975
64.32000 9.136
64.33000 10.020
64.34000 8.995
64.35000 7.267
64.36000 6.080
64.37000 6.998
64.38000 9.081
64.39000 13.173
64.40000 9.236
64.41000 10.110
64.42000 14.193
64.43000 6.180
64.44000 11.179
64.45000 4.143
64.46000 6.100
64.47000 8.185
64.48000 7.981
64.49000 8.102
64.50000 9.209
64.51000 9.152
64.52000 5.092
64.53000 8.076
64.54000 6.050
64.55000 7.076
64.56000 6.152
64.57000 5.959
64.58000 10.940
64.59000 9.067
64.60000 6.103
64.61000 9.168
64.62000 4.051
64.63000 5.975
64.64000 9.124
64.65000 13.204
64.66000 5.027
64.67000 6.125
64.68000 7.064
64.69000 7.085
64.70000 7.055
64.71000 11.088
64.72000 4.010
64.73000 5.145
64.74000 7.145
64.75000 6.056
64.76000 5.086
64.77000 11.160
64.78000 6.057
64.79000 7.088
64.80000 5.046
64.81000 10.086
64.82000 9.047
64.83000 5.087
64.84000 10.235
64.85000 7.094
64.86000 8.180
64.87000 4.175
64.88000 4.008
64.89000 9.081
64.90000 14.156
64.91000 9.183
64.92000 6.149
64.93000 5.035
64.94000 7.150
64.95000 13.132
64.96000 3.030
64.97000 12.117
64.98000 11.281
64.99000 7.086
65.00000 9.129
