20.00000 18.316
20.01000 16.135
20.02000 26.614
20.03000 17.173
20.04000 30.468
20.05000 15.105
20.06000 33.277
20.07000 18.267
20.08000 24.194
20.09000 19.290
20.10000 14.294
20.11000 16.245
20.12000 31.312
20.13000 23.277
20.14000 9.079
20.15000 15.175
20.16000 22.365
20.17000 19.302
20.18000 16.057
20.19000 21.425
20.20000 20.368
20.21000 24.290
20.22000 14.334
20.23000 17.356
20.24000 13.259
20.25000 30.534
20.26000 19.243
20.27000 11.157
20.28000 19.150
20.29000 19.211
20.30000 21.408
20.31000 21.385
20.32000 19.293
20.33000 21.317
20.34000 14.174
20.35000 20.221
20.36000 23.279
20.37000 20.116
20.38000 18.389
20.39000 17.152
20.40000 20.219
20.41000 20.306
20.42000 18.254
20.43000 23.508
20.44000 25.425
20.45000 23.351
20.46000 16.071
20.47000 23.256
20.48000 14.241
20.49000 15.427
20.50000 18.141
20.51000 9.105
20.52000 22.951
20.53000 20.100
20.54000 25.367
20.55000 19.188
20.56000 19.353
20.57000 23.584
20.58000 24.259
20.59000 26.373
20.60000 24.170
20.61000 15.189
20.62000 19.498
20.63000 19.369
20.64000 20.262
20.65000 19.446
20.66000 15.283
20.67000 17.227
20.68000 25.365
20.69000 21.308
20.70000 25.266
20.71000 25.363
20.72000 27.491
20.73000 21.181
20.74000 22.317
20.75000 20.178
20.76000 12.115
20.77000 13.153
20.78000 22.225
20.79000 29.531
20.80000 11.059
20.81000 14.242
20.82000 16.141
20.83000 16.490
20.84000 15.191
20.85000 20.262
20.86000 20.267
20.87000 13.345
20.88000 27.359
20.89000 17.131
20.90000 18.200
20.91000 20.074
20.92000 20.271
20.93000 23.312
20.94000 14.191
20.95000 22.145
20.96000 21.272
20.97000 17.089
20.98000 17.184
20.99000 21.414
21.00000 12.074
21.01000 18.270
21.02000 15.136
21.03000 23.283
21.04000 16.256
21.05000 22.307
21.06000 19.402
21.07000 14.278
21.08000 15.273
21.09000 32.619
21.10000 15.190
21.11000 17.211
21.12000 12.142
21.13000 11.130
21.14000 22.312
21.15000 20.270
21.16000 16.217
21.17000 15.293
21.18000 20.311
21.19000 12.189
21.20000 12.208
21.21000 14.112
21.22000 23.462
21.23000 22.483
21.24000 24.216
21.25000 17.300
21.26000 24.401
21.27000 19.345
21.28000 13.268
21.29000 21.402
21.30000 13.209
21.31000 18.152
21.32000 18.217
21.33000 10.096
21.34000 17.218
21.35000 22.334
21.36000 24.603
21.37000 22.398
21.38000 22.112
21.39000 25.192
21.40000 19.300
21.41000 17.263
21.42000 16.309
21.43000 15.153
21.44000 17.199
21.45000 16.259
21.46000 15.045
21.47000 17.209
21.48000 18.164
21.49000 23.566
21.50000 18.225
21.51000 19.336
21.52000 20.262
21.53000 20.226
21.54000 16.197
21.55000 16.108
21.56000 15.198
21.57000 12.156
21.58000 19.232
21.59000 16.257
21.60000 20.174
21.61000 13.100
21.62000 21.474
21.63000 13.186
21.64000 24.592
21.65000 20.410
21.66000 22.502
21.67000 15.335
21.68000 15.162
21.69000 16.956
21.70000 17.140
21.71000 22.299
21.72000 18.305
21.73000 15.257
21.74000 14.174
21.75000 15.166
21.76000 27.286
21.77000 14.077
21.78000 19.174
21.79000 18.122
21.80000 29.364
21.81000 24.311
21.82000 24.318
21.83000 19.271
21.84000 16.294
21.85000 19.191
21.86000 13.101
21.87000 18.180
21.88000 23.443
21.89000 21.305
21.90000 26.366
21.91000 23.524
21.92000 19.160
21.93000 18.332
21.94000 21.420
21.95000 24.227
21.96000 15.475
21.97000 25.294
21.98000 18.433
21.99000 12.147
22.00000 17.403
22.01000 20.364
22.02000 18.415
22.03000 17.325
22.04000 21.334
22.05000 25.318
22.06000 24.344
22.07000 23.242
22.08000 18.013
22.09000 17.120
22.10000 21.282
22.11000 12.097
22.12000 17.372
22.13000 14.298
22.14000 14.154
22.15000 16.287
22.16000 19.338
22.17000 13.210
22.18000 16.399
22.19000 15.283
22.20000 19.434
22.21000 17.447
22.22000 13.060
22.23000 16.151
22.24000 20.455
22.25000 18.226
22.26000 25.523
22.27000 25.372
22.28000 14.180
22.29000 18.193
22.30000 10.185
22.31000 18.297
22.32000 22.372
22.33000 17.118
22.34000 16.216
22.35000 15.227
22.36000 17.422
22.37000 16.218
22.38000 17.329
22.39000 17.339
22.40000 26.247
22.41000 21.309
22.42000 12.137
22.43000 22.158
22.44000 17.113
22.45000 15.214
22.46000 22.407
22.47000 19.274
22.48000 13.320
22.49000 16.126
22.50000 20.184
22.51000 19.131
22.52000 20.214
22.53000 12.236
22.54000 12.284
22.55000 15.252
22.56000 22.396
22.57000 17.185
22.58000 13.132
22.59000 11.152
22.60000 22.267
22.61000 11.190
22.62000 16.210
22.63000 17.156
22.64000 16.192
22.65000 16.344
22.66000 14.084
22.67000 17.328
22.68000 13.202
22.69000 21.274
22.70000 12.045
22.71000 13.054
22.72000 15.212
22.73000 13.258
22.74000 18.212
22.75000 19.215
22.76000 10.197
22.77000 13.132
22.78000 12.133
22.79000 17.252
22.80000 17.133
22.81000 15.146
22.82000 23.294
22.83000 22.298
22.84000 15.109
22.85000 17.315
22.86000 23.216
22.87000 21.194
22.88000 9.068
22.89000 26.302
22.90000 9.199
22.91000 17.327
22.92000 9.102
22.93000 14.091
22.94000 21.432
22.95000 15.159
22.96000 21.407
22.97000 16.194
22.98000 19.171
22.99000 13.199
23.00000 23.312
23.01000 13.136
23.02000 17.392
23.03000 22.218
23.04000 12.138
23.05000 17.249
23.06000 15.160
23.07000 19.164
23.08000 11.187
23.09000 18.479
23.10000 13.182
23.11000 21.256
23.12000 14.173
23.13000 13.109
23.14000 19.275
23.15000 11.166
23.16000 13.162
23.17000 14.303
23.18000 14.164
23.19000 13.243
23.20000 13.260
23.21000 19.105
23.22000 19.011
23.23000 12.023
23.24000 20.383
23.25000 20.107
23.26000 11.214
23.27000 21.248
23.28000 14.096
23.29000 16.338
23.30000 13.160
23.31000 16.269
23.32000 13.086
23.33000 7.106
23.34000 13.244
23.35000 16.193
23.36000 14.120
23.37000 17.961
23.38000 12.178
23.39000 19.314
23.40000 16.137
23.41000 21.358
23.42000 19.316
23.43000 16.424
23.44000 25.427
23.45000 19.177
23.46000 18.455
23.47000 15.221
23.48000 17.242
23.49000 20.127
23.50000 27.252
23.51000 17.985
23.52000 11.252
23.53000 9.242
23.54000 12.251
23.55000 13.155
23.56000 12.094
23.57000 18.336
23.58000 13.201
23.59000 13.159
23.60000 14.339
23.61000 17.084
23.62000 22.152
23.63000 11.194
23.64000 17.233
23.65000 20.373
23.66000 18.232
23.67000 12.108
23.68000 20.485
23.69000 7.010
23.70000 14.027
23.71000 18.268
23.72000 19.122
23.73000 11.223
23.74000 17.206
23.75000 19.278
23.76000 17.232
23.77000 17.274
23.78000 15.099
23.79000 14.241
23.80000 10.134
23.81000 19.310
23.82000 18.223
23.83000 15.234
23.84000 10.229
23.85000 6.112
23.86000 20.284
23.87000 16.225
23.88000 24.331
23.89000 20.172
23.90000 18.191
23.91000 20.014
23.92000 17.141
23.93000 12.141
23.94000 7.097
23.95000 22.408
23.96000 19.316
23.97000 11.160
23.98000 9.010
23.99000 13.070
24.00000 21.181
24.01000 16.146
24.02000 11.209
24.03000 11.238
24.04000 13.153
24.05000 13.061
24.06000 15.306
24.07000 8.079
24.08000 13.114
24.09000 13.132
24.10000 13.120
24.11000 13.081
24.12000 19.318
24.13000 10.126
24.14000 17.142
24.15000 17.355
24.16000 10.072
24.17000 12.079
24.18000 12.020
24.19000 14.197
24.20000 11.100
24.21000 13.259
24.22000 14.189
24.23000 7.059
24.24000 16.362
24.25000 11.208
24.26000 10.165
24.27000 12.125
24.28000 13.120
24.29000 17.336
24.30000 21.304
24.31000 23.188
24.32000 12.250
24.33000 18.318
24.34000 16.298
24.35000 15.407
24.36000 9.052
24.37000 12.059
24.38000 17.390
24.39000 13.249
24.40000 11.131
24.41000 14.125
24.42000 14.073
24.43000 14.159
24.44000 21.106
24.45000 12.177
24.46000 17.402
24.47000 13.039
24.48000 15.201
24.49000 10.298
24.50000 17.075
24.51000 20.267
24.52000 13.161
24.53000 15.287
24.54000 10.123
24.55000 14.132
24.56000 12.040
24.57000 12.136
24.58000 11.110
24.59000 9.190
24.60000 8.068
24.61000 16.265
24.62000 9.158
24.63000 13.306
24.64000 10.126
24.65000 9.099
24.66000 17.348
24.67000 12.251
24.68000 13.030
24.69000 12.171
24.70000 10.044
24.71000 15.273
24.72000 17.351
24.73000 15.119
24.74000 10.195
24.75000 15.343
24.76000 22.248
24.77000 11.038
24.78000 15.189
24.79000 13.006
24.80000 15.214
24.81000 12.025
24.82000 14.398
24.83000 11.231
24.84000 15.158
24.85000 17.202
24.86000 14.436
24.87000 16.223
24.88000 13.133
24.89000 15.113
24.90000 15.101
24.91000 13.228
24.92000 10.198
24.93000 14.244
24.94000 12.092
24.95000 19.220
24.96000 11.999
24.97000 10.124
24.98000 8.100
24.99000 18.193
25.00000 8.120
25.01000 15.188
25.02000 14.074
25.03000 11.220
25.04000 15.312
25.05000 13.210
25.06000 8.147
25.07000 11.258
25.08000 7.227
25.09000 14.229
25.10000 10.214
25.11000 8.096
25.12000 9.124
25.13000 15.255
25.14000 13.281
25.15000 15.275
25.16000 10.066
25.17000 13.102
25.18000 13.080
25.19000 10.317
25.20000 10.056
25.21000 11.079
25.22000 15.227
25.23000 10.183
25.24000 8.099
25.25000 12.265
25.26000 7.027
25.27000 12.152
25.28000 13.171
25.29000 18.279
25.30000 17.254
25.31000 11.260
25.32000 18.368
25.33000 12.212
25.34000 10.182
25.35000 10.113
25.36000 17.345
25.37000 14.173
25.38000 13.151
25.39000 8.114
25.40000 18.367
25.41000 14.279
25.42000 15.079
25.43000 15.230
25.44000 15.063
25.45000 15.162
25.46000 19.253
25.47000 14.207
25.48000 17.268
25.49000 13.268
25.50000 13.154
25.51000 13.161
25.52000 17.302
25.53000 15.183
25.54000 9.187
25.55000 11.155
25.56000 12.133
25.57000 6.079
25.58000 16.111
25.59000 15.195
25.60000 13.176
25.61000 12.090
25.62000 6.018
25.63000 15.222
25.64000 11.244
25.65000 11.134
25.66000 14.262
25.67000 14.107
25.68000 14.081
25.69000 16.258
25.70000 10.216
25.71000 10.136
25.72000 17.371
25.73000 18.457
25.74000 16.150
25.75000 10.113
25.76000 11.048
25.77000 7.085
25.78000 16.198
25.79000 13.134
25.80000 7.040
25.81000 12.082
25.82000 14.373
25.83000 14.343
25.84000 17.313
25.85000 12.177
25.86000 14.271
25.87000 11.318
25.88000 14.259
25.89000 10.222
25.90000 10.057
25.91000 11.217
25.92000 14.085
25.93000 7.176
25.94000 7.106
25.95000 7.049
25.96000 10.085
25.97000 8.234
25.98000 11.078
25.99000 11.084
26.00000 13.093
26.01000 15.263
26.02000 13.146
26.03000 4.075
26.04000 14.189
26.05000 15.229
26.06000 16.200
26.07000 8.163
26.08000 8.052
26.09000 13.163
26.10000 14.303
26.11000 18.368
26.12000 10.123
26.13000 13.231
26.14000 9.080
26.15000 15.300
26.16000 13.144
26.17000 9.050
26.18000 10.152
26.19000 17.226
26.20000 9.177
26.21000 18.303
26.22000 13.198
26.23000 16.242
26.24000 11.091
26.25000 11.064
26.26000 10.172
26.27000 13.313
26.28000 13.094
26.29000 11.104
26.30000 14.197
26.31000 10.146
26.32000 16.186
26.33000 8.136
26.34000 8.127
26.35000 12.180
26.36000 3.998
26.37000 17.142
26.38000 11.145
26.39000 15.180
26.40000 12.183
26.41000 8.147
26.42000 11.149
26.43000 9.088
26.44000 11.125
26.45000 7.050
26.46000 10.184
26.47000 14.232
26.48000 15.170
26.49000 10.230
26.50000 14.172
26.51000 10.136
26.52000 14.122
26.53000 4.992
26.54000 13.158
26.55000 14.064
26.56000 11.154
26.57000 13.129
26.58000 11.121
26.59000 12.190
26.60000 18.463
26.61000 13.166
26.62000 11.097
26.63000 6.183
26.64000 13.181
26.65000 12.123
26.66000 14.202
26.67000 7.107
26.68000 12.209
26.69000 5.102
26.70000 13.241
26.71000 15.116
26.72000 9.059
26.73000 12.173
26.74000 7.042
26.75000 7.180
26.76000 17.197
26.77000 16.193
26.78000 13.290
26.79000 14.087
26.80000 9.006
26.81000 14.343
26.82000 9.147
26.83000 8.055
26.84000 11.108
26.85000 10.108
26.86000 12.117
26.87000 13.190
26.88000 9.155
26.89000 20.372
26.90000 12.270
26.91000 7.157
26.92000 12.150
26.93000 12.204
26.94000 8.175
26.95000 8.123
26.96000 10.137
26.97000 13.195
26.98000 10.129
26.99000 4.989
27.00000 10.288
27.01000 9.024
27.02000 13.084
27.03000 7.065
27.04000 14.161
27.05000 11.171
27.06000 11.110
27.07000 4.074
27.08000 12.238
27.09000 11.201
27.10000 7.057
27.11000 8.152
27.12000 10.234
27.13000 7.147
27.14000 12.368
27.15000 8.088
27.16000 13.068
27.17000 12.229
27.18000 8.067
27.19000 17.109
27.20000 11.194
27.21000 11.205
27.22000 12.158
27.23000 17.173
27.24000 9.109
27.25000 14.191
27.26000 17.102
27.27000 10.099
27.28000 20.255
27.29000 6.052
27.30000 11.121
27.31000 11.049
27.32000 9.093
27.33000 18.302
27.34000 16.254
27.35000 15.239
27.36000 11.203
27.37000 5.997
27.38000 10.183
27.39000 15.110
27.40000 10.109
27.41000 17.074
27.42000 12.173
27.43000 9.142
27.44000 7.194
27.45000 8.032
27.46000 12.302
27.47000 11.131
27.48000 16.180
27.49000 6.050
27.50000 12.144
27.51000 12.178
27.52000 7.057
27.53000 10.104
27.54000 8.115
27.55000 10.105
27.56000 11.222
27.57000 6.086
27.58000 9.223
27.59000 12.149
27.60000 11.073
27.61000 15.252
27.62000 17.242
27.63000 9.117
27.64000 10.127
27.65000 13.138
27.66000 9.064
27.67000 7.043
27.68000 8.207
27.69000 11.238
27.70000 7.142
27.71000 14.342
27.72000 11.130
27.73000 10.161
27.74000 12.173
27.75000 16.390
27.76000 16.345
27.77000 11.142
27.78000 10.110
27.79000 11.058
27.80000 9.195
27.81000 9.192
27.82000 11.179
27.83000 11.209
27.84000 8.086
27.85000 11.136
27.86000 20.420
27.87000 14.176
27.88000 8.161
27.89000 5.040
27.90000 12.197
27.91000 9.021
27.92000 11.245
27.93000 11.187
27.94000 7.162
27.95000 21.314
27.96000 7.951
27.97000 7.053
27.98000 8.997
27.99000 9.031
28.00000 6.078
28.01000 11.180
28.02000 11.148
28.03000 15.064
28.04000 5.039
28.05000 13.069
28.06000 9.070
28.07000 8.123
28.08000 10.990
28.09000 9.043
28.10000 15.270
28.11000 10.288
28.12000 11.183
28.13000 8.177
28.14000 9.142
28.15000 15.210
28.16000 16.116
28.17000 10.155
28.18000 4.095
28.19000 9.107
28.20000 8.247
28.21000 13.132
28.22000 10.127
28.23000 7.086
28.24000 14.319
28.25000 10.214
28.26000 6.031
28.27000 12.252
28.28000 12.125
28.29000 9.152
28.30000 6.153
28.31000 18.118
28.32000 12.193
28.33000 9.100
28.34000 9.185
28.35000 11.163
28.36000 6.020
28.37000 9.180
28.38000 7.060
28.39000 8.032
28.40000 8.231
28.41000 7.183
28.42000 9.137
28.43000 13.242
28.44000 12.258
28.45000 7.023
28.46000 5.096
28.47000 6.041
28.48000 7.134
28.49000 11.176
28.50000 10.230
28.51000 7.990
28.52000 4.020
28.53000 6.104
28.54000 8.051
28.55000 11.076
28.56000 9.109
28.57000 13.198
28.58000 14.031
28.59000 9.097
28.60000 6.090
28.61000 11.257
28.62000 11.141
28.63000 12.196
28.64000 4.975
28.65000 10.241
28.66000 8.174
28.67000 11.939
28.68000 15.242
28.69000 12.225
28.70000 6.125
28.71000 3.980
28.72000 10.073
28.73000 13.218
28.74000 5.065
28.75000 11.158
28.76000 7.207
28.77000 8.070
28.78000 9.114
28.79000 9.139
28.80000 11.079
28.81000 9.017
28.82000 7.116
28.83000 12.099
28.84000 8.176
28.85000 10.180
28.86000 11.141
28.87000 9.141
28.88000 9.056
28.89000 9.225
28.90000 11.195
28.91000 7.137
28.92000 10.146
28.93000 10.173
28.94000 7.165
28.95000 8.023
28.96000 8.168
28.97000 12.218
28.98000 5.112
28.99000 6.250
29.00000 5.007
29.01000 8.128
29.02000 6.227
29.03000 7.119
29.04000 9.161
29.05000 7.092
29.06000 14.430
29.07000 7.149
29.08000 13.098
29.09000 7.103
29.10000 7.001
29.11000 4.069
29.12000 11.163
29.13000 5.064
29.14000 4.085
29.15000 14.399
29.16000 8.112
29.17000 5.111
29.18000 14.222
29.19000 5.077
29.20000 10.143
29.21000 13.084
29.22000 6.028
29.23000 9.095
29.24000 7.126
29.25000 4.007
29.26000 12.046
29.27000 5.206
29.28000 19.090
29.29000 4.008
29.30000 12.105
29.31000 9.131
29.32000 8.036
29.33000 9.065
29.34000 0.983
29.35000 8.172
29.36000 7.964
29.37000 10.129
29.38000 9.027
29.39000 10.111
29.40000 10.149
29.41000 15.096
29.42000 11.180
29.43000 9.080
29.44000 6.047
29.45000 8.141
29.46000 12.149
29.47000 11.196
29.48000 7.140
29.49000 15.178
29.50000 9.165
29.51000 13.077
29.52000 3.026
29.53000 8.062
29.54000 9.131
29.55000 12.027
29.56000 8.045
29.57000 8.133
29.58000 10.174
29.59000 12.256
29.60000 7.094
29.61000 16.319
29.62000 6.118
29.63000 10.076
29.64000 9.103
29.65000 7.158
29.66000 12.177
29.67000 7.117
29.68000 7.120
29.69000 7.011
29.70000 12.159
29.71000 12.104
29.72000 8.156
29.73000 7.162
29.74000 11.100
29.75000 9.129
29.76000 6.070
29.77000 16.383
29.78000 5.014
29.79000 7.972
29.80000 6.051
29.81000 8.084
29.82000 7.121
29.83000 11.058
29.84000 9.023
29.85000 13.207
29.86000 10.121
29.87000 2.993
29.88000 12.069
29.89000 11.090
29.90000 13.150
29.91000 10.217
29.92000 7.044
29.93000 8.059
29.94000 6.001
29.95000 12.090
29.96000 7.179
29.97000 10.142
29.98000 6.971
29.99000 9.210
30.00000 11.222
30.01000 10.244
30.02000 9.276
30.03000 11.105
30.04000 6.032
30.05000 15.058
30.06000 6.070
30.07000 13.181
30.08000 5.079
30.09000 10.082
30.10000 7.022
30.11000 8.064
30.12000 10.187
30.13000 9.107
30.14000 6.141
30.15000 11.139
30.16000 8.194
30.17000 10.206
30.18000 9.160
30.19000 9.216
30.20000 9.159
30.21000 8.259
30.22000 2.009
30.23000 6.036
30.24000 5.059
30.25000 11.160
30.26000 9.160
30.27000 13.165
30.28000 5.996
30.29000 2.961
30.30000 11.168
30.31000 9.056
30.32000 8.150
30.33000 12.162
30.34000 7.200
30.35000 11.058
30.36000 11.171
30.37000 11.166
30.38000 8.096
30.39000 12.137
30.40000 6.105
30.41000 16.468
30.42000 11.209
30.43000 11.147
30.44000 10.315
30.45000 12.075
30.46000 4.082
30.47000 8.069
30.48000 15.303
30.49000 10.129
30.50000 9.989
30.51000 6.116
30.52000 6.055
30.53000 9.090
30.54000 9.017
30.55000 3.046
30.56000 9.099
30.57000 11.000
30.58000 4.074
30.59000 8.137
30.60000 14.161
30.61000 4.067
30.62000 15.239
30.63000 13.335
30.64000 8.057
30.65000 5.088
30.66000 8.086
30.67000 9.239
30.68000 5.990
30.69000 6.099
30.70000 10.020
30.71000 8.184
30.72000 3.068
30.73000 5.030
30.74000 12.193
30.75000 9.221
30.76000 9.041
30.77000 7.070
30.78000 7.156
30.79000 9.200
30.80000 8.079
30.81000 15.332
30.82000 10.204
30.83000 8.263
30.84000 6.061
30.85000 5.059
30.86000 6.134
30.87000 10.162
30.88000 12.095
30.89000 9.124
30.90000 6.197
30.91000 7.986
30.92000 5.958
30.93000 11.101
30.94000 7.035
30.95000 13.130
30.96000 9.153
30.97000 5.991
30.98000 10.224
30.99000 11.069
31.00000 8.111
31.01000 12.210
31.02000 5.046
31.03000 11.259
31.04000 7.159
31.05000 5.080
31.06000 8.280
31.07000 7.006
31.08000 8.092
31.09000 8.085
31.10000 8.106
31.11000 5.074
31.12000 7.172
31.13000 11.160
31.14000 5.042
31.15000 10.129
31.16000 4.027
31.17000 7.024
31.18000 5.094
31.19000 10.043
31.20000 10.230
31.21000 8.074
31.22000 6.116
31.23000 9.002
31.24000 12.086
31.25000 3.089
31.26000 13.161
31.27000 3.034
31.28000 5.124
31.29000 5.015
31.30000 5.038
31.31000 4.171
31.32000 11.180
31.33000 5.103
31.34000 10.054
31.35000 10.090
31.36000 7.116
31.37000 10.157
31.38000 9.034
31.39000 9.122
31.40000 7.170
31.41000 9.127
31.42000 8.062
31.43000 4.023
31.44000 6.185
31.45000 11.135
31.46000 12.223
31.47000 5.038
31.48000 8.024
31.49000 12.155
31.50000 11.100
31.51000 9.219
31.52000 6.060
31.53000 8.969
31.54000 8.971
31.55000 9.128
31.56000 8.265
31.57000 7.014
31.58000 7.105
31.59000 10.234
31.60000 6.087
31.61000 8.100
31.62000 9.120
31.63000 4.972
31.64000 11.215
31.65000 10.031
31.66000 11.228
31.67000 7.075
31.68000 7.087
31.69000 5.178
31.70000 6.066
31.71000 10.108
31.72000 2.088
31.73000 9.154
31.74000 3.105
31.75000 8.048
31.76000 11.117
31.77000 7.152
31.78000 6.063
31.79000 4.014
31.80000 11.106
31.81000 10.178
31.82000 6.040
31.83000 7.103
31.84000 4.109
31.85000 6.140
31.86000 10.143
31.87000 7.092
31.88000 5.183
31.89000 8.105
31.90000 5.113
31.91000 6.167
31.92000 7.101
31.93000 8.193
31.94000 9.159
31.95000 12.127
31.96000 6.047
31.97000 12.123
31.98000 6.110
31.99000 6.104
32.00000 5.998
32.01000 5.057
32.02000 8.092
32.03000 8.062
32.04000 8.109
32.05000 7.074
32.06000 9.041
32.07000 4.952
32.08000 11.119
32.09000 7.148
32.10000 6.121
32.11000 8.023
32.12000 8.008
32.13000 3.000
32.14000 9.156
32.15000 12.231
32.16000 8.089
32.17000 2.998
32.18000 6.173
32.19000 5.956
32.20000 4.108
32.21000 6.168
32.22000 8.154
32.23000 1.988
32.24000 5.057
32.25000 4.031
32.26000 9.049
32.27000 3.989
32.28000 6.089
32.29000 4.069
32.30000 7.092
32.31000 6.103
32.32000 5.023
32.33000 6.154
32.34000 12.314
32.35000 5.133
32.36000 7.984
32.37000 11.071
32.38000 8.125
32.39000 9.140
32.40000 8.324
32.41000 7.148
32.42000 12.197
32.43000 5.029
32.44000 6.075
32.45000 4.022
32.46000 7.158
32.47000 5.986
32.48000 8.078
32.49000 6.070
32.50000 8.063
32.51000 10.264
32.52000 6.960
32.53000 9.157
32.54000 6.157
32.55000 8.131
32.56000 9.172
32.57000 13.164
32.58000 9.065
32.59000 7.095
32.60000 14.079
32.61000 11.223
32.62000 4.010
32.63000 4.072
32.64000 7.157
32.65000 7.084
32.66000 6.119
32.67000 7.121
32.68000 9.281
32.69000 5.029
32.70000 6.112
32.71000 3.978
32.72000 6.987
32.73000 8.101
32.74000 4.192
32.75000 4.018
32.76000 7.255
32.77000 6.129
32.78000 11.176
32.79000 11.143
32.80000 5.074
32.81000 3.083
32.82000 5.061
32.83000 3.026
32.84000 9.035
32.85000 2.102
32.86000 7.148
32.87000 5.050
32.88000 9.150
32.89000 7.035
32.90000 6.093
32.91000 8.141
32.92000 8.086
32.93000 11.147
32.94000 6.088
32.95000 12.217
32.96000 5.100
32.97000 6.049
32.98000 3.985
32.99000 7.051
33.00000 8.180
33.01000 10.098
33.02000 9.067
33.03000 7.006
33.04000 7.068
33.05000 8.008
33.06000 6.183
33.07000 6.173
33.08000 5.025
33.09000 7.110
33.10000 5.942
33.11000 7.136
33.12000 7.079
33.13000 4.044
33.14000 3.059
33.15000 7.201
33.16000 5.099
33.17000 8.218
33.18000 9.116
33.19000 6.158
33.20000 7.108
33.21000 7.229
33.22000 10.022
33.23000 9.055
33.24000 6.090
33.25000 7.077
33.26000 7.070
33.27000 7.012
33.28000 4.055
33.29000 4.116
33.30000 9.241
33.31000 6.145
33.32000 9.159
33.33000 8.115
33.34000 2.041
33.35000 6.075
33.36000 7.083
33.37000 9.125
33.38000 8.012
33.39000 10.114
33.40000 7.151
33.41000 7.135
33.42000 8.163
33.43000 7.031
33.44000 4.140
33.45000 5.070
33.46000 10.180
33.47000 4.968
33.48000 8.267
33.49000 7.204
33.50000 5.049
33.51000 5.047
33.52000 8.052
33.53000 4.051
33.54000 7.087
33.55000 7.084
33.56000 7.122
33.57000 14.228
33.58000 5.976
33.59000 12.217
33.60000 7.220
33.61000 11.231
33.62000 5.065
33.63000 8.047
33.64000 4.091
33.65000 5.022
33.66000 7.067
33.67000 6.100
33.68000 10.145
33.69000 4.065
33.70000 4.020
33.71000 6.097
33.72000 10.121
33.73000 4.068
33.74000 5.057
33.75000 3.975
33.76000 10.171
33.77000 2.046
33.78000 5.999
33.79000 2.090
33.80000 6.941
33.81000 5.059
33.82000 1.992
33.83000 11.071
33.84000 4.003
33.85000 3.030
33.86000 10.169
33.87000 7.224
33.88000 7.002
33.89000 9.181
33.90000 7.017
33.91000 2.984
33.92000 10.144
33.93000 7.053
33.94000 4.096
33.95000 9.045
33.96000 8.103
33.97000 7.139
33.98000 3.992
33.99000 7.978
34.00000 6.208
34.01000 5.002
34.02000 6.072
34.03000 2.045
34.04000 5.102
34.05000 3.041
34.06000 10.201
34.07000 10.326
34.08000 8.095
34.09000 4.023
34.10000 1.984
34.11000 4.017
34.12000 3.026
34.13000 7.102
34.14000 3.113
34.15000 8.104
34.16000 7.140
34.17000 6.100
34.18000 5.143
34.19000 6.066
34.20000 4.036
34.21000 1.051
34.22000 7.100
34.23000 4.080
34.24000 3.025
34.25000 7.022
34.26000 11.326
34.27000 6.116
34.28000 2.045
34.29000 4.030
34.30000 5.101
34.31000 5.051
34.32000 5.040
34.33000 7.243
34.34000 5.155
34.35000 8.133
34.36000 1.041
34.37000 2.989
34.38000 7.919
34.39000 1.008
34.40000 4.009
34.41000 4.142
34.42000 5.020
34.43000 3.101
34.44000 2.088
34.45000 5.056
34.46000 4.031
34.47000 6.093
34.48000 6.108
34.49000 6.071
34.50000 7.188
34.51000 9.072
34.52000 5.060
34.53000 6.001
34.54000 3.043
34.55000 8.048
34.56000 9.109
34.57000 5.102
34.58000 1.043
34.59000 13.350
34.60000 5.052
34.61000 5.065
34.62000 9.220
34.63000 9.171
34.64000 9.113
34.65000 10.087
34.66000 6.077
34.67000 7.175
34.68000 5.119
34.69000 6.036
34.70000 10.275
34.71000 12.268
34.72000 4.090
34.73000 9.191
34.74000 11.176
34.75000 5.088
34.76000 5.092
34.77000 0.977
34.78000 3.025
34.79000 10.122
34.80000 3.176
34.81000 4.025
34.82000 8.165
34.83000 5.005
34.84000 5.980
34.85000 4.016
34.86000 9.280
34.87000 8.065
34.88000 9.113
34.89000 4.072
34.90000 7.152
34.91000 4.107
34.92000 1.974
34.93000 7.094
34.94000 7.222
34.95000 2.038
34.96000 6.106
34.97000 8.084
34.98000 6.987
34.99000 6.062
35.00000 8.039
35.01000 10.251
35.02000 3.069
35.03000 6.162
35.04000 8.093
35.05000 8.061
35.06000 3.056
35.07000 5.172
35.08000 4.984
35.09000 6.151
35.10000 7.005
35.11000 8.194
35.12000 5.115
35.13000 3.084
35.14000 3.088
35.15000 5.134
35.16000 7.090
35.17000 0.000
35.18000 6.162
35.19000 6.096
35.20000 4.153
35.21000 3.142
35.22000 8.150
35.23000 5.082
35.24000 5.115
35.25000 5.092
35.26000 7.990
35.27000 3.024
35.28000 5.132
35.29000 7.052
35.30000 4.119
35.31000 5.153
35.32000 5.121
35.33000 4.057
35.34000 5.076
35.35000 4.057
35.36000 2.061
35.37000 6.056
35.38000 7.144
35.39000 3.001
35.40000 6.933
35.41000 7.052
35.42000 6.085
35.43000 2.994
35.44000 6.078
35.45000 7.132
35.46000 3.119
35.47000 6.088
35.48000 4.014
35.49000 5.141
35.50000 6.103
35.51000 6.124
35.52000 1.026
35.53000 1.002
35.54000 3.060
35.55000 1.976
35.56000 4.081
35.57000 6.160
35.58000 6.058
35.59000 5.998
35.60000 5.057
35.61000 5.027
35.62000 5.093
35.63000 5.097
35.64000 11.118
35.65000 4.029
35.66000 2.015
35.67000 4.053
35.68000 10.305
35.69000 2.037
35.70000 4.074
35.71000 7.078
35.72000 4.972
35.73000 4.074
35.74000 4.070
35.75000 9.133
35.76000 5.048
35.77000 1.013
35.78000 3.049
35.79000 4.082
35.80000 3.012
35.81000 10.158
35.82000 8.134
35.83000 5.055
35.84000 2.062
35.85000 5.035
35.86000 3.058
35.87000 5.043
35.88000 4.122
35.89000 4.089
35.90000 4.067
35.91000 4.057
35.92000 0.000
35.93000 12.074
35.94000 6.096
35.95000 4.972
35.96000 7.029
35.97000 6.194
35.98000 6.050
35.99000 4.042
36.00000 2.081
36.01000 7.175
36.02000 2.087
36.03000 4.978
36.04000 3.010
36.05000 3.017
36.06000 2.086
36.07000 2.997
36.08000 2.022
36.09000 3.068
36.10000 1.970
36.11000 4.075
36.12000 3.991
36.13000 5.175
36.14000 6.118
36.15000 5.053
36.16000 2.996
36.17000 7.090
36.18000 5.159
36.19000 2.072
36.20000 6.117
36.21000 6.076
36.22000 5.088
36.23000 5.010
36.24000 3.026
36.25000 5.095
36.26000 3.014
36.27000 8.133
36.28000 3.059
36.29000 6.040
36.30000 8.049
36.31000 10.200
36.32000 5.042
36.33000 6.108
36.34000 4.096
36.35000 5.110
36.36000 6.112
36.37000 3.956
36.38000 6.021
36.39000 1.049
36.40000 5.087
36.41000 6.072
36.42000 5.959
36.43000 7.073
36.44000 3.043
36.45000 5.110
36.46000 3.123
36.47000 6.133
36.48000 8.054
36.49000 6.112
36.50000 2.016
36.51000 4.038
36.52000 5.144
36.53000 8.047
36.54000 3.037
36.55000 10.165
36.56000 5.092
36.57000 6.025
36.58000 1.029
36.59000 3.081
36.60000 5.071
36.61000 0.989
36.62000 1.959
36.63000 3.091
36.64000 4.055
36.65000 4.060
36.66000 6.073
36.67000 4.982
36.68000 6.017
36.69000 10.059
36.70000 1.058
36.71000 1.993
36.72000 2.056
36.73000 4.067
36.74000 3.959
36.75000 3.037
36.76000 1.997
36.77000 6.105
36.78000 4.086
36.79000 3.006
36.80000 2.066
36.81000 9.193
36.82000 3.034
36.83000 6.153
36.84000 7.157
36.85000 3.110
36.86000 7.194
36.87000 8.027
36.88000 1.981
36.89000 11.196
36.90000 5.046
36.91000 3.061
36.92000 6.093
36.93000 3.020
36.94000 1.061
36.95000 4.106
36.96000 5.077
36.97000 6.075
36.98000 9.142
36.99000 12.258
37.00000 5.097
37.01000 6.077
37.02000 3.146
37.03000 5.041
37.04000 9.090
37.05000 6.163
37.06000 4.995
37.07000 7.062
37.08000 2.998
37.09000 5.030
37.10000 4.009
37.11000 6.137
37.12000 5.091
37.13000 4.097
37.14000 1.040
37.15000 7.163
37.16000 4.004
37.17000 6.022
37.18000 7.191
37.19000 5.050
37.20000 5.172
37.21000 4.033
37.22000 1.980
37.23000 6.052
37.24000 5.054
37.25000 3.087
37.26000 5.044
37.27000 5.030
37.28000 2.969
37.29000 6.169
37.30000 6.065
37.31000 2.100
37.32000 5.102
37.33000 7.066
37.34000 2.034
37.35000 5.031
37.36000 6.053
37.37000 2.002
37.38000 6.083
37.39000 3.050
37.40000 4.105
37.41000 2.002
37.42000 3.072
37.43000 4.102
37.44000 6.145
37.45000 7.036
37.46000 8.064
37.47000 4.999
37.48000 3.037
37.49000 2.066
37.50000 8.170
37.51000 4.037
37.52000 2.006
37.53000 6.154
37.54000 3.066
37.55000 2.957
37.56000 5.015
37.57000 0.993
37.58000 4.016
37.59000 3.021
37.60000 2.005
37.61000 4.040
37.62000 2.026
37.63000 6.030
37.64000 2.056
37.65000 1.013
37.66000 5.005
37.67000 5.006
37.68000 6.060
37.69000 8.129
37.70000 2.053
37.71000 6.142
37.72000 2.989
37.73000 7.104
37.74000 3.082
37.75000 7.250
37.76000 5.067
37.77000 1.045
37.78000 5.117
37.79000 5.010
37.80000 5.056
37.81000 5.012
37.82000 6.153
37.83000 6.065
37.84000 8.037
37.85000 6.121
37.86000 5.138
37.87000 7.969
37.88000 5.075
37.89000 4.087
37.90000 2.996
37.91000 4.015
37.92000 5.128
37.93000 5.150
37.94000 8.163
37.95000 4.049
37.96000 4.063
37.97000 3.041
37.98000 5.068
37.99000 7.121
38.00000 2.065
38.01000 2.056
38.02000 2.040
38.03000 8.088
38.04000 10.142
38.05000 3.000
38.06000 5.082
38.07000 4.117
38.08000 7.076
38.09000 3.036
38.10000 2.990
38.11000 9.135
38.12000 2.060
38.13000 2.015
38.14000 2.990
38.15000 4.055
38.16000 1.050
38.17000 4.007
38.18000 5.985
38.19000 4.061
38.20000 6.019
38.21000 4.045
38.22000 4.061
38.23000 5.065
38.24000 4.083
38.25000 2.056
38.26000 8.084
38.27000 6.119
38.28000 6.069
38.29000 4.019
38.30000 5.044
38.31000 4.132
38.32000 3.984
38.33000 3.074
38.34000 2.997
38.35000 8.053
38.36000 1.029
38.37000 9.036
38.38000 6.033
38.39000 5.001
38.40000 4.166
38.41000 2.969
38.42000 8.125
38.43000 2.975
38.44000 3.076
38.45000 6.063
38.46000 2.094
38.47000 2.042
38.48000 8.028
38.49000 4.033
38.50000 5.094
38.51000 4.007
38.52000 3.001
38.53000 1.998
38.54000 4.067
38.55000 5.180
38.56000 6.014
38.57000 4.047
38.58000 9.138
38.59000 5.062
38.60000 3.009
38.61000 5.060
38.62000 6.089
38.63000 6.023
38.64000 3.009
38.65000 4.002
38.66000 5.121
38.67000 9.178
38.68000 5.103
38.69000 6.095
38.70000 4.080
38.71000 4.012
38.72000 4.070
38.73000 3.024
38.74000 7.094
38.75000 4.118
38.76000 4.971
38.77000 10.029
38.78000 4.043
38.79000 5.052
38.80000 5.009
38.81000 3.046
38.82000 6.099
38.83000 5.029
38.84000 6.193
38.85000 3.016
38.86000 5.055
38.87000 3.006
38.88000 4.078
38.89000 4.089
38.90000 3.054
38.91000 4.148
38.92000 0.998
38.93000 5.086
38.94000 5.039
38.95000 4.042
38.96000 6.044
38.97000 6.040
38.98000 5.025
38.99000 6.073
39.00000 8.099
39.01000 4.016
39.02000 0.981
39.03000 8.150
39.04000 7.208
39.05000 2.032
39.06000 5.172
39.07000 7.024
39.08000 4.032
39.09000 5.081
39.10000 5.171
39.11000 6.050
39.12000 9.095
39.13000 9.158
39.14000 2.065
39.15000 5.029
39.16000 1.026
39.17000 2.018
39.18000 2.998
39.19000 6.131
39.20000 7.027
39.21000 4.095
39.22000 7.093
39.23000 5.038
39.24000 2.096
39.25000 3.043
39.26000 6.098
39.27000 1.032
39.28000 1.032
39.29000 4.006
39.30000 4.026
39.31000 2.045
39.32000 4.043
39.33000 3.028
39.34000 8.139
39.35000 3.000
39.36000 1.020
39.37000 4.079
39.38000 0.993
39.39000 5.094
39.40000 3.145
39.41000 4.015
39.42000 1.012
39.43000 4.065
39.44000 5.091
39.45000 4.126
39.46000 4.129
39.47000 6.115
39.48000 9.242
39.49000 1.977
39.50000 5.025
39.51000 5.176
39.52000 2.003
39.53000 4.025
39.54000 4.071
39.55000 0.991
39.56000 0.992
39.57000 5.983
39.58000 3.043
39.59000 5.173
39.60000 4.117
39.61000 4.064
39.62000 1.025
39.63000 5.128
39.64000 4.065
39.65000 2.046
39.66000 1.987
39.67000 6.159
39.68000 1.005
39.69000 6.058
39.70000 3.076
39.71000 0.000
39.72000 7.118
39.73000 5.066
39.74000 0.997
39.75000 6.018
39.76000 6.119
39.77000 5.110
39.78000 1.039
39.79000 3.024
39.80000 2.030
39.81000 5.150
39.82000 4.022
39.83000 3.117
39.84000 5.126
39.85000 4.044
39.86000 2.994
39.87000 4.027
39.88000 3.002
39.89000 6.099
39.90000 5.056
39.91000 5.064
39.92000 2.013
39.93000 5.093
39.94000 4.075
39.95000 5.082
39.96000 3.982
39.97000 5.079
39.98000 3.147
39.99000 6.065
40.00000 6.087
40.01000 4.045
40.02000 4.124
40.03000 3.977
40.04000 6.098
40.05000 3.013
40.06000 4.099
40.07000 4.134
40.08000 2.017
40.09000 3.151
40.10000 5.094
40.11000 6.130
40.12000 3.009
40.13000 3.024
40.14000 3.056
40.15000 3.992
40.16000 7.147
40.17000 5.130
40.18000 4.027
40.19000 1.998
40.20000 4.048
40.21000 1.039
40.22000 2.063
40.23000 6.020
40.24000 2.001
40.25000 4.994
40.26000 6.139
40.27000 4.092
40.28000 2.955
40.29000 1.036
40.30000 4.030
40.31000 5.072
40.32000 4.108
40.33000 5.096
40.34000 4.119
40.35000 4.085
40.36000 0.959
40.37000 11.161
40.38000 3.010
40.39000 4.056
40.40000 1.985
40.41000 3.068
40.42000 6.115
40.43000 4.073
40.44000 5.089
40.45000 1.033
40.46000 6.060
40.47000 1.991
40.48000 1.022
40.49000 1.030
40.50000 6.155
40.51000 4.069
40.52000 4.979
40.53000 0.000
40.54000 5.018
40.55000 5.060
40.56000 0.972
40.57000 4.123
40.58000 4.057
40.59000 8.081
40.60000 7.072
40.61000 5.085
40.62000 4.081
40.63000 0.984
40.64000 2.987
40.65000 5.023
40.66000 2.983
40.67000 0.972
40.68000 9.213
40.69000 6.101
40.70000 6.055
40.71000 1.039
40.72000 5.060
40.73000 0.000
40.74000 5.102
40.75000 0.978
40.76000 3.133
40.77000 7.066
40.78000 7.066
40.79000 6.114
40.80000 1.991
40.81000 2.076
40.82000 0.998
40.83000 6.081
40.84000 1.989
40.85000 2.024
40.86000 4.067
40.87000 6.107
40.88000 1.031
40.89000 4.059
40.90000 5.160
40.91000 3.996
40.92000 6.127
40.93000 6.092
40.94000 6.103
40.95000 0.963
40.96000 4.028
40.97000 6.137
40.98000 2.974
40.99000 3.100
41.00000 3.048
41.01000 2.025
41.02000 3.054
41.03000 2.990
41.04000 5.036
41.05000 0.994
41.06000 4.037
41.07000 2.019
41.08000 2.118
41.09000 4.043
41.10000 7.112
41.11000 8.166
41.12000 3.017
41.13000 2.042
41.14000 3.108
41.15000 5.081
41.16000 0.000
41.17000 1.996
41.18000 2.013
41.19000 2.056
41.20000 8.048
41.21000 4.011
41.22000 3.096
41.23000 5.111
41.24000 4.049
41.25000 2.047
41.26000 5.062
41.27000 5.064
41.28000 2.014
41.29000 4.979
41.30000 3.059
41.31000 5.099
41.32000 5.914
41.33000 4.015
41.34000 1.010
41.35000 1.022
41.36000 5.015
41.37000 3.000
41.38000 3.056
41.39000 2.049
41.40000 1.995
41.41000 6.026
41.42000 3.056
41.43000 3.046
41.44000 3.070
41.45000 1.037
41.46000 4.088
41.47000 3.071
41.48000 2.088
41.49000 1.995
41.50000 2.053
41.51000 5.055
41.52000 4.036
41.53000 4.054
41.54000 3.071
41.55000 2.020
41.56000 2.032
41.57000 4.043
41.58000 2.034
41.59000 5.058
41.60000 2.978
41.61000 3.084
41.62000 4.997
41.63000 2.032
41.64000 5.102
41.65000 2.064
41.66000 1.000
41.67000 5.069
41.68000 7.166
41.69000 7.121
41.70000 0.981
41.71000 1.025
41.72000 4.042
41.73000 7.028
41.74000 4.059
41.75000 2.031
41.76000 1.023
41.77000 3.033
41.78000 4.945
41.79000 3.105
41.80000 2.970
41.81000 3.034
41.82000 5.017
41.83000 1.948
41.84000 4.045
41.85000 5.997
41.86000 5.159
41.87000 3.073
41.88000 5.999
41.89000 3.082
41.90000 2.975
41.91000 2.000
41.92000 4.094
41.93000 5.058
41.94000 3.970
41.95000 6.133
41.96000 7.067
41.97000 0.000
41.98000 2.036
41.99000 3.015
42.00000 2.046
42.01000 3.050
42.02000 2.065
42.03000 3.047
42.04000 1.999
42.05000 5.217
42.06000 4.047
42.07000 4.036
42.08000 0.993
42.09000 4.085
42.10000 4.179
42.11000 2.025
42.12000 5.049
42.13000 4.119
42.14000 6.073
42.15000 2.945
42.16000 2.026
42.17000 4.022
42.18000 3.030
42.19000 1.027
42.20000 2.102
42.21000 2.989
42.22000 4.014
42.23000 3.053
42.24000 3.991
42.25000 5.035
42.26000 3.032
42.27000 2.061
42.28000 2.013
42.29000 3.029
42.30000 3.085
42.31000 3.170
42.32000 4.022
42.33000 0.998
42.34000 2.006
42.35000 2.028
42.36000 0.000
42.37000 1.011
42.38000 2.027
42.39000 4.943
42.40000 4.051
42.41000 4.068
42.42000 7.127
42.43000 2.029
42.44000 4.090
42.45000 2.044
42.46000 3.041
42.47000 6.135
42.48000 5.045
42.49000 9.223
42.50000 4.088
42.51000 1.980
42.52000 1.151
42.53000 7.039
42.54000 5.068
42.55000 5.128
42.56000 3.029
42.57000 4.115
42.58000 5.116
42.59000 2.041
42.60000 4.986
42.61000 1.978
42.62000 1.036
42.63000 3.042
42.64000 1.012
42.65000 5.029
42.66000 3.072
42.67000 0.974
42.68000 5.079
42.69000 4.024
42.70000 2.010
42.71000 1.983
42.72000 5.153
42.73000 4.095
42.74000 6.164
42.75000 4.161
42.76000 5.997
42.77000 2.026
42.78000 5.053
42.79000 5.095
42.80000 3.020
42.81000 0.000
42.82000 2.081
42.83000 4.006
42.84000 5.077
42.85000 3.091
42.86000 1.039
42.87000 3.049
42.88000 3.096
42.89000 1.967
42.90000 2.980
42.91000 3.031
42.92000 3.029
42.93000 0.990
42.94000 2.075
42.95000 3.002
42.96000 0.985
42.97000 3.021
42.98000 2.049
42.99000 2.085
43.00000 2.002
43.01000 4.041
43.02000 7.032
43.03000 3.008
43.04000 0.000
43.05000 3.033
43.06000 5.082
43.07000 2.973
43.08000 6.138
43.09000 1.001
43.10000 7.062
43.11000 5.127
43.12000 3.124
43.13000 0.989
43.14000 2.084
43.15000 2.006
43.16000 2.030
43.17000 9.006
43.18000 4.046
43.19000 4.053
43.20000 0.000
43.21000 3.137
43.22000 7.199
43.23000 1.990
43.24000 4.977
43.25000 2.089
43.26000 0.000
43.27000 2.978
43.28000 3.011
43.29000 3.048
43.30000 4.072
43.31000 2.074
43.32000 0.993
43.33000 2.068
43.34000 3.052
43.35000 3.993
43.36000 5.033
43.37000 4.064
43.38000 1.974
43.39000 2.043
43.40000 2.063
43.41000 1.013
43.42000 4.029
43.43000 0.000
43.44000 5.972
43.45000 3.027
43.46000 0.992
43.47000 4.021
43.48000 0.989
43.49000 4.062
43.50000 3.016
43.51000 5.052
43.52000 1.000
43.53000 1.039
43.54000 5.055
43.55000 3.064
43.56000 3.060
43.57000 6.130
43.58000 9.060
43.59000 1.026
43.60000 3.051
43.61000 0.994
43.62000 4.013
43.63000 4.065
43.64000 2.001
43.65000 4.103
43.66000 3.061
43.67000 6.122
43.68000 4.036
43.69000 5.060
43.70000 1.005
43.71000 2.989
43.72000 4.172
43.73000 4.042
43.74000 2.030
43.75000 4.161
43.76000 0.982
43.77000 3.016
43.78000 7.116
43.79000 4.088
43.80000 1.988
43.81000 3.005
43.82000 4.048
43.83000 2.054
43.84000 1.061
43.85000 2.052
43.86000 1.049
43.87000 6.063
43.88000 1.994
43.89000 4.059
43.90000 3.099
43.91000 3.018
43.92000 4.121
43.93000 2.033
43.94000 2.998
43.95000 3.086
43.96000 0.000
43.97000 1.994
43.98000 2.050
43.99000 3.036
44.00000 4.000
44.01000 4.015
44.02000 5.131
44.03000 4.104
44.04000 2.025
44.05000 5.051
44.06000 3.014
44.07000 5.019
44.08000 3.065
44.09000 2.019
44.10000 4.088
44.11000 1.979
44.12000 2.028
44.13000 6.113
44.14000 2.029
44.15000 7.054
44.16000 3.962
44.17000 3.993
44.18000 1.977
44.19000 1.029
44.20000 3.044
44.21000 2.002
44.22000 1.987
44.23000 0.000
44.24000 0.990
44.25000 6.205
44.26000 4.020
44.27000 0.993
44.28000 2.053
44.29000 2.044
44.30000 2.017
44.31000 1.007
44.32000 3.049
44.33000 0.000
44.34000 6.050
44.35000 6.979
44.36000 0.000
44.37000 1.962
44.38000 4.108
44.39000 1.014
44.40000 1.017
44.41000 3.019
44.42000 4.064
44.43000 6.115
44.44000 3.071
44.45000 1.013
44.46000 2.031
44.47000 2.004
44.48000 5.182
44.49000 3.017
44.50000 0.996
44.51000 1.020
44.52000 3.155
44.53000 2.050
44.54000 5.040
44.55000 0.000
44.56000 1.981
44.57000 2.006
44.58000 0.976
44.59000 3.043
44.60000 1.000
44.61000 3.041
44.62000 1.012
44.63000 0.984
44.64000 1.022
44.65000 1.004
44.66000 3.015
44.67000 0.000
44.68000 2.034
44.69000 4.012
44.70000 8.142
44.71000 4.088
44.72000 0.000
44.73000 3.125
44.74000 2.008
44.75000 6.989
44.76000 2.049
44.77000 3.039
44.78000 3.020
44.79000 0.979
44.80000 2.085
44.81000 2.028
44.82000 3.014
44.83000 3.989
44.84000 5.063
44.85000 4.051
44.86000 1.016
44.87000 0.987
44.88000 6.152
44.89000 3.012
44.90000 4.051
44.91000 1.977
44.92000 1.058
44.93000 1.995
44.94000 1.052
44.95000 3.067
44.96000 5.064
44.97000 5.120
44.98000 5.030
44.99000 4.077
45.00000 1.013
45.01000 1.003
45.02000 3.128
45.03000 4.080
45.04000 0.000
45.05000 2.988
45.06000 2.981
45.07000 4.095
45.08000 3.150
45.09000 0.988
45.10000 3.055
45.11000 3.979
45.12000 6.119
45.13000 2.993
45.14000 0.995
45.15000 6.061
45.16000 5.036
45.17000 1.980
45.18000 1.999
45.19000 5.137
45.20000 4.078
45.21000 1.982
45.22000 2.049
45.23000 0.000
45.24000 5.132
45.25000 3.063
45.26000 1.033
45.27000 2.991
45.28000 4.073
45.29000 5.147
45.30000 5.036
45.31000 5.019
45.32000 5.221
45.33000 4.003
45.34000 3.072
45.35000 3.109
45.36000 1.973
45.37000 3.053
45.38000 1.024
45.39000 7.076
45.40000 6.093
45.41000 2.019
45.42000 0.993
45.43000 4.126
45.44000 1.025
45.45000 2.981
45.46000 2.014
45.47000 2.987
45.48000 3.073
45.49000 2.013
45.50000 3.092
45.51000 2.052
45.52000 4.103
45.53000 0.990
45.54000 5.044
45.55000 3.034
45.56000 3.068
45.57000 4.010
45.58000 2.066
45.59000 2.004
45.60000 5.064
45.61000 3.054
45.62000 7.114
45.63000 3.035
45.64000 4.035
45.65000 1.043
45.66000 1.055
45.67000 2.056
45.68000 0.000
45.69000 3.047
45.70000 2.042
45.71000 2.021
45.72000 4.123
45.73000 3.018
45.74000 2.015
45.75000 0.000
45.76000 3.078
45.77000 2.065
45.78000 1.030
45.79000 3.994
45.80000 5.125
45.81000 1.057
45.82000 3.034
45.83000 2.063
45.84000 3.024
45.85000 1.028
45.86000 2.054
45.87000 4.038
45.88000 7.123
45.89000 2.040
45.90000 2.069
45.91000 4.012
45.92000 5.053
45.93000 0.000
45.94000 6.141
45.95000 2.033
45.96000 1.979
45.97000 0.000
45.98000 1.018
45.99000 1.033
46.00000 1.042
46.01000 0.989
46.02000 5.025
46.03000 3.009
46.04000 4.003
46.05000 7.155
46.06000 4.063
46.07000 2.026
46.08000 0.000
46.09000 3.033
46.10000 6.029
46.11000 3.025
46.12000 4.024
46.13000 2.011
46.14000 5.034
46.15000 3.018
46.16000 3.011
46.17000 5.075
46.18000 3.184
46.19000 1.040
46.20000 0.987
46.21000 1.043
46.22000 6.180
46.23000 7.114
46.24000 4.076
46.25000 3.007
46.26000 5.141
46.27000 3.078
46.28000 2.081
46.29000 1.980
46.30000 1.014
46.31000 2.986
46.32000 2.998
46.33000 3.031
46.34000 3.099
46.35000 6.037
46.36000 2.066
46.37000 4.146
46.38000 4.100
46.39000 6.132
46.40000 3.058
46.41000 2.050
46.42000 2.070
46.43000 0.995
46.44000 4.097
46.45000 2.003
46.46000 4.124
46.47000 0.000
46.48000 1.012
46.49000 5.965
46.50000 1.019
46.51000 4.070
46.52000 1.010
46.53000 1.003
46.54000 5.087
46.55000 1.025
46.56000 2.073
46.57000 0.968
46.58000 4.992
46.59000 0.000
46.60000 5.084
46.61000 2.008
46.62000 0.000
46.63000 4.168
46.64000 5.103
46.65000 0.000
46.66000 2.046
46.67000 1.018
46.68000 3.040
46.69000 1.011
46.70000 2.022
46.71000 5.022
46.72000 5.146
46.73000 0.000
46.74000 1.003
46.75000 1.054
46.76000 2.013
46.77000 3.055
46.78000 0.987
46.79000 2.045
46.80000 3.005
46.81000 3.038
46.82000 1.023
46.83000 3.017
46.84000 2.003
46.85000 3.012
46.86000 0.000
46.87000 0.000
46.88000 3.080
46.89000 2.035
46.90000 3.045
46.91000 4.035
46.92000 4.081
46.93000 0.995
46.94000 1.023
46.95000 3.042
46.96000 5.062
46.97000 2.034
46.98000 3.068
46.99000 3.031
47.00000 4.069
47.01000 2.091
47.02000 2.969
47.03000 2.015
47.04000 1.979
47.05000 0.994
47.06000 8.108
47.07000 5.990
47.08000 0.994
47.09000 3.009
47.10000 3.185
47.11000 0.997
47.12000 0.000
47.13000 2.087
47.14000 3.015
47.15000 2.014
47.16000 3.064
47.17000 1.018
47.18000 4.024
47.19000 4.152
47.20000 3.011
47.21000 2.009
47.22000 1.026
47.23000 1.039
47.24000 4.050
47.25000 3.968
47.26000 0.989
47.27000 0.000
47.28000 3.029
47.29000 1.033
47.30000 2.061
47.31000 2.994
47.32000 2.009
47.33000 1.010
47.34000 4.050
47.35000 0.000
47.36000 3.081
47.37000 3.015
47.38000 1.000
47.39000 3.023
47.40000 3.092
47.41000 1.040
47.42000 2.979
47.43000 3.005
47.44000 3.030
47.45000 4.007
47.46000 3.083
47.47000 2.045
47.48000 6.174
47.49000 3.058
47.50000 3.019
47.51000 0.979
47.52000 3.083
47.53000 1.046
47.54000 4.086
47.55000 3.005
47.56000 2.052
47.57000 1.021
47.58000 2.003
47.59000 4.024
47.60000 0.000
47.61000 3.022
47.62000 3.941
47.63000 0.000
47.64000 1.999
47.65000 3.056
47.66000 10.925
47.67000 3.106
47.68000 3.058
47.69000 3.026
47.70000 3.002
47.71000 3.097
47.72000 1.031
47.73000 4.127
47.74000 4.102
47.75000 7.263
47.76000 0.985
47.77000 0.994
47.78000 2.011
47.79000 0.980
47.80000 4.104
47.81000 3.068
47.82000 0.972
47.83000 1.010
47.84000 0.000
47.85000 0.995
47.86000 0.000
47.87000 2.127
47.88000 2.001
47.89000 3.017
47.90000 2.061
47.91000 0.000
47.92000 0.000
47.93000 0.993
47.94000 1.048
47.95000 4.062
47.96000 2.078
47.97000 1.987
47.98000 4.073
47.99000 5.047
48.00000 1.003
48.01000 3.074
48.02000 1.011
48.03000 2.056
48.04000 4.041
48.05000 3.018
48.06000 0.989
48.07000 2.970
48.08000 3.019
48.09000 2.013
48.10000 0.000
48.11000 5.108
48.12000 3.995
48.13000 3.104
48.14000 1.008
48.15000 3.059
48.16000 2.041
48.17000 3.113
48.18000 5.069
48.19000 6.014
48.20000 4.019
48.21000 0.984
48.22000 3.060
48.23000 3.055
48.24000 0.990
48.25000 3.037
48.26000 4.126
48.27000 3.063
48.28000 1.026
48.29000 2.992
48.30000 2.057
48.31000 3.013
48.32000 6.167
48.33000 2.023
48.34000 4.144
48.35000 4.066
48.36000 0.000
48.37000 3.042
48.38000 1.023
48.39000 4.047
48.40000 2.049
48.41000 4.086
48.42000 1.021
48.43000 0.995
48.44000 6.122
48.45000 2.979
48.46000 3.000
48.47000 0.995
48.48000 4.003
48.49000 3.062
48.50000 0.993
48.51000 0.000
48.52000 2.060
48.53000 5.023
48.54000 5.070
48.55000 1.007
48.56000 0.000
48.57000 1.069
48.58000 0.000
48.59000 4.124
48.60000 1.002
48.61000 1.016
48.62000 0.979
48.63000 0.000
48.64000 0.978
48.65000 4.048
48.66000 1.044
48.67000 5.064
48.68000 1.007
48.69000 4.062
48.70000 2.039
48.71000 2.081
48.72000 4.007
48.73000 3.119
48.74000 4.063
48.75000 1.979
48.76000 5.070
48.77000 0.993
48.78000 1.004
48.79000 1.029
48.80000 0.000
48.81000 6.027
48.82000 4.050
48.83000 2.024
48.84000 2.011
48.85000 2.027
48.86000 3.052
48.87000 4.008
48.88000 3.009
48.89000 1.022
48.90000 0.000
48.91000 1.975
48.92000 0.000
48.93000 0.991
48.94000 3.055
48.95000 6.090
48.96000 2.006
48.97000 4.042
48.98000 2.003
48.99000 2.001
49.00000 0.985
49.01000 2.035
49.02000 1.958
49.03000 2.056
49.04000 1.048
49.05000 1.022
49.06000 4.040
49.07000 1.024
49.08000 0.996
49.09000 1.018
49.10000 7.154
49.11000 0.000
49.12000 3.014
49.13000 6.014
49.14000 0.000
49.15000 4.102
49.16000 3.068
49.17000 2.009
49.18000 3.996
49.19000 3.050
49.20000 3.037
49.21000 4.108
49.22000 0.000
49.23000 1.961
49.24000 2.041
49.25000 2.031
49.26000 1.023
49.27000 1.007
49.28000 1.022
49.29000 3.066
49.30000 1.967
49.31000 2.011
49.32000 2.032
49.33000 4.005
49.34000 4.070
49.35000 0.000
49.36000 2.010
49.37000 6.006
49.38000 4.090
49.39000 2.026
49.40000 4.116
49.41000 0.990
49.42000 2.060
49.43000 1.011
49.44000 3.052
49.45000 0.000
49.46000 4.068
49.47000 2.018
49.48000 3.040
49.49000 2.003
49.50000 4.055
49.51000 2.079
49.52000 2.000
49.53000 1.005
49.54000 6.195
49.55000 3.030
49.56000 0.992
49.57000 2.002
49.58000 2.019
49.59000 1.015
49.60000 4.058
49.61000 1.014
49.62000 2.094
49.63000 5.090
49.64000 3.008
49.65000 1.998
49.66000 4.991
49.67000 3.000
49.68000 1.998
49.69000 0.000
49.70000 2.017
49.71000 1.998
49.72000 2.970
49.73000 1.965
49.74000 0.000
49.75000 0.991
49.76000 1.993
49.77000 2.961
49.78000 3.121
49.79000 1.998
49.80000 2.004
49.81000 2.028
49.82000 0.983
49.83000 3.042
49.84000 0.000
49.85000 1.029
49.86000 0.994
49.87000 2.014
49.88000 2.067
49.89000 3.965
49.90000 2.045
49.91000 0.000
49.92000 1.033
49.93000 4.078
49.94000 0.987
49.95000 1.018
49.96000 2.009
49.97000 0.985
49.98000 5.098
49.99000 0.995
50.00000 2.008
50.01000 5.013
50.02000 2.023
50.03000 4.079
50.04000 4.978
50.05000 3.023
50.06000 0.976
50.07000 1.002
50.08000 2.011
50.09000 4.106
50.10000 4.080
50.11000 6.040
50.12000 2.048
50.13000 1.039
50.14000 1.039
50.15000 1.063
50.16000 3.020
50.17000 2.023
50.18000 2.970
50.19000 3.034
50.20000 3.975
50.21000 2.013
50.22000 2.126
50.23000 6.004
50.24000 3.027
50.25000 1.023
50.26000 1.037
50.27000 4.046
50.28000 4.077
50.29000 4.089
50.30000 1.015
50.31000 1.045
50.32000 1.007
50.33000 2.066
50.34000 2.063
50.35000 0.997
50.36000 5.119
50.37000 0.000
50.38000 1.082
50.39000 2.020
50.40000 0.975
50.41000 3.097
50.42000 2.026
50.43000 1.025
50.44000 2.014
50.45000 0.000
50.46000 4.092
50.47000 2.058
50.48000 2.975
50.49000 3.977
50.50000 1.009
50.51000 2.977
50.52000 3.012
50.53000 3.058
50.54000 4.078
50.55000 1.025
50.56000 4.076
50.57000 1.022
50.58000 1.037
50.59000 3.973
50.60000 0.000
50.61000 3.077
50.62000 1.048
50.63000 4.134
50.64000 1.057
50.65000 2.991
50.66000 1.042
50.67000 3.005
50.68000 3.050
50.69000 0.000
50.70000 0.000
50.71000 3.039
50.72000 4.083
50.73000 2.088
50.74000 0.000
50.75000 3.039
50.76000 0.993
50.77000 3.064
50.78000 2.074
50.79000 1.057
50.80000 2.022
50.81000 4.037
50.82000 1.013
50.83000 0.000
50.84000 2.050
50.85000 0.000
50.86000 1.023
50.87000 7.201
50.88000 3.115
50.89000 0.975
50.90000 2.035
50.91000 3.032
50.92000 2.029
50.93000 0.000
50.94000 3.031
50.95000 3.072
50.96000 0.991
50.97000 1.006
50.98000 0.000
50.99000 1.048
51.00000 0.987
51.01000 0.000
51.02000 3.118
51.03000 0.987
51.04000 3.081
51.05000 1.026
51.06000 0.988
51.07000 0.987
51.08000 1.025
51.09000 2.057
51.10000 1.036
51.11000 2.046
51.12000 3.105
51.13000 3.035
51.14000 2.041
51.15000 1.043
51.16000 0.986
51.17000 1.988
51.18000 1.040
51.19000 6.040
51.20000 0.000
51.21000 0.000
51.22000 3.033
51.23000 2.027
51.24000 1.048
51.25000 0.000
51.26000 3.023
51.27000 3.017
51.28000 0.982
51.29000 2.026
51.30000 1.060
51.31000 1.011
51.32000 3.055
51.33000 0.992
51.34000 2.070
51.35000 5.153
51.36000 5.079
51.37000 2.042
51.38000 4.072
51.39000 1.966
51.40000 3.056
51.41000 6.120
51.42000 1.000
51.43000 0.000
51.44000 0.000
51.45000 3.080
51.46000 1.084
51.47000 3.012
51.48000 2.032
51.49000 0.000
51.50000 2.128
51.51000 0.000
51.52000 0.000
51.53000 2.068
51.54000 2.082
51.55000 1.004
51.56000 2.043
51.57000 2.054
51.58000 1.005
51.59000 0.000
51.60000 0.000
51.61000 2.000
51.62000 0.000
51.63000 1.037
51.64000 1.025
51.65000 1.061
51.66000 1.016
51.67000 0.999
51.68000 2.076
51.69000 4.015
51.70000 0.000
51.71000 4.054
51.72000 2.993
51.73000 4.028
51.74000 5.103
51.75000 4.022
51.76000 1.974
51.77000 1.012
51.78000 1.978
51.79000 2.012
51.80000 2.017
51.81000 2.022
51.82000 4.106
51.83000 2.983
51.84000 6.005
51.85000 1.028
51.86000 2.006
51.87000 2.061
51.88000 4.062
51.89000 2.007
51.90000 1.009
51.91000 0.000
51.92000 0.000
51.93000 2.074
51.94000 3.032
51.95000 2.082
51.96000 1.016
51.97000 4.072
51.98000 1.009
51.99000 1.998
52.00000 2.015
52.01000 3.018
52.02000 3.010
52.03000 4.004
52.04000 0.000
52.05000 2.030
52.06000 0.000
52.07000 1.965
52.08000 2.951
52.09000 0.000
52.10000 0.000
52.11000 0.991
52.12000 0.000
52.13000 0.987
52.14000 1.996
52.15000 4.072
52.16000 2.116
52.17000 3.045
52.18000 2.007
52.19000 1.042
52.20000 1.006
52.21000 0.000
52.22000 3.093
52.23000 2.041
52.24000 2.071
52.25000 4.982
52.26000 2.942
52.27000 0.000
52.28000 2.960
52.29000 0.976
52.30000 3.996
52.31000 3.059
52.32000 3.026
52.33000 2.042
52.34000 0.996
52.35000 2.053
52.36000 1.038
52.37000 2.030
52.38000 3.035
52.39000 3.060
52.40000 2.009
52.41000 3.049
52.42000 2.062
52.43000 0.988
52.44000 2.022
52.45000 1.039
52.46000 1.036
52.47000 2.064
52.48000 0.000
52.49000 1.018
52.50000 1.002
52.51000 0.000
52.52000 0.996
52.53000 0.000
52.54000 4.047
52.55000 2.083
52.56000 0.992
52.57000 0.993
52.58000 1.988
52.59000 1.024
52.60000 0.992
52.61000 3.079
52.62000 2.008
52.63000 0.000
52.64000 2.003
52.65000 4.062
52.66000 2.030
52.67000 1.955
52.68000 1.998
52.69000 1.002
52.70000 3.009
52.71000 2.095
52.72000 2.023
52.73000 0.000
52.74000 0.000
52.75000 1.008
52.76000 1.003
52.77000 1.018
52.78000 2.000
52.79000 2.036
52.80000 4.023
52.81000 0.000
52.82000 2.017
52.83000 2.012
52.84000 5.076
52.85000 1.929
52.86000 3.002
52.87000 1.980
52.88000 2.005
52.89000 0.983
52.90000 3.025
52.91000 1.033
52.92000 1.000
52.93000 0.984
52.94000 0.983
52.95000 1.003
52.96000 1.969
52.97000 3.103
52.98000 0.993
52.99000 0.983
53.00000 2.052
53.01000 4.047
53.02000 3.057
53.03000 0.987
53.04000 1.072
53.05000 0.000
53.06000 1.989
53.07000 0.000
53.08000 6.137
53.09000 3.040
53.10000 1.046
53.11000 0.000
53.12000 2.048
53.13000 0.000
53.14000 2.022
53.15000 2.066
53.16000 2.977
53.17000 3.058
53.18000 1.001
53.19000 0.000
53.20000 2.099
53.21000 3.138
53.22000 0.000
53.23000 0.976
53.24000 2.066
53.25000 1.995
53.26000 2.062
53.27000 1.002
53.28000 3.031
53.29000 1.000
53.30000 0.000
53.31000 0.000
53.32000 2.019
53.33000 0.000
53.34000 3.008
53.35000 1.016
53.36000 4.163
53.37000 1.003
53.38000 0.000
53.39000 1.988
53.40000 1.000
53.41000 2.038
53.42000 1.078
53.43000 2.972
53.44000 0.000
53.45000 3.045
53.46000 0.000
53.47000 2.042
53.48000 1.003
53.49000 0.000
53.50000 1.995
53.51000 0.000
53.52000 3.008
53.53000 2.016
53.54000 2.000
53.55000 0.000
53.56000 0.000
53.57000 3.986
53.58000 2.062
53.59000 1.051
53.60000 2.034
53.61000 2.023
53.62000 3.058
53.63000 2.026
53.64000 1.033
53.65000 0.000
53.66000 4.057
53.67000 0.984
53.68000 0.000
53.69000 1.000
53.70000 1.995
53.71000 1.070
53.72000 1.052
53.73000 0.962
53.74000 3.027
53.75000 2.011
53.76000 2.020
53.77000 1.990
53.78000 2.100
53.79000 4.004
53.80000 0.000
53.81000 2.052
53.82000 1.015
53.83000 0.000
53.84000 2.044
53.85000 3.053
53.86000 0.000
53.87000 1.995
53.88000 1.954
53.89000 1.040
53.90000 0.000
53.91000 5.151
53.92000 0.974
53.93000 1.993
53.94000 0.000
53.95000 3.031
53.96000 3.077
53.97000 1.951
53.98000 0.000
53.99000 4.073
54.00000 3.975
54.01000 1.009
54.02000 5.057
54.03000 1.005
54.04000 1.985
54.05000 2.020
54.06000 1.036
54.07000 4.051
54.08000 0.000
54.09000 1.043
54.10000 0.000
54.11000 0.000
54.12000 3.074
54.13000 1.990
54.14000 1.003
54.15000 0.000
54.16000 5.040
54.17000 2.042
54.18000 1.008
54.19000 3.042
54.20000 0.000
54.21000 2.039
54.22000 7.135
54.23000 1.014
54.24000 1.970
54.25000 2.070
54.26000 6.045
54.27000 1.008
54.28000 6.013
54.29000 3.976
54.30000 0.000
54.31000 4.016
54.32000 1.040
54.33000 3.037
54.34000 0.000
54.35000 1.972
54.36000 6.102
54.37000 1.002
54.38000 2.035
54.39000 3.088
54.40000 2.991
54.41000 0.000
54.42000 1.013
54.43000 2.986
54.44000 3.018
54.45000 1.005
54.46000 0.000
54.47000 4.001
54.48000 1.990
54.49000 1.014
54.50000 2.046
54.51000 0.000
54.52000 1.003
54.53000 0.000
54.54000 5.034
54.55000 0.993
54.56000 3.004
54.57000 1.991
54.58000 2.013
54.59000 1.027
54.60000 2.993
54.61000 2.007
54.62000 2.014
54.63000 0.000
54.64000 0.000
54.65000 2.006
54.66000 0.000
54.67000 0.000
54.68000 0.000
54.69000 1.053
54.70000 2.075
54.71000 2.009
54.72000 0.000
54.73000 0.987
54.74000 2.058
54.75000 0.000
54.76000 2.000
54.77000 4.992
54.78000 1.053
54.79000 2.028
54.80000 5.172
54.81000 2.073
54.82000 0.000
54.83000 2.062
54.84000 2.042
54.85000 1.000
54.86000 4.106
54.87000 0.000
54.88000 3.939
54.89000 3.053
54.90000 2.007
54.91000 1.032
54.92000 1.066
54.93000 0.998
54.94000 0.988
54.95000 1.985
54.96000 0.000
54.97000 2.007
54.98000 2.069
54.99000 4.006
55.00000 1.971
55.01000 2.960
55.02000 1.013
55.03000 1.009
55.04000 1.972
55.05000 0.000
55.06000 2.016
55.07000 2.014
55.08000 3.016
55.09000 1.992
55.10000 0.000
55.11000 4.146
55.12000 0.988
55.13000 6.058
55.14000 0.000
55.15000 2.078
55.16000 1.987
55.17000 1.009
55.18000 3.986
55.19000 0.000
55.20000 2.034
55.21000 5.038
55.22000 2.029
55.23000 1.016
55.24000 0.991
55.25000 5.054
55.26000 0.985
55.27000 1.992
55.28000 2.020
55.29000 1.985
55.30000 2.995
55.31000 0.999
55.32000 3.042
55.33000 1.045
55.34000 0.000
55.35000 0.000
55.36000 1.013
55.37000 2.000
55.38000 0.976
55.39000 1.009
55.40000 3.004
55.41000 3.000
55.42000 0.993
55.43000 2.067
55.44000 0.000
55.45000 2.003
55.46000 1.972
55.47000 2.993
55.48000 1.007
55.49000 3.057
55.50000 0.000
55.51000 0.983
55.52000 1.041
55.53000 2.055
55.54000 0.998
55.55000 0.000
55.56000 1.041
55.57000 0.000
55.58000 0.000
55.59000 2.008
55.60000 3.024
55.61000 0.000
55.62000 2.140
55.63000 3.112
55.64000 3.006
55.65000 4.062
55.66000 0.000
55.67000 2.007
55.68000 0.000
55.69000 1.966
55.70000 2.034
55.71000 4.043
55.72000 3.072
55.73000 2.007
55.74000 1.002
55.75000 0.000
55.76000 1.029
55.77000 1.047
55.78000 0.000
55.79000 3.030
55.80000 0.000
55.81000 0.990
55.82000 0.000
55.83000 3.059
55.84000 1.017
55.85000 3.035
55.86000 0.997
55.87000 0.000
55.88000 1.011
55.89000 1.969
55.90000 0.000
55.91000 0.989
55.92000 0.000
55.93000 1.028
55.94000 4.039
55.95000 3.012
55.96000 3.130
55.97000 2.033
55.98000 2.007
55.99000 3.087
56.00000 0.000
56.01000 1.061
56.02000 0.976
56.03000 2.976
56.04000 4.179
56.05000 2.007
56.06000 3.050
56.07000 2.042
56.08000 4.075
56.09000 2.069
56.10000 2.073
56.11000 3.013
56.12000 0.987
56.13000 2.006
56.14000 3.147
56.15000 3.037
56.16000 1.027
56.17000 3.062
56.18000 2.002
56.19000 1.034
56.20000 2.030
56.21000 0.990
56.22000 0.000
56.23000 2.001
56.24000 1.033
56.25000 1.012
56.26000 0.999
56.27000 3.008
56.28000 5.130
56.29000 1.057
56.30000 2.014
56.31000 0.000
56.32000 4.119
56.33000 0.970
56.34000 1.008
56.35000 0.000
56.36000 0.000
56.37000 5.002
56.38000 1.007
56.39000 0.995
56.40000 0.995
56.41000 0.980
56.42000 1.062
56.43000 0.977
56.44000 4.035
56.45000 0.000
56.46000 3.088
56.47000 1.057
56.48000 0.000
56.49000 0.000
56.50000 3.008
56.51000 0.000
56.52000 0.000
56.53000 2.056
56.54000 1.007
56.55000 0.989
56.56000 2.030
56.57000 0.000
56.58000 0.000
56.59000 1.062
56.60000 3.024
56.61000 0.000
56.62000 0.000
56.63000 0.000
56.64000 4.047
56.65000 3.010
56.66000 2.019
56.67000 1.990
56.68000 1.020
56.69000 2.001
56.70000 2.003
56.71000 1.000
56.72000 3.042
56.73000 1.002
56.74000 1.998
56.75000 1.006
56.76000 3.019
56.77000 2.979
56.78000 1.009
56.79000 2.044
56.80000 2.016
56.81000 0.000
56.82000 1.979
56.83000 1.068
56.84000 3.051
56.85000 0.000
56.86000 3.019
56.87000 2.053
56.88000 2.030
56.89000 0.000
56.90000 0.983
56.91000 0.000
56.92000 3.087
56.93000 1.020
56.94000 4.033
56.95000 0.985
56.96000 0.000
56.97000 0.998
56.98000 5.011
56.99000 2.019
57.00000 0.997
57.01000 1.082
57.02000 1.007
57.03000 4.130
57.04000 0.977
57.05000 2.050
57.06000 0.000
57.07000 1.995
57.08000 0.000
57.09000 2.081
57.10000 1.021
57.11000 0.000
57.12000 0.998
57.13000 2.012
57.14000 1.009
57.15000 0.000
57.16000 4.072
57.17000 3.201
57.18000 0.986
57.19000 0.000
57.20000 3.057
57.21000 0.000
57.22000 1.059
57.23000 0.000
57.24000 1.038
57.25000 2.033
57.26000 1.041
57.27000 1.017
57.28000 1.021
57.29000 0.000
57.30000 3.010
57.31000 2.025
57.32000 0.000
57.33000 3.013
57.34000 2.021
57.35000 3.029
57.36000 1.021
57.37000 0.000
57.38000 0.000
57.39000 1.024
57.40000 2.026
57.41000 0.990
57.42000 0.997
57.43000 2.988
57.44000 0.000
57.45000 0.000
57.46000 0.976
57.47000 2.016
57.48000 3.045
57.49000 2.092
57.50000 4.088
57.51000 0.999
57.52000 0.984
57.53000 1.066
57.54000 1.063
57.55000 0.985
57.56000 1.012
57.57000 0.000
57.58000 1.999
57.59000 1.017
57.60000 1.014
57.61000 0.000
57.62000 1.989
57.63000 0.000
57.64000 1.024
57.65000 3.022
57.66000 5.012
57.67000 1.040
57.68000 3.040
57.69000 2.021
57.70000 2.016
57.71000 1.029
57.72000 1.027
57.73000 1.043
57.74000 3.060
57.75000 2.023
57.76000 0.987
57.77000 2.016
57.78000 0.992
57.79000 2.024
57.80000 2.990
57.81000 4.003
57.82000 1.018
57.83000 1.011
57.84000 1.014
57.85000 1.005
57.86000 0.990
57.87000 0.000
57.88000 2.098
57.89000 0.000
57.90000 0.000
57.91000 0.972
57.92000 1.013
57.93000 1.016
57.94000 0.000
57.95000 3.060
57.96000 0.000
57.97000 0.000
57.98000 1.991
57.99000 2.026
58.00000 1.022
58.01000 2.031
58.02000 2.010
58.03000 2.047
58.04000 1.008
58.05000 3.087
58.06000 2.985
58.07000 0.000
58.08000 0.998
58.09000 0.000
58.10000 1.011
58.11000 2.026
58.12000 1.006
58.13000 0.000
58.14000 2.002
58.15000 2.070
58.16000 4.107
58.17000 2.084
58.18000 2.024
58.19000 0.000
58.20000 2.002
58.21000 0.000
58.22000 3.024
58.23000 1.002
58.24000 0.000
58.25000 3.091
58.26000 5.052
58.27000 0.997
58.28000 2.030
58.29000 1.006
58.30000 1.025
58.31000 1.005
58.32000 0.975
58.33000 0.000
58.34000 0.000
58.35000 1.038
58.36000 4.085
58.37000 0.982
58.38000 5.086
58.39000 4.046
58.40000 4.031
58.41000 1.997
58.42000 0.000
58.43000 0.000
58.44000 3.016
58.45000 2.046
58.46000 1.008
58.47000 0.000
58.48000 2.076
58.49000 1.019
58.50000 1.973
58.51000 0.000
58.52000 0.982
58.53000 4.049
58.54000 0.000
58.55000 1.968
58.56000 0.968
58.57000 3.046
58.58000 0.000
58.59000 0.000
58.60000 0.000
58.61000 1.008
58.62000 3.045
58.63000 3.097
58.64000 0.000
58.65000 1.003
58.66000 0.000
58.67000 1.049
58.68000 1.019
58.69000 1.019
58.70000 0.998
58.71000 0.993
58.72000 2.036
58.73000 1.042
58.74000 1.011
58.75000 1.001
58.76000 3.029
58.77000 5.129
58.78000 3.986
58.79000 1.021
58.80000 2.997
58.81000 2.001
58.82000 1.034
58.83000 4.089
58.84000 2.012
58.85000 1.063
58.86000 0.000
58.87000 1.986
58.88000 0.973
58.89000 1.011
58.90000 2.038
58.91000 2.058
58.92000 0.970
58.93000 0.000
58.94000 2.016
58.95000 3.099
58.96000 2.008
58.97000 0.982
58.98000 0.000
58.99000 2.032
59.00000 0.000
59.01000 1.004
59.02000 2.033
59.03000 1.044
59.04000 0.000
59.05000 0.000
59.06000 3.024
59.07000 1.961
59.08000 0.997
59.09000 0.988
59.10000 2.044
59.11000 0.999
59.12000 0.000
59.13000 0.000
59.14000 2.011
59.15000 1.042
59.16000 1.029
59.17000 2.033
59.18000 1.031
59.19000 0.983
59.20000 1.014
59.21000 0.992
59.22000 1.012
59.23000 3.063
59.24000 1.992
59.25000 0.000
59.26000 1.982
59.27000 3.066
59.28000 2.070
59.29000 2.024
59.30000 1.986
59.31000 2.059
59.32000 2.080
59.33000 1.999
59.34000 1.977
59.35000 2.042
59.36000 4.079
59.37000 2.018
59.38000 0.000
59.39000 3.014
59.40000 0.000
59.41000 2.034
59.42000 0.982
59.43000 4.060
59.44000 0.000
59.45000 0.000
59.46000 0.997
59.47000 0.991
59.48000 1.016
59.49000 0.998
59.50000 4.064
59.51000 0.982
59.52000 3.000
59.53000 2.065
59.54000 0.000
59.55000 2.040
59.56000 1.026
59.57000 1.010
59.58000 1.990
59.59000 2.058
59.60000 0.992
59.61000 2.043
59.62000 2.041
59.63000 4.032
59.64000 0.000
59.65000 1.031
59.66000 0.000
59.67000 2.007
59.68000 1.003
59.69000 1.018
59.70000 0.000
59.71000 1.028
59.72000 2.037
59.73000 2.961
59.74000 1.020
59.75000 2.041
59.76000 0.000
59.77000 2.094
59.78000 0.000
59.79000 0.000
59.80000 2.974
59.81000 2.020
59.82000 3.021
59.83000 1.012
59.84000 2.058
59.85000 0.000
59.86000 3.021
59.87000 0.000
59.88000 2.036
59.89000 4.047
59.90000 0.998
59.91000 0.000
59.92000 3.026
59.93000 0.999
59.94000 3.105
59.95000 2.041
59.96000 1.064
59.97000 0.000
59.98000 1.011
59.99000 2.020
60.00000 2.007
60.01000 1.979
60.02000 2.005
60.03000 1.043
60.04000 0.000
60.05000 0.992
60.06000 0.000
60.07000 3.085
60.08000 1.987
60.09000 1.034
60.10000 4.146
60.11000 2.022
60.12000 3.045
60.13000 1.023
60.14000 1.045
60.15000 3.085
60.16000 2.012
60.17000 1.016
60.18000 0.000
60.19000 1.005
60.20000 1.048
60.21000 5.041
60.22000 1.009
60.23000 3.072
60.24000 0.000
60.25000 0.000
60.26000 0.000
60.27000 2.039
60.28000 0.000
60.29000 1.977
60.30000 1.023
60.31000 3.004
60.32000 4.066
60.33000 4.002
60.34000 2.071
60.35000 0.990
60.36000 0.000
60.37000 3.060
60.38000 1.999
60.39000 2.004
60.40000 1.009
60.41000 3.034
60.42000 2.014
60.43000 1.005
60.44000 1.033
60.45000 1.014
60.46000 0.000
60.47000 1.023
60.48000 2.979
60.49000 0.995
60.50000 0.999
60.51000 1.003
60.52000 0.993
60.53000 2.992
60.54000 0.000
60.55000 1.021
60.56000 0.989
60.57000 3.128
60.58000 2.000
60.59000 0.000
60.60000 1.994
60.61000 2.025
60.62000 1.998
60.63000 2.026
60.64000 1.013
60.65000 2.053
60.66000 0.980
60.67000 0.992
60.68000 5.040
60.69000 2.076
60.70000 1.047
60.71000 1.978
60.72000 2.023
60.73000 0.000
60.74000 2.016
60.75000 0.994
60.76000 2.010
60.77000 0.000
60.78000 2.040
60.79000 2.022
60.80000 3.057
60.81000 1.049
60.82000 1.054
60.83000 2.059
60.84000 2.066
60.85000 0.000
60.86000 2.940
60.87000 2.028
60.88000 0.000
60.89000 2.041
60.90000 0.995
60.91000 0.000
60.92000 0.000
60.93000 0.000
60.94000 1.001
60.95000 0.000
60.96000 5.119
60.97000 2.026
60.98000 0.000
60.99000 3.078
61.00000 2.078
61.01000 0.000
61.02000 1.034
61.03000 2.004
61.04000 2.069
61.05000 1.009
61.06000 2.047
61.07000 5.034
61.08000 2.017
61.09000 0.000
61.10000 0.000
61.11000 0.000
61.12000 3.053
61.13000 2.000
61.14000 0.000
61.15000 0.991
61.16000 1.003
61.17000 1.073
61.18000 6.157
61.19000 3.056
61.20000 2.038
61.21000 1.053
61.22000 1.026
61.23000 1.002
61.24000 1.027
61.25000 1.995
61.26000 1.066
61.27000 1.999
61.28000 3.008
61.29000 4.040
61.30000 1.993
61.31000 2.020
61.32000 0.000
61.33000 0.982
61.34000 0.000
61.35000 1.007
61.36000 3.031
61.37000 4.135
61.38000 1.007
61.39000 1.006
61.40000 2.066
61.41000 1.053
61.42000 0.000
61.43000 2.042
61.44000 0.000
61.45000 1.033
61.46000 2.032
61.47000 1.024
61.48000 0.000
61.49000 3.045
61.50000 4.008
61.51000 0.000
61.52000 1.003
61.53000 1.969
61.54000 1.032
61.55000 0.000
61.56000 0.000
61.57000 1.007
61.58000 3.066
61.59000 2.049
61.60000 1.048
61.61000 1.969
61.62000 1.023
61.63000 1.049
61.64000 4.008
61.65000 0.000
61.66000 1.048
61.67000 0.000
61.68000 2.022
61.69000 2.956
61.70000 0.000
61.71000 1.029
61.72000 0.000
61.73000 0.000
61.74000 0.000
61.75000 1.057
61.76000 1.999
61.77000 1.015
61.78000 1.999
61.79000 1.024
61.80000 4.011
61.81000 1.003
61.82000 0.977
61.83000 2.010
61.84000 1.010
61.85000 2.089
61.86000 2.066
61.87000 2.008
61.88000 1.014
61.89000 1.025
61.90000 2.038
61.91000 3.037
61.92000 1.008
61.93000 0.000
61.94000 2.033
61.95000 1.032
61.96000 4.023
61.97000 0.984
61.98000 2.028
61.99000 0.000
62.00000 2.039
62.01000 0.990
62.02000 4.098
62.03000 0.000
62.04000 0.000
62.05000 0.996
62.06000 2.036
62.07000 4.052
62.08000 0.000
62.09000 2.011
62.10000 0.000
62.11000 2.972
62.12000 1.025
62.13000 1.066
62.14000 1.000
62.15000 0.975
62.16000 0.981
62.17000 0.000
62.18000 2.032
62.19000 2.997
62.20000 1.066
62.21000 0.000
62.22000 0.000
62.23000 0.000
62.24000 2.007
62.25000 1.022
62.26000 2.028
62.27000 2.025
62.28000 2.034
62.29000 2.046
62.30000 1.039
62.31000 1.007
62.32000 0.982
62.33000 0.000
62.34000 1.008
62.35000 1.047
62.36000 2.050
62.37000 2.072
62.38000 3.062
62.39000 2.037
62.40000 1.035
62.41000 0.000
62.42000 0.000
62.43000 2.054
62.44000 0.989
62.45000 1.023
62.46000 0.000
62.47000 3.043
62.48000 3.062
62.49000 0.992
62.50000 0.999
62.51000 0.000
62.52000 3.084
62.53000 0.000
62.54000 1.021
62.55000 2.019
62.56000 0.000
62.57000 0.984
62.58000 4.074
62.59000 1.016
62.60000 1.040
62.61000 3.102
62.62000 3.043
62.63000 2.066
62.64000 0.996
62.65000 0.000
62.66000 1.005
62.67000 5.072
62.68000 2.004
62.69000 0.984
62.70000 2.006
62.71000 0.000
62.72000 0.994
62.73000 0.994
62.74000 2.054
62.75000 0.000
62.76000 0.000
62.77000 2.011
62.78000 2.009
62.79000 0.000
62.80000 2.036
62.81000 1.000
62.82000 2.001
62.83000 0.995
62.84000 0.000
62.85000 2.034
62.86000 3.053
62.87000 2.007
62.88000 0.000
62.89000 0.982
62.90000 0.981
62.91000 0.000
62.92000 4.057
62.93000 0.000
62.94000 0.000
62.95000 0.000
62.96000 2.010
62.97000 3.079
62.98000 0.000
62.99000 2.011
63.00000 0.000
63.01000 0.000
63.02000 2.022
63.03000 2.032
63.04000 2.089
63.05000 0.000
63.06000 3.120
63.07000 0.000
63.08000 2.029
63.09000 1.005
63.10000 0.997
63.11000 0.000
63.12000 3.048
63.13000 1.046
63.14000 2.988
63.15000 0.000
63.16000 0.000
63.17000 0.989
63.18000 1.995
63.19000 0.999
63.20000 2.037
63.21000 0.000
63.22000 1.012
63.23000 3.095
63.24000 3.029
63.25000 0.993
63.26000 2.025
63.27000 2.098
63.28000 1.021
63.29000 1.004
63.30000 0.000
63.31000 2.097
63.32000 0.984
63.33000 5.002
63.34000 3.070
63.35000 0.000
63.36000 0.000
63.37000 3.007
63.38000 2.003
63.39000 0.000
63.40000 4.033
63.41000 5.112
63.42000 1.055
63.43000 1.023
63.44000 1.004
63.45000 1.018
63.46000 0.000
63.47000 0.000
63.48000 0.000
63.49000 0.988
63.50000 0.994
63.51000 2.016
63.52000 0.984
63.53000 1.024
63.54000 0.000
63.55000 1.030
63.56000 2.030
63.57000 0.000
63.58000 0.000
63.59000 2.073
63.60000 4.074
63.61000 1.065
63.62000 0.000
63.63000 1.036
63.64000 0.999
63.65000 0.000
63.66000 1.983
63.67000 3.029
63.68000 1.040
63.69000 1.991
63.70000 0.995
63.71000 0.000
63.72000 2.977
63.73000 1.044
63.74000 1.996
63.75000 1.003
63.76000 2.011
63.77000 3.019
63.78000 1.012
63.79000 0.983
63.80000 1.046
63.81000 2.010
63.82000 2.074
63.83000 3.067
63.84000 0.000
63.85000 1.060
63.86000 0.975
63.87000 2.061
63.88000 4.041
63.89000 1.970
63.90000 2.034
63.91000 2.019
63.92000 1.006
63.93000 0.981
63.94000 0.000
63.95000 2.024
63.96000 1.058
63.97000 3.058
63.98000 0.999
63.99000 0.966
64.00000 0.985
64.01000 2.008
64.02000 2.054
64.03000 2.981
64.04000 2.007
64.05000 2.032
64.06000 0.000
64.07000 0.000
64.08000 0.000
64.09000 2.036
64.10000 1.998
64.11000 1.993
64.12000 1.015
64.13000 0.000
64.14000 0.000
64.15000 1.037
64.16000 1.029
64.17000 2.020
64.18000 1.012
64.19000 3.071
64.20000 0.000
64.21000 1.005
64.22000 1.045
64.23000 2.996
64.24000 1.006
64.25000 1.009
64.26000 0.000
64.27000 4.057
64.28000 4.027
64.29000 0.000
64.30000 0.000
64.31000 0.000
64.32000 2.021
64.33000 2.011
64.34000 1.057
64.35000 2.001
64.36000 0.000
64.37000 1.079
64.38000 1.013
64.39000 3.958
64.40000 1.996
64.41000 1.008
64.42000 1.077
64.43000 0.984
64.44000 0.000
64.45000 1.055
64.46000 5.054
64.47000 2.023
64.48000 1.991
64.49000 0.974
64.50000 1.968
64.51000 0.000
64.52000 1.027
64.53000 1.045
64.54000 0.998
64.55000 3.015
64.56000 0.000
64.57000 2.029
64.58000 0.988
64.59000 0.000
64.60000 2.057
64.61000 2.030
64.62000 0.000
64.63000 1.019
64.64000 3.061
64.65000 1.009
64.66000 3.040
64.67000 1.000
64.68000 5.211
64.69000 0.990
64.70000 3.038
64.71000 3.038
64.72000 0.991
64.73000 1.996
64.74000 0.000
64.75000 3.016
64.76000 0.995
64.77000 3.013
64.78000 2.011
64.79000 2.038
64.80000 0.989
64.81000 1.037
64.82000 2.018
64.83000 1.002
64.84000 1.042
64.85000 0.000
64.86000 2.038
64.87000 1.043
64.88000 3.064
64.89000 3.052
64.90000 2.059
64.91000 2.062
64.92000 2.027
64.93000 0.998
64.94000 1.006
64.95000 0.000
64.96000 0.000
64.97000 2.037
64.98000 0.000
64.99000 0.000
65.00000 2.083
