20.00000 15.133
20.01000 14.127
20.02000 18.481
20.03000 16.274
20.04000 12.067
20.05000 15.203
20.06000 18.147
20.07000 12.105
20.08000 11.115
20.09000 16.413
20.10000 10.209
20.11000 13.155
20.12000 20.269
20.13000 19.262
20.14000 14.131
20.15000 17.114
20.16000 19.316
20.17000 20.452
20.18000 19.241
20.19000 10.091
20.20000 7.011
20.21000 18.227
20.22000 16.212
20.23000 23.281
20.24000 21.134
20.25000 14.214
20.26000 14.198
20.27000 15.134
20.28000 14.253
20.29000 12.078
20.30000 24.522
20.31000 17.294
20.32000 10.145
20.33000 12.148
20.34000 15.119
20.35000 15.477
20.36000 13.150
20.37000 9.059
20.38000 14.184
20.39000 15.202
20.40000 12.053
20.41000 13.190
20.42000 13.222
20.43000 12.099
20.44000 9.125
20.45000 9.051
20.46000 13.169
20.47000 25.309
20.48000 18.216
20.49000 13.165
20.50000 15.354
20.51000 16.354
20.52000 17.202
20.53000 12.135
20.54000 15.223
20.55000 9.125
20.56000 13.074
20.57000 16.222
20.58000 17.187
20.59000 9.065
20.60000 17.178
20.61000 16.465
20.62000 19.118
20.63000 8.005
20.64000 16.396
20.65000 14.274
20.66000 12.095
20.67000 13.078
20.68000 11.096
20.69000 16.115
20.70000 19.156
20.71000 14.029
20.72000 14.378
20.73000 11.154
20.74000 16.270
20.75000 9.985
20.76000 14.907
20.77000 10.038
20.78000 10.070
20.79000 13.131
20.80000 7.067
20.81000 14.108
20.82000 22.494
20.83000 17.214
20.84000 12.085
20.85000 13.286
20.86000 12.161
20.87000 7.101
20.88000 18.333
20.89000 20.263
20.90000 23.203
20.91000 22.397
20.92000 17.278
20.93000 15.104
20.94000 18.986
20.95000 13.266
20.96000 7.059
20.97000 23.306
20.98000 9.985
20.99000 12.031
21.00000 16.168
21.01000 9.291
21.02000 23.544
21.03000 17.229
21.04000 10.151
21.05000 19.260
21.06000 16.339
21.07000 15.096
21.08000 13.212
21.09000 16.359
21.10000 12.236
21.11000 12.314
21.12000 14.266
21.13000 15.356
21.14000 10.076
21.15000 13.157
21.16000 16.252
21.17000 10.167
21.18000 11.281
21.19000 14.211
21.20000 7.131
21.21000 9.182
21.22000 19.260
21.23000 22.217
21.24000 13.092
21.25000 20.442
21.26000 17.229
21.27000 17.205
21.28000 16.214
21.29000 11.217
21.30000 19.472
21.31000 18.204
21.32000 13.052
21.33000 19.472
21.34000 13.096
21.35000 14.193
21.36000 12.115
21.37000 15.160
21.38000 7.193
21.39000 17.086
21.40000 11.187
21.41000 18.215
21.42000 17.437
21.43000 10.290
21.44000 17.396
21.45000 14.303
21.46000 18.266
21.47000 15.259
21.48000 16.190
21.49000 18.195
21.50000 15.409
21.51000 22.504
21.52000 14.247
21.53000 16.356
21.54000 21.235
21.55000 11.110
21.56000 10.059
21.57000 12.150
21.58000 31.331
21.59000 16.226
21.60000 16.163
21.61000 12.243
21.62000 13.094
21.63000 13.358
21.64000 15.196
21.65000 15.252
21.66000 12.118
21.67000 13.233
21.68000 17.032
21.69000 26.338
21.70000 18.026
21.71000 13.102
21.72000 12.168
21.73000 17.243
21.74000 16.067
21.75000 15.168
21.76000 10.133
21.77000 12.112
21.78000 11.058
21.79000 15.428
21.80000 18.011
21.81000 23.397
21.82000 14.153
21.83000 17.363
21.84000 13.186
21.85000 25.131
21.86000 13.068
21.87000 11.235
21.88000 12.193
21.89000 18.199
21.90000 13.194
21.91000 13.930
21.92000 11.153
21.93000 13.155
21.94000 20.237
21.95000 19.254
21.96000 21.377
21.97000 24.230
21.98000 19.175
21.99000 12.212
22.00000 16.106
22.01000 18.211
22.02000 9.041
22.03000 16.291
22.04000 13.281
22.05000 10.330
22.06000 15.145
22.07000 11.201
22.08000 15.227
22.09000 18.277
22.10000 15.266
22.11000 7.977
22.12000 17.216
22.13000 15.258
22.14000 11.098
22.15000 14.083
22.16000 11.070
22.17000 14.146
22.18000 11.108
22.19000 12.240
22.20000 22.253
22.21000 13.245
22.22000 19.129
22.23000 15.101
22.24000 22.209
22.25000 11.093
22.26000 13.284
22.27000 12.036
22.28000 16.226
22.29000 14.137
22.30000 24.375
22.31000 10.019
22.32000 12.990
22.33000 15.269
22.34000 25.467
22.35000 11.300
22.36000 15.176
22.37000 17.171
22.38000 21.315
22.39000 21.271
22.40000 16.194
22.41000 15.169
22.42000 17.190
22.43000 18.471
22.44000 11.142
22.45000 13.199
22.46000 17.180
22.47000 18.996
22.48000 13.078
22.49000 18.313
22.50000 15.020
22.51000 12.088
22.52000 10.310
22.53000 17.099
22.54000 15.210
22.55000 10.150
22.56000 17.263
22.57000 20.282
22.58000 14.084
22.59000 24.316
22.60000 19.365
22.61000 16.115
22.62000 17.078
22.63000 14.236
22.64000 15.346
22.65000 15.164
22.66000 18.254
22.67000 19.209
22.68000 16.171
22.69000 15.192
22.70000 17.207
22.71000 21.286
22.72000 15.424
22.73000 13.050
22.74000 14.255
22.75000 13.251
22.76000 16.237
22.77000 11.134
22.78000 20.334
22.79000 8.107
22.80000 18.261
22.81000 8.046
22.82000 18.355
22.83000 16.242
22.84000 14.172
22.85000 17.246
22.86000 18.282
22.87000 14.169
22.88000 17.176
22.89000 14.893
22.90000 10.177
22.91000 16.273
22.92000 23.373
22.93000 20.444
22.94000 16.295
22.95000 14.241
22.96000 15.149
22.97000 16.220
22.98000 22.298
22.99000 25.383
23.00000 11.220
23.01000 16.122
23.02000 17.981
23.03000 17.215
23.04000 15.399
23.05000 23.296
23.06000 13.149
23.07000 15.139
23.08000 15.253
23.09000 13.228
23.10000 17.220
23.11000 15.038
23.12000 16.120
23.13000 25.283
23.14000 19.421
23.15000 8.202
23.16000 10.157
23.17000 12.106
23.18000 18.202
23.19000 19.175
23.20000 13.129
23.21000 16.201
23.22000 16.261
23.23000 14.216
23.24000 8.166
23.25000 14.203
23.26000 14.244
23.27000 21.262
23.28000 16.293
23.29000 20.152
23.30000 18.466
23.31000 12.144
23.32000 15.171
23.33000 15.153
23.34000 15.182
23.35000 13.157
23.36000 11.041
23.37000 15.443
23.38000 16.343
23.39000 17.422
23.40000 24.413
23.41000 19.083
23.42000 14.250
23.43000 20.277
23.44000 20.268
23.45000 13.250
23.46000 15.138
23.47000 11.105
23.48000 22.234
23.49000 20.253
23.50000 25.242
23.51000 9.080
23.52000 18.251
23.53000 21.361
23.54000 15.145
23.55000 22.507
23.56000 25.442
23.57000 13.047
23.58000 14.255
23.59000 15.243
23.60000 13.075
23.61000 19.210
23.62000 19.175
23.63000 17.254
23.64000 12.143
23.65000 20.299
23.66000 18.258
23.67000 21.253
23.68000 12.197
23.69000 17.293
23.70000 16.299
23.71000 15.215
23.72000 24.083
23.73000 8.145
23.74000 18.204
23.75000 17.051
23.76000 26.567
23.77000 13.340
23.78000 16.232
23.79000 18.214
23.80000 22.403
23.81000 13.052
23.82000 17.348
23.83000 18.123
23.84000 21.292
23.85000 13.192
23.86000 24.399
23.87000 22.216
23.88000 24.375
23.89000 11.088
23.90000 15.026
23.91000 15.200
23.92000 27.366
23.93000 12.306
23.94000 18.461
23.95000 20.146
23.96000 22.339
23.97000 17.128
23.98000 16.283
23.99000 20.214
24.00000 18.167
24.01000 20.295
24.02000 19.322
24.03000 16.384
24.04000 11.062
24.05000 15.198
24.06000 11.137
24.07000 13.265
24.08000 23.215
24.09000 18.249
24.10000 20.257
24.11000 25.428
24.12000 18.150
24.13000 23.263
24.14000 24.520
24.15000 20.323
24.16000 14.271
24.17000 22.182
24.18000 27.499
24.19000 19.333
24.20000 15.340
24.21000 17.182
24.22000 24.487
24.23000 20.233
24.24000 26.284
24.25000 22.257
24.26000 22.354
24.27000 22.227
24.28000 18.272
24.29000 16.274
24.30000 11.242
24.31000 19.389
24.32000 22.114
24.33000 12.086
24.34000 21.309
24.35000 25.275
24.36000 22.056
24.37000 18.360
24.38000 23.323
24.39000 15.328
24.40000 14.134
24.41000 13.370
24.42000 21.361
24.43000 16.259
24.44000 20.231
24.45000 14.320
24.46000 27.365
24.47000 16.190
24.48000 17.366
24.49000 28.259
24.50000 17.290
24.51000 21.208
24.52000 17.228
24.53000 15.123
24.54000 23.393
24.55000 16.428
24.56000 19.272
24.57000 23.303
24.58000 18.132
24.59000 13.028
24.60000 22.297
24.61000 33.506
24.62000 20.244
24.63000 18.339
24.64000 26.980
24.65000 19.231
24.66000 20.375
24.67000 17.172
24.68000 20.153
24.69000 18.153
24.70000 15.241
24.71000 25.172
24.72000 20.214
24.73000 26.297
24.74000 21.166
24.75000 21.271
24.76000 28.273
24.77000 21.156
24.78000 19.147
24.79000 12.109
24.80000 21.199
24.81000 21.249
24.82000 21.209
24.83000 21.140
24.84000 20.208
24.85000 17.252
24.86000 20.417
24.87000 17.134
24.88000 15.258
24.89000 20.241
24.90000 25.238
24.91000 15.284
24.92000 16.193
24.93000 21.291
24.94000 24.034
24.95000 26.318
24.96000 20.281
24.97000 22.317
24.98000 24.298
24.99000 23.252
25.00000 28.375
25.01000 21.170
25.02000 22.352
25.03000 24.453
25.04000 23.443
25.05000 23.418
25.06000 24.279
25.07000 21.330
25.08000 27.495
25.09000 23.336
25.10000 27.540
25.11000 21.257
25.12000 18.211
25.13000 19.248
25.14000 28.252
25.15000 30.277
25.16000 19.215
25.17000 16.118
25.18000 25.399
25.19000 17.171
25.20000 12.149
25.21000 22.150
25.22000 20.363
25.23000 18.208
25.24000 20.157
25.25000 22.108
25.26000 23.400
25.27000 21.192
25.28000 19.099
25.29000 19.272
25.30000 30.500
25.31000 23.385
25.32000 18.317
25.33000 23.246
25.34000 29.415
25.35000 17.290
25.36000 30.354
25.37000 22.318
25.38000 15.219
25.39000 33.349
25.40000 24.204
25.41000 17.264
25.42000 21.378
25.43000 30.386
25.44000 22.434
25.45000 21.292
25.46000 23.240
25.47000 26.472
25.48000 19.233
25.49000 15.274
25.50000 16.240
25.51000 20.146
25.52000 28.380
25.53000 17.300
25.54000 26.122
25.55000 19.162
25.56000 19.323
25.57000 23.595
25.58000 26.212
25.59000 38.720
25.60000 22.277
25.61000 16.324
25.62000 24.279
25.63000 32.281
25.64000 24.191
25.65000 21.219
25.66000 18.235
25.67000 21.208
25.68000 18.195
25.69000 22.553
25.70000 22.148
25.71000 27.291
25.72000 32.370
25.73000 28.530
25.74000 18.410
25.75000 20.235
25.76000 26.391
25.77000 22.399
25.78000 20.465
25.79000 19.368
25.80000 31.203
25.81000 17.191
25.82000 23.244
25.83000 22.239
25.84000 18.253
25.85000 25.233
25.86000 28.210
25.87000 10.102
25.88000 29.336
25.89000 25.268
25.90000 33.381
25.91000 31.345
25.92000 30.506
25.93000 23.229
25.94000 27.304
25.95000 32.266
25.96000 32.544
25.97000 18.176
25.98000 28.242
25.99000 21.421
26.00000 23.280
26.01000 27.517
26.02000 25.429
26.03000 24.506
26.04000 26.335
26.05000 26.219
26.06000 30.490
26.07000 25.291
26.08000 26.534
26.09000 29.540
26.10000 16.303
26.11000 22.285
26.12000 32.582
26.13000 26.260
26.14000 20.293
26.15000 31.533
26.16000 26.400
26.17000 22.158
26.18000 16.156
26.19000 32.157
26.20000 23.371
26.21000 24.549
26.22000 25.352
26.23000 26.377
26.24000 30.691
26.25000 19.313
26.26000 27.364
26.27000 24.394
26.28000 33.537
26.29000 29.371
26.30000 35.516
26.31000 26.317
26.32000 30.388
26.33000 28.259
26.34000 25.268
26.35000 30.238
26.36000 27.149
26.37000 17.198
26.38000 35.435
26.39000 21.321
26.40000 15.229
26.41000 21.347
26.42000 39.494
26.43000 29.574
26.44000 21.307
26.45000 29.406
26.46000 37.656
26.47000 24.276
26.48000 21.324
26.49000 30.653
26.50000 29.386
26.51000 30.267
26.52000 32.419
26.53000 21.259
26.54000 17.235
26.55000 33.593
26.56000 30.609
26.57000 20.142
26.58000 37.377
26.59000 18.205
26.60000 25.503
26.61000 36.324
26.62000 25.598
26.63000 22.165
26.64000 31.465
26.65000 27.636
26.66000 24.209
26.67000 25.399
26.68000 29.419
26.69000 34.342
26.70000 29.650
26.71000 32.431
26.72000 28.222
26.73000 36.389
26.74000 31.412
26.75000 32.627
26.76000 26.443
26.77000 26.177
26.78000 26.578
26.79000 28.362
26.80000 28.568
26.81000 32.368
26.82000 31.511
26.83000 32.452
26.84000 27.192
26.85000 31.472
26.86000 33.554
26.87000 36.439
26.88000 34.337
26.89000 18.135
26.90000 35.333
26.91000 24.396
26.92000 25.334
26.93000 28.243
26.94000 31.297
26.95000 22.283
26.96000 28.356
26.97000 30.422
26.98000 31.407
26.99000 23.395
27.00000 42.251
27.01000 33.605
27.02000 23.324
27.03000 27.266
27.04000 33.268
27.05000 25.595
27.06000 36.474
27.07000 20.098
27.08000 18.146
27.09000 19.407
27.10000 32.329
27.11000 24.207
27.12000 29.519
27.13000 41.339
27.14000 29.481
27.15000 29.430
27.16000 34.356
27.17000 37.394
27.18000 29.242
27.19000 25.131
27.20000 28.253
27.21000 31.277
27.22000 26.284
27.23000 37.312
27.24000 35.398
27.25000 34.565
27.26000 25.341
27.27000 25.324
27.28000 31.579
27.29000 29.561
27.30000 18.266
27.31000 36.303
27.32000 32.454
27.33000 26.336
27.34000 36.632
27.35000 29.454
27.36000 27.448
27.37000 32.475
27.38000 28.455
27.39000 32.390
27.40000 26.263
27.41000 28.422
27.42000 36.450
27.43000 32.303
27.44000 29.424
27.45000 32.409
27.46000 25.467
27.47000 33.433
27.48000 32.354
27.49000 24.299
27.50000 21.210
27.51000 29.708
27.52000 27.628
27.53000 27.236
27.54000 21.182
27.55000 39.500
27.56000 31.573
27.57000 26.438
27.58000 20.145
27.59000 37.264
27.60000 32.478
27.61000 30.455
27.62000 31.678
27.63000 33.501
27.64000 23.437
27.65000 25.094
27.66000 28.335
27.67000 37.221
27.68000 26.641
27.69000 20.215
27.70000 32.474
27.71000 20.225
27.72000 37.469
27.73000 31.574
27.74000 40.691
27.75000 25.321
27.76000 43.603
27.77000 20.297
27.78000 36.215
27.79000 34.333
27.80000 40.657
27.81000 42.476
27.82000 28.545
27.83000 35.518
27.84000 23.232
27.85000 30.524
27.86000 36.356
27.87000 32.504
27.88000 27.490
27.89000 28.346
27.90000 31.633
27.91000 27.381
27.92000 37.788
27.93000 30.424
27.94000 38.451
27.95000 22.215
27.96000 35.683
27.97000 40.359
27.98000 42.465
27.99000 26.458
28.00000 30.565
28.01000 23.428
28.02000 35.520
28.03000 37.240
28.04000 26.424
28.05000 29.341
28.06000 24.297
28.07000 27.150
28.08000 38.640
28.09000 22.413
28.10000 32.444
28.11000 32.654
28.12000 26.607
28.13000 27.613
28.14000 36.341
28.15000 41.500
28.16000 33.505
28.17000 38.282
28.18000 28.325
28.19000 28.577
28.20000 29.292
28.21000 22.265
28.22000 32.610
28.23000 23.246
28.24000 26.188
28.25000 22.361
28.26000 31.327
28.27000 25.351
28.28000 32.118
28.29000 30.501
28.30000 28.425
28.31000 39.428
28.32000 28.401
28.33000 43.516
28.34000 26.360
28.35000 26.446
28.36000 34.725
28.37000 22.277
28.38000 20.242
28.39000 34.463
28.40000 31.265
28.41000 26.535
28.42000 28.301
28.43000 29.131
28.44000 24.347
28.45000 23.280
28.46000 22.299
28.47000 28.391
28.48000 20.046
28.49000 28.712
28.50000 20.169
28.51000 33.378
28.52000 22.352
28.53000 22.091
28.54000 27.403
28.55000 24.479
28.56000 31.305
28.57000 27.483
28.58000 23.310
28.59000 31.444
28.60000 22.203
28.61000 32.409
28.62000 26.191
28.63000 29.255
28.64000 27.504
28.65000 26.119
28.66000 33.501
28.67000 36.649
28.68000 28.337
28.69000 25.323
28.70000 29.437
28.71000 46.408
28.72000 29.301
28.73000 31.352
28.74000 28.491
28.75000 30.526
28.76000 29.489
28.77000 30.351
28.78000 20.271
28.79000 24.324
28.80000 23.256
28.81000 33.405
28.82000 18.085
28.83000 14.088
28.84000 22.303
28.85000 24.369
28.86000 32.407
28.87000 37.386
28.88000 34.453
28.89000 22.403
28.90000 20.332
28.91000 25.213
28.92000 19.127
28.93000 28.220
28.94000 25.556
28.95000 40.380
28.96000 34.561
28.97000 28.292
28.98000 27.456
28.99000 38.293
29.00000 18.147
29.01000 27.288
29.02000 25.343
29.03000 26.592
29.04000 27.550
29.05000 18.161
29.06000 27.369
29.07000 29.363
29.08000 28.548
29.09000 26.438
29.10000 26.511
29.11000 24.261
29.12000 20.273
29.13000 22.311
29.14000 31.252
29.15000 32.483
29.16000 24.240
29.17000 30.334
29.18000 27.280
29.19000 24.347
29.20000 23.361
29.21000 27.367
29.22000 29.416
29.23000 35.555
29.24000 24.229
29.25000 31.240
29.26000 20.495
29.27000 24.316
29.28000 20.204
29.29000 23.534
29.30000 34.737
29.31000 26.362
29.32000 34.486
29.33000 19.082
29.34000 23.506
29.35000 29.314
29.36000 27.122
29.37000 27.234
29.38000 23.330
29.39000 28.287
29.40000 27.613
29.41000 25.385
29.42000 24.102
29.43000 26.256
29.44000 21.374
29.45000 27.363
29.46000 20.019
29.47000 21.021
29.48000 31.235
29.49000 23.357
29.50000 28.442
29.51000 28.478
29.52000 19.162
29.53000 30.205
29.54000 22.374
29.55000 18.237
29.56000 29.722
29.57000 18.390
29.58000 20.114
29.59000 22.258
29.60000 26.345
29.61000 30.435
29.62000 20.053
29.63000 24.334
29.64000 29.454
29.65000 22.155
29.66000 15.241
29.67000 27.560
29.68000 23.334
29.69000 27.405
29.70000 17.292
29.71000 21.441
29.72000 26.553
29.73000 22.125
29.74000 18.557
29.75000 24.444
29.76000 21.352
29.77000 26.326
29.78000 24.342
29.79000 21.087
29.80000 24.504
29.81000 23.294
29.82000 25.608
29.83000 27.494
29.84000 11.171
29.85000 20.257
29.86000 24.348
29.87000 25.415
29.88000 13.276
29.89000 17.279
29.90000 21.330
29.91000 20.340
29.92000 38.601
29.93000 20.288
29.94000 32.470
29.95000 27.342
29.96000 27.304
29.97000 25.361
29.98000 21.059
29.99000 22.306
30.00000 20.298
30.01000 14.242
30.02000 22.149
30.03000 22.294
30.04000 10.122
30.05000 24.149
30.06000 22.256
30.07000 16.282
30.08000 16.190
30.09000 18.276
30.10000 13.175
30.11000 23.261
30.12000 25.350
30.13000 24.284
30.14000 21.182
30.15000 20.296
30.16000 20.419
30.17000 27.253
30.18000 19.290
30.19000 23.159
30.20000 22.294
30.21000 23.383
30.22000 14.379
30.23000 17.213
30.24000 22.247
30.25000 26.267
30.26000 23.475
30.27000 21.472
30.28000 15.180
30.29000 26.275
30.30000 26.125
30.31000 16.068
30.32000 19.458
30.33000 23.112
30.34000 16.263
30.35000 16.266
30.36000 18.164
30.37000 17.359
30.38000 18.319
30.39000 22.165
30.40000 20.336
30.41000 24.240
30.42000 19.223
30.43000 17.292
30.44000 22.431
30.45000 25.309
30.46000 16.322
30.47000 23.217
30.48000 26.210
30.49000 16.182
30.50000 21.298
30.51000 18.219
30.52000 14.188
30.53000 13.034
30.54000 24.292
30.55000 17.344
30.56000 17.278
30.57000 18.233
30.58000 12.141
30.59000 15.006
30.60000 25.166
30.61000 14.064
30.62000 17.214
30.63000 24.272
30.64000 17.142
30.65000 12.109
30.66000 19.218
30.67000 17.483
30.68000 20.353
30.69000 16.246
30.70000 17.209
30.71000 16.280
30.72000 24.447
30.73000 15.163
30.74000 12.050
30.75000 16.027
30.76000 14.124
30.77000 22.412
30.78000 16.031
30.79000 25.233
30.80000 15.244
30.81000 15.125
30.82000 24.293
30.83000 20.166
30.84000 15.009
30.85000 16.104
30.86000 13.302
30.87000 23.608
30.88000 19.323
30.89000 22.197
30.90000 13.132
30.91000 16.243
30.92000 11.235
30.93000 12.332
30.94000 11.133
30.95000 20.415
30.96000 29.403
30.97000 21.265
30.98000 13.002
30.99000 20.127
31.00000 15.120
31.01000 18.139
31.02000 17.335
31.03000 20.380
31.04000 18.216
31.05000 26.404
31.06000 21.224
31.07000 19.348
31.08000 15.396
31.09000 10.060
31.10000 17.223
31.11000 15.221
31.12000 14.180
31.13000 16.198
31.14000 18.297
31.15000 7.204
31.16000 21.343
31.17000 20.398
31.18000 11.109
31.19000 26.313
31.20000 26.418
31.21000 16.257
31.22000 17.254
31.23000 21.335
31.24000 21.309
31.25000 11.162
31.26000 18.368
31.27000 17.118
31.28000 16.227
31.29000 13.034
31.30000 19.328
31.31000 24.340
31.32000 19.121
31.33000 17.188
31.34000 12.232
31.35000 18.077
31.36000 14.191
31.37000 25.403
31.38000 17.188
31.39000 27.214
31.40000 26.468
31.41000 8.196
31.42000 12.097
31.43000 18.432
31.44000 13.263
31.45000 18.372
31.46000 13.068
31.47000 17.307
31.48000 15.215
31.49000 17.447
31.50000 12.036
31.51000 8.035
31.52000 22.140
31.53000 16.227
31.54000 19.248
31.55000 16.317
31.56000 15.146
31.57000 22.373
31.58000 22.146
31.59000 27.305
31.60000 13.990
31.61000 22.270
31.62000 10.244
31.63000 13.177
31.64000 15.295
31.65000 9.165
31.66000 20.063
31.67000 12.089
31.68000 11.177
31.69000 14.039
31.70000 16.182
31.71000 17.326
31.72000 16.270
31.73000 11.154
31.74000 17.193
31.75000 21.159
31.76000 13.248
31.77000 23.358
31.78000 23.242
31.79000 15.297
31.80000 16.088
31.81000 23.313
31.82000 14.124
31.83000 20.081
31.84000 17.109
31.85000 14.182
31.86000 8.077
31.87000 18.128
31.88000 17.145
31.89000 13.150
31.90000 12.032
31.91000 15.219
31.92000 13.056
31.93000 17.278
31.94000 14.202
31.95000 12.208
31.96000 14.077
31.97000 23.205
31.98000 16.299
31.99000 13.065
32.00000 15.249
32.01000 16.130
32.02000 20.101
32.03000 12.163
32.04000 10.106
32.05000 17.525
32.06000 13.078
32.07000 13.265
32.08000 16.258
32.09000 11.124
32.10000 16.109
32.11000 27.353
32.12000 19.103
32.13000 14.011
32.14000 20.274
32.15000 11.245
32.16000 21.498
32.17000 24.361
32.18000 17.328
32.19000 10.128
32.20000 15.224
32.21000 20.329
32.22000 9.177
32.23000 15.165
32.24000 8.004
32.25000 19.314
32.26000 17.247
32.27000 13.002
32.28000 11.155
32.29000 16.148
32.30000 15.031
32.31000 15.223
32.32000 6.104
32.33000 16.098
32.34000 11.226
32.35000 11.050
32.36000 11.254
32.37000 11.244
32.38000 21.303
32.39000 18.369
32.40000 12.140
32.41000 13.305
32.42000 14.215
32.43000 9.051
32.44000 16.123
32.45000 13.188
32.46000 15.208
32.47000 18.278
32.48000 16.016
32.49000 12.337
32.50000 14.210
32.51000 13.154
32.52000 15.182
32.53000 21.172
32.54000 10.991
32.55000 14.169
32.56000 20.408
32.57000 15.048
32.58000 11.250
32.59000 9.207
32.60000 19.294
32.61000 8.105
32.62000 9.086
32.63000 13.081
32.64000 14.200
32.65000 13.284
32.66000 15.337
32.67000 8.167
32.68000 11.207
32.69000 10.094
32.70000 11.266
32.71000 16.286
32.72000 12.152
32.73000 14.147
32.74000 14.121
32.75000 18.211
32.76000 10.096
32.77000 7.995
32.78000 13.097
32.79000 19.290
32.80000 9.003
32.81000 5.082
32.82000 11.198
32.83000 18.063
32.84000 9.091
32.85000 14.214
32.86000 12.182
32.87000 14.128
32.88000 14.138
32.89000 10.169
32.90000 7.009
32.91000 12.127
32.92000 7.080
32.93000 10.258
32.94000 11.198
32.95000 20.172
32.96000 8.199
32.97000 11.177
32.98000 13.271
32.99000 6.091
33.00000 17.314
33.01000 10.257
33.02000 12.200
33.03000 14.115
33.04000 14.104
33.05000 21.464
33.06000 10.994
33.07000 15.262
33.08000 14.037
33.09000 16.092
33.10000 7.059
33.11000 11.214
33.12000 10.074
33.13000 13.229
33.14000 12.102
33.15000 13.117
33.16000 16.095
33.17000 16.999
33.18000 9.151
33.19000 8.142
33.20000 8.087
33.21000 8.200
33.22000 12.111
33.23000 9.128
33.24000 18.271
33.25000 10.184
33.26000 11.067
33.27000 12.219
33.28000 20.437
33.29000 13.095
33.30000 14.267
33.31000 9.135
33.32000 9.081
33.33000 7.123
33.34000 12.160
33.35000 12.088
33.36000 12.313
33.37000 8.131
33.38000 13.023
33.39000 10.130
33.40000 10.165
33.41000 10.027
33.42000 9.062
33.43000 18.169
33.44000 13.050
33.45000 12.125
33.46000 15.215
33.47000 9.092
33.48000 9.220
33.49000 11.131
33.50000 7.148
33.51000 7.065
33.52000 10.150
33.53000 8.097
33.54000 5.140
33.55000 8.161
33.56000 12.137
33.57000 15.160
33.58000 13.116
33.59000 14.027
33.60000 7.112
33.61000 4.076
33.62000 10.141
33.63000 10.092
33.64000 13.192
33.65000 8.164
33.66000 9.021
33.67000 9.928
33.68000 8.207
33.69000 13.057
33.70000 13.206
33.71000 11.123
33.72000 13.272
33.73000 12.119
33.74000 9.053
33.75000 9.093
33.76000 12.292
33.77000 12.168
33.78000 15.344
33.79000 11.081
33.80000 4.033
33.81000 10.098
33.82000 10.989
33.83000 19.128
33.84000 7.128
33.85000 9.146
33.86000 13.123
33.87000 11.233
33.88000 6.090
33.89000 9.063
33.90000 13.162
33.91000 15.077
33.92000 8.267
33.93000 14.400
33.94000 13.149
33.95000 7.108
33.96000 8.158
33.97000 5.073
33.98000 8.078
33.99000 7.028
34.00000 9.122
34.01000 4.158
34.02000 8.063
34.03000 6.032
34.04000 16.366
34.05000 14.258
34.06000 9.115
34.07000 11.144
34.08000 12.150
34.09000 10.164
34.10000 20.222
34.11000 6.115
34.12000 3.022
34.13000 7.955
34.14000 10.145
34.15000 4.069
34.16000 7.986
34.17000 8.152
34.18000 7.008
34.19000 9.112
34.20000 12.270
34.21000 7.143
34.22000 5.090
34.23000 9.087
34.24000 8.065
34.25000 15.253
34.26000 10.121
34.27000 12.335
34.28000 10.114
34.29000 8.018
34.30000 10.273
34.31000 8.100
34.32000 10.209
34.33000 9.059
34.34000 14.111
34.35000 14.183
34.36000 14.238
34.37000 5.055
34.38000 10.163
34.39000 13.185
34.40000 10.142
34.41000 7.188
34.42000 9.097
34.43000 8.057
34.44000 6.098
34.45000 7.153
34.46000 8.115
34.47000 6.073
34.48000 5.986
34.49000 10.128
34.50000 11.121
34.51000 13.208
34.52000 8.123
34.53000 9.025
34.54000 5.077
34.55000 6.104
34.56000 8.121
34.57000 13.197
34.58000 9.016
34.59000 14.116
34.60000 15.128
34.61000 10.078
34.62000 13.254
34.63000 13.104
34.64000 12.288
34.65000 15.307
34.66000 6.044
34.67000 11.105
34.68000 5.007
34.69000 2.048
34.70000 6.202
34.71000 4.088
34.72000 7.924
34.73000 0.998
34.74000 9.265
34.75000 5.112
34.76000 7.109
34.77000 12.147
34.78000 11.180
34.79000 8.140
34.80000 11.161
34.81000 16.259
34.82000 8.080
34.83000 4.033
34.84000 9.188
34.85000 10.114
34.86000 4.102
34.87000 15.221
34.88000 5.097
34.89000 12.213
34.90000 12.347
34.91000 15.240
34.92000 5.037
34.93000 11.125
34.94000 14.031
34.95000 9.126
34.96000 6.957
34.97000 12.121
34.98000 4.066
34.99000 8.060
35.00000 6.159
35.01000 8.057
35.02000 14.034
35.03000 6.133
35.04000 13.227
35.05000 8.088
35.06000 7.165
35.07000 10.967
35.08000 10.105
35.09000 3.076
35.10000 7.997
35.11000 7.106
35.12000 4.133
35.13000 9.148
35.14000 8.108
35.15000 5.095
35.16000 5.086
35.17000 9.134
35.18000 8.144
35.19000 12.090
35.20000 8.168
35.21000 8.123
35.22000 7.110
35.23000 4.018
35.24000 12.216
35.25000 11.176
35.26000 10.027
35.27000 9.145
35.28000 4.029
35.29000 15.176
35.30000 7.179
35.31000 10.093
35.32000 14.271
35.33000 9.146
35.34000 8.111
35.35000 11.070
35.36000 7.045
35.37000 11.197
35.38000 10.121
35.39000 17.078
35.40000 15.254
35.41000 11.251
35.42000 12.170
35.43000 6.178
35.44000 8.992
35.45000 6.164
35.46000 11.192
35.47000 12.058
35.48000 7.994
35.49000 13.229
35.50000 7.153
35.51000 6.062
35.52000 9.115
35.53000 8.062
35.54000 11.163
35.55000 4.138
35.56000 6.083
35.57000 4.091
35.58000 10.181
35.59000 4.031
35.60000 6.142
35.61000 6.121
35.62000 2.093
35.63000 5.000
35.64000 12.053
35.65000 14.182
35.66000 10.097
35.67000 7.979
35.68000 2.034
35.69000 12.083
35.70000 14.063
35.71000 8.123
35.72000 10.206
35.73000 9.063
35.74000 7.013
35.75000 9.086
35.76000 5.230
35.77000 9.119
35.78000 6.024
35.79000 10.022
35.80000 9.147
35.81000 8.074
35.82000 11.129
35.83000 18.062
35.84000 10.074
35.85000 10.129
35.86000 15.125
35.87000 7.142
35.88000 6.120
35.89000 5.140
35.90000 10.131
35.91000 12.318
35.92000 6.080
35.93000 7.065
35.94000 12.109
35.95000 12.205
35.96000 9.079
35.97000 9.105
35.98000 9.149
35.99000 10.076
36.00000 12.022
36.01000 11.168
36.02000 12.034
36.03000 8.224
36.04000 14.133
36.05000 13.124
36.06000 7.059
36.07000 7.200
36.08000 9.043
36.09000 5.043
36.10000 10.117
36.11000 9.042
36.12000 7.128
36.13000 4.052
36.14000 9.132
36.15000 12.337
36.16000 7.132
36.17000 7.130
36.18000 7.078
36.19000 8.110
36.20000 8.035
36.21000 12.347
36.22000 12.415
36.23000 15.169
36.24000 21.306
36.25000 6.109
36.26000 12.088
36.27000 14.275
36.28000 5.054
36.29000 8.155
36.30000 11.210
36.31000 6.159
36.32000 8.037
36.33000 11.969
36.34000 10.043
36.35000 12.241
36.36000 7.039
36.37000 10.240
36.38000 9.136
36.39000 6.132
36.40000 13.132
36.41000 11.182
36.42000 12.248
36.43000 8.141
36.44000 7.100
36.45000 6.001
36.46000 11.111
36.47000 7.087
36.48000 12.232
36.49000 20.299
36.50000 9.060
36.51000 12.261
36.52000 14.163
36.53000 11.139
36.54000 8.279
36.55000 12.171
36.56000 11.148
36.57000 8.012
36.58000 9.062
36.59000 11.174
36.60000 6.180
36.61000 10.160
36.62000 8.151
36.63000 9.175
36.64000 7.022
36.65000 7.057
36.66000 10.093
36.67000 9.091
36.68000 12.160
36.69000 8.106
36.70000 12.296
36.71000 7.988
36.72000 11.181
36.73000 10.244
36.74000 13.374
36.75000 11.092
36.76000 8.160
36.77000 10.095
36.78000 11.169
36.79000 5.994
36.80000 5.086
36.81000 4.056
36.82000 6.968
36.83000 8.069
36.84000 17.045
36.85000 12.081
36.86000 9.154
36.87000 13.268
36.88000 11.090
36.89000 11.118
36.90000 7.084
36.91000 12.255
36.92000 11.239
36.93000 8.129
36.94000 11.075
36.95000 9.102
36.96000 4.117
36.97000 12.087
36.98000 13.099
36.99000 8.183
37.00000 4.006
37.01000 12.178
37.02000 15.226
37.03000 13.015
37.04000 10.092
37.05000 10.157
37.06000 14.001
37.07000 8.017
37.08000 11.033
37.09000 7.052
37.10000 9.029
37.11000 6.155
37.12000 14.224
37.13000 15.380
37.14000 17.117
37.15000 9.184
37.16000 10.170
37.17000 7.145
37.18000 7.105
37.19000 10.199
37.20000 14.238
37.21000 14.137
37.22000 11.084
37.23000 15.060
37.24000 5.102
37.25000 9.126
37.26000 6.023
37.27000 5.161
37.28000 11.187
37.29000 13.021
37.30000 12.013
37.31000 13.235
37.32000 8.013
37.33000 10.017
37.34000 5.120
37.35000 10.197
37.36000 8.086
37.37000 7.080
37.38000 12.194
37.39000 9.064
37.40000 11.130
37.41000 0.998
37.42000 9.964
37.43000 7.063
37.44000 7.986
37.45000 7.180
37.46000 9.118
37.47000 11.182
37.48000 9.963
37.49000 7.033
37.50000 9.154
37.51000 14.278
37.52000 6.088
37.53000 15.046
37.54000 10.104
37.55000 11.045
37.56000 10.078
37.57000 7.153
37.58000 7.141
37.59000 5.098
37.60000 7.057
37.61000 14.098
37.62000 11.154
37.63000 6.130
37.64000 10.090
37.65000 11.041
37.66000 7.101
37.67000 13.158
37.68000 5.012
37.69000 11.070
37.70000 12.030
37.71000 6.067
37.72000 9.909
37.73000 9.248
37.74000 7.968
37.75000 12.074
37.76000 6.150
37.77000 13.163
37.78000 10.006
37.79000 15.466
37.80000 15.282
37.81000 11.230
37.82000 9.117
37.83000 8.031
37.84000 11.034
37.85000 5.044
37.86000 13.171
37.87000 5.084
37.88000 12.204
37.89000 10.126
37.90000 8.145
37.91000 10.140
37.92000 10.993
37.93000 8.084
37.94000 8.100
37.95000 6.017
37.96000 11.216
37.97000 13.179
37.98000 9.049
37.99000 5.056
38.00000 5.037
38.01000 10.113
38.02000 7.063
38.03000 9.035
38.04000 8.090
38.05000 7.078
38.06000 9.182
38.07000 8.130
38.08000 9.122
38.09000 5.070
38.10000 7.263
38.11000 5.037
38.12000 12.060
38.13000 10.305
38.14000 12.096
38.15000 14.232
38.16000 10.079
38.17000 9.005
38.18000 13.108
38.19000 15.114
38.20000 12.147
38.21000 12.300
38.22000 3.056
38.23000 13.153
38.24000 6.072
38.25000 7.051
38.26000 6.095
38.27000 10.118
38.28000 12.276
38.29000 13.162
38.30000 9.099
38.31000 10.106
38.32000 13.263
38.33000 12.092
38.34000 10.249
38.35000 10.224
38.36000 10.170
38.37000 15.147
38.38000 9.083
38.39000 8.039
38.40000 7.120
38.41000 9.183
38.42000 11.131
38.43000 11.277
38.44000 3.019
38.45000 9.237
38.46000 9.103
38.47000 7.103
38.48000 8.087
38.49000 15.228
38.50000 7.962
38.51000 6.170
38.52000 8.990
38.53000 11.295
38.54000 9.137
38.55000 10.118
38.56000 10.101
38.57000 7.127
38.58000 6.050
38.59000 11.233
38.60000 12.048
38.61000 9.048
38.62000 8.190
38.63000 4.041
38.64000 9.254
38.65000 11.025
38.66000 11.178
38.67000 8.152
38.68000 4.080
38.69000 14.247
38.70000 4.067
38.71000 9.102
38.72000 13.395
38.73000 12.237
38.74000 11.068
38.75000 9.142
38.76000 14.331
38.77000 14.154
38.78000 6.036
38.79000 7.153
38.80000 9.216
38.81000 9.091
38.82000 13.105
38.83000 11.189
38.84000 11.071
38.85000 12.134
38.86000 12.158
38.87000 10.052
38.88000 12.162
38.89000 5.016
38.90000 13.286
38.91000 5.069
38.92000 9.220
38.93000 8.110
38.94000 9.991
38.95000 9.201
38.96000 11.281
38.97000 11.138
38.98000 8.114
38.99000 10.114
39.00000 10.029
39.01000 9.052
39.02000 9.012
39.03000 11.082
39.04000 13.095
39.05000 9.163
39.06000 8.030
39.07000 9.171
39.08000 11.172
39.09000 9.063
39.10000 9.240
39.11000 16.172
39.12000 9.208
39.13000 9.087
39.14000 12.334
39.15000 11.105
39.16000 6.050
39.17000 10.115
39.18000 14.256
39.19000 8.037
39.20000 12.060
39.21000 7.046
39.22000 10.093
39.23000 11.192
39.24000 12.248
39.25000 10.054
39.26000 7.101
39.27000 15.028
39.28000 7.098
39.29000 6.053
39.30000 15.213
39.31000 12.213
39.32000 14.178
39.33000 9.088
39.34000 15.293
39.35000 12.242
39.36000 8.179
39.37000 7.210
39.38000 12.273
39.39000 6.058
39.40000 7.162
39.41000 8.219
39.42000 13.244
39.43000 15.299
39.44000 6.129
39.45000 7.146
39.46000 9.120
39.47000 13.089
39.48000 14.179
39.49000 12.068
39.50000 9.130
39.51000 11.264
39.52000 11.251
39.53000 14.177
39.54000 9.165
39.55000 11.126
39.56000 14.019
39.57000 6.130
39.58000 14.237
39.59000 10.237
39.60000 13.091
39.61000 7.092
39.62000 16.334
39.63000 14.038
39.64000 12.148
39.65000 4.975
39.66000 9.061
39.67000 11.238
39.68000 8.959
39.69000 10.102
39.70000 11.203
39.71000 6.070
39.72000 12.212
39.73000 7.104
39.74000 5.088
39.75000 14.125
39.76000 2.023
39.77000 13.074
39.78000 11.116
39.79000 9.053
39.80000 10.975
39.81000 3.997
39.82000 22.278
39.83000 12.277
39.84000 10.150
39.85000 12.081
39.86000 6.056
39.87000 13.110
39.88000 14.154
39.89000 13.161
39.90000 8.127
39.91000 12.027
39.92000 10.187
39.93000 11.085
39.94000 12.139
39.95000 9.086
39.96000 12.234
39.97000 8.214
39.98000 13.120
39.99000 4.028
40.00000 7.082
40.01000 5.143
40.02000 13.188
40.03000 10.123
40.04000 7.971
40.05000 10.207
40.06000 8.088
40.07000 10.320
40.08000 9.065
40.09000 7.152
40.10000 9.050
40.11000 15.281
40.12000 6.020
40.13000 5.055
40.14000 23.309
40.15000 12.061
40.16000 12.138
40.17000 10.048
40.18000 11.047
40.19000 10.191
40.20000 12.080
40.21000 13.333
40.22000 15.168
40.23000 27.493
40.24000 2.995
40.25000 7.157
40.26000 8.108
40.27000 6.952
40.28000 5.957
40.29000 9.122
40.30000 6.052
40.31000 10.094
40.32000 16.033
40.33000 10.114
40.34000 10.202
40.35000 14.200
40.36000 7.063
40.37000 9.089
40.38000 14.185
40.39000 13.137
40.40000 9.056
40.41000 7.148
40.42000 11.058
40.43000 9.006
40.44000 13.078
40.45000 14.173
40.46000 11.110
40.47000 16.235
40.48000 6.040
40.49000 6.151
40.50000 14.055
40.51000 14.163
40.52000 4.987
40.53000 10.274
40.54000 8.110
40.55000 11.237
40.56000 4.085
40.57000 7.076
40.58000 11.347
40.59000 10.181
40.60000 5.994
40.61000 9.077
40.62000 8.129
40.63000 5.072
40.64000 7.965
40.65000 6.036
40.66000 11.244
40.67000 13.117
40.68000 10.165
40.69000 16.255
40.70000 14.295
40.71000 11.050
40.72000 9.170
40.73000 5.134
40.74000 12.121
40.75000 10.248
40.76000 17.120
40.77000 8.041
40.78000 11.172
40.79000 4.022
40.80000 14.315
40.81000 6.181
40.82000 13.200
40.83000 10.969
40.84000 6.983
40.85000 10.121
40.86000 18.260
40.87000 11.164
40.88000 2.977
40.89000 9.037
40.90000 13.219
40.91000 9.170
40.92000 11.131
40.93000 9.083
40.94000 9.121
40.95000 10.105
40.96000 6.118
40.97000 5.135
40.98000 8.133
40.99000 7.115
41.00000 8.126
41.01000 12.132
41.02000 10.104
41.03000 8.152
41.04000 12.218
41.05000 6.085
41.06000 16.195
41.07000 14.216
41.08000 10.063
41.09000 10.141
41.10000 11.244
41.11000 7.210
41.12000 5.062
41.13000 11.201
41.14000 6.119
41.15000 8.135
41.16000 11.143
41.17000 6.991
41.18000 16.020
41.19000 7.082
41.20000 16.407
41.21000 5.109
41.22000 14.206
41.23000 5.056
41.24000 8.128
41.25000 9.220
41.26000 8.032
41.27000 8.144
41.28000 11.105
41.29000 12.034
41.30000 10.086
41.31000 8.201
41.32000 18.311
41.33000 10.240
41.34000 11.171
41.35000 14.146
41.36000 10.206
41.37000 7.079
41.38000 12.159
41.39000 11.146
41.40000 11.147
41.41000 4.076
41.42000 12.192
41.43000 11.246
41.44000 7.038
41.45000 5.121
41.46000 14.243
41.47000 7.116
41.48000 8.106
41.49000 8.142
41.50000 5.014
41.51000 4.075
41.52000 8.100
41.53000 10.235
41.54000 10.125
41.55000 12.115
41.56000 19.345
41.57000 9.006
41.58000 10.087
41.59000 8.167
41.60000 10.036
41.61000 15.200
41.62000 14.273
41.63000 5.042
41.64000 11.172
41.65000 13.289
41.66000 13.136
41.67000 10.136
41.68000 12.257
41.69000 12.156
41.70000 8.165
41.71000 11.056
41.72000 7.982
41.73000 8.077
41.74000 9.011
41.75000 13.226
41.76000 11.214
41.77000 9.093
41.78000 8.191
41.79000 12.277
41.80000 5.008
41.81000 12.257
41.82000 9.055
41.83000 6.059
41.84000 9.215
41.85000 6.047
41.86000 7.080
41.87000 16.085
41.88000 12.322
41.89000 16.206
41.90000 17.348
41.91000 11.189
41.92000 12.171
41.93000 10.111
41.94000 12.154
41.95000 11.171
41.96000 6.098
41.97000 11.089
41.98000 10.076
41.99000 13.051
42.00000 4.998
42.01000 8.115
42.02000 12.055
42.03000 12.161
42.04000 9.152
42.05000 12.107
42.06000 9.106
42.07000 8.152
42.08000 7.019
42.09000 8.129
42.10000 7.942
42.11000 11.134
42.12000 9.047
42.13000 7.035
42.14000 11.080
42.15000 13.155
42.16000 9.112
42.17000 8.161
42.18000 8.179
42.19000 14.213
42.20000 10.128
42.21000 14.342
42.22000 12.203
42.23000 8.139
42.24000 15.043
42.25000 8.141
42.26000 7.120
42.27000 8.201
42.28000 9.131
42.29000 7.168
42.30000 9.150
42.31000 7.133
42.32000 8.121
42.33000 12.184
42.34000 9.190
42.35000 8.132
42.36000 3.098
42.37000 11.071
42.38000 9.166
42.39000 4.152
42.40000 13.155
42.41000 13.119
42.42000 5.095
42.43000 13.215
42.44000 6.131
42.45000 10.195
42.46000 5.973
42.47000 11.099
42.48000 13.150
42.49000 12.211
42.50000 9.120
42.51000 8.107
42.52000 8.166
42.53000 13.108
42.54000 4.012
42.55000 8.130
42.56000 10.052
42.57000 7.096
42.58000 18.176
42.59000 8.084
42.60000 7.103
42.61000 10.200
42.62000 10.255
42.63000 11.152
42.64000 13.244
42.65000 8.964
42.66000 9.142
42.67000 9.120
42.68000 10.077
42.69000 13.133
42.70000 16.154
42.71000 12.247
42.72000 8.104
42.73000 9.102
42.74000 8.152
42.75000 6.100
42.76000 10.135
42.77000 10.127
42.78000 9.110
42.79000 8.138
42.80000 8.165
42.81000 9.171
42.82000 10.061
42.83000 11.112
42.84000 10.149
42.85000 5.969
42.86000 11.052
42.87000 13.249
42.88000 10.161
42.89000 7.132
42.90000 8.182
42.91000 9.193
42.92000 6.155
42.93000 9.037
42.94000 7.073
42.95000 12.122
42.96000 8.114
42.97000 4.990
42.98000 7.130
42.99000 10.091
43.00000 5.114
43.01000 10.205
43.02000 16.300
43.03000 8.104
43.04000 8.174
43.05000 12.086
43.06000 10.983
43.07000 8.186
43.08000 5.147
43.09000 11.245
43.10000 13.154
43.11000 13.107
43.12000 6.041
43.13000 7.072
43.14000 8.103
43.15000 12.022
43.16000 9.195
43.17000 13.151
43.18000 10.064
43.19000 9.200
43.20000 9.111
43.21000 7.154
43.22000 10.008
43.23000 5.040
43.24000 3.084
43.25000 6.120
43.26000 10.087
43.27000 7.256
43.28000 8.044
43.29000 7.016
43.30000 6.984
43.31000 4.081
43.32000 13.192
43.33000 10.066
43.34000 12.137
43.35000 7.996
43.36000 12.162
43.37000 16.291
43.38000 11.262
43.39000 4.063
43.40000 11.170
43.41000 5.083
43.42000 10.120
43.43000 12.163
43.44000 12.043
43.45000 9.097
43.46000 9.076
43.47000 9.192
43.48000 10.075
43.49000 8.135
43.50000 11.246
43.51000 11.070
43.52000 14.122
43.53000 9.283
43.54000 6.107
43.55000 11.069
43.56000 7.145
43.57000 9.060
43.58000 16.080
43.59000 9.240
43.60000 10.109
43.61000 14.024
43.62000 4.066
43.63000 8.129
43.64000 11.050
43.65000 10.135
43.66000 18.106
43.67000 8.028
43.68000 14.250
43.69000 9.242
43.70000 11.206
43.71000 10.241
43.72000 7.071
43.73000 10.140
43.74000 6.049
43.75000 12.120
43.76000 9.969
43.77000 9.992
43.78000 10.077
43.79000 12.191
43.80000 14.328
43.81000 8.147
43.82000 7.045
43.83000 8.116
43.84000 12.372
43.85000 12.269
43.86000 7.003
43.87000 5.112
43.88000 14.365
43.89000 16.374
43.90000 11.091
43.91000 9.215
43.92000 11.059
43.93000 10.072
43.94000 10.074
43.95000 6.184
43.96000 6.134
43.97000 9.147
43.98000 6.089
43.99000 12.156
44.00000 8.078
44.01000 12.248
44.02000 7.966
44.03000 11.091
44.04000 11.158
44.05000 11.182
44.06000 18.377
44.07000 5.075
44.08000 8.080
44.09000 7.220
44.10000 7.098
44.11000 12.163
44.12000 10.071
44.13000 9.084
44.14000 12.183
44.15000 12.221
44.16000 10.107
44.17000 11.371
44.18000 14.312
44.19000 8.192
44.20000 7.082
44.21000 10.224
44.22000 5.057
44.23000 13.119
44.24000 4.077
44.25000 10.081
44.26000 8.123
44.27000 9.117
44.28000 15.298
44.29000 7.109
44.30000 9.262
44.31000 8.155
44.32000 8.043
44.33000 6.115
44.34000 7.108
44.35000 6.030
44.36000 12.151
44.37000 5.957
44.38000 10.095
44.39000 6.121
44.40000 12.162
44.41000 4.086
44.42000 5.134
44.43000 6.049
44.44000 5.041
44.45000 6.982
44.46000 8.191
44.47000 7.053
44.48000 13.243
44.49000 10.996
44.50000 10.345
44.51000 6.166
44.52000 7.171
44.53000 8.176
44.54000 17.287
44.55000 8.009
44.56000 9.038
44.57000 7.121
44.58000 8.157
44.59000 10.139
44.60000 14.288
44.61000 11.229
44.62000 7.130
44.63000 7.215
44.64000 14.215
44.65000 7.099
44.66000 8.039
44.67000 10.105
44.68000 8.041
44.69000 10.032
44.70000 5.036
44.71000 9.225
44.72000 8.064
44.73000 4.980
44.74000 14.331
44.75000 12.263
44.76000 4.995
44.77000 23.205
44.78000 11.237
44.79000 9.064
44.80000 8.207
44.81000 9.090
44.82000 13.155
44.83000 7.015
44.84000 8.186
44.85000 12.222
44.86000 11.257
44.87000 13.190
44.88000 9.109
44.89000 11.049
44.90000 5.120
44.91000 12.225
44.92000 11.301
44.93000 8.116
44.94000 8.172
44.95000 6.158
44.96000 9.094
44.97000 10.068
44.98000 12.978
44.99000 9.103
45.00000 8.053
45.01000 4.014
45.02000 6.140
45.03000 9.197
45.04000 9.125
45.05000 11.101
45.06000 8.231
45.07000 5.062
45.08000 4.077
45.09000 8.006
45.10000 8.069
45.11000 9.043
45.12000 10.088
45.13000 10.099
45.14000 6.985
45.15000 13.096
45.16000 11.224
45.17000 13.241
45.18000 9.225
45.19000 8.120
45.20000 14.085
45.21000 10.163
45.22000 15.122
45.23000 8.146
45.24000 13.162
45.25000 7.102
45.26000 4.061
45.27000 14.090
45.28000 10.077
45.29000 9.000
45.30000 13.068
45.31000 13.210
45.32000 7.023
45.33000 10.132
45.34000 7.191
45.35000 12.203
45.36000 14.212
45.37000 9.313
45.38000 14.009
45.39000 9.046
45.40000 9.140
45.41000 14.296
45.42000 11.041
45.43000 11.165
45.44000 10.090
45.45000 10.251
45.46000 11.203
45.47000 13.139
45.48000 9.075
45.49000 11.090
45.50000 15.145
45.51000 7.134
45.52000 10.103
45.53000 7.055
45.54000 10.114
45.55000 7.109
45.56000 11.112
45.57000 11.149
45.58000 7.112
45.59000 12.163
45.60000 10.146
45.61000 7.184
45.62000 9.024
45.63000 7.107
45.64000 12.268
45.65000 10.193
45.66000 12.084
45.67000 9.204
45.68000 5.083
45.69000 12.090
45.70000 13.141
45.71000 5.116
45.72000 8.069
45.73000 11.222
45.74000 9.228
45.75000 13.105
45.76000 12.163
45.77000 13.336
45.78000 9.102
45.79000 14.036
45.80000 10.160
45.81000 11.122
45.82000 8.088
45.83000 10.197
45.84000 16.251
45.85000 15.218
45.86000 8.217
45.87000 8.105
45.88000 10.173
45.89000 5.956
45.90000 11.129
45.91000 15.081
45.92000 9.262
45.93000 6.970
45.94000 12.234
45.95000 5.075
45.96000 8.203
45.97000 8.112
45.98000 16.038
45.99000 10.277
46.00000 12.147
46.01000 3.121
46.02000 6.071
46.03000 5.091
46.04000 9.043
46.05000 8.139
46.06000 15.160
46.07000 13.207
46.08000 8.212
46.09000 8.121
46.10000 15.314
46.11000 7.120
46.12000 11.113
46.13000 13.229
46.14000 12.096
46.15000 7.085
46.16000 10.092
46.17000 8.068
46.18000 13.310
46.19000 5.108
46.20000 5.058
46.21000 3.982
46.22000 6.185
46.23000 8.129
46.24000 13.197
46.25000 7.041
46.26000 8.140
46.27000 6.064
46.28000 8.136
46.29000 14.118
46.30000 15.155
46.31000 9.036
46.32000 5.220
46.33000 5.083
46.34000 8.206
46.35000 5.101
46.36000 4.118
46.37000 10.065
46.38000 10.086
46.39000 13.192
46.40000 10.062
46.41000 5.079
46.42000 12.232
46.43000 8.016
46.44000 6.111
46.45000 13.248
46.46000 10.166
46.47000 5.074
46.48000 6.083
46.49000 9.159
46.50000 7.112
46.51000 12.092
46.52000 12.271
46.53000 2.013
46.54000 12.190
46.55000 6.132
46.56000 5.046
46.57000 7.163
46.58000 4.031
46.59000 9.108
46.60000 12.219
46.61000 5.035
46.62000 7.080
46.63000 13.265
46.64000 13.094
46.65000 11.164
46.66000 10.164
46.67000 5.042
46.68000 13.439
46.69000 10.125
46.70000 11.114
46.71000 8.080
46.72000 12.119
46.73000 13.177
46.74000 11.089
46.75000 11.161
46.76000 12.461
46.77000 9.064
46.78000 10.042
46.79000 6.165
46.80000 8.008
46.81000 12.105
46.82000 4.080
46.83000 5.080
46.84000 4.042
46.85000 16.115
46.86000 14.087
46.87000 9.084
46.88000 14.065
46.89000 10.215
46.90000 11.187
46.91000 9.120
46.92000 8.056
46.93000 14.175
46.94000 10.111
46.95000 7.205
46.96000 9.086
46.97000 10.163
46.98000 7.131
46.99000 8.026
47.00000 8.106
47.01000 9.049
47.02000 8.383
47.03000 12.121
47.04000 7.130
47.05000 9.037
47.06000 9.144
47.07000 7.133
47.08000 7.076
47.09000 7.142
47.10000 10.110
47.11000 17.413
47.12000 11.203
47.13000 12.067
47.14000 10.150
47.15000 9.150
47.16000 13.080
47.17000 8.066
47.18000 7.009
47.19000 12.077
47.20000 13.274
47.21000 12.217
47.22000 8.202
47.23000 9.199
47.24000 7.110
47.25000 10.123
47.26000 10.153
47.27000 11.150
47.28000 7.062
47.29000 9.247
47.30000 14.024
47.31000 4.924
47.32000 8.125
47.33000 12.126
47.34000 12.268
47.35000 11.143
47.36000 9.030
47.37000 12.082
47.38000 8.105
47.39000 13.113
47.40000 13.101
47.41000 10.116
47.42000 13.238
47.43000 5.979
47.44000 8.033
47.45000 3.048
47.46000 9.075
47.47000 13.144
47.48000 8.039
47.49000 8.014
47.50000 8.018
47.51000 9.103
47.52000 8.153
47.53000 5.963
47.54000 18.406
47.55000 13.141
47.56000 8.090
47.57000 7.041
47.58000 11.058
47.59000 15.209
47.60000 8.100
47.61000 13.146
47.62000 14.267
47.63000 7.145
47.64000 5.008
47.65000 10.205
47.66000 9.110
47.67000 7.027
47.68000 7.170
47.69000 11.121
47.70000 11.218
47.71000 10.179
47.72000 8.088
47.73000 9.978
47.74000 5.041
47.75000 1.990
47.76000 10.141
47.77000 11.084
47.78000 8.141
47.79000 9.174
47.80000 10.068
47.81000 11.121
47.82000 11.195
47.83000 10.126
47.84000 10.060
47.85000 10.173
47.86000 6.084
47.87000 8.217
47.88000 9.029
47.89000 9.068
47.90000 7.056
47.91000 17.018
47.92000 7.062
47.93000 7.997
47.94000 5.074
47.95000 11.106
47.96000 17.251
47.97000 9.204
47.98000 10.165
47.99000 10.102
48.00000 7.115
48.01000 9.114
48.02000 8.221
48.03000 13.148
48.04000 7.037
48.05000 10.199
48.06000 10.309
48.07000 7.135
48.08000 6.024
48.09000 9.112
48.10000 12.134
48.11000 9.021
48.12000 9.127
48.13000 11.211
48.14000 4.053
48.15000 7.030
48.16000 5.915
48.17000 8.159
48.18000 9.044
48.19000 7.076
48.20000 10.029
48.21000 8.145
48.22000 5.124
48.23000 8.079
48.24000 12.200
48.25000 7.095
48.26000 6.080
48.27000 7.213
48.28000 13.108
48.29000 10.150
48.30000 8.174
48.31000 8.035
48.32000 15.088
48.33000 13.263
48.34000 7.016
48.35000 6.077
48.36000 10.330
48.37000 12.159
48.38000 10.137
48.39000 13.141
48.40000 10.175
48.41000 7.106
48.42000 6.029
48.43000 15.212
48.44000 13.174
48.45000 8.204
48.46000 10.118
48.47000 6.083
48.48000 9.255
48.49000 8.026
48.50000 8.041
48.51000 4.085
48.52000 7.114
48.53000 8.112
48.54000 6.029
48.55000 11.323
48.56000 12.155
48.57000 7.141
48.58000 14.089
48.59000 6.097
48.60000 8.102
48.61000 8.056
48.62000 5.049
48.63000 10.184
48.64000 8.103
48.65000 6.158
48.66000 11.184
48.67000 5.163
48.68000 6.100
48.69000 4.983
48.70000 7.131
48.71000 7.122
48.72000 13.216
48.73000 8.092
48.74000 9.012
48.75000 8.176
48.76000 5.096
48.77000 5.118
48.78000 9.105
48.79000 9.004
48.80000 11.102
48.81000 5.088
48.82000 10.172
48.83000 2.987
48.84000 7.040
48.85000 5.071
48.86000 11.118
48.87000 14.318
48.88000 6.087
48.89000 8.001
48.90000 8.108
48.91000 13.130
48.92000 12.116
48.93000 6.162
48.94000 5.009
48.95000 7.127
48.96000 4.029
48.97000 14.167
48.98000 11.242
48.99000 2.973
49.00000 11.993
49.01000 6.098
49.02000 13.048
49.03000 12.234
49.04000 11.159
49.05000 9.133
49.06000 10.139
49.07000 8.116
49.08000 9.121
49.09000 8.187
49.10000 11.236
49.11000 10.997
49.12000 7.174
49.13000 7.176
49.14000 4.107
49.15000 8.982
49.16000 10.205
49.17000 8.144
49.18000 7.117
49.19000 6.045
49.20000 5.038
49.21000 14.303
49.22000 10.158
49.23000 5.056
49.24000 8.093
49.25000 12.132
49.26000 8.233
49.27000 9.080
49.28000 7.097
49.29000 10.207
49.30000 6.056
49.31000 7.123
49.32000 10.121
49.33000 6.094
49.34000 8.111
49.35000 11.144
49.36000 13.169
49.37000 5.149
49.38000 9.227
49.39000 11.337
49.40000 7.101
49.41000 9.036
49.42000 3.083
49.43000 7.179
49.44000 11.049
49.45000 9.076
49.46000 9.093
49.47000 7.009
49.48000 10.992
49.49000 6.141
49.50000 6.081
49.51000 11.080
49.52000 8.001
49.53000 10.037
49.54000 13.982
49.55000 11.376
49.56000 6.036
49.57000 10.310
49.58000 6.095
49.59000 4.960
49.60000 9.202
49.61000 6.095
49.62000 7.151
49.63000 9.138
49.64000 8.174
49.65000 7.111
49.66000 5.032
49.67000 6.031
49.68000 14.162
49.69000 12.179
49.70000 8.128
49.71000 7.099
49.72000 10.099
49.73000 5.106
49.74000 6.139
49.75000 8.036
49.76000 6.024
49.77000 10.052
49.78000 5.057
49.79000 9.138
49.80000 13.193
49.81000 11.055
49.82000 9.009
49.83000 9.123
49.84000 7.064
49.85000 8.082
49.86000 9.131
49.87000 8.180
49.88000 7.152
49.89000 6.048
49.90000 7.200
49.91000 9.169
49.92000 10.154
49.93000 6.056
49.94000 5.056
49.95000 12.192
49.96000 8.144
49.97000 7.964
49.98000 10.073
49.99000 8.001
50.00000 13.263
50.01000 8.153
50.02000 7.068
50.03000 7.026
50.04000 8.137
50.05000 8.028
50.06000 9.036
50.07000 10.094
50.08000 7.197
50.09000 8.175
50.10000 8.083
50.11000 12.998
50.12000 9.135
50.13000 10.023
50.14000 11.130
50.15000 9.090
50.16000 1.973
50.17000 11.115
50.18000 4.069
50.19000 11.187
50.20000 8.095
50.21000 9.154
50.22000 9.110
50.23000 10.235
50.24000 6.021
50.25000 6.113
50.26000 8.077
50.27000 11.206
50.28000 13.084
50.29000 5.118
50.30000 9.245
50.31000 3.996
50.32000 10.212
50.33000 13.213
50.34000 9.073
50.35000 7.090
50.36000 5.009
50.37000 8.265
50.38000 10.079
50.39000 7.089
50.40000 4.114
50.41000 10.183
50.42000 11.122
50.43000 11.113
50.44000 7.060
50.45000 8.080
50.46000 4.072
50.47000 10.158
50.48000 9.129
50.49000 7.192
50.50000 5.053
50.51000 11.221
50.52000 9.146
50.53000 10.207
50.54000 13.009
50.55000 6.029
50.56000 12.289
50.57000 10.062
50.58000 5.011
50.59000 7.097
50.60000 8.132
50.61000 12.077
50.62000 9.119
50.63000 9.145
50.64000 7.990
50.65000 4.053
50.66000 18.223
50.67000 8.142
50.68000 9.143
50.69000 8.113
50.70000 5.057
50.71000 9.048
50.72000 12.127
50.73000 14.082
50.74000 12.176
50.75000 7.072
50.76000 10.202
50.77000 7.291
50.78000 11.149
50.79000 11.138
50.80000 6.048
50.81000 6.187
50.82000 12.163
50.83000 4.971
50.84000 12.036
50.85000 18.278
50.86000 5.017
50.87000 9.030
50.88000 4.054
50.89000 6.073
50.90000 11.114
50.91000 5.071
50.92000 8.172
50.93000 5.086
50.94000 10.063
50.95000 3.978
50.96000 6.059
50.97000 6.034
50.98000 4.001
50.99000 7.006
51.00000 9.284
51.01000 9.033
51.02000 3.080
51.03000 9.236
51.04000 8.093
51.05000 9.162
51.06000 4.066
51.07000 11.079
51.08000 10.224
51.09000 6.135
51.10000 9.974
51.11000 17.209
51.12000 4.110
51.13000 6.045
51.14000 9.106
51.15000 11.091
51.16000 14.143
51.17000 9.059
51.18000 10.159
51.19000 13.207
51.20000 9.052
51.21000 9.143
51.22000 7.118
51.23000 3.021
51.24000 11.185
51.25000 10.109
51.26000 5.054
51.27000 11.094
51.28000 9.026
51.29000 7.134
51.30000 7.165
51.31000 9.081
51.32000 10.284
51.33000 12.179
51.34000 12.312
51.35000 8.206
51.36000 4.060
51.37000 7.094
51.38000 11.088
51.39000 15.165
51.40000 6.948
51.41000 12.213
51.42000 13.238
51.43000 7.066
51.44000 9.134
51.45000 7.080
51.46000 12.195
51.47000 12.080
51.48000 12.103
51.49000 2.026
51.50000 8.104
51.51000 6.130
51.52000 9.025
51.53000 6.096
51.54000 14.318
51.55000 6.062
51.56000 10.058
51.57000 10.100
51.58000 12.117
51.59000 13.275
51.60000 10.158
51.61000 4.112
51.62000 5.058
51.63000 8.108
51.64000 4.078
51.65000 6.047
51.66000 6.035
51.67000 4.093
51.68000 4.005
51.69000 9.128
51.70000 6.117
51.71000 12.165
51.72000 8.240
51.73000 6.082
51.74000 12.244
51.75000 13.150
51.76000 6.091
51.77000 7.115
51.78000 6.061
51.79000 4.097
51.80000 7.014
51.81000 7.136
51.82000 13.085
51.83000 7.179
51.84000 10.125
51.85000 9.209
51.86000 9.205
51.87000 5.151
51.88000 5.050
51.89000 4.151
51.90000 10.120
51.91000 5.077
51.92000 11.170
51.93000 2.974
51.94000 5.072
51.95000 2.029
51.96000 6.184
51.97000 9.088
51.98000 10.082
51.99000 7.042
52.00000 9.163
52.01000 8.093
52.02000 8.095
52.03000 5.078
52.04000 7.105
52.05000 11.057
52.06000 7.165
52.07000 4.011
52.08000 7.136
52.09000 4.086
52.10000 6.009
52.11000 4.026
52.12000 9.275
52.13000 7.071
52.14000 7.178
52.15000 11.280
52.16000 12.049
52.17000 4.133
52.18000 7.054
52.19000 9.001
52.20000 8.089
52.21000 7.181
52.22000 4.185
52.23000 5.171
52.24000 4.131
52.25000 7.148
52.26000 6.218
52.27000 0.990
52.28000 6.181
52.29000 13.174
52.30000 4.085
52.31000 12.242
52.32000 6.123
52.33000 13.135
52.34000 9.068
52.35000 6.061
52.36000 10.138
52.37000 8.014
52.38000 10.351
52.39000 6.122
52.40000 15.180
52.41000 6.118
52.42000 9.077
52.43000 4.993
52.44000 10.125
52.45000 8.097
52.46000 6.043
52.47000 8.044
52.48000 6.039
52.49000 7.061
52.50000 11.196
52.51000 4.019
52.52000 6.105
52.53000 7.109
52.54000 7.956
52.55000 12.045
52.56000 11.156
52.57000 8.231
52.58000 8.096
52.59000 6.059
52.60000 6.064
52.61000 7.047
52.62000 15.295
52.63000 10.123
52.64000 3.002
52.65000 9.136
52.66000 6.045
52.67000 7.072
52.68000 8.227
52.69000 5.055
52.70000 9.153
52.71000 7.067
52.72000 6.136
52.73000 5.967
52.74000 8.166
52.75000 8.100
52.76000 7.002
52.77000 8.113
52.78000 9.192
52.79000 15.234
52.80000 5.133
52.81000 5.055
52.82000 6.169
52.83000 7.057
52.84000 3.069
52.85000 4.000
52.86000 6.984
52.87000 11.279
52.88000 10.074
52.89000 6.063
52.90000 6.128
52.91000 7.002
52.92000 6.095
52.93000 4.115
52.94000 8.056
52.95000 5.000
52.96000 6.094
52.97000 2.992
52.98000 12.095
52.99000 6.100
53.00000 5.070
53.01000 9.125
53.02000 6.116
53.03000 7.134
53.04000 4.069
53.05000 5.130
53.06000 10.236
53.07000 7.087
53.08000 5.053
53.09000 8.079
53.10000 5.056
53.11000 10.166
53.12000 14.130
53.13000 5.111
53.14000 10.068
53.15000 10.150
53.16000 5.064
53.17000 9.143
53.18000 9.039
53.19000 12.165
53.20000 6.022
53.21000 5.041
53.22000 4.030
53.23000 10.122
53.24000 11.237
53.25000 6.102
53.26000 9.049
53.27000 9.187
53.28000 5.115
53.29000 11.166
53.30000 10.152
53.31000 8.100
53.32000 9.036
53.33000 9.144
53.34000 5.123
53.35000 11.077
53.36000 11.160
53.37000 5.067
53.38000 9.020
53.39000 7.114
53.40000 4.078
53.41000 4.104
53.42000 8.149
53.43000 10.033
53.44000 8.052
53.45000 10.174
53.46000 8.235
53.47000 8.194
53.48000 2.048
53.49000 13.061
53.50000 5.030
53.51000 13.102
53.52000 2.047
53.53000 4.033
53.54000 5.045
53.55000 3.022
53.56000 7.081
53.57000 9.223
53.58000 6.053
53.59000 7.047
53.60000 9.029
53.61000 5.993
53.62000 8.082
53.63000 6.074
53.64000 4.034
53.65000 7.241
53.66000 6.045
53.67000 8.100
53.68000 9.077
53.69000 6.031
53.70000 5.018
53.71000 6.027
53.72000 14.082
53.73000 9.133
53.74000 5.029
53.75000 11.070
53.76000 9.074
53.77000 6.126
53.78000 11.230
53.79000 7.042
53.80000 6.055
53.81000 10.109
53.82000 8.228
53.83000 6.155
53.84000 7.022
53.85000 11.173
53.86000 5.085
53.87000 8.147
53.88000 7.139
53.89000 4.103
53.90000 9.167
53.91000 7.130
53.92000 5.072
53.93000 6.063
53.94000 3.997
53.95000 4.072
53.96000 6.084
53.97000 13.113
53.98000 7.081
53.99000 16.313
54.00000 11.098
54.01000 12.093
54.02000 6.047
54.03000 9.082
54.04000 10.995
54.05000 5.017
54.06000 9.106
54.07000 4.020
54.08000 6.118
54.09000 6.019
54.10000 10.310
54.11000 4.943
54.12000 4.010
54.13000 4.052
54.14000 8.000
54.15000 5.959
54.16000 5.041
54.17000 9.202
54.18000 7.216
54.19000 8.025
54.20000 6.180
54.21000 6.266
54.22000 6.025
54.23000 11.201
54.24000 4.063
54.25000 9.049
54.26000 3.020
54.27000 6.089
54.28000 2.989
54.29000 1.979
54.30000 4.074
54.31000 4.052
54.32000 12.192
54.33000 10.304
54.34000 6.048
54.35000 8.045
54.36000 4.080
54.37000 3.029
54.38000 7.091
54.39000 6.202
54.40000 13.214
54.41000 5.988
54.42000 5.069
54.43000 6.190
54.44000 2.982
54.45000 7.153
54.46000 5.028
54.47000 5.986
54.48000 9.223
54.49000 11.324
54.50000 7.960
54.51000 5.128
54.52000 7.171
54.53000 6.056
54.54000 9.274
54.55000 2.015
54.56000 5.957
54.57000 5.046
54.58000 6.113
54.59000 4.043
54.60000 8.040
54.61000 6.078
54.62000 4.095
54.63000 12.308
54.64000 7.030
54.65000 6.142
54.66000 4.994
54.67000 5.136
54.68000 5.952
54.69000 7.185
54.70000 5.106
54.71000 2.080
54.72000 10.031
54.73000 7.183
54.74000 12.098
54.75000 11.003
54.76000 5.177
54.77000 3.138
54.78000 8.218
54.79000 10.106
54.80000 4.147
54.81000 13.088
54.82000 9.225
54.83000 4.998
54.84000 9.014
54.85000 12.208
54.86000 8.080
54.87000 4.018
54.88000 10.161
54.89000 3.026
54.90000 5.042
54.91000 10.317
54.92000 4.059
54.93000 3.048
54.94000 5.151
54.95000 8.192
54.96000 6.136
54.97000 8.035
54.98000 5.162
54.99000 8.112
55.00000 6.093
55.01000 6.022
55.02000 4.995
55.03000 7.066
55.04000 7.085
55.05000 5.007
55.06000 5.032
55.07000 5.115
55.08000 9.179
55.09000 5.059
55.10000 0.997
55.11000 6.194
55.12000 4.088
55.13000 12.248
55.14000 12.010
55.15000 5.168
55.16000 5.114
55.17000 6.010
55.18000 10.065
55.19000 2.066
55.20000 7.082
55.21000 8.073
55.22000 9.160
55.23000 4.015
55.24000 3.976
55.25000 8.153
55.26000 10.173
55.27000 4.034
55.28000 8.052
55.29000 9.072
55.30000 6.068
55.31000 7.111
55.32000 1.983
55.33000 1.016
55.34000 7.073
55.35000 2.977
55.36000 10.168
55.37000 2.998
55.38000 10.164
55.39000 4.037
55.40000 4.040
55.41000 8.226
55.42000 3.033
55.43000 4.009
55.44000 9.116
55.45000 2.042
55.46000 5.983
55.47000 8.095
55.48000 8.018
55.49000 1.997
55.50000 9.063
55.51000 12.270
55.52000 9.090
55.53000 4.029
55.54000 8.063
55.55000 4.163
55.56000 4.020
55.57000 4.074
55.58000 3.043
55.59000 6.148
55.60000 4.105
55.61000 5.113
55.62000 7.037
55.63000 5.079
55.64000 4.089
55.65000 4.106
55.66000 6.081
55.67000 6.017
55.68000 3.053
55.69000 11.137
55.70000 6.001
55.71000 9.219
55.72000 3.999
55.73000 6.092
55.74000 5.162
55.75000 3.048
55.76000 9.080
55.77000 6.044
55.78000 5.130
55.79000 9.174
55.80000 6.138
55.81000 5.122
55.82000 5.097
55.83000 6.042
55.84000 3.069
55.85000 5.032
55.86000 8.076
55.87000 8.054
55.88000 4.017
55.89000 8.108
55.90000 7.027
55.91000 6.134
55.92000 8.356
55.93000 7.070
55.94000 9.217
55.95000 1.009
55.96000 6.019
55.97000 3.040
55.98000 4.114
55.99000 11.015
56.00000 9.052
56.01000 9.025
56.02000 5.994
56.03000 4.036
56.04000 3.967
56.05000 5.029
56.06000 7.112
56.07000 8.209
56.08000 7.119
56.09000 9.123
56.10000 6.006
56.11000 8.075
56.12000 6.025
56.13000 5.124
56.14000 4.012
56.15000 4.054
56.16000 9.029
56.17000 7.091
56.18000 5.185
56.19000 4.066
56.20000 8.130
56.21000 4.065
56.22000 9.124
56.23000 12.159
56.24000 4.997
56.25000 9.069
56.26000 6.055
56.27000 3.019
56.28000 12.196
56.29000 5.074
56.30000 9.180
56.31000 11.007
56.32000 7.206
56.33000 8.049
56.34000 3.033
56.35000 3.035
56.36000 9.141
56.37000 4.055
56.38000 10.186
56.39000 4.008
56.40000 2.045
56.41000 5.054
56.42000 4.005
56.43000 9.121
56.44000 3.051
56.45000 8.156
56.46000 5.064
56.47000 1.008
56.48000 6.075
56.49000 0.000
56.50000 12.124
56.51000 10.158
56.52000 5.054
56.53000 5.160
56.54000 8.981
56.55000 3.035
56.56000 4.095
56.57000 2.016
56.58000 5.045
56.59000 5.122
56.60000 7.134
56.61000 7.125
56.62000 7.066
56.63000 4.111
56.64000 7.026
56.65000 7.125
56.66000 6.017
56.67000 9.116
56.68000 12.253
56.69000 6.037
56.70000 8.130
56.71000 4.135
56.72000 6.047
56.73000 1.005
56.74000 7.031
56.75000 5.077
56.76000 5.067
56.77000 7.005
56.78000 7.063
56.79000 4.011
56.80000 7.068
56.81000 2.136
56.82000 8.149
56.83000 6.084
56.84000 8.090
56.85000 6.091
56.86000 9.098
56.87000 6.048
56.88000 5.111
56.89000 10.140
56.90000 7.017
56.91000 7.093
56.92000 14.023
56.93000 4.075
56.94000 5.019
56.95000 4.060
56.96000 9.125
56.97000 5.983
56.98000 5.081
56.99000 4.029
57.00000 5.043
57.01000 9.160
57.02000 7.984
57.03000 8.120
57.04000 6.060
57.05000 6.065
57.06000 2.029
57.07000 3.058
57.08000 6.117
57.09000 8.148
57.10000 4.983
57.11000 11.021
57.12000 10.072
57.13000 8.109
57.14000 10.067
57.15000 5.999
57.16000 9.165
57.17000 3.046
57.18000 6.009
57.19000 5.051
57.20000 4.062
57.21000 4.968
57.22000 7.956
57.23000 5.896
57.24000 6.043
57.25000 5.081
57.26000 8.150
57.27000 10.143
57.28000 7.263
57.29000 4.151
57.30000 1.975
57.31000 5.073
57.32000 3.016
57.33000 4.090
57.34000 2.010
57.35000 3.057
57.36000 9.093
57.37000 8.046
57.38000 7.172
57.39000 8.035
57.40000 10.106
57.41000 6.100
57.42000 5.044
57.43000 5.993
57.44000 6.080
57.45000 4.021
57.46000 7.041
57.47000 1.017
57.48000 6.053
57.49000 5.039
57.50000 8.964
57.51000 6.168
57.52000 4.032
57.53000 3.988
57.54000 8.053
57.55000 7.108
57.56000 3.066
57.57000 7.007
57.58000 5.088
57.59000 6.096
57.60000 8.157
57.61000 9.106
57.62000 3.028
57.63000 5.089
57.64000 5.095
57.65000 7.121
57.66000 5.114
57.67000 11.096
57.68000 4.087
57.69000 1.994
57.70000 5.990
57.71000 2.049
57.72000 8.096
57.73000 3.028
57.74000 6.061
57.75000 5.230
57.76000 8.230
57.77000 3.071
57.78000 6.203
57.79000 9.088
57.80000 4.098
57.81000 5.078
57.82000 5.047
57.83000 7.102
57.84000 7.027
57.85000 9.191
57.86000 10.066
57.87000 5.011
57.88000 5.097
57.89000 6.175
57.90000 6.028
57.91000 5.035
57.92000 7.072
57.93000 6.050
57.94000 6.018
57.95000 3.076
57.96000 5.034
57.97000 7.233
57.98000 10.153
57.99000 1.024
58.00000 7.100
58.01000 4.085
58.02000 6.082
58.03000 6.084
58.04000 1.995
58.05000 4.983
58.06000 4.152
58.07000 7.055
58.08000 8.162
58.09000 2.023
58.10000 2.030
58.11000 9.205
58.12000 4.014
58.13000 3.974
58.14000 6.111
58.15000 5.058
58.16000 9.192
58.17000 3.052
58.18000 11.116
58.19000 3.025
58.20000 8.002
58.21000 9.114
58.22000 7.067
58.23000 6.138
58.24000 4.922
58.25000 5.984
58.26000 1.982
58.27000 7.103
58.28000 6.991
58.29000 11.196
58.30000 3.071
58.31000 7.150
58.32000 6.078
58.33000 5.081
58.34000 7.068
58.35000 2.031
58.36000 9.153
58.37000 5.060
58.38000 8.173
58.39000 12.168
58.40000 6.124
58.41000 5.125
58.42000 4.050
58.43000 13.191
58.44000 5.000
58.45000 4.118
58.46000 4.043
58.47000 1.056
58.48000 3.995
58.49000 8.184
58.50000 3.055
58.51000 6.057
58.52000 5.091
58.53000 1.992
58.54000 6.038
58.55000 2.072
58.56000 7.055
58.57000 7.016
58.58000 6.032
58.59000 3.022
58.60000 1.036
58.61000 5.098
58.62000 6.018
58.63000 7.180
58.64000 6.103
58.65000 1.982
58.66000 9.033
58.67000 1.991
58.68000 3.998
58.69000 10.133
58.70000 5.031
58.71000 1.992
58.72000 5.121
58.73000 7.021
58.74000 6.961
58.75000 8.118
58.76000 7.166
58.77000 4.028
58.78000 0.962
58.79000 0.000
58.80000 8.098
58.81000 4.985
58.82000 4.080
58.83000 3.029
58.84000 2.016
58.85000 3.996
58.86000 5.189
58.87000 5.005
58.88000 6.074
58.89000 2.971
58.90000 1.005
58.91000 6.150
58.92000 9.137
58.93000 8.118
58.94000 3.009
58.95000 5.044
58.96000 3.073
58.97000 7.084
58.98000 4.087
58.99000 9.204
59.00000 1.987
59.01000 4.110
59.02000 5.105
59.03000 3.078
59.04000 5.020
59.05000 6.917
59.06000 1.016
59.07000 7.078
59.08000 3.025
59.09000 9.157
59.10000 4.043
59.11000 2.126
59.12000 10.201
59.13000 6.119
59.14000 6.114
59.15000 10.023
59.16000 3.015
59.17000 2.005
59.18000 0.971
59.19000 6.986
59.20000 3.053
59.21000 6.153
59.22000 1.014
59.23000 4.159
59.24000 1.982
59.25000 8.188
59.26000 10.067
59.27000 2.053
59.28000 7.999
59.29000 3.986
59.30000 10.174
59.31000 8.182
59.32000 5.014
59.33000 5.043
59.34000 6.086
59.35000 8.130
59.36000 6.058
59.37000 6.979
59.38000 5.055
59.39000 6.065
59.40000 4.964
59.41000 3.078
59.42000 4.112
59.43000 1.006
59.44000 4.063
59.45000 7.077
59.46000 3.084
59.47000 6.138
59.48000 2.992
59.49000 4.101
59.50000 7.076
59.51000 6.041
59.52000 5.973
59.53000 6.103
59.54000 3.043
59.55000 7.083
59.56000 5.030
59.57000 8.151
59.58000 6.022
59.59000 4.047
59.60000 6.064
59.61000 2.074
59.62000 8.283
59.63000 6.016
59.64000 2.017
59.65000 5.013
59.66000 4.086
59.67000 6.004
59.68000 2.956
59.69000 8.099
59.70000 4.114
59.71000 4.071
59.72000 3.059
59.73000 5.018
59.74000 3.038
59.75000 9.208
59.76000 3.998
59.77000 6.019
59.78000 8.110
59.79000 6.195
59.80000 4.994
59.81000 11.138
59.82000 1.979
59.83000 4.041
59.84000 3.079
59.85000 1.954
59.86000 6.058
59.87000 8.026
59.88000 2.029
59.89000 6.083
59.90000 3.068
59.91000 4.039
59.92000 8.007
59.93000 3.985
59.94000 3.015
59.95000 7.141
59.96000 1.037
59.97000 4.047
59.98000 4.006
59.99000 0.000
60.00000 4.957
60.01000 3.055
60.02000 9.172
60.03000 4.094
60.04000 6.089
60.05000 3.964
60.06000 4.018
60.07000 4.017
60.08000 6.095
60.09000 6.089
60.10000 4.029
60.11000 3.005
60.12000 3.034
60.13000 7.082
60.14000 4.059
60.15000 4.082
60.16000 9.140
60.17000 3.083
60.18000 4.022
60.19000 2.976
60.20000 4.003
60.21000 7.070
60.22000 8.027
60.23000 3.993
60.24000 6.004
60.25000 7.061
60.26000 8.049
60.27000 2.029
60.28000 4.064
60.29000 2.020
60.30000 4.056
60.31000 4.030
60.32000 4.117
60.33000 7.082
60.34000 5.122
60.35000 5.176
60.36000 6.013
60.37000 5.060
60.38000 5.195
60.39000 3.072
60.40000 2.033
60.41000 5.154
60.42000 4.052
60.43000 2.049
60.44000 7.041
60.45000 5.060
60.46000 4.083
60.47000 7.080
60.48000 3.019
60.49000 6.106
60.50000 6.050
60.51000 6.129
60.52000 2.052
60.53000 5.111
60.54000 4.135
60.55000 3.954
60.56000 0.984
60.57000 7.211
60.58000 5.984
60.59000 8.120
60.60000 5.095
60.61000 8.142
60.62000 3.073
60.63000 1.014
60.64000 3.117
60.65000 3.040
60.66000 6.003
60.67000 4.014
60.68000 6.045
60.69000 6.118
60.70000 3.066
60.71000 4.051
60.72000 6.980
60.73000 7.080
60.74000 3.932
60.75000 3.956
60.76000 6.117
60.77000 3.010
60.78000 4.073
60.79000 3.076
60.80000 7.071
60.81000 1.034
60.82000 6.084
60.83000 2.047
60.84000 7.036
60.85000 4.118
60.86000 5.045
60.87000 6.039
60.88000 6.974
60.89000 8.016
60.90000 7.122
60.91000 3.071
60.92000 3.998
60.93000 4.035
60.94000 0.000
60.95000 5.203
60.96000 9.054
60.97000 3.030
60.98000 3.034
60.99000 7.164
61.00000 7.127
61.01000 6.134
61.02000 4.014
61.03000 4.059
61.04000 0.990
61.05000 5.020
61.06000 4.045
61.07000 8.150
61.08000 6.084
61.09000 6.069
61.10000 5.079
61.11000 4.014
61.12000 3.051
61.13000 1.030
61.14000 4.963
61.15000 6.084
61.16000 5.090
61.17000 5.996
61.18000 2.981
61.19000 5.088
61.20000 8.035
61.21000 9.136
61.22000 0.000
61.23000 6.987
61.24000 7.155
61.25000 6.062
61.26000 5.979
61.27000 3.051
61.28000 7.952
61.29000 10.066
61.30000 7.165
61.31000 3.023
61.32000 3.062
61.33000 5.062
61.34000 2.045
61.35000 3.012
61.36000 2.068
61.37000 3.000
61.38000 4.040
61.39000 8.141
61.40000 3.040
61.41000 2.001
61.42000 3.004
61.43000 3.963
61.44000 5.077
61.45000 3.942
61.46000 7.063
61.47000 1.024
61.48000 7.058
61.49000 4.028
61.50000 3.969
61.51000 5.125
61.52000 12.338
61.53000 2.050
61.54000 4.013
61.55000 5.127
61.56000 4.124
61.57000 7.076
61.58000 2.090
61.59000 6.095
61.60000 0.000
61.61000 4.998
61.62000 9.101
61.63000 6.124
61.64000 10.152
61.65000 4.061
61.66000 3.002
61.67000 5.038
61.68000 0.988
61.69000 3.021
61.70000 7.080
61.71000 5.085
61.72000 3.015
61.73000 3.018
61.74000 4.110
61.75000 7.123
61.76000 6.077
61.77000 4.037
61.78000 7.117
61.79000 4.115
61.80000 4.071
61.81000 0.000
61.82000 2.084
61.83000 8.070
61.84000 3.044
61.85000 3.041
61.86000 7.084
61.87000 2.039
61.88000 5.032
61.89000 2.954
61.90000 4.014
61.91000 8.118
61.92000 3.028
61.93000 3.992
61.94000 6.044
61.95000 3.059
61.96000 3.025
61.97000 3.030
61.98000 4.043
61.99000 5.068
62.00000 3.096
62.01000 1.000
62.02000 6.091
62.03000 7.091
62.04000 6.047
62.05000 3.028
62.06000 2.993
62.07000 1.013
62.08000 5.085
62.09000 6.088
62.10000 4.983
62.11000 2.980
62.12000 7.045
62.13000 5.210
62.14000 6.204
62.15000 3.079
62.16000 4.036
62.17000 3.034
62.18000 4.053
62.19000 6.030
62.20000 2.046
62.21000 6.081
62.22000 6.022
62.23000 7.147
62.24000 7.003
62.25000 3.075
62.26000 0.980
62.27000 5.021
62.28000 5.049
62.29000 2.059
62.30000 6.040
62.31000 7.006
62.32000 5.061
62.33000 9.099
62.34000 7.032
62.35000 8.045
62.36000 4.056
62.37000 4.115
62.38000 4.028
62.39000 5.051
62.40000 3.042
62.41000 1.947
62.42000 4.031
62.43000 5.064
62.44000 9.004
62.45000 0.000
62.46000 1.021
62.47000 5.133
62.48000 6.005
62.49000 6.109
62.50000 4.060
62.51000 2.012
62.52000 8.115
62.53000 6.073
62.54000 1.014
62.55000 5.030
62.56000 4.074
62.57000 0.980
62.58000 7.016
62.59000 4.078
62.60000 9.236
62.61000 7.166
62.62000 4.020
62.63000 7.101
62.64000 6.079
62.65000 7.123
62.66000 4.016
62.67000 6.996
62.68000 3.071
62.69000 6.107
62.70000 4.048
62.71000 3.010
62.72000 7.105
62.73000 3.020
62.74000 5.084
62.75000 1.033
62.76000 7.001
62.77000 8.055
62.78000 8.153
62.79000 4.065
62.80000 1.044
62.81000 4.999
62.82000 5.012
62.83000 7.038
62.84000 2.996
62.85000 3.980
62.86000 6.970
62.87000 3.037
62.88000 5.091
62.89000 6.028
62.90000 8.199
62.91000 8.102
62.92000 2.062
62.93000 3.014
62.94000 6.043
62.95000 1.007
62.96000 5.052
62.97000 3.129
62.98000 3.032
62.99000 5.021
63.00000 4.115
63.01000 1.951
63.02000 1.041
63.03000 9.021
63.04000 7.133
63.05000 5.021
63.06000 3.062
63.07000 1.996
63.08000 5.052
63.09000 4.010
63.10000 5.106
63.11000 1.009
63.12000 3.024
63.13000 4.059
63.14000 5.091
63.15000 5.105
63.16000 8.089
63.17000 3.075
63.18000 3.017
63.19000 2.074
63.20000 5.084
63.21000 6.982
63.22000 5.044
63.23000 2.048
63.24000 3.972
63.25000 5.111
63.26000 8.200
63.27000 4.185
63.28000 7.158
63.29000 4.015
63.30000 3.082
63.31000 5.143
63.32000 3.066
63.33000 8.085
63.34000 5.130
63.35000 8.050
63.36000 6.043
63.37000 3.950
63.38000 3.104
63.39000 8.061
63.40000 3.047
63.41000 3.151
63.42000 4.153
63.43000 1.060
63.44000 5.056
63.45000 4.970
63.46000 3.014
63.47000 3.027
63.48000 2.990
63.49000 3.108
63.50000 4.105
63.51000 7.114
63.52000 8.017
63.53000 4.061
63.54000 4.015
63.55000 0.000
63.56000 0.986
63.57000 4.164
63.58000 6.089
63.59000 6.064
63.60000 3.021
63.61000 3.027
63.62000 6.050
63.63000 5.012
63.64000 4.130
63.65000 4.101
63.66000 6.169
63.67000 6.053
63.68000 3.030
63.69000 7.120
63.70000 6.116
63.71000 4.014
63.72000 8.214
63.73000 7.069
63.74000 2.017
63.75000 2.034
63.76000 5.015
63.77000 6.004
63.78000 9.232
63.79000 5.015
63.80000 5.098
63.81000 10.149
63.82000 3.017
63.83000 6.100
63.84000 0.993
63.85000 5.091
63.86000 4.097
63.87000 2.987
63.88000 5.048
63.89000 8.959
63.90000 6.120
63.91000 5.046
63.92000 4.004
63.93000 6.149
63.94000 4.051
63.95000 6.130
63.96000 0.996
63.97000 7.188
63.98000 6.066
63.99000 4.972
64.00000 4.007
64.01000 5.004
64.02000 4.130
64.03000 4.127
64.04000 3.024
64.05000 4.977
64.06000 4.017
64.07000 2.021
64.08000 5.985
64.09000 2.038
64.10000 0.998
64.11000 2.058
64.12000 9.217
64.13000 3.038
64.14000 3.049
64.15000 5.063
64.16000 2.971
64.17000 2.053
64.18000 4.072
64.19000 4.062
64.20000 5.043
64.21000 7.114
64.22000 0.989
64.23000 3.004
64.24000 4.125
64.25000 6.010
64.26000 3.099
64.27000 2.046
64.28000 2.017
64.29000 2.055
64.30000 3.003
64.31000 8.051
64.32000 7.188
64.33000 2.998
64.34000 6.957
64.35000 9.207
64.36000 5.992
64.37000 3.987
64.38000 8.038
64.39000 2.987
64.40000 3.038
64.41000 3.002
64.42000 3.010
64.43000 6.128
64.44000 7.060
64.45000 5.042
64.46000 5.028
64.47000 4.011
64.48000 3.078
64.49000 1.013
64.50000 7.097
64.51000 1.000
64.52000 4.066
64.53000 3.032
64.54000 2.985
64.55000 8.011
64.56000 5.061
64.57000 2.998
64.58000 5.047
64.59000 5.012
64.60000 4.060
64.61000 5.033
64.62000 6.152
64.63000 4.022
64.64000 2.060
64.65000 3.063
64.66000 3.010
64.67000 3.058
64.68000 5.149
64.69000 1.988
64.70000 1.020
64.71000 4.087
64.72000 1.986
64.73000 2.027
64.74000 4.104
64.75000 7.033
64.76000 2.009
64.77000 0.996
64.78000 6.190
64.79000 8.070
64.80000 2.044
64.81000 3.054
64.82000 4.030
64.83000 4.015
64.84000 2.946
64.85000 4.972
64.86000 6.180
64.87000 3.073
64.88000 3.028
64.89000 10.185
64.90000 3.021
64.91000 5.032
64.92000 6.039
64.93000 4.988
64.94000 3.051
64.95000 3.017
64.96000 3.017
64.97000 3.105
64.98000 2.982
64.99000 2.007
65.00000 1.008
