20.00000 20.260
20.01000 19.253
20.02000 14.117
20.03000 13.085
20.04000 18.187
20.05000 19.434
20.06000 25.609
20.07000 19.264
20.08000 15.227
20.09000 17.148
20.10000 24.246
20.11000 26.157
20.12000 12.241
20.13000 25.426
20.14000 22.394
20.15000 13.297
20.16000 14.123
20.17000 26.340
20.18000 16.167
20.19000 16.119
20.20000 14.173
20.21000 15.106
20.22000 21.167
20.23000 19.166
20.24000 11.031
20.25000 19.199
20.26000 20.376
20.27000 17.238
20.28000 23.331
20.29000 30.256
20.30000 20.258
20.31000 22.169
20.32000 17.163
20.33000 31.568
20.34000 29.170
20.35000 19.230
20.36000 24.349
20.37000 19.209
20.38000 19.051
20.39000 23.324
20.40000 20.985
20.41000 22.353
20.42000 23.464
20.43000 22.130
20.44000 23.295
20.45000 13.196
20.46000 11.237
20.47000 21.240
20.48000 14.198
20.49000 21.256
20.50000 26.622
20.51000 25.438
20.52000 24.216
20.53000 19.384
20.54000 20.272
20.55000 21.432
20.56000 12.189
20.57000 29.238
20.58000 20.389
20.59000 23.424
20.60000 20.239
20.61000 15.293
20.62000 24.301
20.63000 23.527
20.64000 27.359
20.65000 20.275
20.66000 18.114
20.67000 21.159
20.68000 24.133
20.69000 18.156
20.70000 16.294
20.71000 17.109
20.72000 14.362
20.73000 18.225
20.74000 12.132
20.75000 22.320
20.76000 17.307
20.77000 18.146
20.78000 22.344
20.79000 18.159
20.80000 22.205
20.81000 19.184
20.82000 19.176
20.83000 22.137
20.84000 24.243
20.85000 29.292
20.86000 19.181
20.87000 19.281
20.88000 18.203
20.89000 20.160
20.90000 16.218
20.91000 25.400
20.92000 21.134
20.93000 21.223
20.94000 18.323
20.95000 33.254
20.96000 19.202
20.97000 16.158
20.98000 19.198
20.99000 25.171
21.00000 21.123
21.01000 19.430
21.02000 24.207
21.03000 21.262
21.04000 21.390
21.05000 23.196
21.06000 20.359
21.07000 26.359
21.08000 12.164
21.09000 23.174
21.10000 28.464
21.11000 22.213
21.12000 21.491
21.13000 23.248
21.14000 20.170
21.15000 21.050
21.16000 29.659
21.17000 25.233
21.18000 14.217
21.19000 15.198
21.20000 21.253
21.21000 23.166
21.22000 23.254
21.23000 26.418
21.24000 31.432
21.25000 21.110
21.26000 24.158
21.27000 19.445
21.28000 25.365
21.29000 27.040
21.30000 18.282
21.31000 27.482
21.32000 30.748
21.33000 19.262
21.34000 31.421
21.35000 17.230
21.36000 17.150
21.37000 27.606
21.38000 17.174
21.39000 19.307
21.40000 19.261
21.41000 28.130
21.42000 15.252
21.43000 21.372
21.44000 21.263
21.45000 20.220
21.46000 24.316
21.47000 17.248
21.48000 18.183
21.49000 19.216
21.50000 13.157
21.51000 22.534
21.52000 17.264
21.53000 23.183
21.54000 25.388
21.55000 25.271
21.56000 27.457
21.57000 23.213
21.58000 18.333
21.59000 16.124
21.60000 24.404
21.61000 16.270
21.62000 19.470
21.63000 19.098
21.64000 25.179
21.65000 17.105
21.66000 24.147
21.67000 21.232
21.68000 29.558
21.69000 21.375
21.70000 15.337
21.71000 18.371
21.72000 19.125
21.73000 28.439
21.74000 25.354
21.75000 21.052
21.76000 26.238
21.77000 16.221
21.78000 19.266
21.79000 23.289
21.80000 21.526
21.81000 30.343
21.82000 19.390
21.83000 17.219
21.84000 19.233
21.85000 25.191
21.86000 18.253
21.87000 30.374
21.88000 22.222
21.89000 24.196
21.90000 24.118
21.91000 21.287
21.92000 24.494
21.93000 26.448
21.94000 25.050
21.95000 23.275
21.96000 29.248
21.97000 23.280
21.98000 19.347
21.99000 27.127
22.00000 20.266
22.01000 30.640
22.02000 17.166
22.03000 18.241
22.04000 24.219
22.05000 25.533
22.06000 21.161
22.07000 30.276
22.08000 23.396
22.09000 25.621
22.10000 30.433
22.11000 19.214
22.12000 22.070
22.13000 26.461
22.14000 20.353
22.15000 22.337
22.16000 25.500
22.17000 27.384
22.18000 24.127
22.19000 28.505
22.20000 28.167
22.21000 21.018
22.22000 32.549
22.23000 22.182
22.24000 16.158
22.25000 35.484
22.26000 21.164
22.27000 23.257
22.28000 23.133
22.29000 23.193
22.30000 24.469
22.31000 21.206
22.32000 19.200
22.33000 21.218
22.34000 26.113
22.35000 24.328
22.36000 25.136
22.37000 25.365
22.38000 22.494
22.39000 28.646
22.40000 17.138
22.41000 20.462
22.42000 29.396
22.43000 20.393
22.44000 24.234
22.45000 24.377
22.46000 26.286
22.47000 28.330
22.48000 30.404
22.49000 20.111
22.50000 23.344
22.51000 22.379
22.52000 29.538
22.53000 20.073
22.54000 18.106
22.55000 20.193
22.56000 21.274
22.57000 23.436
22.58000 24.103
22.59000 23.300
22.60000 24.246
22.61000 30.521
22.62000 21.280
22.63000 26.436
22.64000 26.549
22.65000 23.542
22.66000 28.325
22.67000 16.120
22.68000 23.403
22.69000 26.340
22.70000 20.315
22.71000 28.448
22.72000 26.311
22.73000 28.260
22.74000 35.562
22.75000 24.464
22.76000 25.297
22.77000 28.633
22.78000 17.220
22.79000 23.311
22.80000 26.572
22.81000 25.237
22.82000 31.651
22.83000 24.237
22.84000 33.573
22.85000 23.441
22.86000 30.234
22.87000 27.302
22.88000 24.280
22.89000 23.396
22.90000 23.410
22.91000 34.623
22.92000 30.503
22.93000 28.196
22.94000 25.465
22.95000 33.774
22.96000 23.055
22.97000 33.587
22.98000 26.461
22.99000 24.269
23.00000 22.379
23.01000 25.129
23.02000 22.270
23.03000 25.395
23.04000 23.301
23.05000 29.194
23.06000 20.357
23.07000 29.354
23.08000 27.383
23.09000 19.307
23.10000 33.493
23.11000 27.435
23.12000 21.257
23.13000 27.568
23.14000 25.231
23.15000 31.336
23.16000 20.373
23.17000 20.234
23.18000 29.609
23.19000 22.302
23.20000 29.608
23.21000 32.396
23.22000 29.553
23.23000 35.544
23.24000 14.236
23.25000 23.116
23.26000 28.485
23.27000 23.398
23.28000 29.334
23.29000 25.477
23.30000 35.708
23.31000 22.350
23.32000 30.393
23.33000 24.333
23.34000 21.156
23.35000 23.167
23.36000 26.346
23.37000 31.485
23.38000 33.432
23.39000 29.594
23.40000 26.518
23.41000 33.405
23.42000 27.315
23.43000 16.201
23.44000 32.376
23.45000 24.326
23.46000 19.300
23.47000 34.714
23.48000 30.459
23.49000 39.291
23.50000 35.576
23.51000 27.158
23.52000 28.280
23.53000 37.505
23.54000 22.218
23.55000 19.239
23.56000 28.564
23.57000 31.449
23.58000 32.268
23.59000 23.273
23.60000 37.428
23.61000 27.419
23.62000 36.621
23.63000 31.173
23.64000 31.659
23.65000 38.455
23.66000 33.064
23.67000 31.560
23.68000 26.340
23.69000 35.377
23.70000 37.618
23.71000 26.210
23.72000 28.211
23.73000 20.464
23.74000 24.283
23.75000 26.537
23.76000 19.170
23.77000 24.311
23.78000 38.478
23.79000 27.982
23.80000 30.461
23.81000 24.262
23.82000 35.535
23.83000 27.291
23.84000 31.414
23.85000 33.171
23.86000 27.417
23.87000 28.322
23.88000 34.372
23.89000 17.517
23.90000 35.415
23.91000 31.207
23.92000 29.295
23.93000 28.305
23.94000 40.460
23.95000 34.501
23.96000 44.502
23.97000 33.249
23.98000 33.518
23.99000 29.565
24.00000 34.583
24.01000 36.789
24.02000 28.613
24.03000 35.565
24.04000 25.338
24.05000 37.633
24.06000 41.503
24.07000 24.120
24.08000 19.244
24.09000 39.771
24.10000 24.430
24.11000 29.409
24.12000 29.368
24.13000 29.567
24.14000 31.253
24.15000 34.631
24.16000 22.398
24.17000 25.207
24.18000 28.101
24.19000 29.472
24.20000 31.504
24.21000 33.298
24.22000 24.302
24.23000 32.540
24.24000 26.561
24.25000 39.516
24.26000 26.251
24.27000 29.506
24.28000 27.416
24.29000 29.310
24.30000 34.723
24.31000 36.421
24.32000 30.431
24.33000 28.500
24.34000 36.777
24.35000 44.629
24.36000 27.259
24.37000 37.370
24.38000 30.301
24.39000 32.305
24.40000 22.346
24.41000 38.449
24.42000 49.460
24.43000 32.453
24.44000 27.501
24.45000 22.365
24.46000 44.397
24.47000 36.627
24.48000 25.111
24.49000 35.869
24.50000 44.688
24.51000 34.455
24.52000 28.591
24.53000 34.291
24.54000 40.559
24.55000 40.558
24.56000 25.162
24.57000 27.260
24.58000 37.772
24.59000 48.798
24.60000 44.517
24.61000 39.662
24.62000 36.351
24.63000 49.469
24.64000 55.644
24.65000 30.280
24.66000 29.632
24.67000 30.583
24.68000 41.574
24.69000 36.646
24.70000 32.350
24.71000 41.877
24.72000 36.417
24.73000 31.494
24.74000 25.327
24.75000 28.377
24.76000 36.373
24.77000 50.856
24.78000 46.505
24.79000 47.589
24.80000 32.502
24.81000 39.485
24.82000 46.470
24.83000 36.855
24.84000 36.570
24.85000 38.515
24.86000 37.571
24.87000 38.570
24.88000 37.387
24.89000 40.484
24.90000 37.642
24.91000 41.274
24.92000 40.438
24.93000 38.574
24.94000 48.804
24.95000 50.660
24.96000 51.990
24.97000 34.521
24.98000 44.428
24.99000 36.312
25.00000 50.543
25.01000 39.360
25.02000 49.648
25.03000 32.122
25.04000 42.329
25.05000 47.507
25.06000 39.616
25.07000 35.394
25.08000 35.262
25.09000 38.400
25.10000 44.443
25.11000 46.609
25.12000 38.545
25.13000 34.492
25.14000 50.505
25.15000 42.816
25.16000 42.462
25.17000 43.792
25.18000 35.644
25.19000 40.559
25.20000 36.406
25.21000 42.444
25.22000 36.650
25.23000 48.451
25.24000 43.699
25.25000 49.775
25.26000 35.618
25.27000 49.650
25.28000 36.553
25.29000 45.484
25.30000 42.302
25.31000 29.221
25.32000 46.541
25.33000 45.416
25.34000 40.579
25.35000 41.640
25.36000 50.812
25.37000 56.892
25.38000 36.326
25.39000 44.494
25.40000 33.471
25.41000 45.909
25.42000 35.355
25.43000 44.524
25.44000 33.496
25.45000 41.684
25.46000 56.844
25.47000 41.256
25.48000 38.566
25.49000 48.586
25.50000 43.733
25.51000 33.544
25.52000 32.493
25.53000 44.853
25.54000 43.373
25.55000 46.596
25.56000 37.370
25.57000 41.499
25.58000 54.756
25.59000 36.473
25.60000 56.539
25.61000 39.660
25.62000 46.748
25.63000 54.385
25.64000 51.683
25.65000 46.103
25.66000 44.570
25.67000 41.771
25.68000 53.691
25.69000 47.638
25.70000 43.495
25.71000 49.708
25.72000 40.728
25.73000 41.600
25.74000 48.776
25.75000 47.616
25.76000 50.892
25.77000 35.581
25.78000 47.614
25.79000 50.821
25.80000 48.649
25.81000 53.655
25.82000 61.006
25.83000 54.060
25.84000 41.540
25.85000 54.792
25.86000 66.520
25.87000 46.683
25.88000 36.387
25.89000 52.851
25.90000 43.451
25.91000 37.510
25.92000 49.564
25.93000 48.428
25.94000 43.706
25.95000 44.295
25.96000 57.764
25.97000 44.544
25.98000 55.323
25.99000 44.471
26.00000 59.508
26.01000 43.618
26.02000 52.781
26.03000 45.648
26.04000 40.474
26.05000 35.490
26.06000 49.602
26.07000 48.622
26.08000 47.644
26.09000 54.665
26.10000 51.766
26.11000 44.495
26.12000 47.848
26.13000 58.580
26.14000 50.886
26.15000 47.780
26.16000 50.268
26.17000 39.433
26.18000 42.689
26.19000 48.886
26.20000 53.750
26.21000 62.720
26.22000 55.797
26.23000 62.697
26.24000 48.769
26.25000 67.775
26.26000 50.668
26.27000 37.701
26.28000 59.830
26.29000 51.030
26.30000 52.471
26.31000 52.939
26.32000 49.672
26.33000 50.752
26.34000 58.908
26.35000 44.594
26.36000 47.591
26.37000 62.022
26.38000 53.702
26.39000 52.712
26.40000 54.701
26.41000 50.898
26.42000 47.686
26.43000 63.758
26.44000 54.587
26.45000 70.942
26.46000 61.931
26.47000 57.579
26.48000 39.483
26.49000 53.603
26.50000 48.702
26.51000 70.908
26.52000 50.939
26.53000 50.015
26.54000 58.684
26.55000 67.690
26.56000 39.716
26.57000 52.561
26.58000 60.768
26.59000 48.923
26.60000 69.594
26.61000 40.540
26.62000 58.960
26.63000 43.491
26.64000 67.942
26.65000 53.535
26.66000 66.831
26.67000 55.283
26.68000 56.501
26.69000 59.827
26.70000 61.465
26.71000 56.805
26.72000 60.160
26.73000 55.248
26.74000 63.876
26.75000 55.952
26.76000 66.043
26.77000 46.639
26.78000 45.685
26.79000 48.606
26.80000 59.610
26.81000 60.648
26.82000 65.831
26.83000 43.444
26.84000 57.609
26.85000 62.008
26.86000 56.128
26.87000 56.682
26.88000 56.647
26.89000 36.377
26.90000 57.027
26.91000 68.037
26.92000 68.776
26.93000 66.941
26.94000 51.762
26.95000 59.203
26.96000 51.408
26.97000 47.603
26.98000 64.829
26.99000 55.700
27.00000 62.145
27.01000 65.601
27.02000 51.724
27.03000 62.805
27.04000 58.987
27.05000 80.211
27.06000 56.799
27.07000 58.214
27.08000 66.512
27.09000 45.827
27.10000 55.050
27.11000 63.767
27.12000 61.894
27.13000 65.762
27.14000 53.784
27.15000 52.384
27.16000 62.687
27.17000 60.997
27.18000 55.821
27.19000 69.860
27.20000 63.724
27.21000 71.329
27.22000 63.035
27.23000 60.977
27.24000 57.509
27.25000 63.005
27.26000 63.744
27.27000 50.669
27.28000 72.245
27.29000 71.937
27.30000 58.964
27.31000 59.001
27.32000 70.721
27.33000 70.977
27.34000 56.716
27.35000 52.735
27.36000 51.609
27.37000 56.677
27.38000 55.724
27.39000 60.616
27.40000 50.954
27.41000 62.771
27.42000 59.490
27.43000 62.839
27.44000 66.059
27.45000 59.783
27.46000 61.907
27.47000 53.919
27.48000 67.874
27.49000 67.055
27.50000 54.837
27.51000 74.143
27.52000 71.916
27.53000 45.002
27.54000 55.813
27.55000 48.339
27.56000 63.692
27.57000 62.848
27.58000 59.071
27.59000 51.547
27.60000 72.962
27.61000 61.638
27.62000 62.968
27.63000 47.362
27.64000 56.894
27.65000 72.935
27.66000 58.697
27.67000 55.725
27.68000 66.143
27.69000 61.561
27.70000 62.837
27.71000 52.595
27.72000 58.054
27.73000 64.118
27.74000 66.937
27.75000 62.976
27.76000 55.606
27.77000 59.321
27.78000 65.988
27.79000 68.223
27.80000 58.678
27.81000 53.829
27.82000 74.465
27.83000 47.906
27.84000 63.911
27.85000 64.700
27.86000 65.934
27.87000 66.881
27.88000 60.686
27.89000 43.591
27.90000 57.922
27.91000 65.159
27.92000 66.957
27.93000 52.719
27.94000 65.960
27.95000 56.948
27.96000 40.727
27.97000 51.845
27.98000 49.701
27.99000 64.012
28.00000 66.753
28.01000 59.081
28.02000 42.301
28.03000 59.941
28.04000 75.887
28.05000 64.823
28.06000 67.782
28.07000 54.993
28.08000 60.727
28.09000 55.805
28.10000 58.716
28.11000 53.390
28.12000 46.811
28.13000 59.511
28.14000 58.983
28.15000 78.729
28.16000 64.937
28.17000 68.553
28.18000 66.653
28.19000 57.982
28.20000 47.788
28.21000 47.630
28.22000 55.671
28.23000 56.882
28.24000 67.867
28.25000 64.050
28.26000 56.856
28.27000 53.756
28.28000 56.638
28.29000 58.911
28.30000 59.046
28.31000 54.991
28.32000 62.998
28.33000 58.812
28.34000 69.077
28.35000 62.077
28.36000 54.592
28.37000 61.735
28.38000 66.810
28.39000 68.349
28.40000 63.813
28.41000 62.609
28.42000 47.633
28.43000 51.857
28.44000 37.454
28.45000 49.299
28.46000 51.479
28.47000 55.988
28.48000 55.269
28.49000 55.644
28.50000 52.876
28.51000 62.812
28.52000 51.783
28.53000 44.454
28.54000 48.641
28.55000 61.687
28.56000 60.703
28.57000 52.481
28.58000 39.811
28.59000 58.365
28.60000 59.935
28.61000 53.582
28.62000 63.676
28.63000 48.712
28.64000 66.728
28.65000 61.886
28.66000 55.129
28.67000 63.880
28.68000 48.894
28.69000 62.998
28.70000 61.142
28.71000 67.727
28.72000 64.928
28.73000 51.622
28.74000 42.725
28.75000 56.803
28.76000 52.674
28.77000 56.824
28.78000 48.783
28.79000 53.959
28.80000 56.074
28.81000 49.776
28.82000 71.028
28.83000 65.931
28.84000 45.724
28.85000 47.606
28.86000 50.816
28.87000 58.555
28.88000 53.831
28.89000 57.878
28.90000 61.813
28.91000 41.496
28.92000 46.684
28.93000 57.731
28.94000 62.399
28.95000 67.683
28.96000 45.639
28.97000 62.808
28.98000 51.734
28.99000 53.873
29.00000 43.555
29.01000 55.102
29.02000 51.923
29.03000 49.689
29.04000 56.908
29.05000 56.581
29.06000 60.437
29.07000 65.803
29.08000 51.717
29.09000 53.444
29.10000 63.064
29.11000 45.682
29.12000 40.550
29.13000 48.546
29.14000 54.453
29.15000 36.250
29.16000 56.848
29.17000 53.807
29.18000 47.448
29.19000 57.763
29.20000 53.815
29.21000 59.561
29.22000 42.481
29.23000 48.748
29.24000 44.830
29.25000 63.050
29.26000 63.691
29.27000 47.393
29.28000 45.853
29.29000 52.671
29.30000 51.544
29.31000 50.057
29.32000 55.640
29.33000 56.674
29.34000 39.491
29.35000 39.423
29.36000 50.480
29.37000 44.571
29.38000 51.548
29.39000 51.904
29.40000 35.505
29.41000 50.460
29.42000 59.649
29.43000 50.601
29.44000 50.382
29.45000 41.493
29.46000 53.982
29.47000 46.461
29.48000 54.632
29.49000 43.732
29.50000 55.797
29.51000 49.589
29.52000 38.513
29.53000 55.843
29.54000 57.640
29.55000 42.580
29.56000 52.586
29.57000 53.904
29.58000 40.542
29.59000 44.504
29.60000 47.386
29.61000 46.598
29.62000 44.597
29.63000 42.592
29.64000 43.824
29.65000 49.967
29.66000 46.599
29.67000 44.576
29.68000 49.785
29.69000 47.745
29.70000 45.920
29.71000 43.409
29.72000 35.372
29.73000 31.411
29.74000 39.415
29.75000 40.472
29.76000 48.838
29.77000 41.489
29.78000 44.547
29.79000 35.396
29.80000 54.512
29.81000 48.565
29.82000 36.511
29.83000 52.816
29.84000 41.239
29.85000 51.751
29.86000 46.540
29.87000 38.575
29.88000 43.396
29.89000 39.715
29.90000 39.662
29.91000 46.827
29.92000 41.365
29.93000 30.411
29.94000 53.675
29.95000 33.316
29.96000 48.463
29.97000 38.595
29.98000 49.571
29.99000 48.375
30.00000 41.362
30.01000 49.614
30.02000 36.226
30.03000 32.612
30.04000 40.458
30.05000 43.462
30.06000 44.816
30.07000 47.630
30.08000 47.760
30.09000 47.930
30.10000 42.538
30.11000 41.444
30.12000 57.753
30.13000 36.276
30.14000 48.652
30.15000 33.274
30.16000 46.477
30.17000 43.454
30.18000 43.522
30.19000 42.588
30.20000 47.771
30.21000 47.695
30.22000 31.634
30.23000 38.381
30.24000 33.953
30.25000 42.559
30.26000 42.210
30.27000 45.793
30.28000 51.607
30.29000 40.618
30.30000 45.603
30.31000 49.974
30.32000 44.609
30.33000 47.698
30.34000 42.701
30.35000 39.512
30.36000 36.699
30.37000 39.578
30.38000 40.605
30.39000 34.412
30.40000 30.424
30.41000 49.608
30.42000 34.131
30.43000 36.420
30.44000 47.335
30.45000 45.728
30.46000 37.499
30.47000 40.360
30.48000 34.482
30.49000 50.961
30.50000 45.549
30.51000 52.593
30.52000 33.395
30.53000 37.947
30.54000 38.416
30.55000 29.329
30.56000 32.633
30.57000 43.426
30.58000 47.638
30.59000 31.311
30.60000 49.612
30.61000 40.585
30.62000 41.379
30.63000 41.620
30.64000 42.500
30.65000 41.400
30.66000 27.275
30.67000 28.498
30.68000 37.865
30.69000 44.629
30.70000 32.448
30.71000 31.509
30.72000 35.664
30.73000 44.736
30.74000 31.681
30.75000 43.663
30.76000 40.791
30.77000 42.587
30.78000 33.424
30.79000 32.588
30.80000 37.591
30.81000 26.439
30.82000 30.142
30.83000 24.384
30.84000 27.703
30.85000 33.563
30.86000 41.497
30.87000 37.411
30.88000 33.590
30.89000 40.448
30.90000 42.415
30.91000 34.475
30.92000 36.457
30.93000 33.469
30.94000 32.120
30.95000 35.286
30.96000 33.243
30.97000 31.664
30.98000 35.451
30.99000 33.444
31.00000 43.684
31.01000 44.540
31.02000 36.798
31.03000 42.685
31.04000 36.787
31.05000 32.338
31.06000 26.272
31.07000 45.731
31.08000 41.605
31.09000 33.565
31.10000 22.370
31.11000 29.491
31.12000 41.507
31.13000 32.505
31.14000 33.196
31.15000 34.567
31.16000 26.386
31.17000 27.322
31.18000 37.443
31.19000 42.653
31.20000 22.330
31.21000 37.398
31.22000 35.668
31.23000 32.287
31.24000 26.443
31.25000 39.492
31.26000 29.373
31.27000 40.402
31.28000 26.280
31.29000 34.639
31.30000 30.469
31.31000 30.259
31.32000 31.261
31.33000 34.377
31.34000 29.377
31.35000 28.522
31.36000 40.624
31.37000 27.185
31.38000 35.428
31.39000 27.578
31.40000 30.219
31.41000 25.278
31.42000 30.166
31.43000 23.366
31.44000 27.314
31.45000 26.204
31.46000 19.239
31.47000 31.361
31.48000 29.516
31.49000 39.485
31.50000 16.082
31.51000 27.327
31.52000 37.793
31.53000 35.444
31.54000 14.256
31.55000 32.694
31.56000 33.591
31.57000 37.566
31.58000 32.288
31.59000 30.497
31.60000 32.334
31.61000 37.499
31.62000 23.273
31.63000 32.774
31.64000 30.302
31.65000 18.218
31.66000 37.520
31.67000 32.706
31.68000 35.670
31.69000 42.450
31.70000 35.671
31.71000 34.296
31.72000 27.390
31.73000 22.111
31.74000 22.200
31.75000 26.563
31.76000 35.561
31.77000 18.285
31.78000 33.547
31.79000 34.326
31.80000 25.290
31.81000 27.505
31.82000 38.745
31.83000 21.255
31.84000 33.745
31.85000 28.298
31.86000 22.157
31.87000 36.451
31.88000 20.492
31.89000 33.465
31.90000 27.301
31.91000 35.840
31.92000 29.504
31.93000 29.588
31.94000 24.240
31.95000 20.185
31.96000 30.427
31.97000 30.550
31.98000 28.404
31.99000 32.509
32.00000 27.409
32.01000 20.370
32.02000 19.410
32.03000 26.368
32.04000 20.291
32.05000 30.295
32.06000 30.273
32.07000 24.217
32.08000 31.682
32.09000 25.502
32.10000 26.430
32.11000 29.634
32.12000 34.331
32.13000 23.218
32.14000 33.238
32.15000 19.323
32.16000 24.378
32.17000 34.441
32.18000 31.554
32.19000 24.376
32.20000 27.574
32.21000 24.229
32.22000 27.416
32.23000 22.191
32.24000 43.377
32.25000 30.242
32.26000 28.407
32.27000 28.239
32.28000 32.272
32.29000 27.386
32.30000 35.840
32.31000 25.301
32.32000 24.367
32.33000 31.578
32.34000 25.573
32.35000 31.548
32.36000 25.155
32.37000 42.454
32.38000 20.325
32.39000 27.349
32.40000 28.237
32.41000 29.342
32.42000 39.609
32.43000 38.503
32.44000 27.535
32.45000 17.218
32.46000 25.374
32.47000 31.239
32.48000 29.208
32.49000 26.351
32.50000 22.360
32.51000 28.529
32.52000 18.302
32.53000 30.513
32.54000 25.448
32.55000 23.471
32.56000 31.420
32.57000 25.490
32.58000 39.458
32.59000 31.349
32.60000 36.774
32.61000 26.339
32.62000 25.236
32.63000 34.471
32.64000 32.521
32.65000 23.481
32.66000 30.347
32.67000 29.378
32.68000 33.228
32.69000 35.463
32.70000 35.140
32.71000 31.405
32.72000 32.546
32.73000 35.444
32.74000 29.258
32.75000 27.510
32.76000 26.238
32.77000 25.192
32.78000 28.470
32.79000 22.338
32.80000 24.374
32.81000 27.610
32.82000 13.993
32.83000 33.351
32.84000 24.466
32.85000 14.242
32.86000 22.228
32.87000 25.290
32.88000 18.073
32.89000 24.185
32.90000 22.355
32.91000 23.250
32.92000 27.557
32.93000 23.577
32.94000 25.355
32.95000 32.452
32.96000 26.229
32.97000 31.587
32.98000 17.128
32.99000 25.319
33.00000 27.415
33.01000 19.263
33.02000 22.321
33.03000 28.418
33.04000 30.586
33.05000 24.275
33.06000 21.278
33.07000 21.508
33.08000 18.184
33.09000 20.286
33.10000 23.302
33.11000 24.350
33.12000 25.357
33.13000 22.184
33.14000 18.090
33.15000 30.338
33.16000 18.414
33.17000 18.158
33.18000 17.357
33.19000 27.279
33.20000 24.396
33.21000 17.402
33.22000 18.098
33.23000 19.417
33.24000 21.151
33.25000 23.380
33.26000 19.065
33.27000 27.395
33.28000 18.194
33.29000 18.269
33.30000 20.181
33.31000 21.259
33.32000 9.206
33.33000 26.385
33.34000 25.340
33.35000 13.146
33.36000 27.376
33.37000 24.442
33.38000 16.277
33.39000 37.520
33.40000 18.169
33.41000 18.276
33.42000 15.190
33.43000 18.315
33.44000 33.267
33.45000 22.309
33.46000 27.414
33.47000 22.418
33.48000 17.187
33.49000 17.343
33.50000 18.186
33.51000 22.265
33.52000 18.213
33.53000 33.421
33.54000 17.235
33.55000 23.186
33.56000 20.392
33.57000 21.285
33.58000 22.195
33.59000 14.249
33.60000 16.307
33.61000 24.263
33.62000 21.329
33.63000 14.105
33.64000 23.200
33.65000 26.396
33.66000 26.259
33.67000 21.376
33.68000 20.404
33.69000 17.140
33.70000 25.568
33.71000 22.339
33.72000 16.370
33.73000 19.350
33.74000 23.210
33.75000 16.118
33.76000 20.307
33.77000 25.273
33.78000 19.250
33.79000 22.407
33.80000 25.206
33.81000 19.167
33.82000 13.335
33.83000 18.208
33.84000 20.221
33.85000 19.371
33.86000 21.294
33.87000 21.361
33.88000 16.110
33.89000 23.252
33.90000 22.209
33.91000 11.146
33.92000 15.256
33.93000 13.084
33.94000 20.380
33.95000 19.219
33.96000 22.338
33.97000 17.405
33.98000 11.407
33.99000 26.248
34.00000 20.172
34.01000 25.312
34.02000 19.335
34.03000 16.071
34.04000 16.152
34.05000 16.082
34.06000 23.093
34.07000 19.398
34.08000 22.254
34.09000 13.233
34.10000 15.229
34.11000 19.128
34.12000 24.416
34.13000 20.188
34.14000 20.202
34.15000 21.336
34.16000 17.288
34.17000 14.223
34.18000 15.177
34.19000 18.213
34.20000 33.566
34.21000 26.365
34.22000 28.413
34.23000 20.252
34.24000 19.233
34.25000 24.336
34.26000 18.269
34.27000 18.271
34.28000 29.678
34.29000 11.169
34.30000 21.185
34.31000 22.300
34.32000 29.348
34.33000 23.431
34.34000 22.118
34.35000 23.502
34.36000 23.239
34.37000 19.307
34.38000 25.206
34.39000 23.238
34.40000 21.224
34.41000 19.244
34.42000 22.452
34.43000 19.372
34.44000 10.214
34.45000 21.315
34.46000 27.184
34.47000 27.249
34.48000 11.173
34.49000 18.174
34.50000 15.066
34.51000 28.184
34.52000 25.386
34.53000 19.175
34.54000 26.360
34.55000 22.213
34.56000 17.054
34.57000 19.354
34.58000 12.109
34.59000 20.359
34.60000 19.237
34.61000 13.136
34.62000 26.093
34.63000 18.277
34.64000 18.306
34.65000 18.347
34.66000 18.051
34.67000 16.251
34.68000 18.285
34.69000 21.388
34.70000 16.007
34.71000 16.165
34.72000 11.110
34.73000 24.396
34.74000 19.211
34.75000 18.272
34.76000 17.198
34.77000 17.269
34.78000 17.137
34.79000 29.479
34.80000 21.267
34.81000 23.191
34.82000 17.208
34.83000 27.192
34.84000 24.288
34.85000 26.380
34.86000 21.150
34.87000 27.179
34.88000 13.205
34.89000 16.319
34.90000 22.366
34.91000 12.330
34.92000 22.230
34.93000 16.280
34.94000 13.328
34.95000 17.062
34.96000 16.188
34.97000 14.132
34.98000 18.209
34.99000 13.021
35.00000 13.086
35.01000 28.295
35.02000 14.154
35.03000 20.188
35.04000 12.983
35.05000 29.515
35.06000 21.295
35.07000 20.426
35.08000 18.200
35.09000 19.363
35.10000 16.058
35.11000 21.187
35.12000 18.276
35.13000 18.352
35.14000 15.169
35.15000 20.410
35.16000 21.140
35.17000 20.260
35.18000 11.274
35.19000 17.262
35.20000 15.136
35.21000 15.135
35.22000 21.250
35.23000 16.267
35.24000 20.266
35.25000 17.334
35.26000 18.320
35.27000 20.290
35.28000 31.298
35.29000 12.204
35.30000 22.256
35.31000 15.329
35.32000 15.191
35.33000 20.399
35.34000 13.012
35.35000 13.179
35.36000 11.311
35.37000 16.085
35.38000 17.259
35.39000 20.249
35.40000 9.944
35.41000 14.209
35.42000 18.348
35.43000 21.152
35.44000 18.194
35.45000 11.329
35.46000 18.194
35.47000 18.317
35.48000 17.229
35.49000 22.350
35.50000 18.199
35.51000 28.343
35.52000 16.068
35.53000 17.145
35.54000 11.133
35.55000 21.112
35.56000 15.248
35.57000 16.246
35.58000 25.075
35.59000 17.069
35.60000 24.414
35.61000 17.282
35.62000 22.339
35.63000 16.204
35.64000 15.109
35.65000 25.504
35.66000 16.255
35.67000 19.076
35.68000 15.264
35.69000 14.450
35.70000 19.105
35.71000 14.226
35.72000 14.184
35.73000 14.235
35.74000 16.164
35.75000 22.178
35.76000 20.379
35.77000 16.305
35.78000 20.216
35.79000 22.077
35.80000 16.153
35.81000 18.081
35.82000 35.509
35.83000 17.338
35.84000 22.181
35.85000 19.234
35.86000 19.225
35.87000 17.120
35.88000 15.305
35.89000 13.127
35.90000 14.147
35.91000 19.125
35.92000 12.064
35.93000 25.275
35.94000 14.197
35.95000 6.121
35.96000 24.128
35.97000 26.273
35.98000 17.192
35.99000 15.146
36.00000 20.288
36.01000 19.183
36.02000 15.192
36.03000 18.202
36.04000 19.160
36.05000 18.246
36.06000 14.219
36.07000 22.188
36.08000 27.369
36.09000 25.414
36.10000 17.179
36.11000 24.405
36.12000 17.452
36.13000 19.203
36.14000 13.079
36.15000 18.221
36.16000 18.281
36.17000 29.206
36.18000 12.018
36.19000 24.372
36.20000 17.190
36.21000 26.230
36.22000 22.137
36.23000 22.280
36.24000 27.475
36.25000 24.440
36.26000 24.205
36.27000 9.040
36.28000 12.196
36.29000 18.300
36.30000 18.260
36.31000 19.203
36.32000 17.252
36.33000 17.100
36.34000 14.329
36.35000 19.307
36.36000 17.215
36.37000 26.253
36.38000 18.176
36.39000 20.253
36.40000 20.220
36.41000 18.239
36.42000 16.148
36.43000 23.146
36.44000 15.203
36.45000 15.097
36.46000 11.040
36.47000 17.139
36.48000 24.292
36.49000 22.272
36.50000 17.270
36.51000 21.393
36.52000 19.257
36.53000 17.277
36.54000 26.192
36.55000 13.160
36.56000 28.410
36.57000 30.355
36.58000 17.270
36.59000 18.204
36.60000 29.514
36.61000 10.120
36.62000 15.187
36.63000 18.194
36.64000 14.133
36.65000 14.257
36.66000 24.411
36.67000 24.509
36.68000 14.161
36.69000 15.062
36.70000 20.101
36.71000 21.289
36.72000 21.284
36.73000 11.110
36.74000 19.078
36.75000 16.108
36.76000 18.249
36.77000 28.517
36.78000 18.286
36.79000 18.066
36.80000 13.209
36.81000 18.137
36.82000 20.254
36.83000 21.183
36.84000 17.117
36.85000 15.131
36.86000 18.345
36.87000 23.270
36.88000 23.423
36.89000 14.022
36.90000 23.521
36.91000 23.321
36.92000 25.359
36.93000 23.393
36.94000 22.523
36.95000 26.296
36.96000 15.105
36.97000 17.197
36.98000 22.199
36.99000 14.240
37.00000 19.198
37.01000 20.286
37.02000 28.429
37.03000 23.282
37.04000 13.417
37.05000 17.199
37.06000 21.348
37.07000 14.237
37.08000 16.075
37.09000 17.270
37.10000 19.209
37.11000 18.289
37.12000 18.253
37.13000 20.163
37.14000 19.318
37.15000 20.367
37.16000 13.253
37.17000 20.237
37.18000 26.248
37.19000 27.309
37.20000 18.315
37.21000 17.306
37.22000 15.136
37.23000 22.332
37.24000 17.325
37.25000 12.188
37.26000 15.223
37.27000 19.076
37.28000 22.148
37.29000 25.195
37.30000 20.271
37.31000 22.233
37.32000 16.145
37.33000 18.230
37.34000 11.061
37.35000 16.141
37.36000 29.296
37.37000 25.415
37.38000 31.247
37.39000 16.302
37.40000 19.119
37.41000 20.205
37.42000 26.410
37.43000 15.250
37.44000 23.396
37.45000 24.382
37.46000 16.200
37.47000 16.312
37.48000 21.300
37.49000 20.361
37.50000 20.168
37.51000 19.272
37.52000 19.142
37.53000 22.237
37.54000 13.196
37.55000 16.274
37.56000 13.067
37.57000 14.176
37.58000 24.388
37.59000 21.211
37.60000 19.390
37.61000 20.289
37.62000 15.297
37.63000 11.166
37.64000 15.274
37.65000 22.205
37.66000 23.433
37.67000 14.322
37.68000 18.121
37.69000 15.076
37.70000 17.235
37.71000 17.037
37.72000 24.274
37.73000 23.329
37.74000 12.239
37.75000 23.482
37.76000 16.149
37.77000 25.498
37.78000 17.274
37.79000 25.236
37.80000 22.162
37.81000 25.065
37.82000 22.243
37.83000 22.324
37.84000 27.427
37.85000 19.279
37.86000 16.415
37.87000 16.125
37.88000 17.345
37.89000 21.285
37.90000 15.214
37.91000 24.453
37.92000 20.401
37.93000 19.259
37.94000 18.305
37.95000 20.292
37.96000 12.137
37.97000 31.380
37.98000 15.163
37.99000 16.188
38.00000 20.199
38.01000 23.418
38.02000 23.575
38.03000 16.209
38.04000 15.157
38.05000 15.160
38.06000 19.310
38.07000 20.290
38.08000 17.102
38.09000 23.246
38.10000 24.200
38.11000 23.458
38.12000 22.247
38.13000 16.221
38.14000 21.288
38.15000 20.036
38.16000 19.147
38.17000 18.367
38.18000 36.412
38.19000 20.367
38.20000 30.208
38.21000 30.699
38.22000 15.227
38.23000 20.312
38.24000 15.145
38.25000 27.522
38.26000 19.114
38.27000 18.195
38.28000 23.439
38.29000 20.268
38.30000 24.224
38.31000 25.529
38.32000 21.165
38.33000 23.184
38.34000 35.552
38.35000 19.298
38.36000 21.415
38.37000 19.251
38.38000 17.249
38.39000 16.191
38.40000 22.299
38.41000 19.229
38.42000 25.340
38.43000 17.191
38.44000 19.230
38.45000 20.286
38.46000 15.266
38.47000 20.293
38.48000 19.308
38.49000 17.164
38.50000 16.048
38.51000 18.315
38.52000 18.388
38.53000 19.225
38.54000 23.314
38.55000 19.136
38.56000 13.124
38.57000 25.443
38.58000 22.436
38.59000 25.252
38.60000 23.250
38.61000 26.299
38.62000 20.102
38.63000 17.342
38.64000 21.159
38.65000 26.129
38.66000 24.354
38.67000 29.407
38.68000 24.197
38.69000 23.323
38.70000 25.376
38.71000 14.050
38.72000 17.148
38.73000 12.191
38.74000 26.584
38.75000 15.230
38.76000 28.455
38.77000 22.195
38.78000 23.344
38.79000 18.189
38.80000 24.064
38.81000 29.414
38.82000 24.221
38.83000 21.284
38.84000 17.180
38.85000 13.145
38.86000 23.289
38.87000 23.469
38.88000 23.382
38.89000 20.280
38.90000 25.258
38.91000 19.140
38.92000 21.446
38.93000 15.234
38.94000 20.244
38.95000 18.184
38.96000 14.223
38.97000 26.273
38.98000 22.292
38.99000 18.200
39.00000 20.238
39.01000 20.142
39.02000 20.142
39.03000 24.410
39.04000 25.319
39.05000 17.296
39.06000 16.143
39.07000 20.343
39.08000 20.170
39.09000 20.399
39.10000 40.616
39.11000 25.306
39.12000 20.346
39.13000 10.119
39.14000 26.457
39.15000 20.300
39.16000 17.403
39.17000 17.207
39.18000 17.225
39.19000 14.202
39.20000 27.523
39.21000 20.170
39.22000 25.345
39.23000 18.200
39.24000 25.445
39.25000 29.652
39.26000 21.418
39.27000 18.322
39.28000 17.132
39.29000 24.326
39.30000 27.292
39.31000 10.188
39.32000 27.504
39.33000 16.214
39.34000 20.107
39.35000 16.163
39.36000 21.251
39.37000 23.287
39.38000 16.164
39.39000 21.274
39.40000 22.252
39.41000 17.384
39.42000 32.527
39.43000 19.257
39.44000 14.020
39.45000 19.445
39.46000 27.245
39.47000 25.073
39.48000 22.399
39.49000 21.322
39.50000 19.362
39.51000 18.335
39.52000 29.249
39.53000 22.570
39.54000 16.215
39.55000 23.523
39.56000 25.366
39.57000 30.541
39.58000 25.467
39.59000 24.404
39.60000 26.112
39.61000 14.049
39.62000 22.143
39.63000 19.254
39.64000 18.159
39.65000 19.278
39.66000 21.136
39.67000 36.497
39.68000 21.090
39.69000 11.078
39.70000 22.418
39.71000 22.205
39.72000 15.119
39.73000 24.277
39.74000 23.405
39.75000 25.320
39.76000 29.513
39.77000 24.478
39.78000 24.264
39.79000 17.222
39.80000 27.277
39.81000 20.292
39.82000 15.154
39.83000 23.332
39.84000 21.279
39.85000 25.387
39.86000 17.270
39.87000 19.308
39.88000 13.250
39.89000 19.214
39.90000 22.435
39.91000 20.199
39.92000 23.424
39.93000 21.363
39.94000 22.474
39.95000 23.278
39.96000 27.324
39.97000 22.224
39.98000 16.252
39.99000 23.291
40.00000 19.363
40.01000 23.342
40.02000 23.322
40.03000 21.402
40.04000 17.355
40.05000 16.118
40.06000 23.458
40.07000 22.269
40.08000 21.259
40.09000 25.251
40.10000 22.308
40.11000 14.120
40.12000 21.232
40.13000 24.520
40.14000 15.205
40.15000 26.402
40.16000 26.996
40.17000 20.119
40.18000 21.199
40.19000 22.265
40.20000 17.190
40.21000 20.294
40.22000 20.214
40.23000 18.088
40.24000 22.376
40.25000 35.441
40.26000 18.366
40.27000 16.350
40.28000 20.161
40.29000 24.328
40.30000 19.355
40.31000 25.419
40.32000 19.393
40.33000 12.180
40.34000 29.358
40.35000 27.208
40.36000 30.277
40.37000 19.346
40.38000 13.188
40.39000 15.428
40.40000 24.082
40.41000 30.326
40.42000 24.284
40.43000 24.210
40.44000 20.116
40.45000 23.308
40.46000 22.129
40.47000 15.144
40.48000 25.081
40.49000 30.574
40.50000 15.120
40.51000 24.362
40.52000 15.310
40.53000 15.148
40.54000 24.560
40.55000 16.148
40.56000 21.208
40.57000 19.360
40.58000 18.278
40.59000 14.095
40.60000 21.243
40.61000 24.308
40.62000 17.369
40.63000 16.120
40.64000 24.578
40.65000 19.031
40.66000 19.391
40.67000 25.113
40.68000 18.195
40.69000 20.230
40.70000 17.166
40.71000 24.210
40.72000 21.386
40.73000 17.150
40.74000 18.214
40.75000 22.090
40.76000 23.219
40.77000 20.284
40.78000 24.332
40.79000 20.226
40.80000 19.010
40.81000 29.466
40.82000 19.229
40.83000 23.328
40.84000 23.569
40.85000 24.320
40.86000 29.188
40.87000 19.297
40.88000 20.205
40.89000 17.376
40.90000 20.148
40.91000 25.193
40.92000 26.397
40.93000 29.358
40.94000 23.306
40.95000 21.199
40.96000 19.117
40.97000 22.225
40.98000 29.469
40.99000 25.441
41.00000 30.228
41.01000 21.349
41.02000 20.112
41.03000 14.107
41.04000 28.230
41.05000 31.272
41.06000 21.272
41.07000 31.455
41.08000 20.200
41.09000 18.149
41.10000 23.348
41.11000 15.109
41.12000 24.271
41.13000 24.293
41.14000 24.318
41.15000 21.522
41.16000 23.195
41.17000 25.207
41.18000 22.509
41.19000 22.487
41.20000 21.283
41.21000 20.327
41.22000 25.524
41.23000 21.174
41.24000 21.255
41.25000 15.273
41.26000 22.323
41.27000 19.363
41.28000 21.289
41.29000 19.331
41.30000 27.478
41.31000 27.331
41.32000 20.322
41.33000 18.265
41.34000 28.440
41.35000 14.303
41.36000 31.523
41.37000 19.131
41.38000 22.428
41.39000 19.287
41.40000 26.416
41.41000 23.564
41.42000 23.376
41.43000 20.355
41.44000 22.218
41.45000 28.258
41.46000 26.452
41.47000 17.285
41.48000 28.123
41.49000 22.363
41.50000 26.417
41.51000 35.639
41.52000 26.292
41.53000 25.467
41.54000 17.000
41.55000 22.224
41.56000 24.424
41.57000 17.266
41.58000 24.350
41.59000 17.356
41.60000 18.260
41.61000 16.258
41.62000 23.403
41.63000 26.334
41.64000 21.283
41.65000 12.213
41.66000 22.214
41.67000 25.365
41.68000 18.345
41.69000 20.300
41.70000 22.200
41.71000 23.286
41.72000 18.287
41.73000 16.256
41.74000 25.320
41.75000 25.291
41.76000 17.288
41.77000 20.381
41.78000 20.250
41.79000 18.165
41.80000 22.266
41.81000 23.448
41.82000 14.265
41.83000 28.312
41.84000 18.278
41.85000 20.368
41.86000 20.147
41.87000 16.297
41.88000 21.191
41.89000 23.361
41.90000 18.171
41.91000 19.229
41.92000 25.415
41.93000 19.346
41.94000 18.135
41.95000 24.470
41.96000 24.426
41.97000 18.204
41.98000 18.139
41.99000 21.434
42.00000 27.398
42.01000 26.393
42.02000 19.140
42.03000 19.062
42.04000 22.213
42.05000 14.293
42.06000 14.171
42.07000 25.275
42.08000 23.619
42.09000 30.350
42.10000 19.085
42.11000 18.307
42.12000 21.302
42.13000 19.134
42.14000 25.382
42.15000 26.324
42.16000 25.274
42.17000 23.308
42.18000 17.168
42.19000 20.260
42.20000 22.331
42.21000 14.258
42.22000 20.211
42.23000 31.400
42.24000 20.369
42.25000 15.171
42.26000 16.432
42.27000 22.228
42.28000 31.408
42.29000 21.309
42.30000 17.372
42.31000 26.303
42.32000 28.387
42.33000 30.303
42.34000 32.412
42.35000 14.279
42.36000 23.294
42.37000 17.177
42.38000 26.204
42.39000 27.186
42.40000 21.143
42.41000 22.517
42.42000 20.181
42.43000 25.299
42.44000 12.393
42.45000 21.311
42.46000 26.529
42.47000 15.206
42.48000 25.260
42.49000 28.570
42.50000 21.249
42.51000 21.310
42.52000 21.119
42.53000 22.279
42.54000 17.114
42.55000 27.368
42.56000 17.459
42.57000 29.372
42.58000 23.253
42.59000 27.177
42.60000 28.279
42.61000 21.357
42.62000 25.535
42.63000 28.429
42.64000 26.346
42.65000 23.106
42.66000 15.216
42.67000 22.307
42.68000 17.233
42.69000 19.197
42.70000 20.262
42.71000 22.269
42.72000 21.294
42.73000 29.238
42.74000 26.262
42.75000 20.281
42.76000 23.358
42.77000 19.287
42.78000 21.414
42.79000 27.379
42.80000 23.563
42.81000 21.301
42.82000 25.214
42.83000 24.398
42.84000 24.307
42.85000 25.258
42.86000 19.380
42.87000 18.966
42.88000 16.210
42.89000 27.502
42.90000 23.231
42.91000 22.361
42.92000 24.233
42.93000 24.528
42.94000 25.345
42.95000 34.570
42.96000 28.445
42.97000 23.243
42.98000 18.367
42.99000 26.125
43.00000 23.245
43.01000 22.470
43.02000 14.260
43.03000 20.190
43.04000 26.193
43.05000 20.291
43.06000 17.333
43.07000 19.248
43.08000 22.213
43.09000 22.268
43.10000 17.276
43.11000 18.223
43.12000 15.277
43.13000 29.315
43.14000 18.169
43.15000 20.254
43.16000 24.463
43.17000 25.536
43.18000 19.276
43.19000 26.412
43.20000 17.277
43.21000 22.380
43.22000 19.184
43.23000 14.159
43.24000 26.115
43.25000 13.200
43.26000 23.463
43.27000 21.265
43.28000 26.214
43.29000 18.234
43.30000 29.364
43.31000 14.132
43.32000 17.197
43.33000 24.290
43.34000 28.431
43.35000 19.166
43.36000 26.538
43.37000 19.179
43.38000 22.218
43.39000 10.069
43.40000 9.238
43.41000 19.307
43.42000 30.509
43.43000 28.461
43.44000 23.291
43.45000 34.277
43.46000 21.346
43.47000 28.136
43.48000 20.331
43.49000 18.122
43.50000 24.480
43.51000 20.309
43.52000 29.333
43.53000 17.463
43.54000 23.269
43.55000 18.269
43.56000 28.689
43.57000 16.258
43.58000 20.395
43.59000 22.378
43.60000 28.272
43.61000 24.372
43.62000 22.107
43.63000 27.640
43.64000 19.464
43.65000 18.264
43.66000 25.456
43.67000 17.125
43.68000 21.197
43.69000 30.200
43.70000 23.293
43.71000 26.447
43.72000 22.224
43.73000 22.299
43.74000 25.386
43.75000 21.264
43.76000 21.606
43.77000 27.197
43.78000 25.229
43.79000 23.367
43.80000 26.299
43.81000 18.260
43.82000 18.268
43.83000 22.400
43.84000 13.049
43.85000 25.304
43.86000 17.061
43.87000 24.291
43.88000 25.383
43.89000 26.484
43.90000 30.546
43.91000 26.363
43.92000 27.271
43.93000 18.369
43.94000 17.173
43.95000 20.337
43.96000 17.161
43.97000 23.524
43.98000 27.429
43.99000 32.253
44.00000 16.209
44.01000 20.271
44.02000 21.327
44.03000 18.345
44.04000 20.248
44.05000 31.369
44.06000 17.257
44.07000 16.343
44.08000 22.419
44.09000 24.106
44.10000 26.542
44.11000 21.296
44.12000 11.097
44.13000 28.345
44.14000 20.252
44.15000 20.254
44.16000 14.099
44.17000 21.243
44.18000 21.289
44.19000 13.231
44.20000 18.152
44.21000 26.365
44.22000 29.460
44.23000 23.318
44.24000 18.307
44.25000 19.355
44.26000 14.048
44.27000 26.298
44.28000 26.207
44.29000 21.288
44.30000 19.042
44.31000 15.246
44.32000 26.311
44.33000 25.530
44.34000 14.185
44.35000 17.151
44.36000 20.332
44.37000 22.405
44.38000 25.567
44.39000 16.079
44.40000 32.373
44.41000 27.283
44.42000 18.296
44.43000 21.373
44.44000 21.305
44.45000 24.044
44.46000 18.035
44.47000 23.157
44.48000 15.211
44.49000 27.413
44.50000 20.228
44.51000 22.325
44.52000 30.452
44.53000 30.494
44.54000 25.288
44.55000 22.164
44.56000 21.271
44.57000 26.433
44.58000 25.198
44.59000 29.435
44.60000 31.360
44.61000 16.161
44.62000 25.375
44.63000 20.417
44.64000 18.234
44.65000 17.301
44.66000 19.357
44.67000 20.386
44.68000 21.180
44.69000 11.277
44.70000 23.371
44.71000 18.428
44.72000 22.440
44.73000 24.139
44.74000 13.279
44.75000 22.301
44.76000 15.402
44.77000 23.055
44.78000 21.499
44.79000 21.110
44.80000 19.249
44.81000 20.148
44.82000 23.409
44.83000 20.228
44.84000 18.098
44.85000 26.455
44.86000 30.439
44.87000 24.312
44.88000 19.222
44.89000 17.285
44.90000 27.336
44.91000 27.192
44.92000 23.160
44.93000 16.130
44.94000 19.314
44.95000 29.494
44.96000 19.401
44.97000 10.169
44.98000 22.322
44.99000 14.084
45.00000 20.135
45.01000 24.236
45.02000 17.141
45.03000 18.036
45.04000 30.525
45.05000 19.338
45.06000 15.341
45.07000 24.236
45.08000 15.225
45.09000 25.144
45.10000 22.366
45.11000 23.380
45.12000 23.218
45.13000 21.230
45.14000 22.238
45.15000 23.371
45.16000 23.238
45.17000 17.178
45.18000 27.352
45.19000 27.725
45.20000 34.208
45.21000 15.240
45.22000 26.468
45.23000 20.328
45.24000 18.221
45.25000 13.179
45.26000 22.283
45.27000 33.377
45.28000 25.339
45.29000 29.522
45.30000 22.262
45.31000 26.260
45.32000 16.333
45.33000 18.324
45.34000 22.342
45.35000 19.107
45.36000 19.217
45.37000 23.234
45.38000 20.277
45.39000 15.297
45.40000 20.231
45.41000 15.073
45.42000 19.224
45.43000 14.263
45.44000 17.223
45.45000 16.162
45.46000 15.380
45.47000 22.379
45.48000 13.237
45.49000 22.293
45.50000 21.415
45.51000 24.265
45.52000 18.450
45.53000 19.070
45.54000 22.346
45.55000 23.532
45.56000 13.374
45.57000 34.731
45.58000 23.467
45.59000 20.302
45.60000 18.372
45.61000 22.239
45.62000 21.276
45.63000 15.388
45.64000 15.212
45.65000 19.142
45.66000 18.287
45.67000 6.185
45.68000 24.513
45.69000 21.310
45.70000 24.372
45.71000 27.433
45.72000 19.223
45.73000 28.507
45.74000 24.297
45.75000 17.143
45.76000 25.453
45.77000 15.210
45.78000 18.136
45.79000 16.326
45.80000 23.250
45.81000 17.111
45.82000 31.552
45.83000 16.312
45.84000 19.395
45.85000 19.147
45.86000 18.279
45.87000 19.296
45.88000 18.157
45.89000 21.267
45.90000 28.060
45.91000 15.279
45.92000 22.253
45.93000 16.221
45.94000 19.099
45.95000 12.155
45.96000 25.356
45.97000 27.157
45.98000 18.272
45.99000 18.276
46.00000 21.337
46.01000 25.160
46.02000 15.375
46.03000 34.509
46.04000 18.316
46.05000 21.346
46.06000 26.256
46.07000 20.470
46.08000 21.227
46.09000 10.209
46.10000 28.561
46.11000 23.292
46.12000 23.432
46.13000 19.198
46.14000 12.246
46.15000 25.349
46.16000 13.214
46.17000 25.261
46.18000 25.404
46.19000 26.287
46.20000 14.022
46.21000 17.295
46.22000 22.295
46.23000 30.296
46.24000 21.287
46.25000 25.448
46.26000 19.325
46.27000 28.332
46.28000 17.219
46.29000 26.345
46.30000 25.230
46.31000 23.352
46.32000 22.006
46.33000 19.263
46.34000 17.277
46.35000 23.511
46.36000 24.098
46.37000 25.244
46.38000 16.436
46.39000 14.276
46.40000 21.171
46.41000 20.059
46.42000 16.305
46.43000 26.296
46.44000 19.320
46.45000 32.431
46.46000 25.231
46.47000 19.353
46.48000 20.144
46.49000 17.093
46.50000 14.336
46.51000 30.256
46.52000 25.302
46.53000 24.479
46.54000 30.252
46.55000 13.179
46.56000 21.181
46.57000 27.242
46.58000 21.185
46.59000 35.500
46.60000 22.174
46.61000 20.296
46.62000 23.098
46.63000 14.062
46.64000 12.212
46.65000 30.221
46.66000 20.326
46.67000 23.991
46.68000 19.146
46.69000 14.178
46.70000 21.314
46.71000 26.341
46.72000 16.301
46.73000 15.145
46.74000 24.400
46.75000 20.313
46.76000 17.294
46.77000 18.329
46.78000 18.282
46.79000 17.187
46.80000 25.374
46.81000 25.149
46.82000 31.382
46.83000 21.259
46.84000 18.298
46.85000 19.411
46.86000 10.065
46.87000 21.293
46.88000 30.439
46.89000 25.253
46.90000 20.206
46.91000 16.254
46.92000 25.625
46.93000 13.064
46.94000 20.208
46.95000 17.121
46.96000 19.241
46.97000 15.099
46.98000 20.197
46.99000 24.202
47.00000 24.387
47.01000 23.409
47.02000 18.515
47.03000 16.152
47.04000 25.237
47.05000 23.336
47.06000 23.402
47.07000 23.273
47.08000 21.175
47.09000 26.461
47.10000 25.307
47.11000 18.291
47.12000 9.124
47.13000 15.320
47.14000 17.343
47.15000 26.437
47.16000 24.533
47.17000 24.220
47.18000 20.155
47.19000 18.340
47.20000 23.300
47.21000 19.274
47.22000 23.382
47.23000 23.435
47.24000 23.171
47.25000 23.116
47.26000 16.154
47.27000 22.291
47.28000 20.257
47.29000 31.558
47.30000 18.167
47.31000 18.218
47.32000 25.313
47.33000 19.462
47.34000 19.133
47.35000 23.162
47.36000 29.521
47.37000 20.159
47.38000 20.374
47.39000 21.202
47.40000 26.339
47.41000 13.187
47.42000 24.318
47.43000 23.184
47.44000 20.174
47.45000 17.282
47.46000 21.130
47.47000 15.141
47.48000 23.273
47.49000 17.098
47.50000 22.194
47.51000 17.288
47.52000 20.362
47.53000 23.233
47.54000 17.057
47.55000 13.056
47.56000 19.302
47.57000 20.359
47.58000 23.518
47.59000 19.293
47.60000 14.263
47.61000 29.218
47.62000 16.331
47.63000 22.296
47.64000 27.395
47.65000 23.302
47.66000 21.321
47.67000 26.293
47.68000 23.098
47.69000 26.348
47.70000 20.242
47.71000 18.174
47.72000 22.353
47.73000 23.190
47.74000 29.189
47.75000 21.213
47.76000 19.236
47.77000 19.135
47.78000 19.246
47.79000 19.227
47.80000 17.113
47.81000 21.268
47.82000 19.380
47.83000 16.279
47.84000 22.258
47.85000 20.349
47.86000 30.081
47.87000 25.331
47.88000 15.256
47.89000 16.221
47.90000 18.427
47.91000 16.156
47.92000 16.199
47.93000 16.252
47.94000 20.303
47.95000 18.161
47.96000 30.429
47.97000 21.429
47.98000 17.272
47.99000 18.139
48.00000 16.309
48.01000 18.166
48.02000 22.290
48.03000 24.430
48.04000 15.175
48.05000 14.174
48.06000 23.316
48.07000 23.430
48.08000 20.100
48.09000 15.077
48.10000 20.313
48.11000 25.328
48.12000 21.295
48.13000 19.227
48.14000 14.131
48.15000 18.421
48.16000 18.244
48.17000 7.041
48.18000 11.175
48.19000 21.421
48.20000 24.439
48.21000 17.193
48.22000 15.073
48.23000 24.232
48.24000 21.393
48.25000 15.194
48.26000 17.304
48.27000 21.278
48.28000 17.288
48.29000 15.109
48.30000 19.258
48.31000 18.203
48.32000 18.288
48.33000 13.325
48.34000 15.225
48.35000 16.272
48.36000 21.305
48.37000 28.417
48.38000 18.243
48.39000 22.364
48.40000 23.264
48.41000 19.362
48.42000 15.215
48.43000 21.320
48.44000 18.321
48.45000 12.094
48.46000 22.339
48.47000 17.206
48.48000 19.168
48.49000 24.207
48.50000 24.307
48.51000 17.095
48.52000 7.131
48.53000 17.191
48.54000 21.269
48.55000 14.126
48.56000 9.114
48.57000 12.276
48.58000 18.198
48.59000 18.203
48.60000 17.322
48.61000 19.089
48.62000 19.151
48.63000 24.434
48.64000 15.203
48.65000 20.288
48.66000 17.181
48.67000 22.129
48.68000 11.202
48.69000 15.150
48.70000 18.252
48.71000 15.240
48.72000 22.291
48.73000 14.334
48.74000 18.197
48.75000 21.192
48.76000 21.223
48.77000 21.100
48.78000 21.206
48.79000 15.122
48.80000 14.228
48.81000 14.156
48.82000 16.220
48.83000 19.209
48.84000 14.120
48.85000 15.149
48.86000 16.154
48.87000 17.191
48.88000 12.189
48.89000 19.158
48.90000 21.278
48.91000 19.330
48.92000 22.298
48.93000 15.410
48.94000 20.234
48.95000 23.248
48.96000 12.225
48.97000 18.224
48.98000 17.171
48.99000 17.253
49.00000 24.359
49.01000 18.225
49.02000 26.230
49.03000 17.189
49.04000 20.304
49.05000 17.266
49.06000 18.231
49.07000 18.137
49.08000 25.439
49.09000 23.208
49.10000 17.211
49.11000 20.262
49.12000 17.258
49.13000 18.302
49.14000 22.192
49.15000 15.128
49.16000 19.305
49.17000 15.347
49.18000 23.189
49.19000 20.204
49.20000 18.105
49.21000 18.170
49.22000 18.271
49.23000 19.183
49.24000 24.340
49.25000 14.147
49.26000 19.075
49.27000 14.164
49.28000 22.377
49.29000 16.158
49.30000 20.259
49.31000 19.153
49.32000 15.147
49.33000 18.120
49.34000 24.240
49.35000 23.394
49.36000 22.220
49.37000 14.323
49.38000 13.242
49.39000 20.314
49.40000 32.427
49.41000 16.276
49.42000 19.328
49.43000 21.420
49.44000 15.245
49.45000 11.032
49.46000 14.114
49.47000 11.210
49.48000 18.346
49.49000 11.183
49.50000 13.948
49.51000 15.264
49.52000 11.169
49.53000 16.099
49.54000 16.407
49.55000 15.121
49.56000 26.338
49.57000 18.181
49.58000 16.210
49.59000 15.031
49.60000 15.223
49.61000 14.348
49.62000 15.105
49.63000 15.219
49.64000 18.326
49.65000 20.417
49.66000 18.124
49.67000 16.309
49.68000 13.222
49.69000 28.183
49.70000 17.146
49.71000 15.129
49.72000 19.180
49.73000 13.180
49.74000 21.187
49.75000 15.271
49.76000 16.341
49.77000 17.163
49.78000 16.185
49.79000 19.143
49.80000 22.421
49.81000 10.120
49.82000 21.105
49.83000 15.385
49.84000 10.092
49.85000 15.239
49.86000 13.056
49.87000 16.053
49.88000 19.324
49.89000 16.215
49.90000 14.239
49.91000 30.457
49.92000 14.137
49.93000 18.251
49.94000 19.226
49.95000 25.395
49.96000 13.240
49.97000 22.356
49.98000 23.240
49.99000 16.236
50.00000 22.187
50.01000 14.256
50.02000 15.172
50.03000 15.139
50.04000 13.086
50.05000 20.381
50.06000 18.348
50.07000 23.253
50.08000 15.105
50.09000 12.200
50.10000 17.212
50.11000 17.300
50.12000 9.089
50.13000 26.334
50.14000 24.394
50.15000 17.247
50.16000 20.203
50.17000 14.147
50.18000 12.375
50.19000 19.137
50.20000 20.290
50.21000 14.331
50.22000 17.149
50.23000 18.141
50.24000 12.107
50.25000 15.292
50.26000 14.200
50.27000 20.338
50.28000 25.506
50.29000 13.132
50.30000 14.255
50.31000 15.128
50.32000 20.284
50.33000 13.292
50.34000 15.111
50.35000 23.152
50.36000 17.245
50.37000 24.223
50.38000 14.209
50.39000 14.091
50.40000 16.136
50.41000 14.052
50.42000 19.161
50.43000 20.269
50.44000 19.233
50.45000 18.130
50.46000 14.084
50.47000 16.173
50.48000 13.009
50.49000 25.349
50.50000 16.222
50.51000 19.106
50.52000 14.074
50.53000 14.272
50.54000 15.225
50.55000 18.302
50.56000 14.164
50.57000 16.113
50.58000 15.260
50.59000 10.188
50.60000 20.356
50.61000 15.339
50.62000 17.222
50.63000 17.196
50.64000 14.037
50.65000 19.214
50.66000 16.098
50.67000 12.057
50.68000 9.098
50.69000 16.312
50.70000 16.026
50.71000 15.303
50.72000 15.178
50.73000 14.219
50.74000 19.239
50.75000 21.277
50.76000 12.113
50.77000 23.390
50.78000 22.344
50.79000 14.220
50.80000 31.204
50.81000 9.195
50.82000 15.243
50.83000 20.353
50.84000 14.347
50.85000 19.293
50.86000 15.337
50.87000 20.319
50.88000 16.352
50.89000 20.227
50.90000 19.130
50.91000 21.294
50.92000 13.197
50.93000 23.292
50.94000 20.118
50.95000 14.173
50.96000 21.252
50.97000 18.371
50.98000 20.197
50.99000 15.131
51.00000 18.344
51.01000 17.163
51.02000 22.355
51.03000 11.137
51.04000 17.248
51.05000 11.055
51.06000 15.218
51.07000 11.203
51.08000 18.258
51.09000 13.121
51.10000 23.338
51.11000 13.189
51.12000 11.090
51.13000 13.137
51.14000 20.249
51.15000 12.183
51.16000 20.202
51.17000 22.454
51.18000 19.209
51.19000 12.237
51.20000 15.084
51.21000 8.088
51.22000 21.306
51.23000 21.237
51.24000 12.082
51.25000 14.276
51.26000 17.119
51.27000 19.272
51.28000 16.151
51.29000 16.251
51.30000 19.110
51.31000 16.278
51.32000 10.173
51.33000 19.311
51.34000 16.049
51.35000 14.342
51.36000 19.351
51.37000 15.176
51.38000 22.215
51.39000 14.191
51.40000 21.251
51.41000 14.201
51.42000 19.351
51.43000 15.178
51.44000 5.016
51.45000 12.190
51.46000 19.178
51.47000 24.286
51.48000 15.057
51.49000 15.274
51.50000 17.228
51.51000 19.286
51.52000 17.263
51.53000 18.078
51.54000 20.258
51.55000 11.088
51.56000 16.135
51.57000 15.239
51.58000 13.250
51.59000 17.286
51.60000 22.290
51.61000 15.292
51.62000 18.178
51.63000 18.363
51.64000 19.248
51.65000 17.085
51.66000 14.224
51.67000 9.193
51.68000 17.187
51.69000 15.335
51.70000 15.259
51.71000 15.071
51.72000 18.179
51.73000 16.257
51.74000 14.124
51.75000 21.326
51.76000 13.216
51.77000 13.134
51.78000 15.126
51.79000 19.171
51.80000 16.064
51.81000 16.218
51.82000 18.277
51.83000 21.243
51.84000 17.128
51.85000 11.215
51.86000 19.302
51.87000 18.151
51.88000 12.051
51.89000 19.325
51.90000 16.210
51.91000 13.150
51.92000 14.165
51.93000 15.156
51.94000 12.224
51.95000 13.196
51.96000 18.378
51.97000 13.231
51.98000 9.103
51.99000 17.036
52.00000 19.093
52.01000 14.193
52.02000 17.245
52.03000 12.205
52.04000 7.079
52.05000 15.173
52.06000 18.291
52.07000 15.129
52.08000 23.362
52.09000 21.334
52.10000 20.350
52.11000 13.152
52.12000 10.115
52.13000 20.182
52.14000 17.261
52.15000 13.231
52.16000 15.124
52.17000 10.102
52.18000 20.288
52.19000 16.296
52.20000 15.317
52.21000 13.160
52.22000 13.230
52.23000 10.110
52.24000 17.124
52.25000 21.233
52.26000 19.294
52.27000 18.191
52.28000 18.063
52.29000 8.032
52.30000 19.268
52.31000 17.201
52.32000 12.132
52.33000 16.271
52.34000 15.190
52.35000 24.339
52.36000 14.133
52.37000 11.068
52.38000 18.080
52.39000 8.115
52.40000 12.109
52.41000 11.189
52.42000 13.224
52.43000 12.989
52.44000 13.060
52.45000 14.221
52.46000 17.202
52.47000 16.092
52.48000 15.417
52.49000 17.204
52.50000 16.233
52.51000 12.220
52.52000 17.319
52.53000 20.064
52.54000 17.241
52.55000 10.116
52.56000 14.174
52.57000 19.382
52.58000 12.365
52.59000 16.179
52.60000 27.429
52.61000 16.236
52.62000 17.265
52.63000 14.261
52.64000 17.218
52.65000 19.154
52.66000 23.114
52.67000 20.372
52.68000 15.194
52.69000 17.337
52.70000 10.176
52.71000 16.364
52.72000 12.989
52.73000 14.208
52.74000 10.109
52.75000 12.107
52.76000 15.040
52.77000 10.161
52.78000 16.270
52.79000 21.235
52.80000 12.243
52.81000 18.209
52.82000 21.264
52.83000 13.051
52.84000 18.367
52.85000 11.194
52.86000 13.299
52.87000 13.235
52.88000 10.080
52.89000 12.130
52.90000 20.180
52.91000 12.114
52.92000 9.992
52.93000 14.056
52.94000 13.239
52.95000 18.344
52.96000 13.173
52.97000 13.281
52.98000 8.116
52.99000 15.244
53.00000 13.276
53.01000 12.258
53.02000 21.041
53.03000 16.141
53.04000 19.292
53.05000 18.170
53.06000 11.325
53.07000 14.066
53.08000 21.621
53.09000 15.302
53.10000 12.078
53.11000 16.096
53.12000 20.225
53.13000 19.176
53.14000 12.181
53.15000 19.368
53.16000 15.193
53.17000 5.144
53.18000 11.066
53.19000 12.156
53.20000 15.126
53.21000 21.461
53.22000 17.281
53.23000 15.220
53.24000 23.190
53.25000 17.341
53.26000 9.156
53.27000 13.150
53.28000 13.289
53.29000 13.143
53.30000 15.319
53.31000 12.282
53.32000 10.137
53.33000 16.217
53.34000 16.185
53.35000 16.232
53.36000 14.323
53.37000 21.350
53.38000 15.134
53.39000 13.271
53.40000 13.143
53.41000 16.429
53.42000 10.045
53.43000 20.168
53.44000 6.249
53.45000 17.094
53.46000 13.219
53.47000 17.399
53.48000 17.298
53.49000 14.057
53.50000 19.395
53.51000 12.191
53.52000 16.233
53.53000 18.242
53.54000 11.204
53.55000 15.181
53.56000 21.513
53.57000 27.483
53.58000 10.011
53.59000 20.252
53.60000 18.267
53.61000 17.222
53.62000 15.131
53.63000 17.310
53.64000 15.196
53.65000 10.085
53.66000 16.120
53.67000 15.168
53.68000 12.146
53.69000 16.182
53.70000 12.018
53.71000 15.309
53.72000 12.251
53.73000 13.135
53.74000 12.208
53.75000 9.157
53.76000 11.214
53.77000 11.128
53.78000 12.248
53.79000 14.363
53.80000 17.068
53.81000 11.199
53.82000 13.194
53.83000 12.061
53.84000 15.209
53.85000 15.144
53.86000 17.122
53.87000 11.163
53.88000 8.036
53.89000 15.144
53.90000 13.259
53.91000 20.283
53.92000 13.286
53.93000 16.116
53.94000 11.102
53.95000 16.323
53.96000 15.084
53.97000 18.184
53.98000 14.108
53.99000 20.100
54.00000 14.292
54.01000 13.052
54.02000 20.008
54.03000 15.115
54.04000 20.391
54.05000 15.165
54.06000 17.216
54.07000 10.192
54.08000 13.149
54.09000 12.154
54.10000 11.209
54.11000 11.048
54.12000 11.120
54.13000 19.115
54.14000 9.162
54.15000 18.340
54.16000 9.043
54.17000 13.127
54.18000 15.963
54.19000 5.037
54.20000 13.242
54.21000 12.265
54.22000 17.099
54.23000 9.131
54.24000 16.217
54.25000 11.132
54.26000 18.218
54.27000 16.282
54.28000 9.043
54.29000 14.184
54.30000 11.250
54.31000 22.163
54.32000 15.169
54.33000 16.171
54.34000 13.227
54.35000 18.283
54.36000 21.485
54.37000 16.160
54.38000 15.077
54.39000 12.054
54.40000 20.303
54.41000 19.290
54.42000 15.132
54.43000 14.171
54.44000 12.142
54.45000 9.233
54.46000 15.042
54.47000 16.275
54.48000 13.251
54.49000 15.134
54.50000 9.180
54.51000 14.162
54.52000 8.069
54.53000 9.123
54.54000 9.092
54.55000 11.078
54.56000 17.254
54.57000 13.083
54.58000 7.122
54.59000 18.400
54.60000 13.970
54.61000 10.173
54.62000 14.176
54.63000 19.594
54.64000 19.318
54.65000 6.956
54.66000 14.101
54.67000 11.124
54.68000 8.105
54.69000 11.083
54.70000 16.103
54.71000 18.108
54.72000 13.184
54.73000 7.155
54.74000 27.424
54.75000 13.019
54.76000 17.217
54.77000 14.218
54.78000 12.192
54.79000 16.283
54.80000 15.336
54.81000 15.008
54.82000 13.168
54.83000 18.140
54.84000 12.237
54.85000 9.126
54.86000 15.073
54.87000 13.283
54.88000 9.089
54.89000 10.021
54.90000 17.009
54.91000 15.086
54.92000 21.081
54.93000 9.023
54.94000 11.320
54.95000 13.279
54.96000 10.071
54.97000 11.970
54.98000 10.027
54.99000 15.146
55.00000 15.265
55.01000 8.140
55.02000 22.389
55.03000 17.379
55.04000 12.029
55.05000 7.041
55.06000 12.108
55.07000 10.037
55.08000 9.149
55.09000 9.225
55.10000 11.110
55.11000 16.164
55.12000 14.217
55.13000 9.213
55.14000 12.076
55.15000 9.975
55.16000 15.245
55.17000 13.279
55.18000 24.201
55.19000 13.195
55.20000 15.274
55.21000 15.241
55.22000 11.045
55.23000 14.150
55.24000 18.363
55.25000 13.095
55.26000 19.281
55.27000 14.070
55.28000 10.166
55.29000 12.176
55.30000 11.063
55.31000 18.058
55.32000 12.177
55.33000 14.300
55.34000 18.310
55.35000 9.130
55.36000 9.109
55.37000 15.151
55.38000 8.209
55.39000 16.142
55.40000 17.207
55.41000 17.206
55.42000 14.142
55.43000 16.281
55.44000 23.220
55.45000 7.172
55.46000 18.067
55.47000 12.051
55.48000 14.058
55.49000 15.169
55.50000 15.254
55.51000 15.143
55.52000 5.100
55.53000 22.224
55.54000 19.405
55.55000 10.103
55.56000 11.397
55.57000 14.048
55.58000 17.251
55.59000 13.149
55.60000 20.376
55.61000 10.034
55.62000 15.161
55.63000 7.118
55.64000 13.932
55.65000 14.213
55.66000 14.094
55.67000 17.160
55.68000 15.170
55.69000 14.354
55.70000 11.129
55.71000 7.107
55.72000 7.152
55.73000 14.348
55.74000 5.104
55.75000 6.010
55.76000 13.129
55.77000 12.122
55.78000 9.977
55.79000 16.140
55.80000 9.001
55.81000 12.217
55.82000 7.037
55.83000 6.140
55.84000 11.070
55.85000 11.112
55.86000 9.128
55.87000 16.238
55.88000 7.130
55.89000 12.181
55.90000 11.149
55.91000 7.190
55.92000 7.102
55.93000 12.117
55.94000 16.196
55.95000 11.163
55.96000 10.109
55.97000 18.140
55.98000 8.209
55.99000 7.995
56.00000 20.312
56.01000 15.151
56.02000 10.046
56.03000 14.136
56.04000 13.038
56.05000 11.103
56.06000 10.985
56.07000 12.149
56.08000 14.179
56.09000 19.243
56.10000 10.164
56.11000 8.134
56.12000 11.172
56.13000 9.131
56.14000 12.160
56.15000 10.153
56.16000 7.981
56.17000 14.195
56.18000 16.338
56.19000 7.056
56.20000 15.192
56.21000 18.250
56.22000 11.177
56.23000 5.997
56.24000 19.386
56.25000 8.100
56.26000 12.124
56.27000 16.283
56.28000 14.171
56.29000 6.119
56.30000 13.155
56.31000 15.135
56.32000 11.214
56.33000 9.058
56.34000 12.185
56.35000 13.170
56.36000 13.110
56.37000 19.337
56.38000 14.342
56.39000 11.202
56.40000 12.057
56.41000 18.307
56.42000 16.171
56.43000 9.148
56.44000 13.221
56.45000 11.285
56.46000 10.206
56.47000 8.131
56.48000 3.941
56.49000 13.208
56.50000 12.205
56.51000 10.047
56.52000 8.053
56.53000 13.045
56.54000 18.246
56.55000 18.274
56.56000 13.137
56.57000 12.075
56.58000 10.125
56.59000 8.101
56.60000 11.944
56.61000 13.160
56.62000 10.126
56.63000 8.170
56.64000 6.028
56.65000 13.315
56.66000 19.349
56.67000 6.101
56.68000 9.223
56.69000 11.148
56.70000 17.294
56.71000 9.107
56.72000 13.101
56.73000 10.026
56.74000 14.146
56.75000 15.146
56.76000 12.205
56.77000 13.088
56.78000 11.173
56.79000 25.434
56.80000 7.017
56.81000 10.194
56.82000 12.122
56.83000 20.228
56.84000 9.193
56.85000 16.337
56.86000 16.024
56.87000 6.004
56.88000 17.113
56.89000 13.234
56.90000 13.011
56.91000 11.247
56.92000 9.238
56.93000 10.089
56.94000 10.072
56.95000 8.130
56.96000 18.348
56.97000 16.090
56.98000 10.200
56.99000 7.063
57.00000 17.114
57.01000 17.162
57.02000 14.180
57.03000 13.228
57.04000 11.171
57.05000 12.096
57.06000 13.084
57.07000 11.121
57.08000 16.123
57.09000 13.247
57.10000 10.296
57.11000 15.230
57.12000 4.015
57.13000 12.196
57.14000 12.130
57.15000 11.105
57.16000 14.089
57.17000 12.246
57.18000 8.073
57.19000 14.054
57.20000 8.098
57.21000 13.193
57.22000 19.307
57.23000 14.259
57.24000 13.997
57.25000 12.120
57.26000 13.296
57.27000 15.131
57.28000 16.155
57.29000 13.200
57.30000 11.156
57.31000 11.218
57.32000 5.029
57.33000 7.020
57.34000 15.324
57.35000 11.144
57.36000 5.024
57.37000 16.044
57.38000 5.185
57.39000 19.405
57.40000 11.153
57.41000 11.140
57.42000 9.088
57.43000 10.109
57.44000 11.026
57.45000 14.141
57.46000 10.076
57.47000 4.038
57.48000 11.234
57.49000 11.310
57.50000 10.204
57.51000 14.164
57.52000 13.241
57.53000 15.117
57.54000 13.306
57.55000 17.158
57.56000 14.187
57.57000 12.369
57.58000 12.098
57.59000 15.315
57.60000 14.205
57.61000 14.208
57.62000 8.091
57.63000 9.032
57.64000 8.039
57.65000 10.052
57.66000 11.112
57.67000 11.188
57.68000 14.116
57.69000 9.090
57.70000 14.210
57.71000 17.104
57.72000 10.085
57.73000 10.221
57.74000 12.181
57.75000 14.178
57.76000 18.124
57.77000 10.111
57.78000 12.233
57.79000 12.985
57.80000 11.191
57.81000 14.230
57.82000 11.183
57.83000 11.126
57.84000 11.154
57.85000 9.111
57.86000 12.134
57.87000 9.266
57.88000 13.049
57.89000 15.109
57.90000 24.330
57.91000 10.159
57.92000 5.075
57.93000 10.125
57.94000 9.002
57.95000 15.426
57.96000 13.198
57.97000 14.212
57.98000 18.188
57.99000 11.115
58.00000 15.136
58.01000 12.210
58.02000 16.376
58.03000 13.081
58.04000 10.112
58.05000 8.150
58.06000 10.065
58.07000 11.139
58.08000 13.172
58.09000 13.091
58.10000 14.182
58.11000 16.241
58.12000 13.089
58.13000 13.125
58.14000 2.006
58.15000 16.422
58.16000 13.263
58.17000 9.261
58.18000 15.240
58.19000 9.232
58.20000 15.096
58.21000 10.132
58.22000 15.183
58.23000 12.337
58.24000 7.193
58.25000 13.150
58.26000 10.057
58.27000 7.006
58.28000 9.070
58.29000 11.119
58.30000 13.014
58.31000 8.064
58.32000 5.080
58.33000 8.067
58.34000 5.067
58.35000 16.194
58.36000 14.130
58.37000 15.080
58.38000 18.197
58.39000 10.120
58.40000 13.138
58.41000 16.160
58.42000 9.031
58.43000 14.301
58.44000 10.253
58.45000 16.443
58.46000 7.135
58.47000 14.329
58.48000 13.095
58.49000 14.101
58.50000 5.963
58.51000 15.425
58.52000 9.136
58.53000 13.164
58.54000 8.215
58.55000 11.129
58.56000 15.195
58.57000 7.091
58.58000 10.061
58.59000 16.331
58.60000 11.073
58.61000 11.121
58.62000 10.123
58.63000 3.043
58.64000 8.033
58.65000 10.119
58.66000 13.173
58.67000 12.282
58.68000 5.995
58.69000 10.160
58.70000 10.150
58.71000 8.078
58.72000 10.214
58.73000 15.147
58.74000 10.182
58.75000 11.054
58.76000 14.168
58.77000 14.333
58.78000 12.199
58.79000 11.275
58.80000 12.114
58.81000 16.293
58.82000 12.118
58.83000 11.069
58.84000 5.934
58.85000 13.145
58.86000 13.205
58.87000 9.082
58.88000 10.060
58.89000 9.998
58.90000 5.974
58.91000 4.097
58.92000 12.276
58.93000 11.140
58.94000 12.211
58.95000 15.238
58.96000 11.235
58.97000 8.091
58.98000 6.141
58.99000 17.219
59.00000 10.175
59.01000 7.051
59.02000 7.079
59.03000 13.364
59.04000 16.114
59.05000 12.095
59.06000 7.083
59.07000 8.134
59.08000 14.092
59.09000 8.164
59.10000 9.175
59.11000 14.366
59.12000 10.114
59.13000 7.163
59.14000 10.274
59.15000 14.067
59.16000 11.205
59.17000 6.080
59.18000 15.339
59.19000 12.116
59.20000 14.313
59.21000 9.116
59.22000 16.100
59.23000 13.060
59.24000 7.234
59.25000 8.993
59.26000 13.000
59.27000 14.111
59.28000 8.104
59.29000 11.083
59.30000 14.293
59.31000 9.108
59.32000 8.090
59.33000 8.160
59.34000 14.049
59.35000 7.065
59.36000 10.005
59.37000 13.117
59.38000 13.258
59.39000 13.104
59.40000 13.259
59.41000 9.164
59.42000 12.137
59.43000 11.139
59.44000 5.050
59.45000 11.112
59.46000 7.093
59.47000 11.137
59.48000 12.295
59.49000 12.114
59.50000 11.067
59.51000 6.982
59.52000 11.228
59.53000 7.168
59.54000 9.107
59.55000 11.029
59.56000 6.043
59.57000 9.053
59.58000 7.054
59.59000 13.095
59.60000 8.258
59.61000 12.166
59.62000 11.280
59.63000 5.045
59.64000 13.145
59.65000 9.149
59.66000 14.221
59.67000 11.047
59.68000 10.015
59.69000 7.126
59.70000 6.127
59.71000 8.075
59.72000 12.288
59.73000 10.163
59.74000 10.186
59.75000 6.091
59.76000 12.277
59.77000 9.093
59.78000 15.201
59.79000 13.153
59.80000 13.160
59.81000 14.096
59.82000 10.158
59.83000 8.220
59.84000 10.074
59.85000 9.008
59.86000 9.093
59.87000 13.138
59.88000 8.101
59.89000 8.133
59.90000 12.044
59.91000 10.217
59.92000 10.120
59.93000 12.103
59.94000 9.045
59.95000 7.037
59.96000 15.170
59.97000 8.031
59.98000 6.109
59.99000 13.111
60.00000 8.057
60.01000 10.146
60.02000 9.986
60.03000 13.088
60.04000 11.173
60.05000 6.094
60.06000 8.078
60.07000 7.006
60.08000 11.221
60.09000 8.112
60.10000 12.120
60.11000 9.189
60.12000 8.098
60.13000 8.059
60.14000 12.056
60.15000 6.072
60.16000 5.103
60.17000 13.071
60.18000 9.097
60.19000 7.085
60.20000 6.087
60.21000 9.143
60.22000 7.054
60.23000 14.241
60.24000 16.052
60.25000 8.118
60.26000 10.134
60.27000 10.048
60.28000 6.131
60.29000 11.186
60.30000 10.191
60.31000 14.268
60.32000 8.069
60.33000 10.185
60.34000 10.182
60.35000 13.199
60.36000 6.025
60.37000 6.041
60.38000 7.036
60.39000 6.036
60.40000 7.042
60.41000 9.151
60.42000 14.145
60.43000 10.208
60.44000 8.166
60.45000 17.260
60.46000 10.052
60.47000 6.113
60.48000 18.168
60.49000 13.296
60.50000 6.057
60.51000 9.199
60.52000 13.094
60.53000 11.084
60.54000 9.023
60.55000 12.267
60.56000 12.069
60.57000 9.072
60.58000 13.189
60.59000 10.124
60.60000 14.277
60.61000 10.026
60.62000 13.001
60.63000 10.299
60.64000 10.188
60.65000 9.155
60.66000 11.067
60.67000 13.197
60.68000 15.021
60.69000 4.062
60.70000 11.143
60.71000 10.189
60.72000 5.994
60.73000 4.043
60.74000 2.977
60.75000 12.273
60.76000 10.075
60.77000 14.984
60.78000 12.024
60.79000 11.138
60.80000 10.037
60.81000 9.044
60.82000 9.104
60.83000 12.081
60.84000 9.165
60.85000 8.163
60.86000 7.010
60.87000 9.217
60.88000 4.982
60.89000 13.080
60.90000 8.080
60.91000 2.975
60.92000 6.045
60.93000 6.160
60.94000 9.206
60.95000 11.966
60.96000 9.292
60.97000 10.043
60.98000 10.095
60.99000 9.128
61.00000 12.103
61.01000 13.034
61.02000 6.137
61.03000 9.127
61.04000 6.976
61.05000 8.130
61.06000 7.117
61.07000 7.179
61.08000 2.008
61.09000 5.020
61.10000 8.175
61.11000 8.086
61.12000 1.974
61.13000 5.940
61.14000 10.073
61.15000 9.100
61.16000 10.002
61.17000 7.157
61.18000 10.174
61.19000 10.179
61.20000 14.304
61.21000 10.079
61.22000 11.042
61.23000 13.246
61.24000 9.066
61.25000 8.095
61.26000 10.155
61.27000 14.114
61.28000 6.048
61.29000 12.133
61.30000 10.129
61.31000 8.136
61.32000 9.225
61.33000 6.072
61.34000 5.068
61.35000 7.124
61.36000 14.084
61.37000 12.210
61.38000 13.190
61.39000 14.278
61.40000 7.018
61.41000 6.036
61.42000 5.087
61.43000 7.157
61.44000 16.260
61.45000 9.240
61.46000 6.026
61.47000 8.130
61.48000 7.087
61.49000 6.069
61.50000 11.119
61.51000 10.292
61.52000 14.316
61.53000 8.147
61.54000 11.105
61.55000 7.074
61.56000 9.189
61.57000 7.088
61.58000 11.141
61.59000 2.989
61.60000 11.124
61.61000 16.290
61.62000 10.090
61.63000 8.056
61.64000 6.121
61.65000 7.013
61.66000 10.144
61.67000 15.194
61.68000 10.089
61.69000 11.058
61.70000 12.205
61.71000 5.006
61.72000 9.114
61.73000 7.122
61.74000 8.027
61.75000 13.261
61.76000 6.963
61.77000 6.113
61.78000 5.121
61.79000 8.114
61.80000 15.085
61.81000 10.090
61.82000 9.034
61.83000 7.171
61.84000 9.114
61.85000 6.042
61.86000 6.065
61.87000 13.195
61.88000 9.157
61.89000 6.082
61.90000 5.027
61.91000 7.138
61.92000 7.170
61.93000 10.142
61.94000 7.117
61.95000 9.086
61.96000 10.128
61.97000 7.075
61.98000 7.010
61.99000 4.089
62.00000 6.980
62.01000 11.019
62.02000 6.129
62.03000 9.121
62.04000 6.025
62.05000 8.174
62.06000 6.078
62.07000 4.993
62.08000 5.086
62.09000 6.010
62.10000 10.212
62.11000 9.125
62.12000 8.045
62.13000 7.129
62.14000 11.223
62.15000 11.210
62.16000 12.083
62.17000 9.190
62.18000 6.994
62.19000 10.062
62.20000 7.048
62.21000 5.052
62.22000 12.228
62.23000 9.134
62.24000 9.146
62.25000 6.136
62.26000 7.107
62.27000 11.111
62.28000 9.220
62.29000 13.112
62.30000 7.173
62.31000 9.158
62.32000 2.034
62.33000 10.238
62.34000 8.032
62.35000 7.055
62.36000 10.229
62.37000 12.191
62.38000 6.076
62.39000 9.061
62.40000 19.243
62.41000 1.984
62.42000 9.093
62.43000 8.176
62.44000 12.250
62.45000 6.129
62.46000 10.173
62.47000 5.979
62.48000 4.111
62.49000 8.164
62.50000 9.050
62.51000 7.103
62.52000 7.153
62.53000 5.052
62.54000 8.001
62.55000 8.066
62.56000 13.272
62.57000 13.033
62.58000 8.967
62.59000 5.000
62.60000 8.224
62.61000 9.002
62.62000 13.078
62.63000 14.286
62.64000 7.149
62.65000 4.972
62.66000 8.036
62.67000 9.168
62.68000 6.033
62.69000 11.120
62.70000 7.159
62.71000 6.063
62.72000 13.254
62.73000 7.141
62.74000 7.075
62.75000 2.997
62.76000 11.243
62.77000 14.140
62.78000 7.131
62.79000 8.094
62.80000 6.147
62.81000 8.104
62.82000 17.359
62.83000 4.985
62.84000 10.143
62.85000 13.290
62.86000 10.183
62.87000 5.010
62.88000 13.255
62.89000 16.318
62.90000 13.233
62.91000 15.928
62.92000 10.291
62.93000 16.232
62.94000 9.172
62.95000 3.960
62.96000 5.101
62.97000 8.059
62.98000 7.071
62.99000 10.169
63.00000 7.075
63.01000 6.004
63.02000 11.128
63.03000 6.019
63.04000 11.192
63.05000 8.153
63.06000 10.389
63.07000 7.246
63.08000 14.101
63.09000 12.073
63.10000 3.031
63.11000 3.056
63.12000 3.018
63.13000 8.240
63.14000 7.068
63.15000 7.187
63.16000 8.122
63.17000 6.122
63.18000 6.953
63.19000 6.014
63.20000 8.259
63.21000 9.276
63.22000 6.126
63.23000 7.165
63.24000 11.139
63.25000 10.258
63.26000 6.035
63.27000 5.118
63.28000 6.038
63.29000 5.102
63.30000 9.158
63.31000 6.972
63.32000 10.999
63.33000 11.185
63.34000 16.187
63.35000 2.997
63.36000 6.057
63.37000 12.178
63.38000 8.984
63.39000 6.102
63.40000 8.160
63.41000 10.037
63.42000 10.110
63.43000 8.036
63.44000 6.166
63.45000 7.035
63.46000 7.016
63.47000 9.162
63.48000 4.117
63.49000 13.259
63.50000 9.963
63.51000 10.078
63.52000 7.122
63.53000 7.075
63.54000 10.205
63.55000 9.148
63.56000 11.124
63.57000 4.013
63.58000 11.121
63.59000 12.159
63.60000 5.109
63.61000 6.107
63.62000 6.158
63.63000 8.184
63.64000 4.161
63.65000 11.142
63.66000 11.121
63.67000 4.017
63.68000 7.000
63.69000 9.253
63.70000 12.078
63.71000 7.054
63.72000 5.065
63.73000 6.063
63.74000 5.116
63.75000 10.254
63.76000 6.158
63.77000 9.124
63.78000 11.214
63.79000 8.134
63.80000 7.134
63.81000 9.178
63.82000 10.143
63.83000 4.002
63.84000 7.130
63.85000 4.988
63.86000 13.160
63.87000 8.223
63.88000 11.100
63.89000 16.238
63.90000 9.128
63.91000 10.155
63.92000 6.088
63.93000 10.195
63.94000 8.056
63.95000 7.084
63.96000 10.261
63.97000 8.017
63.98000 12.254
63.99000 7.018
64.00000 8.152
64.01000 6.038
64.02000 11.149
64.03000 8.164
64.04000 6.070
64.05000 9.201
64.06000 5.026
64.07000 5.036
64.08000 14.170
64.09000 9.064
64.10000 10.033
64.11000 7.183
64.12000 6.030
64.13000 8.101
64.14000 8.112
64.15000 11.297
64.16000 10.179
64.17000 8.141
64.18000 6.036
64.19000 9.171
64.20000 8.180
64.21000 6.007
64.22000 4.069
64.23000 10.222
64.24000 7.128
64.25000 9.172
64.26000 6.988
64.27000 7.117
64.28000 5.222
64.29000 10.049
64.30000 14.241
64.31000 10.158
64.32000 10.127
64.33000 4.944
64.34000 9.089
64.35000 6.156
64.36000 6.035
64.37000 11.196
64.38000 10.065
64.39000 4.035
64.40000 6.996
64.41000 6.058
64.42000 8.053
64.43000 6.157
64.44000 9.151
64.45000 7.124
64.46000 9.365
64.47000 9.025
64.48000 13.180
64.49000 12.016
64.50000 9.174
64.51000 10.127
64.52000 3.090
64.53000 8.087
64.54000 9.050
64.55000 5.011
64.56000 7.073
64.57000 7.131
64.58000 8.018
64.59000 7.079
64.60000 11.123
64.61000 12.089
64.62000 11.159
64.63000 8.104
64.64000 7.143
64.65000 3.994
64.66000 7.174
64.67000 11.174
64.68000 6.004
64.69000 7.111
64.70000 8.237
64.71000 9.176
64.72000 7.225
64.73000 4.052
64.74000 11.301
64.75000 5.990
64.76000 10.129
64.77000 8.165
64.78000 9.103
64.79000 9.137
64.80000 7.034
64.81000 12.988
64.82000 9.246
64.83000 7.049
64.84000 7.256
64.85000 11.075
64.86000 2.974
64.87000 11.060
64.88000 8.279
64.89000 7.180
64.90000 6.046
64.91000 7.151
64.92000 6.046
64.93000 6.972
64.94000 5.992
64.95000 9.191
64.96000 6.097
64.97000 10.178
64.98000 7.153
64.99000 13.173
65.00000 5.023
