20.00000 15.199
20.01000 11.115
20.02000 21.343
20.03000 14.189
20.04000 20.333
20.05000 18.259
20.06000 23.290
20.07000 19.149
20.08000 16.167
20.09000 23.077
20.10000 16.276
20.11000 19.247
20.12000 17.323
20.13000 17.331
20.14000 15.193
20.15000 19.170
20.16000 16.171
20.17000 21.364
20.18000 12.099
20.19000 19.401
20.20000 11.979
20.21000 19.154
20.22000 17.387
20.23000 13.155
20.24000 14.236
20.25000 15.098
20.26000 21.323
20.27000 15.257
20.28000 20.530
20.29000 16.359
20.30000 19.327
20.31000 21.241
20.32000 21.167
20.33000 19.248
20.34000 20.250
20.35000 28.215
20.36000 19.455
20.37000 19.358
20.38000 19.093
20.39000 21.193
20.40000 22.309
20.41000 19.161
20.42000 27.430
20.43000 14.169
20.44000 13.090
20.45000 20.125
20.46000 29.341
20.47000 16.276
20.48000 17.373
20.49000 18.228
20.50000 9.954
20.51000 16.167
20.52000 17.199
20.53000 20.205
20.54000 12.146
20.55000 18.210
20.56000 21.276
20.57000 16.387
20.58000 16.088
20.59000 17.146
20.60000 16.153
20.61000 18.197
20.62000 18.192
20.63000 21.444
20.64000 14.188
20.65000 20.121
20.66000 19.168
20.67000 13.202
20.68000 21.252
20.69000 15.115
20.70000 14.301
20.71000 18.354
20.72000 16.242
20.73000 29.386
20.74000 15.203
20.75000 13.201
20.76000 12.183
20.77000 23.304
20.78000 15.085
20.79000 17.188
20.80000 18.222
20.81000 15.242
20.82000 20.485
20.83000 17.263
20.84000 24.294
20.85000 18.149
20.86000 8.037
20.87000 23.202
20.88000 18.079
20.89000 27.574
20.90000 14.217
20.91000 21.214
20.92000 14.372
20.93000 13.150
20.94000 20.232
20.95000 21.297
20.96000 16.230
20.97000 17.180
20.98000 21.480
20.99000 26.212
21.00000 16.298
21.01000 16.346
21.02000 21.148
21.03000 20.294
21.04000 23.506
21.05000 17.127
21.06000 16.200
21.07000 21.444
21.08000 15.135
21.09000 12.134
21.10000 19.321
21.11000 28.200
21.12000 19.173
21.13000 19.255
21.14000 12.132
21.15000 19.273
21.16000 22.214
21.17000 21.215
21.18000 18.110
21.19000 16.105
21.20000 15.309
21.21000 18.068
21.22000 21.168
21.23000 24.280
21.24000 21.362
21.25000 16.397
21.26000 17.252
21.27000 21.134
21.28000 18.044
21.29000 22.437
21.30000 22.110
21.31000 20.282
21.32000 13.104
21.33000 16.158
21.34000 21.311
21.35000 18.137
21.36000 23.265
21.37000 19.174
21.38000 20.233
21.39000 11.143
21.40000 19.203
21.41000 18.201
21.42000 22.288
21.43000 28.115
21.44000 18.088
21.45000 18.417
21.46000 16.313
21.47000 22.267
21.48000 14.025
21.49000 21.235
21.50000 19.224
21.51000 18.217
21.52000 21.305
21.53000 18.215
21.54000 16.418
21.55000 19.151
21.56000 18.190
21.57000 16.127
21.58000 20.130
21.59000 27.449
21.60000 16.283
21.61000 23.381
21.62000 21.166
21.63000 14.295
21.64000 17.274
21.65000 17.183
21.66000 21.239
21.67000 17.097
21.68000 22.273
21.69000 19.371
21.70000 13.136
21.71000 26.504
21.72000 19.316
21.73000 15.252
21.74000 25.311
21.75000 17.335
21.76000 28.420
21.77000 23.266
21.78000 16.300
21.79000 17.075
21.80000 22.201
21.81000 16.056
21.82000 21.160
21.83000 14.257
21.84000 16.249
21.85000 24.200
21.86000 22.486
21.87000 25.251
21.88000 20.497
21.89000 21.366
21.90000 17.224
21.91000 22.419
21.92000 18.198
21.93000 21.381
21.94000 15.250
21.95000 18.216
21.96000 15.361
21.97000 22.272
21.98000 11.082
21.99000 31.600
22.00000 18.298
22.01000 30.303
22.02000 19.323
22.03000 20.313
22.04000 14.309
22.05000 25.444
22.06000 25.084
22.07000 16.064
22.08000 18.438
22.09000 19.416
22.10000 17.218
22.11000 19.165
22.12000 14.034
22.13000 22.587
22.14000 17.333
22.15000 16.290
22.16000 18.230
22.17000 29.495
22.18000 15.475
22.19000 15.134
22.20000 15.266
22.21000 18.259
22.22000 14.260
22.23000 23.365
22.24000 29.547
22.25000 22.241
22.26000 17.223
22.27000 15.133
22.28000 22.106
22.29000 24.423
22.30000 17.197
22.31000 24.535
22.32000 18.031
22.33000 14.188
22.34000 18.136
22.35000 18.176
22.36000 16.395
22.37000 28.336
22.38000 21.378
22.39000 19.287
22.40000 16.191
22.41000 23.054
22.42000 27.514
22.43000 22.546
22.44000 13.108
22.45000 18.076
22.46000 23.396
22.47000 23.484
22.48000 14.327
22.49000 20.338
22.50000 19.262
22.51000 26.170
22.52000 21.209
22.53000 25.187
22.54000 17.227
22.55000 22.316
22.56000 22.031
22.57000 22.318
22.58000 20.116
22.59000 24.381
22.60000 21.174
22.61000 18.194
22.62000 20.285
22.63000 17.247
22.64000 21.331
22.65000 19.258
22.66000 27.339
22.67000 25.274
22.68000 15.248
22.69000 23.258
22.70000 26.257
22.71000 26.418
22.72000 34.505
22.73000 17.251
22.74000 22.210
22.75000 17.102
22.76000 18.125
22.77000 19.138
22.78000 18.189
22.79000 18.301
22.80000 17.301
22.81000 17.275
22.82000 15.272
22.83000 22.307
22.84000 21.221
22.85000 31.408
22.86000 19.313
22.87000 18.168
22.88000 14.111
22.89000 19.198
22.90000 18.228
22.91000 23.311
22.92000 13.156
22.93000 17.186
22.94000 22.401
22.95000 26.488
22.96000 26.536
22.97000 23.255
22.98000 13.137
22.99000 18.126
23.00000 13.958
23.01000 19.220
23.02000 17.366
23.03000 19.471
23.04000 14.165
23.05000 20.430
23.06000 18.177
23.07000 22.268
23.08000 16.367
23.09000 20.163
23.10000 24.395
23.11000 28.539
23.12000 18.082
23.13000 19.213
23.14000 23.428
23.15000 26.248
23.16000 21.336
23.17000 25.316
23.18000 20.371
23.19000 25.310
23.20000 26.180
23.21000 25.267
23.22000 23.326
23.23000 15.162
23.24000 31.582
23.25000 16.121
23.26000 16.441
23.27000 14.034
23.28000 20.106
23.29000 24.378
23.30000 28.172
23.31000 24.187
23.32000 23.286
23.33000 13.135
23.34000 19.190
23.35000 22.139
23.36000 20.286
23.37000 22.261
23.38000 21.229
23.39000 27.414
23.40000 18.276
23.41000 21.978
23.42000 16.030
23.43000 18.394
23.44000 17.237
23.45000 29.187
23.46000 27.358
23.47000 20.193
23.48000 29.382
23.49000 15.137
23.50000 18.175
23.51000 26.615
23.52000 27.442
23.53000 19.291
23.54000 24.183
23.55000 30.398
23.56000 26.276
23.57000 25.390
23.58000 19.239
23.59000 19.176
23.60000 22.234
23.61000 26.560
23.62000 26.278
23.63000 23.107
23.64000 24.279
23.65000 32.436
23.66000 15.066
23.67000 20.227
23.68000 22.260
23.69000 18.067
23.70000 34.414
23.71000 25.350
23.72000 23.380
23.73000 42.164
23.74000 18.220
23.75000 27.393
23.76000 23.286
23.77000 12.092
23.78000 19.317
23.79000 23.231
23.80000 26.564
23.81000 21.380
23.82000 23.224
23.83000 20.378
23.84000 14.412
23.85000 23.429
23.86000 19.300
23.87000 22.224
23.88000 24.361
23.89000 23.314
23.90000 25.504
23.91000 24.340
23.92000 23.200
23.93000 17.097
23.94000 19.114
23.95000 30.359
23.96000 29.239
23.97000 22.149
23.98000 22.289
23.99000 34.499
24.00000 20.173
24.01000 33.234
24.02000 28.487
24.03000 24.225
24.04000 19.187
24.05000 31.458
24.06000 24.316
24.07000 20.253
24.08000 33.353
24.09000 31.336
24.10000 29.301
24.11000 26.306
24.12000 22.294
24.13000 18.277
24.14000 20.082
24.15000 27.449
24.16000 16.462
24.17000 24.421
24.18000 17.228
24.19000 28.362
24.20000 27.491
24.21000 21.320
24.22000 36.593
24.23000 24.215
24.24000 19.178
24.25000 36.227
24.26000 28.223
24.27000 22.434
24.28000 32.655
24.29000 23.113
24.30000 26.498
24.31000 23.306
24.32000 33.461
24.33000 26.262
24.34000 28.519
24.35000 25.408
24.36000 21.377
24.37000 23.168
24.38000 32.609
24.39000 23.485
24.40000 27.266
24.41000 28.469
24.42000 35.289
24.43000 23.459
24.44000 21.290
24.45000 20.124
24.46000 27.433
24.47000 18.235
24.48000 24.299
24.49000 28.503
24.50000 20.247
24.51000 25.409
24.52000 23.246
24.53000 26.295
24.54000 21.132
24.55000 27.333
24.56000 31.233
24.57000 33.482
24.58000 23.077
24.59000 24.299
24.60000 17.294
24.61000 17.232
24.62000 19.205
24.63000 33.331
24.64000 25.459
24.65000 33.729
24.66000 23.067
24.67000 18.280
24.68000 32.400
24.69000 30.412
24.70000 28.396
24.71000 26.373
24.72000 31.239
24.73000 17.050
24.74000 26.260
24.75000 31.566
24.76000 22.237
24.77000 24.213
24.78000 25.157
24.79000 27.168
24.80000 31.258
24.81000 15.194
24.82000 26.245
24.83000 27.387
24.84000 39.527
24.85000 29.371
24.86000 30.254
24.87000 21.153
24.88000 35.369
24.89000 25.381
24.90000 17.232
24.91000 28.252
24.92000 32.239
24.93000 33.453
24.94000 28.305
24.95000 25.341
24.96000 31.417
24.97000 34.339
24.98000 26.374
24.99000 35.279
25.00000 30.404
25.01000 32.221
25.02000 27.298
25.03000 26.251
25.04000 31.449
25.05000 23.316
25.06000 37.565
25.07000 22.151
25.08000 26.299
25.09000 25.414
25.10000 30.278
25.11000 34.198
25.12000 37.559
25.13000 38.550
25.14000 16.232
25.15000 42.443
25.16000 34.490
25.17000 26.290
25.18000 26.471
25.19000 32.417
25.20000 16.240
25.21000 24.445
25.22000 24.206
25.23000 37.416
25.24000 28.086
25.25000 20.176
25.26000 22.271
25.27000 26.229
25.28000 31.605
25.29000 26.233
25.30000 42.505
25.31000 32.480
25.32000 23.206
25.33000 25.502
25.34000 21.296
25.35000 35.483
25.36000 29.260
25.37000 38.258
25.38000 26.265
25.39000 39.572
25.40000 21.459
25.41000 29.427
25.42000 20.103
25.43000 22.089
25.44000 33.544
25.45000 23.526
25.46000 32.642
25.47000 29.423
25.48000 36.478
25.49000 36.288
25.50000 31.235
25.51000 40.701
25.52000 27.162
25.53000 30.308
25.54000 26.516
25.55000 29.328
25.56000 27.291
25.57000 38.641
25.58000 31.207
25.59000 36.230
25.60000 27.542
25.61000 21.245
25.62000 33.642
25.63000 26.317
25.64000 26.546
25.65000 21.323
25.66000 39.464
25.67000 34.485
25.68000 35.540
25.69000 28.488
25.70000 26.139
25.71000 30.226
25.72000 45.636
25.73000 34.269
25.74000 23.177
25.75000 32.536
25.76000 36.767
25.77000 30.468
25.78000 28.402
25.79000 46.502
25.80000 30.268
25.81000 32.443
25.82000 31.059
25.83000 33.655
25.84000 38.270
25.85000 36.295
25.86000 36.545
25.87000 36.223
25.88000 27.244
25.89000 25.302
25.90000 43.768
25.91000 26.678
25.92000 39.742
25.93000 33.348
25.94000 35.484
25.95000 44.671
25.96000 50.707
25.97000 28.421
25.98000 37.693
25.99000 27.251
26.00000 34.406
26.01000 44.293
26.02000 29.517
26.03000 43.769
26.04000 36.314
26.05000 34.221
26.06000 34.499
26.07000 31.741
26.08000 38.491
26.09000 32.323
26.10000 32.437
26.11000 40.551
26.12000 35.530
26.13000 36.233
26.14000 32.206
26.15000 33.464
26.16000 25.212
26.17000 31.341
26.18000 20.305
26.19000 39.319
26.20000 23.309
26.21000 28.383
26.22000 22.198
26.23000 38.509
26.24000 36.495
26.25000 38.493
26.26000 36.609
26.27000 31.310
26.28000 35.508
26.29000 36.407
26.30000 37.388
26.31000 43.646
26.32000 36.362
26.33000 24.280
26.34000 35.716
26.35000 32.513
26.36000 35.207
26.37000 29.182
26.38000 41.505
26.39000 35.506
26.40000 38.295
26.41000 37.504
26.42000 46.653
26.43000 39.764
26.44000 42.375
26.45000 34.444
26.46000 39.647
26.47000 40.514
26.48000 31.381
26.49000 31.576
26.50000 31.211
26.51000 30.245
26.52000 39.666
26.53000 30.437
26.54000 27.368
26.55000 37.433
26.56000 34.311
26.57000 33.416
26.58000 33.536
26.59000 22.099
26.60000 40.237
26.61000 29.445
26.62000 34.513
26.63000 35.482
26.64000 27.529
26.65000 30.345
26.66000 31.305
26.67000 30.326
26.68000 26.320
26.69000 41.759
26.70000 34.338
26.71000 30.320
26.72000 28.359
26.73000 34.630
26.74000 36.468
26.75000 33.374
26.76000 34.517
26.77000 34.478
26.78000 37.519
26.79000 33.270
26.80000 41.394
26.81000 36.322
26.82000 43.482
26.83000 29.292
26.84000 34.458
26.85000 34.331
26.86000 47.262
26.87000 28.227
26.88000 29.029
26.89000 23.251
26.90000 35.598
26.91000 39.264
26.92000 42.688
26.93000 50.663
26.94000 42.883
26.95000 43.810
26.96000 30.483
26.97000 37.525
26.98000 32.437
26.99000 32.609
27.00000 31.422
27.01000 34.260
27.02000 42.452
27.03000 41.684
27.04000 42.403
27.05000 32.369
27.06000 35.332
27.07000 34.298
27.08000 33.428
27.09000 33.309
27.10000 39.649
27.11000 42.570
27.12000 39.478
27.13000 31.193
27.14000 36.470
27.15000 46.604
27.16000 48.714
27.17000 38.565
27.18000 32.289
27.19000 40.292
27.20000 32.377
27.21000 32.520
27.22000 35.592
27.23000 30.269
27.24000 50.434
27.25000 43.548
27.26000 30.157
27.27000 42.475
27.28000 38.516
27.29000 35.288
27.30000 33.258
27.31000 32.505
27.32000 35.427
27.33000 50.413
27.34000 36.611
27.35000 40.525
27.36000 38.573
27.37000 38.274
27.38000 30.484
27.39000 31.138
27.40000 47.393
27.41000 35.411
27.42000 26.356
27.43000 55.492
27.44000 30.479
27.45000 35.252
27.46000 24.226
27.47000 47.474
27.48000 35.514
27.49000 35.595
27.50000 37.536
27.51000 34.394
27.52000 39.314
27.53000 38.260
27.54000 41.683
27.55000 39.866
27.56000 36.282
27.57000 37.500
27.58000 43.721
27.59000 38.539
27.60000 34.402
27.61000 30.474
27.62000 33.385
27.63000 28.634
27.64000 35.626
27.65000 36.732
27.66000 32.322
27.67000 38.346
27.68000 37.421
27.69000 30.357
27.70000 36.372
27.71000 37.585
27.72000 36.303
27.73000 43.458
27.74000 44.847
27.75000 33.458
27.76000 33.461
27.77000 45.713
27.78000 46.582
27.79000 39.571
27.80000 51.715
27.81000 38.626
27.82000 29.377
27.83000 42.376
27.84000 31.445
27.85000 45.623
27.86000 40.462
27.87000 35.584
27.88000 27.205
27.89000 33.396
27.90000 27.274
27.91000 24.299
27.92000 28.333
27.93000 38.643
27.94000 41.680
27.95000 32.490
27.96000 31.481
27.97000 39.598
27.98000 31.648
27.99000 45.399
28.00000 33.376
28.01000 42.762
28.02000 19.173
28.03000 41.459
28.04000 44.518
28.05000 31.108
28.06000 24.475
28.07000 40.404
28.08000 47.619
28.09000 37.433
28.10000 41.564
28.11000 35.355
28.12000 49.592
28.13000 36.339
28.14000 36.583
28.15000 41.490
28.16000 35.587
28.17000 26.466
28.18000 27.440
28.19000 28.514
28.20000 35.603
28.21000 47.559
28.22000 22.264
28.23000 40.631
28.24000 27.432
28.25000 25.183
28.26000 29.244
28.27000 32.461
28.28000 30.513
28.29000 44.615
28.30000 35.576
28.31000 37.626
28.32000 29.446
28.33000 35.453
28.34000 47.632
28.35000 38.706
28.36000 38.423
28.37000 37.070
28.38000 37.647
28.39000 31.381
28.40000 30.261
28.41000 42.409
28.42000 29.457
28.43000 35.663
28.44000 36.460
28.45000 29.180
28.46000 32.443
28.47000 40.392
28.48000 31.280
28.49000 38.617
28.50000 28.308
28.51000 41.769
28.52000 36.319
28.53000 30.449
28.54000 16.156
28.55000 37.479
28.56000 34.290
28.57000 29.432
28.58000 35.503
28.59000 31.450
28.60000 33.283
28.61000 40.481
28.62000 34.452
28.63000 42.686
28.64000 34.740
28.65000 38.601
28.66000 45.416
28.67000 27.365
28.68000 37.502
28.69000 31.562
28.70000 33.314
28.71000 27.460
28.72000 31.443
28.73000 34.408
28.74000 34.309
28.75000 44.574
28.76000 27.405
28.77000 33.445
28.78000 30.375
28.79000 34.405
28.80000 29.355
28.81000 25.574
28.82000 39.329
28.83000 25.265
28.84000 40.470
28.85000 28.199
28.86000 35.731
28.87000 34.423
28.88000 42.649
28.89000 26.229
28.90000 22.301
28.91000 30.283
28.92000 26.256
28.93000 39.213
28.94000 35.466
28.95000 44.791
28.96000 29.285
28.97000 30.345
28.98000 28.403
28.99000 32.361
29.00000 24.101
29.01000 32.354
29.02000 32.630
29.03000 36.317
29.04000 30.226
29.05000 34.418
29.06000 36.342
29.07000 35.584
29.08000 30.139
29.09000 40.596
29.10000 33.639
29.11000 29.404
29.12000 33.484
29.13000 28.328
29.14000 18.099
29.15000 28.156
29.16000 29.423
29.17000 39.336
29.18000 39.542
29.19000 32.320
29.20000 39.382
29.21000 31.449
29.22000 24.515
29.23000 38.498
29.24000 32.580
29.25000 31.476
29.26000 20.151
29.27000 22.011
29.28000 28.491
29.29000 34.439
29.30000 28.082
29.31000 37.624
29.32000 25.070
29.33000 35.842
29.34000 22.393
29.35000 40.321
29.36000 38.350
29.37000 31.215
29.38000 24.396
29.39000 19.122
29.40000 34.508
29.41000 27.341
29.42000 33.360
29.43000 26.302
29.44000 26.293
29.45000 36.387
29.46000 28.366
29.47000 33.316
29.48000 27.332
29.49000 25.561
29.50000 40.531
29.51000 37.557
29.52000 28.376
29.53000 35.630
29.54000 24.270
29.55000 33.305
29.56000 27.301
29.57000 28.256
29.58000 28.570
29.59000 33.407
29.60000 27.483
29.61000 33.469
29.62000 22.114
29.63000 37.409
29.64000 26.197
29.65000 28.291
29.66000 31.430
29.67000 32.417
29.68000 39.562
29.69000 31.848
29.70000 34.547
29.71000 23.295
29.72000 29.416
29.73000 29.475
29.74000 34.530
29.75000 26.379
29.76000 29.492
29.77000 30.343
29.78000 29.255
29.79000 21.944
29.80000 37.423
29.81000 27.331
29.82000 31.347
29.83000 26.468
29.84000 27.278
29.85000 33.611
29.86000 27.247
29.87000 33.500
29.88000 33.474
29.89000 25.258
29.90000 34.543
29.91000 21.277
29.92000 18.258
29.93000 34.311
29.94000 23.448
29.95000 29.267
29.96000 29.119
29.97000 27.107
29.98000 37.437
29.99000 28.335
30.00000 31.264
30.01000 24.220
30.02000 29.322
30.03000 33.371
30.04000 35.600
30.05000 20.277
30.06000 27.419
30.07000 26.404
30.08000 36.248
30.09000 27.238
30.10000 29.358
30.11000 29.556
30.12000 33.482
30.13000 33.482
30.14000 24.324
30.15000 27.136
30.16000 28.307
30.17000 27.257
30.18000 29.450
30.19000 30.265
30.20000 25.209
30.21000 21.311
30.22000 22.327
30.23000 26.348
30.24000 31.237
30.25000 27.163
30.26000 29.431
30.27000 26.326
30.28000 18.383
30.29000 24.277
30.30000 23.444
30.31000 28.356
30.32000 29.174
30.33000 22.217
30.34000 22.174
30.35000 25.202
30.36000 20.222
30.37000 26.362
30.38000 19.427
30.39000 24.222
30.40000 27.285
30.41000 25.244
30.42000 21.366
30.43000 35.192
30.44000 31.446
30.45000 24.273
30.46000 33.435
30.47000 27.232
30.48000 26.484
30.49000 26.251
30.50000 31.257
30.51000 34.495
30.52000 26.334
30.53000 25.315
30.54000 26.404
30.55000 25.510
30.56000 16.126
30.57000 27.458
30.58000 26.214
30.59000 27.348
30.60000 27.352
30.61000 30.296
30.62000 34.363
30.63000 24.238
30.64000 20.307
30.65000 24.515
30.66000 34.663
30.67000 20.323
30.68000 31.179
30.69000 29.529
30.70000 25.220
30.71000 15.191
30.72000 23.293
30.73000 28.424
30.74000 20.109
30.75000 29.546
30.76000 29.357
30.77000 21.173
30.78000 19.281
30.79000 17.135
30.80000 24.289
30.81000 20.340
30.82000 27.220
30.83000 21.383
30.84000 18.293
30.85000 13.279
30.86000 18.316
30.87000 23.313
30.88000 30.175
30.89000 28.297
30.90000 17.251
30.91000 24.431
30.92000 17.116
30.93000 27.464
30.94000 20.164
30.95000 25.076
30.96000 24.246
30.97000 29.492
30.98000 25.417
30.99000 13.047
31.00000 26.340
31.01000 22.192
31.02000 26.536
31.03000 22.340
31.04000 19.261
31.05000 26.255
31.06000 29.350
31.07000 14.186
31.08000 21.325
31.09000 12.003
31.10000 23.344
31.11000 23.392
31.12000 19.317
31.13000 21.377
31.14000 31.524
31.15000 38.361
31.16000 21.330
31.17000 24.158
31.18000 23.238
31.19000 29.335
31.20000 15.125
31.21000 16.344
31.22000 10.217
31.23000 30.498
31.24000 17.121
31.25000 24.146
31.26000 24.388
31.27000 24.379
31.28000 19.031
31.29000 30.488
31.30000 31.341
31.31000 19.312
31.32000 16.327
31.33000 22.224
31.34000 19.115
31.35000 21.160
31.36000 14.176
31.37000 14.289
31.38000 22.068
31.39000 18.263
31.40000 25.377
31.41000 26.489
31.42000 11.030
31.43000 22.471
31.44000 15.111
31.45000 21.254
31.46000 24.051
31.47000 21.486
31.48000 25.511
31.49000 18.183
31.50000 18.255
31.51000 13.231
31.52000 19.418
31.53000 23.239
31.54000 31.519
31.55000 17.270
31.56000 23.396
31.57000 21.437
31.58000 28.486
31.59000 18.228
31.60000 25.491
31.61000 12.248
31.62000 22.198
31.63000 28.116
31.64000 23.507
31.65000 18.202
31.66000 24.069
31.67000 20.347
31.68000 21.216
31.69000 34.394
31.70000 29.454
31.71000 18.024
31.72000 17.306
31.73000 19.209
31.74000 23.391
31.75000 22.300
31.76000 17.180
31.77000 15.246
31.78000 22.102
31.79000 17.248
31.80000 19.279
31.81000 19.408
31.82000 13.199
31.83000 24.158
31.84000 20.093
31.85000 22.178
31.86000 22.215
31.87000 15.092
31.88000 20.580
31.89000 19.324
31.90000 18.235
31.91000 23.337
31.92000 25.153
31.93000 19.282
31.94000 17.181
31.95000 17.067
31.96000 19.004
31.97000 22.106
31.98000 24.091
31.99000 24.428
32.00000 25.489
32.01000 21.285
32.02000 24.430
32.03000 21.438
32.04000 11.063
32.05000 14.193
32.06000 20.157
32.07000 22.178
32.08000 28.432
32.09000 30.345
32.10000 19.320
32.11000 31.496
32.12000 32.374
32.13000 22.285
32.14000 27.241
32.15000 25.347
32.16000 28.352
32.17000 24.131
32.18000 21.129
32.19000 15.245
32.20000 20.350
32.21000 29.355
32.22000 32.392
32.23000 27.609
32.24000 25.395
32.25000 24.385
32.26000 26.190
32.27000 23.250
32.28000 23.138
32.29000 25.448
32.30000 19.221
32.31000 25.321
32.32000 23.335
32.33000 27.339
32.34000 25.377
32.35000 26.295
32.36000 26.544
32.37000 21.122
32.38000 22.416
32.39000 24.161
32.40000 30.327
32.41000 23.218
32.42000 21.118
32.43000 17.275
32.44000 13.291
32.45000 27.318
32.46000 25.366
32.47000 25.259
32.48000 22.379
32.49000 23.423
32.50000 20.053
32.51000 27.286
32.52000 21.051
32.53000 16.314
32.54000 25.214
32.55000 32.416
32.56000 20.334
32.57000 18.283
32.58000 27.405
32.59000 21.402
32.60000 17.185
32.61000 14.072
32.62000 27.380
32.63000 27.215
32.64000 26.296
32.65000 28.221
32.66000 26.319
32.67000 18.078
32.68000 23.344
32.69000 23.382
32.70000 17.217
32.71000 27.179
32.72000 22.255
32.73000 12.198
32.74000 13.372
32.75000 29.400
32.76000 11.121
32.77000 26.314
32.78000 22.416
32.79000 16.194
32.80000 19.993
32.81000 15.320
32.82000 6.135
32.83000 28.195
32.84000 17.139
32.85000 23.179
32.86000 14.326
32.87000 11.036
32.88000 25.430
32.89000 11.210
32.90000 17.400
32.91000 8.046
32.92000 17.256
32.93000 18.402
32.94000 20.432
32.95000 18.167
32.96000 15.240
32.97000 14.003
32.98000 19.396
32.99000 21.391
33.00000 12.065
33.01000 16.293
33.02000 19.316
33.03000 15.216
33.04000 16.134
33.05000 18.235
33.06000 17.164
33.07000 19.240
33.08000 13.143
33.09000 15.179
33.10000 14.189
33.11000 18.268
33.12000 17.405
33.13000 21.295
33.14000 23.348
33.15000 18.216
33.16000 17.346
33.17000 24.156
33.18000 13.039
33.19000 12.196
33.20000 17.275
33.21000 14.306
33.22000 18.364
33.23000 17.305
33.24000 10.980
33.25000 20.087
33.26000 17.196
33.27000 12.214
33.28000 20.202
33.29000 17.123
33.30000 20.294
33.31000 14.296
33.32000 16.266
33.33000 20.058
33.34000 11.306
33.35000 10.139
33.36000 15.096
33.37000 7.999
33.38000 16.223
33.39000 16.215
33.40000 11.160
33.41000 11.157
33.42000 16.161
33.43000 9.219
33.44000 14.202
33.45000 11.039
33.46000 14.068
33.47000 16.255
33.48000 16.192
33.49000 14.221
33.50000 21.326
33.51000 19.290
33.52000 26.486
33.53000 15.096
33.54000 20.408
33.55000 18.329
33.56000 19.128
33.57000 15.198
33.58000 7.101
33.59000 18.180
33.60000 13.033
33.61000 15.190
33.62000 15.227
33.63000 15.011
33.64000 16.179
33.65000 19.198
33.66000 11.098
33.67000 16.272
33.68000 12.068
33.69000 22.277
33.70000 10.033
33.71000 8.017
33.72000 16.154
33.73000 7.110
33.74000 8.068
33.75000 12.117
33.76000 16.298
33.77000 7.127
33.78000 14.171
33.79000 13.164
33.80000 10.090
33.81000 15.039
33.82000 17.216
33.83000 10.137
33.84000 16.236
33.85000 18.176
33.86000 12.173
33.87000 18.361
33.88000 13.132
33.89000 17.187
33.90000 13.101
33.91000 17.206
33.92000 9.078
33.93000 9.177
33.94000 15.125
33.95000 12.984
33.96000 18.259
33.97000 12.081
33.98000 14.306
33.99000 17.149
34.00000 11.182
34.01000 15.211
34.02000 20.062
34.03000 23.128
34.04000 17.370
34.05000 15.100
34.06000 11.169
34.07000 14.065
34.08000 18.017
34.09000 14.030
34.10000 20.204
34.11000 12.063
34.12000 12.192
34.13000 13.020
34.14000 21.396
34.15000 14.218
34.16000 17.384
34.17000 7.101
34.18000 10.103
34.19000 10.251
34.20000 14.182
34.21000 17.212
34.22000 10.123
34.23000 16.267
34.24000 10.037
34.25000 9.029
34.26000 12.219
34.27000 15.272
34.28000 12.215
34.29000 11.140
34.30000 16.198
34.31000 9.174
34.32000 13.163
34.33000 10.083
34.34000 12.088
34.35000 20.325
34.36000 13.120
34.37000 18.124
34.38000 20.413
34.39000 12.145
34.40000 20.178
34.41000 14.424
34.42000 15.055
34.43000 11.132
34.44000 13.321
34.45000 12.350
34.46000 18.272
34.47000 11.891
34.48000 10.105
34.49000 15.287
34.50000 15.389
34.51000 12.183
34.52000 7.223
34.53000 16.226
34.54000 15.350
34.55000 14.003
34.56000 14.332
34.57000 12.233
34.58000 8.168
34.59000 14.211
34.60000 13.320
34.61000 16.065
34.62000 18.175
34.63000 12.191
34.64000 13.248
34.65000 15.427
34.66000 11.284
34.67000 17.301
34.68000 6.034
34.69000 17.290
34.70000 15.372
34.71000 12.103
34.72000 12.198
34.73000 16.361
34.74000 7.006
34.75000 15.313
34.76000 12.210
34.77000 14.157
34.78000 17.086
34.79000 10.129
34.80000 10.196
34.81000 8.059
34.82000 18.179
34.83000 11.195
34.84000 13.299
34.85000 21.423
34.86000 12.107
34.87000 23.397
34.88000 20.198
34.89000 9.127
34.90000 14.291
34.91000 11.125
34.92000 12.095
34.93000 13.137
34.94000 14.248
34.95000 14.174
34.96000 3.042
34.97000 14.239
34.98000 16.216
34.99000 16.189
35.00000 7.046
35.01000 9.042
35.02000 7.011
35.03000 17.200
35.04000 20.288
35.05000 13.149
35.06000 13.415
35.07000 18.319
35.08000 15.095
35.09000 15.183
35.10000 12.189
35.11000 15.107
35.12000 21.171
35.13000 16.177
35.14000 13.125
35.15000 13.275
35.16000 9.123
35.17000 10.050
35.18000 15.190
35.19000 17.108
35.20000 13.021
35.21000 13.257
35.22000 18.373
35.23000 7.115
35.24000 13.101
35.25000 10.188
35.26000 11.133
35.27000 19.209
35.28000 16.259
35.29000 12.214
35.30000 20.180
35.31000 16.033
35.32000 11.150
35.33000 12.019
35.34000 11.168
35.35000 10.024
35.36000 13.247
35.37000 8.146
35.38000 16.041
35.39000 13.085
35.40000 28.469
35.41000 16.365
35.42000 18.167
35.43000 12.148
35.44000 13.127
35.45000 6.071
35.46000 11.197
35.47000 10.058
35.48000 12.133
35.49000 13.271
35.50000 16.136
35.51000 10.047
35.52000 14.326
35.53000 12.156
35.54000 11.057
35.55000 14.154
35.56000 19.400
35.57000 14.331
35.58000 8.257
35.59000 13.191
35.60000 12.182
35.61000 13.322
35.62000 10.170
35.63000 12.085
35.64000 12.106
35.65000 10.064
35.66000 11.297
35.67000 12.198
35.68000 18.276
35.69000 17.258
35.70000 11.165
35.71000 16.091
35.72000 10.226
35.73000 13.044
35.74000 21.358
35.75000 8.968
35.76000 11.070
35.77000 19.262
35.78000 15.107
35.79000 14.122
35.80000 12.164
35.81000 16.094
35.82000 12.171
35.83000 17.275
35.84000 13.091
35.85000 17.364
35.86000 9.995
35.87000 14.136
35.88000 9.090
35.89000 11.158
35.90000 17.280
35.91000 14.222
35.92000 11.162
35.93000 14.205
35.94000 20.273
35.95000 18.219
35.96000 15.132
35.97000 8.061
35.98000 9.208
35.99000 18.228
36.00000 14.311
36.01000 8.104
36.02000 13.054
36.03000 12.228
36.04000 15.250
36.05000 16.149
36.06000 18.295
36.07000 14.135
36.08000 16.078
36.09000 14.111
36.10000 8.045
36.11000 12.220
36.12000 16.129
36.13000 12.156
36.14000 16.347
36.15000 9.195
36.16000 10.242
36.17000 11.090
36.18000 11.057
36.19000 6.277
36.20000 17.224
36.21000 18.278
36.22000 17.128
36.23000 13.306
36.24000 11.190
36.25000 11.053
36.26000 15.105
36.27000 11.150
36.28000 17.317
36.29000 14.172
36.30000 15.047
36.31000 11.096
36.32000 22.404
36.33000 9.071
36.34000 12.165
36.35000 13.208
36.36000 14.289
36.37000 17.331
36.38000 17.240
36.39000 12.080
36.40000 25.189
36.41000 16.270
36.42000 9.113
36.43000 23.303
36.44000 15.343
36.45000 8.058
36.46000 10.126
36.47000 19.191
36.48000 12.159
36.49000 17.377
36.50000 17.129
36.51000 16.474
36.52000 10.130
36.53000 6.195
36.54000 11.132
36.55000 13.214
36.56000 11.146
36.57000 15.227
36.58000 14.328
36.59000 13.080
36.60000 16.199
36.61000 12.236
36.62000 19.462
36.63000 16.106
36.64000 10.164
36.65000 10.083
36.66000 14.215
36.67000 9.171
36.68000 12.189
36.69000 9.018
36.70000 26.252
36.71000 11.176
36.72000 10.209
36.73000 19.192
36.74000 10.229
36.75000 11.058
36.76000 18.241
36.77000 17.198
36.78000 15.083
36.79000 9.194
36.80000 16.265
36.81000 10.311
36.82000 15.117
36.83000 10.140
36.84000 18.156
36.85000 18.103
36.86000 18.358
36.87000 12.187
36.88000 15.136
36.89000 20.337
36.90000 15.224
36.91000 18.081
36.92000 16.129
36.93000 20.153
36.94000 11.129
36.95000 11.068
36.96000 16.270
36.97000 17.180
36.98000 19.240
36.99000 4.053
37.00000 12.242
37.01000 22.278
37.02000 13.148
37.03000 13.132
37.04000 15.233
37.05000 12.097
37.06000 14.120
37.07000 15.235
37.08000 12.112
37.09000 12.157
37.10000 18.118
37.11000 13.965
37.12000 10.981
37.13000 10.404
37.14000 13.248
37.15000 13.040
37.16000 18.208
37.17000 16.324
37.18000 9.126
37.19000 18.176
37.20000 17.185
37.21000 10.174
37.22000 12.210
37.23000 15.268
37.24000 12.213
37.25000 13.166
37.26000 15.241
37.27000 20.356
37.28000 14.295
37.29000 11.240
37.30000 19.436
37.31000 11.232
37.32000 14.307
37.33000 15.456
37.34000 14.185
37.35000 16.231
37.36000 17.083
37.37000 20.433
37.38000 12.204
37.39000 17.167
37.40000 16.152
37.41000 17.405
37.42000 15.279
37.43000 15.080
37.44000 11.088
37.45000 17.399
37.46000 11.250
37.47000 15.243
37.48000 10.080
37.49000 10.212
37.50000 9.165
37.51000 18.298
37.52000 12.279
37.53000 11.978
37.54000 13.183
37.55000 14.207
37.56000 15.260
37.57000 12.242
37.58000 16.147
37.59000 21.285
37.60000 12.179
37.61000 18.172
37.62000 14.285
37.63000 20.171
37.64000 13.190
37.65000 7.069
37.66000 19.207
37.67000 18.172
37.68000 10.108
37.69000 16.268
37.70000 14.146
37.71000 14.197
37.72000 12.145
37.73000 13.135
37.74000 11.142
37.75000 14.237
37.76000 20.182
37.77000 13.167
37.78000 10.255
37.79000 20.248
37.80000 12.143
37.81000 5.066
37.82000 14.312
37.83000 10.331
37.84000 14.045
37.85000 24.245
37.86000 23.272
37.87000 16.290
37.88000 13.089
37.89000 13.113
37.90000 20.287
37.91000 11.083
37.92000 14.248
37.93000 8.969
37.94000 12.177
37.95000 10.105
37.96000 15.163
37.97000 13.089
37.98000 17.255
37.99000 13.091
38.00000 13.201
38.01000 14.177
38.02000 15.067
38.03000 20.304
38.04000 16.226
38.05000 17.169
38.06000 12.186
38.07000 16.220
38.08000 11.197
38.09000 16.191
38.10000 12.288
38.11000 12.968
38.12000 15.161
38.13000 15.029
38.14000 10.100
38.15000 16.149
38.16000 17.070
38.17000 12.071
38.18000 9.030
38.19000 17.209
38.20000 15.223
38.21000 13.103
38.22000 12.257
38.23000 15.149
38.24000 13.140
38.25000 19.189
38.26000 15.194
38.27000 9.050
38.28000 16.146
38.29000 18.294
38.30000 14.178
38.31000 16.328
38.32000 13.279
38.33000 11.131
38.34000 14.242
38.35000 13.244
38.36000 19.146
38.37000 11.063
38.38000 15.158
38.39000 14.058
38.40000 18.294
38.41000 15.103
38.42000 17.167
38.43000 16.240
38.44000 15.335
38.45000 8.240
38.46000 18.263
38.47000 9.167
38.48000 15.345
38.49000 16.129
38.50000 21.186
38.51000 12.083
38.52000 9.095
38.53000 15.109
38.54000 10.037
38.55000 23.414
38.56000 17.244
38.57000 17.424
38.58000 12.069
38.59000 16.168
38.60000 22.237
38.61000 19.273
38.62000 11.154
38.63000 11.099
38.64000 11.165
38.65000 20.341
38.66000 11.266
38.67000 15.070
38.68000 16.162
38.69000 22.207
38.70000 14.172
38.71000 12.147
38.72000 9.084
38.73000 12.089
38.74000 10.048
38.75000 12.108
38.76000 18.283
38.77000 18.183
38.78000 6.088
38.79000 14.225
38.80000 12.113
38.81000 11.196
38.82000 13.228
38.83000 18.148
38.84000 16.073
38.85000 10.166
38.86000 13.293
38.87000 19.207
38.88000 7.121
38.89000 9.052
38.90000 12.201
38.91000 18.388
38.92000 13.174
38.93000 17.264
38.94000 16.210
38.95000 15.159
38.96000 19.242
38.97000 15.173
38.98000 14.277
38.99000 14.272
39.00000 11.150
39.01000 15.127
39.02000 15.424
39.03000 13.880
39.04000 21.143
39.05000 15.174
39.06000 18.275
39.07000 15.261
39.08000 10.050
39.09000 11.177
39.10000 11.095
39.11000 22.545
39.12000 22.084
39.13000 14.077
39.14000 13.114
39.15000 18.178
39.16000 15.198
39.17000 8.159
39.18000 25.221
39.19000 14.062
39.20000 19.316
39.21000 18.239
39.22000 9.180
39.23000 8.137
39.24000 12.319
39.25000 13.171
39.26000 13.196
39.27000 19.340
39.28000 19.167
39.29000 16.217
39.30000 24.234
39.31000 16.177
39.32000 11.039
39.33000 14.129
39.34000 11.255
39.35000 12.256
39.36000 10.152
39.37000 12.028
39.38000 16.396
39.39000 17.266
39.40000 15.022
39.41000 20.144
39.42000 11.158
39.43000 10.179
39.44000 16.156
39.45000 11.300
39.46000 16.172
39.47000 11.114
39.48000 25.478
39.49000 15.185
39.50000 16.272
39.51000 19.314
39.52000 12.110
39.53000 19.116
39.54000 16.213
39.55000 14.297
39.56000 13.155
39.57000 15.145
39.58000 22.194
39.59000 14.158
39.60000 15.264
39.61000 14.185
39.62000 8.981
39.63000 16.371
39.64000 19.300
39.65000 21.335
39.66000 11.188
39.67000 18.169
39.68000 18.080
39.69000 26.311
39.70000 16.031
39.71000 12.047
39.72000 18.492
39.73000 10.121
39.74000 16.237
39.75000 18.132
39.76000 22.362
39.77000 14.200
39.78000 13.151
39.79000 17.513
39.80000 14.178
39.81000 15.231
39.82000 20.173
39.83000 14.079
39.84000 18.251
39.85000 15.139
39.86000 23.247
39.87000 21.190
39.88000 16.131
39.89000 23.428
39.90000 8.036
39.91000 20.429
39.92000 17.180
39.93000 18.315
39.94000 17.129
39.95000 7.166
39.96000 17.228
39.97000 19.209
39.98000 10.194
39.99000 14.240
40.00000 21.195
40.01000 16.122
40.02000 15.225
40.03000 16.146
40.04000 14.029
40.05000 12.212
40.06000 12.168
40.07000 14.232
40.08000 17.224
40.09000 13.212
40.10000 12.184
40.11000 25.138
40.12000 16.432
40.13000 18.286
40.14000 16.255
40.15000 16.384
40.16000 13.151
40.17000 15.970
40.18000 15.170
40.19000 19.169
40.20000 18.267
40.21000 11.170
40.22000 14.169
40.23000 19.256
40.24000 7.158
40.25000 10.201
40.26000 14.213
40.27000 14.047
40.28000 17.088
40.29000 13.136
40.30000 19.251
40.31000 19.286
40.32000 10.198
40.33000 16.244
40.34000 15.186
40.35000 19.982
40.36000 17.192
40.37000 20.172
40.38000 7.003
40.39000 18.168
40.40000 17.098
40.41000 12.126
40.42000 14.060
40.43000 20.412
40.44000 15.158
40.45000 10.134
40.46000 17.210
40.47000 16.314
40.48000 9.075
40.49000 15.053
40.50000 11.075
40.51000 14.086
40.52000 20.228
40.53000 9.240
40.54000 9.123
40.55000 15.393
40.56000 13.295
40.57000 5.131
40.58000 22.270
40.59000 13.226
40.60000 15.135
40.61000 13.188
40.62000 16.319
40.63000 15.022
40.64000 17.181
40.65000 21.433
40.66000 9.036
40.67000 14.157
40.68000 14.050
40.69000 12.150
40.70000 17.249
40.71000 12.105
40.72000 8.148
40.73000 10.015
40.74000 18.259
40.75000 12.023
40.76000 16.189
40.77000 10.144
40.78000 23.028
40.79000 10.038
40.80000 11.103
40.81000 15.093
40.82000 14.119
40.83000 17.136
40.84000 15.268
40.85000 12.218
40.86000 11.123
40.87000 14.157
40.88000 14.313
40.89000 19.225
40.90000 20.255
40.91000 9.094
40.92000 19.359
40.93000 14.217
40.94000 9.212
40.95000 11.114
40.96000 15.263
40.97000 17.343
40.98000 17.216
40.99000 15.175
41.00000 21.099
41.01000 18.347
41.02000 11.143
41.03000 16.318
41.04000 12.153
41.05000 20.086
41.06000 18.186
41.07000 10.322
41.08000 9.192
41.09000 17.292
41.10000 14.140
41.11000 12.291
41.12000 10.211
41.13000 17.281
41.14000 16.286
41.15000 14.265
41.16000 15.160
41.17000 17.276
41.18000 10.081
41.19000 17.218
41.20000 13.127
41.21000 16.228
41.22000 19.312
41.23000 11.252
41.24000 19.113
41.25000 15.085
41.26000 6.065
41.27000 11.065
41.28000 11.114
41.29000 18.327
41.30000 18.357
41.31000 13.116
41.32000 11.064
41.33000 10.230
41.34000 12.078
41.35000 13.164
41.36000 16.178
41.37000 10.200
41.38000 11.146
41.39000 12.144
41.40000 14.141
41.41000 16.216
41.42000 11.248
41.43000 21.432
41.44000 13.123
41.45000 7.120
41.46000 16.168
41.47000 16.111
41.48000 21.328
41.49000 17.144
41.50000 25.369
41.51000 17.269
41.52000 14.085
41.53000 19.307
41.54000 23.268
41.55000 19.145
41.56000 15.386
41.57000 14.306
41.58000 14.136
41.59000 16.084
41.60000 9.067
41.61000 12.127
41.62000 11.377
41.63000 10.057
41.64000 13.070
41.65000 14.225
41.66000 15.229
41.67000 11.248
41.68000 15.181
41.69000 14.236
41.70000 19.553
41.71000 15.099
41.72000 9.129
41.73000 12.068
41.74000 15.102
41.75000 12.025
41.76000 11.121
41.77000 5.083
41.78000 12.084
41.79000 17.356
41.80000 10.084
41.81000 12.310
41.82000 18.265
41.83000 20.305
41.84000 13.154
41.85000 14.303
41.86000 18.266
41.87000 11.129
41.88000 22.240
41.89000 14.244
41.90000 16.230
41.91000 17.180
41.92000 10.155
41.93000 19.384
41.94000 14.316
41.95000 12.191
41.96000 20.193
41.97000 16.051
41.98000 15.226
41.99000 17.265
42.00000 10.246
42.01000 10.046
42.02000 18.211
42.03000 12.202
42.04000 14.148
42.05000 22.248
42.06000 17.105
42.07000 14.288
42.08000 15.412
42.09000 20.269
42.10000 13.996
42.11000 13.175
42.12000 12.207
42.13000 12.100
42.14000 18.133
42.15000 10.923
42.16000 14.345
42.17000 18.205
42.18000 13.108
42.19000 14.225
42.20000 12.176
42.21000 22.353
42.22000 15.056
42.23000 20.161
42.24000 15.159
42.25000 14.151
42.26000 12.029
42.27000 12.060
42.28000 17.302
42.29000 10.098
42.30000 16.111
42.31000 10.167
42.32000 14.050
42.33000 15.273
42.34000 19.146
42.35000 13.285
42.36000 10.264
42.37000 20.260
42.38000 9.107
42.39000 17.324
42.40000 15.177
42.41000 12.132
42.42000 16.260
42.43000 7.041
42.44000 19.315
42.45000 12.221
42.46000 12.314
42.47000 23.357
42.48000 4.029
42.49000 11.051
42.50000 13.163
42.51000 17.308
42.52000 22.268
42.53000 21.238
42.54000 12.159
42.55000 15.378
42.56000 15.282
42.57000 18.221
42.58000 18.313
42.59000 18.285
42.60000 16.101
42.61000 22.274
42.62000 12.122
42.63000 13.222
42.64000 14.217
42.65000 16.404
42.66000 14.183
42.67000 22.173
42.68000 14.098
42.69000 14.070
42.70000 20.228
42.71000 8.059
42.72000 14.160
42.73000 9.196
42.74000 17.072
42.75000 13.143
42.76000 11.099
42.77000 13.222
42.78000 16.289
42.79000 13.129
42.80000 18.369
42.81000 13.130
42.82000 22.300
42.83000 17.121
42.84000 15.153
42.85000 18.232
42.86000 12.116
42.87000 13.096
42.88000 14.201
42.89000 9.169
42.90000 15.325
42.91000 12.205
42.92000 13.188
42.93000 9.116
42.94000 12.156
42.95000 15.232
42.96000 13.268
42.97000 19.368
42.98000 20.110
42.99000 9.011
43.00000 7.231
43.01000 11.192
43.02000 6.100
43.03000 13.247
43.04000 13.072
43.05000 18.002
43.06000 15.238
43.07000 16.267
43.08000 11.178
43.09000 13.217
43.10000 14.217
43.11000 15.137
43.12000 16.419
43.13000 13.068
43.14000 13.120
43.15000 20.343
43.16000 15.064
43.17000 19.276
43.18000 14.223
43.19000 14.316
43.20000 13.017
43.21000 16.266
43.22000 17.112
43.23000 13.200
43.24000 20.381
43.25000 25.220
43.26000 16.304
43.27000 11.244
43.28000 17.216
43.29000 15.361
43.30000 19.243
43.31000 14.012
43.32000 15.347
43.33000 14.127
43.34000 11.066
43.35000 12.089
43.36000 18.311
43.37000 17.322
43.38000 14.277
43.39000 13.149
43.40000 20.195
43.41000 14.084
43.42000 13.119
43.43000 15.200
43.44000 16.256
43.45000 14.288
43.46000 13.149
43.47000 10.029
43.48000 20.301
43.49000 9.047
43.50000 14.168
43.51000 16.134
43.52000 9.048
43.53000 10.221
43.54000 15.146
43.55000 11.102
43.56000 14.305
43.57000 12.256
43.58000 20.393
43.59000 16.251
43.60000 14.147
43.61000 17.333
43.62000 9.182
43.63000 19.286
43.64000 14.246
43.65000 18.138
43.66000 14.255
43.67000 9.306
43.68000 14.285
43.69000 17.247
43.70000 19.239
43.71000 14.080
43.72000 15.329
43.73000 15.213
43.74000 15.303
43.75000 20.154
43.76000 21.367
43.77000 14.175
43.78000 16.064
43.79000 16.228
43.80000 16.424
43.81000 13.158
43.82000 8.092
43.83000 20.332
43.84000 15.117
43.85000 20.139
43.86000 19.392
43.87000 14.208
43.88000 17.223
43.89000 25.377
43.90000 14.228
43.91000 11.149
43.92000 20.350
43.93000 23.311
43.94000 13.055
43.95000 19.284
43.96000 14.343
43.97000 6.042
43.98000 19.338
43.99000 15.275
44.00000 19.249
44.01000 17.208
44.02000 17.279
44.03000 4.047
44.04000 13.931
44.05000 12.083
44.06000 12.130
44.07000 16.231
44.08000 19.305
44.09000 15.268
44.10000 13.124
44.11000 10.232
44.12000 16.126
44.13000 19.461
44.14000 15.294
44.15000 14.159
44.16000 20.111
44.17000 13.097
44.18000 13.115
44.19000 20.230
44.20000 14.045
44.21000 18.191
44.22000 18.080
44.23000 15.117
44.24000 16.239
44.25000 16.288
44.26000 13.071
44.27000 12.014
44.28000 15.166
44.29000 11.025
44.30000 9.201
44.31000 20.243
44.32000 17.329
44.33000 15.012
44.34000 11.251
44.35000 13.271
44.36000 14.131
44.37000 10.228
44.38000 16.250
44.39000 14.300
44.40000 12.145
44.41000 22.251
44.42000 24.324
44.43000 13.125
44.44000 16.259
44.45000 15.041
44.46000 15.084
44.47000 11.144
44.48000 19.205
44.49000 19.080
44.50000 24.385
44.51000 16.154
44.52000 11.020
44.53000 13.186
44.54000 5.032
44.55000 16.237
44.56000 12.408
44.57000 14.317
44.58000 13.293
44.59000 20.112
44.60000 19.241
44.61000 13.224
44.62000 14.202
44.63000 17.260
44.64000 17.342
44.65000 9.162
44.66000 12.216
44.67000 8.194
44.68000 16.128
44.69000 9.085
44.70000 15.211
44.71000 9.986
44.72000 13.113
44.73000 8.240
44.74000 17.203
44.75000 15.220
44.76000 12.260
44.77000 8.182
44.78000 7.087
44.79000 9.001
44.80000 15.251
44.81000 14.291
44.82000 15.156
44.83000 18.247
44.84000 21.396
44.85000 18.246
44.86000 20.303
44.87000 19.189
44.88000 12.092
44.89000 13.086
44.90000 12.071
44.91000 17.221
44.92000 12.201
44.93000 12.269
44.94000 10.271
44.95000 12.244
44.96000 10.102
44.97000 14.285
44.98000 13.166
44.99000 23.253
45.00000 20.243
45.01000 12.181
45.02000 13.095
45.03000 13.141
45.04000 19.247
45.05000 10.988
45.06000 21.199
45.07000 20.275
45.08000 14.351
45.09000 12.150
45.10000 13.073
45.11000 14.069
45.12000 8.096
45.13000 10.165
45.14000 14.225
45.15000 13.065
45.16000 11.188
45.17000 19.181
45.18000 20.181
45.19000 9.978
45.20000 11.156
45.21000 19.439
45.22000 18.140
45.23000 12.040
45.24000 14.320
45.25000 20.234
45.26000 15.140
45.27000 12.169
45.28000 7.073
45.29000 8.138
45.30000 14.049
45.31000 16.110
45.32000 10.063
45.33000 5.094
45.34000 12.227
45.35000 16.260
45.36000 13.110
45.37000 17.299
45.38000 15.224
45.39000 13.136
45.40000 16.271
45.41000 9.118
45.42000 10.153
45.43000 16.251
45.44000 10.125
45.45000 21.146
45.46000 14.305
45.47000 14.202
45.48000 16.176
45.49000 12.154
45.50000 14.271
45.51000 14.236
45.52000 16.346
45.53000 16.158
45.54000 13.251
45.55000 12.214
45.56000 17.420
45.57000 8.192
45.58000 14.176
45.59000 14.274
45.60000 10.128
45.61000 11.973
45.62000 21.310
45.63000 16.256
45.64000 20.446
45.65000 14.260
45.66000 15.161
45.67000 18.169
45.68000 13.220
45.69000 14.067
45.70000 17.239
45.71000 20.274
45.72000 11.123
45.73000 13.228
45.74000 9.116
45.75000 17.192
45.76000 12.161
45.77000 18.339
45.78000 15.131
45.79000 12.130
45.80000 9.186
45.81000 13.106
45.82000 13.093
45.83000 7.160
45.84000 8.212
45.85000 15.316
45.86000 13.077
45.87000 8.188
45.88000 22.222
45.89000 15.163
45.90000 9.162
45.91000 14.241
45.92000 18.177
45.93000 10.002
45.94000 13.301
45.95000 21.323
45.96000 25.379
45.97000 19.329
45.98000 16.279
45.99000 21.114
46.00000 8.179
46.01000 15.101
46.02000 10.119
46.03000 17.303
46.04000 14.215
46.05000 15.157
46.06000 15.333
46.07000 19.359
46.08000 27.330
46.09000 16.152
46.10000 12.165
46.11000 22.409
46.12000 16.338
46.13000 13.174
46.14000 17.276
46.15000 20.389
46.16000 13.135
46.17000 18.188
46.18000 19.088
46.19000 24.517
46.20000 12.459
46.21000 20.359
46.22000 16.074
46.23000 13.245
46.24000 16.230
46.25000 15.232
46.26000 26.169
46.27000 11.197
46.28000 25.342
46.29000 15.083
46.30000 13.117
46.31000 23.317
46.32000 17.276
46.33000 22.425
46.34000 19.307
46.35000 13.060
46.36000 20.287
46.37000 15.024
46.38000 12.354
46.39000 20.128
46.40000 23.351
46.41000 19.199
46.42000 17.144
46.43000 19.262
46.44000 17.253
46.45000 12.320
46.46000 20.443
46.47000 13.148
46.48000 10.150
46.49000 15.149
46.50000 9.156
46.51000 14.103
46.52000 20.383
46.53000 9.233
46.54000 16.379
46.55000 20.226
46.56000 19.435
46.57000 20.145
46.58000 16.321
46.59000 15.183
46.60000 16.250
46.61000 22.421
46.62000 14.292
46.63000 21.286
46.64000 13.277
46.65000 24.228
46.66000 15.164
46.67000 17.231
46.68000 19.281
46.69000 17.252
46.70000 15.178
46.71000 21.157
46.72000 13.227
46.73000 14.218
46.74000 14.277
46.75000 18.269
46.76000 21.235
46.77000 25.054
46.78000 13.049
46.79000 18.287
46.80000 11.239
46.81000 11.121
46.82000 11.995
46.83000 12.055
46.84000 8.172
46.85000 12.947
46.86000 17.196
46.87000 14.210
46.88000 11.313
46.89000 11.110
46.90000 18.071
46.91000 18.247
46.92000 17.150
46.93000 18.260
46.94000 22.319
46.95000 12.157
46.96000 16.125
46.97000 21.125
46.98000 18.288
46.99000 14.251
47.00000 15.193
47.01000 12.092
47.02000 14.119
47.03000 12.070
47.04000 17.162
47.05000 18.252
47.06000 16.207
47.07000 14.060
47.08000 17.203
47.09000 10.180
47.10000 13.064
47.11000 18.209
47.12000 10.143
47.13000 18.216
47.14000 11.210
47.15000 6.090
47.16000 12.059
47.17000 9.095
47.18000 21.374
47.19000 20.191
47.20000 17.328
47.21000 9.291
47.22000 18.071
47.23000 16.148
47.24000 13.202
47.25000 8.107
47.26000 14.286
47.27000 15.183
47.28000 10.141
47.29000 14.232
47.30000 14.195
47.31000 15.283
47.32000 8.045
47.33000 17.009
47.34000 19.198
47.35000 19.173
47.36000 9.189
47.37000 22.195
47.38000 11.295
47.39000 10.118
47.40000 22.263
47.41000 10.067
47.42000 16.321
47.43000 17.032
47.44000 10.206
47.45000 11.078
47.46000 10.196
47.47000 15.167
47.48000 15.158
47.49000 16.117
47.50000 9.142
47.51000 12.330
47.52000 7.997
47.53000 10.089
47.54000 14.180
47.55000 8.999
47.56000 15.204
47.57000 11.092
47.58000 16.210
47.59000 10.182
47.60000 13.269
47.61000 16.982
47.62000 13.147
47.63000 12.229
47.64000 12.332
47.65000 13.204
47.66000 13.102
47.67000 12.248
47.68000 14.040
47.69000 14.148
47.70000 15.150
47.71000 14.189
47.72000 7.049
47.73000 8.229
47.74000 8.145
47.75000 16.194
47.76000 15.415
47.77000 12.217
47.78000 13.211
47.79000 15.158
47.80000 17.139
47.81000 7.134
47.82000 17.236
47.83000 6.108
47.84000 13.106
47.85000 12.212
47.86000 7.988
47.87000 12.156
47.88000 17.164
47.89000 13.093
47.90000 12.046
47.91000 10.163
47.92000 21.428
47.93000 11.215
47.94000 17.269
47.95000 15.276
47.96000 12.061
47.97000 14.268
47.98000 13.231
47.99000 15.193
48.00000 16.225
48.01000 11.199
48.02000 10.295
48.03000 12.137
48.04000 25.370
48.05000 15.169
48.06000 12.199
48.07000 10.098
48.08000 17.360
48.09000 14.071
48.10000 13.166
48.11000 12.159
48.12000 12.138
48.13000 13.089
48.14000 15.165
48.15000 19.400
48.16000 10.198
48.17000 6.068
48.18000 14.162
48.19000 14.110
48.20000 18.995
48.21000 9.036
48.22000 18.332
48.23000 14.147
48.24000 12.232
48.25000 16.307
48.26000 13.378
48.27000 10.074
48.28000 18.074
48.29000 14.044
48.30000 17.040
48.31000 12.105
48.32000 20.516
48.33000 14.246
48.34000 16.170
48.35000 11.112
48.36000 20.270
48.37000 8.209
48.38000 11.213
48.39000 12.256
48.40000 14.298
48.41000 10.953
48.42000 17.154
48.43000 14.207
48.44000 8.057
48.45000 13.221
48.46000 7.064
48.47000 15.318
48.48000 13.235
48.49000 6.063
48.50000 21.316
48.51000 11.230
48.52000 12.989
48.53000 16.128
48.54000 13.223
48.55000 10.157
48.56000 17.257
48.57000 9.033
48.58000 18.212
48.59000 13.303
48.60000 12.202
48.61000 10.005
48.62000 15.227
48.63000 16.286
48.64000 21.204
48.65000 18.440
48.66000 12.119
48.67000 15.333
48.68000 17.270
48.69000 8.032
48.70000 17.091
48.71000 14.246
48.72000 18.392
48.73000 9.010
48.74000 13.210
48.75000 13.123
48.76000 15.364
48.77000 18.321
48.78000 13.190
48.79000 16.158
48.80000 10.171
48.81000 13.115
48.82000 11.295
48.83000 11.129
48.84000 15.372
48.85000 10.121
48.86000 15.153
48.87000 16.226
48.88000 11.122
48.89000 20.432
48.90000 8.969
48.91000 9.975
48.92000 12.124
48.93000 19.231
48.94000 17.206
48.95000 6.021
48.96000 16.124
48.97000 14.144
48.98000 13.198
48.99000 10.222
49.00000 17.187
49.01000 13.156
49.02000 13.238
49.03000 15.987
49.04000 10.255
49.05000 17.206
49.06000 12.186
49.07000 13.192
49.08000 9.121
49.09000 15.122
49.10000 11.135
49.11000 19.405
49.12000 13.219
49.13000 8.160
49.14000 17.203
49.15000 14.099
49.16000 14.290
49.17000 9.182
49.18000 17.143
49.19000 11.092
49.20000 15.044
49.21000 16.219
49.22000 15.072
49.23000 14.214
49.24000 13.275
49.25000 10.190
49.26000 11.995
49.27000 13.157
49.28000 16.149
49.29000 10.161
49.30000 17.438
49.31000 16.277
49.32000 11.406
49.33000 9.183
49.34000 16.183
49.35000 11.060
49.36000 12.198
49.37000 12.021
49.38000 11.321
49.39000 12.075
49.40000 15.141
49.41000 14.363
49.42000 19.109
49.43000 15.279
49.44000 13.182
49.45000 18.054
49.46000 11.093
49.47000 11.165
49.48000 17.376
49.49000 18.130
49.50000 9.046
49.51000 12.179
49.52000 14.061
49.53000 14.103
49.54000 8.979
49.55000 9.230
49.56000 12.224
49.57000 16.195
49.58000 9.998
49.59000 16.183
49.60000 12.040
49.61000 5.064
49.62000 13.378
49.63000 6.097
49.64000 9.132
49.65000 15.242
49.66000 14.219
49.67000 8.161
49.68000 20.259
49.69000 6.964
49.70000 18.382
49.71000 14.362
49.72000 5.042
49.73000 13.236
49.74000 13.039
49.75000 18.172
49.76000 14.221
49.77000 14.095
49.78000 15.318
49.79000 21.168
49.80000 9.186
49.81000 14.149
49.82000 10.150
49.83000 18.133
49.84000 24.384
49.85000 11.187
49.86000 10.103
49.87000 14.163
49.88000 13.210
49.89000 8.155
49.90000 16.268
49.91000 9.126
49.92000 11.055
49.93000 19.296
49.94000 14.152
49.95000 16.330
49.96000 12.184
49.97000 16.227
49.98000 15.147
49.99000 11.157
50.00000 18.228
50.01000 11.174
50.02000 13.210
50.03000 16.141
50.04000 19.160
50.05000 13.113
50.06000 16.031
50.07000 14.241
50.08000 12.216
50.09000 10.033
50.10000 16.393
50.11000 14.171
50.12000 17.086
50.13000 11.162
50.14000 13.102
50.15000 18.347
50.16000 8.044
50.17000 13.161
50.18000 4.995
50.19000 12.204
50.20000 12.297
50.21000 11.114
50.22000 10.182
50.23000 18.195
50.24000 10.078
50.25000 15.202
50.26000 11.257
50.27000 16.187
50.28000 12.182
50.29000 8.182
50.30000 11.207
50.31000 11.260
50.32000 13.343
50.33000 18.091
50.34000 9.087
50.35000 7.038
50.36000 15.070
50.37000 10.184
50.38000 16.222
50.39000 17.137
50.40000 12.328
50.41000 10.084
50.42000 15.112
50.43000 12.246
50.44000 11.110
50.45000 5.095
50.46000 7.109
50.47000 14.126
50.48000 10.117
50.49000 11.067
50.50000 13.016
50.51000 16.193
50.52000 12.185
50.53000 16.120
50.54000 10.251
50.55000 13.261
50.56000 12.127
50.57000 11.197
50.58000 13.321
50.59000 8.013
50.60000 10.138
50.61000 15.359
50.62000 11.146
50.63000 17.210
50.64000 9.191
50.65000 11.254
50.66000 12.205
50.67000 23.537
50.68000 10.116
50.69000 14.158
50.70000 16.225
50.71000 10.084
50.72000 12.343
50.73000 12.173
50.74000 11.159
50.75000 13.256
50.76000 12.081
50.77000 15.197
50.78000 9.956
50.79000 15.167
50.80000 17.149
50.81000 14.065
50.82000 8.187
50.83000 16.435
50.84000 13.338
50.85000 10.152
50.86000 8.074
50.87000 13.204
50.88000 13.128
50.89000 12.211
50.90000 15.112
50.91000 14.265
50.92000 12.150
50.93000 12.068
50.94000 14.035
50.95000 8.105
50.96000 18.313
50.97000 13.090
50.98000 15.262
50.99000 19.259
51.00000 10.094
51.01000 25.337
51.02000 14.188
51.03000 10.057
51.04000 10.225
51.05000 11.039
51.06000 12.178
51.07000 10.105
51.08000 9.036
51.09000 6.039
51.10000 11.264
51.11000 12.170
51.12000 11.100
51.13000 11.097
51.14000 11.160
51.15000 6.093
51.16000 8.091
51.17000 18.357
51.18000 13.247
51.19000 16.120
51.20000 13.216
51.21000 13.418
51.22000 11.262
51.23000 9.289
51.24000 14.135
51.25000 23.245
51.26000 9.088
51.27000 16.293
51.28000 12.003
51.29000 14.298
51.30000 12.311
51.31000 11.141
51.32000 9.034
51.33000 2.019
51.34000 9.155
51.35000 17.128
51.36000 11.199
51.37000 19.382
51.38000 9.117
51.39000 15.139
51.40000 10.197
51.41000 9.078
51.42000 6.031
51.43000 9.118
51.44000 14.225
51.45000 18.037
51.46000 15.298
51.47000 11.101
51.48000 14.171
51.49000 15.146
51.50000 9.068
51.51000 14.320
51.52000 8.169
51.53000 14.201
51.54000 13.237
51.55000 14.263
51.56000 8.038
51.57000 12.080
51.58000 14.146
51.59000 8.198
51.60000 17.968
51.61000 9.236
51.62000 14.130
51.63000 16.128
51.64000 11.081
51.65000 15.068
51.66000 18.236
51.67000 10.116
51.68000 16.289
51.69000 15.275
51.70000 10.118
51.71000 13.239
51.72000 18.222
51.73000 11.070
51.74000 18.059
51.75000 11.142
51.76000 13.032
51.77000 10.153
51.78000 22.288
51.79000 16.337
51.80000 14.279
51.81000 19.200
51.82000 10.123
51.83000 15.259
51.84000 15.142
51.85000 15.130
51.86000 11.158
51.87000 18.225
51.88000 15.239
51.89000 10.095
51.90000 9.079
51.91000 10.206
51.92000 8.023
51.93000 14.091
51.94000 13.176
51.95000 7.080
51.96000 6.157
51.97000 15.082
51.98000 12.049
51.99000 14.995
52.00000 13.074
52.01000 10.106
52.02000 5.092
52.03000 6.098
52.04000 16.120
52.05000 10.020
52.06000 16.298
52.07000 12.329
52.08000 9.981
52.09000 13.238
52.10000 15.163
52.11000 10.264
52.12000 7.104
52.13000 12.126
52.14000 11.072
52.15000 8.207
52.16000 11.066
52.17000 8.143
52.18000 15.255
52.19000 20.266
52.20000 14.207
52.21000 8.193
52.22000 8.019
52.23000 10.129
52.24000 14.219
52.25000 20.191
52.26000 11.210
52.27000 13.038
52.28000 13.130
52.29000 10.008
52.30000 8.190
52.31000 13.197
52.32000 18.237
52.33000 6.254
52.34000 18.274
52.35000 15.237
52.36000 12.202
52.37000 12.039
52.38000 11.181
52.39000 19.374
52.40000 13.139
52.41000 10.171
52.42000 16.165
52.43000 14.203
52.44000 11.272
52.45000 15.239
52.46000 13.047
52.47000 12.182
52.48000 14.180
52.49000 17.090
52.50000 10.075
52.51000 9.104
52.52000 7.045
52.53000 9.154
52.54000 10.170
52.55000 8.027
52.56000 16.216
52.57000 19.296
52.58000 9.255
52.59000 16.186
52.60000 13.228
52.61000 10.153
52.62000 16.307
52.63000 10.085
52.64000 11.239
52.65000 10.233
52.66000 12.013
52.67000 11.146
52.68000 10.057
52.69000 10.003
52.70000 11.130
52.71000 13.195
52.72000 15.291
52.73000 10.019
52.74000 14.237
52.75000 8.006
52.76000 10.098
52.77000 12.211
52.78000 11.234
52.79000 9.180
52.80000 7.066
52.81000 9.132
52.82000 17.490
52.83000 14.126
52.84000 11.186
52.85000 10.033
52.86000 7.147
52.87000 6.030
52.88000 8.063
52.89000 14.113
52.90000 11.090
52.91000 10.151
52.92000 6.159
52.93000 18.242
52.94000 12.366
52.95000 13.150
52.96000 11.020
52.97000 9.004
52.98000 19.303
52.99000 16.184
53.00000 10.143
53.01000 15.128
53.02000 14.185
53.03000 6.151
53.04000 13.195
53.05000 17.252
53.06000 11.233
53.07000 11.070
53.08000 17.274
53.09000 11.148
53.10000 10.096
53.11000 9.039
53.12000 12.209
53.13000 18.226
53.14000 12.248
53.15000 13.018
53.16000 8.045
53.17000 9.138
53.18000 10.147
53.19000 5.133
53.20000 12.256
53.21000 13.070
53.22000 16.190
53.23000 8.121
53.24000 11.007
53.25000 13.066
53.26000 14.266
53.27000 19.250
53.28000 12.128
53.29000 14.108
53.30000 13.020
53.31000 10.188
53.32000 9.127
53.33000 10.126
53.34000 18.305
53.35000 10.229
53.36000 14.237
53.37000 20.178
53.38000 12.325
53.39000 7.102
53.40000 14.187
53.41000 18.465
53.42000 13.238
53.43000 12.007
53.44000 6.093
53.45000 11.160
53.46000 15.134
53.47000 17.235
53.48000 9.151
53.49000 7.058
53.50000 10.053
53.51000 18.135
53.52000 18.401
53.53000 14.060
53.54000 5.121
53.55000 18.337
53.56000 8.072
53.57000 13.231
53.58000 13.091
53.59000 12.067
53.60000 17.254
53.61000 11.085
53.62000 9.211
53.63000 4.188
53.64000 9.964
53.65000 13.171
53.66000 9.157
53.67000 14.207
53.68000 9.948
53.69000 7.967
53.70000 6.081
53.71000 12.154
53.72000 14.182
53.73000 14.105
53.74000 15.246
53.75000 13.190
53.76000 12.192
53.77000 10.206
53.78000 11.090
53.79000 10.010
53.80000 13.151
53.81000 2.042
53.82000 7.122
53.83000 17.385
53.84000 14.323
53.85000 13.202
53.86000 8.074
53.87000 10.077
53.88000 13.139
53.89000 10.078
53.90000 2.977
53.91000 19.272
53.92000 17.339
53.93000 13.083
53.94000 6.015
53.95000 16.149
53.96000 9.163
53.97000 17.162
53.98000 12.038
53.99000 10.113
54.00000 9.025
54.01000 9.096
54.02000 17.446
54.03000 15.028
54.04000 11.110
54.05000 12.220
54.06000 9.122
54.07000 11.264
54.08000 5.950
54.09000 13.208
54.10000 7.202
54.11000 14.307
54.12000 9.209
54.13000 10.152
54.14000 12.066
54.15000 16.310
54.16000 7.022
54.17000 16.157
54.18000 10.139
54.19000 7.066
54.20000 8.219
54.21000 10.119
54.22000 14.211
54.23000 19.150
54.24000 7.098
54.25000 7.080
54.26000 13.190
54.27000 9.129
54.28000 6.069
54.29000 14.151
54.30000 12.172
54.31000 9.204
54.32000 13.002
54.33000 7.067
54.34000 8.056
54.35000 7.161
54.36000 17.268
54.37000 11.102
54.38000 8.201
54.39000 10.166
54.40000 16.234
54.41000 12.324
54.42000 7.231
54.43000 7.086
54.44000 11.043
54.45000 12.199
54.46000 9.082
54.47000 9.094
54.48000 9.195
54.49000 12.090
54.50000 11.262
54.51000 11.079
54.52000 11.110
54.53000 13.256
54.54000 9.005
54.55000 10.168
54.56000 12.147
54.57000 14.338
54.58000 7.066
54.59000 10.087
54.60000 14.369
54.61000 7.052
54.62000 14.192
54.63000 5.059
54.64000 13.181
54.65000 15.065
54.66000 9.120
54.67000 5.016
54.68000 6.077
54.69000 17.166
54.70000 10.128
54.71000 12.248
54.72000 17.031
54.73000 3.023
54.74000 16.103
54.75000 10.125
54.76000 12.286
54.77000 9.070
54.78000 10.078
54.79000 13.191
54.80000 13.135
54.81000 11.983
54.82000 8.147
54.83000 10.204
54.84000 15.121
54.85000 14.133
54.86000 10.126
54.87000 11.088
54.88000 14.264
54.89000 10.053
54.90000 16.108
54.91000 9.122
54.92000 11.173
54.93000 14.383
54.94000 8.153
54.95000 11.271
54.96000 7.014
54.97000 17.270
54.98000 7.104
54.99000 9.142
55.00000 7.088
55.01000 12.075
55.02000 11.157
55.03000 12.194
55.04000 9.089
55.05000 16.289
55.06000 10.909
55.07000 10.101
55.08000 12.143
55.09000 9.127
55.10000 7.138
55.11000 10.135
55.12000 8.978
55.13000 12.011
55.14000 7.117
55.15000 11.092
55.16000 10.224
55.17000 15.123
55.18000 9.092
55.19000 7.070
55.20000 7.149
55.21000 8.119
55.22000 15.122
55.23000 12.091
55.24000 16.141
55.25000 11.281
55.26000 17.209
55.27000 9.019
55.28000 6.080
55.29000 12.035
55.30000 14.185
55.31000 14.206
55.32000 6.052
55.33000 13.110
55.34000 5.074
55.35000 7.149
55.36000 11.236
55.37000 8.194
55.38000 11.094
55.39000 7.099
55.40000 9.019
55.41000 8.111
55.42000 14.177
55.43000 6.102
55.44000 12.105
55.45000 7.987
55.46000 3.043
55.47000 7.023
55.48000 10.139
55.49000 12.194
55.50000 10.083
55.51000 16.211
55.52000 13.147
55.53000 10.157
55.54000 14.121
55.55000 10.026
55.56000 8.201
55.57000 12.985
55.58000 5.176
55.59000 14.138
55.60000 14.115
55.61000 16.207
55.62000 8.085
55.63000 13.335
55.64000 10.187
55.65000 12.085
55.66000 14.156
55.67000 14.084
55.68000 10.180
55.69000 14.172
55.70000 14.222
55.71000 4.997
55.72000 10.193
55.73000 7.024
55.74000 10.132
55.75000 7.162
55.76000 13.233
55.77000 12.220
55.78000 18.152
55.79000 8.075
55.80000 8.097
55.81000 12.973
55.82000 5.055
55.83000 7.050
55.84000 9.086
55.85000 12.100
55.86000 15.198
55.87000 8.023
55.88000 8.074
55.89000 7.136
55.90000 9.020
55.91000 11.209
55.92000 13.218
55.93000 14.253
55.94000 12.173
55.95000 12.261
55.96000 10.213
55.97000 15.172
55.98000 12.199
55.99000 9.039
56.00000 11.003
56.01000 17.143
56.02000 10.162
56.03000 10.198
56.04000 7.045
56.05000 9.121
56.06000 9.081
56.07000 11.057
56.08000 8.148
56.09000 14.073
56.10000 5.134
56.11000 15.250
56.12000 9.083
56.13000 8.172
56.14000 9.123
56.15000 10.190
56.16000 12.105
56.17000 11.193
56.18000 8.095
56.19000 5.025
56.20000 7.115
56.21000 8.064
56.22000 6.114
56.23000 11.138
56.24000 8.084
56.25000 9.063
56.26000 7.989
56.27000 8.151
56.28000 13.284
56.29000 7.150
56.30000 17.153
56.31000 9.134
56.32000 9.119
56.33000 8.139
56.34000 11.193
56.35000 13.195
56.36000 9.000
56.37000 6.140
56.38000 8.114
56.39000 8.076
56.40000 9.032
56.41000 15.152
56.42000 11.148
56.43000 11.165
56.44000 4.990
56.45000 9.179
56.46000 12.286
56.47000 11.187
56.48000 10.044
56.49000 6.046
56.50000 12.276
56.51000 9.047
56.52000 7.126
56.53000 12.051
56.54000 11.061
56.55000 11.103
56.56000 6.988
56.57000 8.071
56.58000 11.067
56.59000 10.152
56.60000 11.108
56.61000 7.009
56.62000 5.035
56.63000 8.105
56.64000 7.064
56.65000 7.101
56.66000 15.208
56.67000 8.195
56.68000 13.155
56.69000 3.003
56.70000 4.045
56.71000 13.195
56.72000 6.059
56.73000 11.207
56.74000 8.056
56.75000 15.196
56.76000 16.397
56.77000 5.114
56.78000 12.194
56.79000 7.079
56.80000 9.267
56.81000 8.975
56.82000 10.065
56.83000 12.168
56.84000 12.182
56.85000 3.993
56.86000 10.213
56.87000 12.110
56.88000 12.052
56.89000 8.039
56.90000 11.173
56.91000 8.069
56.92000 9.104
56.93000 8.146
56.94000 10.093
56.95000 11.204
56.96000 12.147
56.97000 9.013
56.98000 11.082
56.99000 10.098
57.00000 8.045
57.01000 11.128
57.02000 16.118
57.03000 13.026
57.04000 12.251
57.05000 8.080
57.06000 9.031
57.07000 12.238
57.08000 11.210
57.09000 11.286
57.10000 10.141
57.11000 11.300
57.12000 6.088
57.13000 10.104
57.14000 8.039
57.15000 4.233
57.16000 12.255
57.17000 13.306
57.18000 14.238
57.19000 14.176
57.20000 10.232
57.21000 7.015
57.22000 14.188
57.23000 11.071
57.24000 15.073
57.25000 11.275
57.26000 13.179
57.27000 7.977
57.28000 4.055
57.29000 7.114
57.30000 15.289
57.31000 16.303
57.32000 6.076
57.33000 8.228
57.34000 12.116
57.35000 9.098
57.36000 16.307
57.37000 12.395
57.38000 15.384
57.39000 6.013
57.40000 10.157
57.41000 11.218
57.42000 13.073
57.43000 11.185
57.44000 14.135
57.45000 8.139
57.46000 14.268
57.47000 10.206
57.48000 16.164
57.49000 11.232
57.50000 15.291
57.51000 12.194
57.52000 12.163
57.53000 6.060
57.54000 12.283
57.55000 12.131
57.56000 16.019
57.57000 14.380
57.58000 10.177
57.59000 10.168
57.60000 9.016
57.61000 13.255
57.62000 10.195
57.63000 6.978
57.64000 14.343
57.65000 8.087
57.66000 6.043
57.67000 9.215
57.68000 12.199
57.69000 13.023
57.70000 19.301
57.71000 10.191
57.72000 12.342
57.73000 13.079
57.74000 10.165
57.75000 17.203
57.76000 8.103
57.77000 9.211
57.78000 10.243
57.79000 13.034
57.80000 12.112
57.81000 9.990
57.82000 8.196
57.83000 9.141
57.84000 10.117
57.85000 12.273
57.86000 13.144
57.87000 9.104
57.88000 8.124
57.89000 7.057
57.90000 15.177
57.91000 11.112
57.92000 12.194
57.93000 15.172
57.94000 12.121
57.95000 10.063
57.96000 6.177
57.97000 21.243
57.98000 13.273
57.99000 13.104
58.00000 9.131
58.01000 10.266
58.02000 12.310
58.03000 9.999
58.04000 9.168
58.05000 10.120
58.06000 10.208
58.07000 16.530
58.08000 10.060
58.09000 12.227
58.10000 11.065
58.11000 9.074
58.12000 13.251
58.13000 4.012
58.14000 5.085
58.15000 11.098
58.16000 11.074
58.17000 6.059
58.18000 9.034
58.19000 7.122
58.20000 9.183
58.21000 10.153
58.22000 9.113
58.23000 8.069
58.24000 15.231
58.25000 12.053
58.26000 11.007
58.27000 5.977
58.28000 13.326
58.29000 5.137
58.30000 8.985
58.31000 12.216
58.32000 10.025
58.33000 9.178
58.34000 7.187
58.35000 14.170
58.36000 4.054
58.37000 8.122
58.38000 9.082
58.39000 11.155
58.40000 9.027
58.41000 8.000
58.42000 7.067
58.43000 4.991
58.44000 10.228
58.45000 9.176
58.46000 12.306
58.47000 5.103
58.48000 9.103
58.49000 9.083
58.50000 2.039
58.51000 8.126
58.52000 8.008
58.53000 9.041
58.54000 11.208
58.55000 10.122
58.56000 14.233
58.57000 4.958
58.58000 9.112
58.59000 8.184
58.60000 15.123
58.61000 7.087
58.62000 7.015
58.63000 9.005
58.64000 10.215
58.65000 3.041
58.66000 16.384
58.67000 5.079
58.68000 8.038
58.69000 5.014
58.70000 17.135
58.71000 6.974
58.72000 13.176
58.73000 8.117
58.74000 11.097
58.75000 15.055
58.76000 6.009
58.77000 10.038
58.78000 10.168
58.79000 12.170
58.80000 9.104
58.81000 11.194
58.82000 11.237
58.83000 12.197
58.84000 8.045
58.85000 7.133
58.86000 5.080
58.87000 11.105
58.88000 6.048
58.89000 7.119
58.90000 2.999
58.91000 13.366
58.92000 8.033
58.93000 6.083
58.94000 14.250
58.95000 15.349
58.96000 5.119
58.97000 10.032
58.98000 8.152
58.99000 3.047
59.00000 9.095
59.01000 2.998
59.02000 8.179
59.03000 12.055
59.04000 7.142
59.05000 8.155
59.06000 9.030
59.07000 9.129
59.08000 11.160
59.09000 6.913
59.10000 8.026
59.11000 7.995
59.12000 9.111
59.13000 7.087
59.14000 11.278
59.15000 8.120
59.16000 8.247
59.17000 6.084
59.18000 8.191
59.19000 8.995
59.20000 7.138
59.21000 12.079
59.22000 14.276
59.23000 10.140
59.24000 7.105
59.25000 11.126
59.26000 13.030
59.27000 12.233
59.28000 5.064
59.29000 12.094
59.30000 6.052
59.31000 10.216
59.32000 4.136
59.33000 12.074
59.34000 11.163
59.35000 13.069
59.36000 9.062
59.37000 9.114
59.38000 14.109
59.39000 6.045
59.40000 8.036
59.41000 6.139
59.42000 9.146
59.43000 10.032
59.44000 12.187
59.45000 9.062
59.46000 10.205
59.47000 6.069
59.48000 12.161
59.49000 15.153
59.50000 7.057
59.51000 11.230
59.52000 10.155
59.53000 14.258
59.54000 6.251
59.55000 12.057
59.56000 11.296
59.57000 10.094
59.58000 8.189
59.59000 8.098
59.60000 12.171
59.61000 7.122
59.62000 8.110
59.63000 12.207
59.64000 12.003
59.65000 6.117
59.66000 11.144
59.67000 6.212
59.68000 7.096
59.69000 13.230
59.70000 13.147
59.71000 10.196
59.72000 10.094
59.73000 11.055
59.74000 9.080
59.75000 5.978
59.76000 11.173
59.77000 7.124
59.78000 15.148
59.79000 9.232
59.80000 7.086
59.81000 10.096
59.82000 6.081
59.83000 10.104
59.84000 14.268
59.85000 12.274
59.86000 12.038
59.87000 7.085
59.88000 8.173
59.89000 13.128
59.90000 9.181
59.91000 13.030
59.92000 9.101
59.93000 11.217
59.94000 7.067
59.95000 10.206
59.96000 7.193
59.97000 11.159
59.98000 9.135
59.99000 5.047
60.00000 8.164
60.01000 6.124
60.02000 13.151
60.03000 8.226
60.04000 7.040
60.05000 3.975
60.06000 10.284
60.07000 11.074
60.08000 11.186
60.09000 11.258
60.10000 8.336
60.11000 8.105
60.12000 11.209
60.13000 8.047
60.14000 5.068
60.15000 9.155
60.16000 6.093
60.17000 11.108
60.18000 8.093
60.19000 12.105
60.20000 7.178
60.21000 6.009
60.22000 7.061
60.23000 3.133
60.24000 8.179
60.25000 8.038
60.26000 7.068
60.27000 12.023
60.28000 10.059
60.29000 6.021
60.30000 6.090
60.31000 6.211
60.32000 10.174
60.33000 5.032
60.34000 13.359
60.35000 5.042
60.36000 8.073
60.37000 7.035
60.38000 8.139
60.39000 9.171
60.40000 11.086
60.41000 3.064
60.42000 14.182
60.43000 5.037
60.44000 6.028
60.45000 8.173
60.46000 13.209
60.47000 6.075
60.48000 8.035
60.49000 12.023
60.50000 5.102
60.51000 7.101
60.52000 10.069
60.53000 8.012
60.54000 9.047
60.55000 5.181
60.56000 14.998
60.57000 6.085
60.58000 11.097
60.59000 10.261
60.60000 6.150
60.61000 14.184
60.62000 8.173
60.63000 5.946
60.64000 9.099
60.65000 8.136
60.66000 6.125
60.67000 7.137
60.68000 4.114
60.69000 9.980
60.70000 5.089
60.71000 6.099
60.72000 5.097
60.73000 8.156
60.74000 4.995
60.75000 11.188
60.76000 12.183
60.77000 7.110
60.78000 9.114
60.79000 5.082
60.80000 10.135
60.81000 8.102
60.82000 10.205
60.83000 11.137
60.84000 10.217
60.85000 6.140
60.86000 11.160
60.87000 8.159
60.88000 7.231
60.89000 9.028
60.90000 6.078
60.91000 8.065
60.92000 7.989
60.93000 14.020
60.94000 5.099
60.95000 10.987
60.96000 3.064
60.97000 6.075
60.98000 9.135
60.99000 5.051
61.00000 6.063
61.01000 9.175
61.02000 11.249
61.03000 6.065
61.04000 6.995
61.05000 5.067
61.06000 7.931
61.07000 9.183
61.08000 11.221
61.09000 5.075
61.10000 7.033
61.11000 11.239
61.12000 8.092
61.13000 6.040
61.14000 6.020
61.15000 9.118
61.16000 10.056
61.17000 9.121
61.18000 9.078
61.19000 4.018
61.20000 8.165
61.21000 12.190
61.22000 6.098
61.23000 8.206
61.24000 6.073
61.25000 10.138
61.26000 15.216
61.27000 12.147
61.28000 8.009
61.29000 15.317
61.30000 3.997
61.31000 9.132
61.32000 9.225
61.33000 12.094
61.34000 6.056
61.35000 5.971
61.36000 9.034
61.37000 9.223
61.38000 6.166
61.39000 14.122
61.40000 6.079
61.41000 7.082
61.42000 4.075
61.43000 7.190
61.44000 9.089
61.45000 7.006
61.46000 8.102
61.47000 5.106
61.48000 5.033
61.49000 9.232
61.50000 13.973
61.51000 12.144
61.52000 3.000
61.53000 8.131
61.54000 6.132
61.55000 5.007
61.56000 6.154
61.57000 7.124
61.58000 9.239
61.59000 5.057
61.60000 5.135
61.61000 8.092
61.62000 5.082
61.63000 13.209
61.64000 9.065
61.65000 12.138
61.66000 9.166
61.67000 8.210
61.68000 3.967
61.69000 9.094
61.70000 10.136
61.71000 8.180
61.72000 10.134
61.73000 4.117
61.74000 8.041
61.75000 8.090
61.76000 10.141
61.77000 5.167
61.78000 2.993
61.79000 13.056
61.80000 6.133
61.81000 7.111
61.82000 9.128
61.83000 8.191
61.84000 9.146
61.85000 4.105
61.86000 15.165
61.87000 8.173
61.88000 10.264
61.89000 8.253
61.90000 7.050
61.91000 5.016
61.92000 9.090
61.93000 13.186
61.94000 9.221
61.95000 7.040
61.96000 9.131
61.97000 9.052
61.98000 6.054
61.99000 10.107
62.00000 8.007
62.01000 5.114
62.02000 9.046
62.03000 7.049
62.04000 8.035
62.05000 13.221
62.06000 11.146
62.07000 11.055
62.08000 4.049
62.09000 6.015
62.10000 7.096
62.11000 10.099
62.12000 10.162
62.13000 6.145
62.14000 9.053
62.15000 9.113
62.16000 14.088
62.17000 7.132
62.18000 8.119
62.19000 6.160
62.20000 5.116
62.21000 4.099
62.22000 9.059
62.23000 6.070
62.24000 9.103
62.25000 14.064
62.26000 8.061
62.27000 9.124
62.28000 5.026
62.29000 6.064
62.30000 9.077
62.31000 4.042
62.32000 7.150
62.33000 7.051
62.34000 9.199
62.35000 9.134
62.36000 6.162
62.37000 10.191
62.38000 7.160
62.39000 9.200
62.40000 11.177
62.41000 7.098
62.42000 11.101
62.43000 0.000
62.44000 7.128
62.45000 6.149
62.46000 11.355
62.47000 14.206
62.48000 12.072
62.49000 8.013
62.50000 10.100
62.51000 7.103
62.52000 12.013
62.53000 9.075
62.54000 7.003
62.55000 8.085
62.56000 4.090
62.57000 5.981
62.58000 10.136
62.59000 9.066
62.60000 10.234
62.61000 9.101
62.62000 14.135
62.63000 11.083
62.64000 6.078
62.65000 11.211
62.66000 7.101
62.67000 12.140
62.68000 9.095
62.69000 9.036
62.70000 7.024
62.71000 12.957
62.72000 7.083
62.73000 4.990
62.74000 6.142
62.75000 13.106
62.76000 10.087
62.77000 11.099
62.78000 8.107
62.79000 9.043
62.80000 7.036
62.81000 4.025
62.82000 8.035
62.83000 9.058
62.84000 10.117
62.85000 10.157
62.86000 6.049
62.87000 6.063
62.88000 6.055
62.89000 6.020
62.90000 9.175
62.91000 5.103
62.92000 6.114
62.93000 12.019
62.94000 8.029
62.95000 3.003
62.96000 4.037
62.97000 10.066
62.98000 8.141
62.99000 8.152
63.00000 4.016
63.01000 10.063
63.02000 9.106
63.03000 11.968
63.04000 3.044
63.05000 6.072
63.06000 6.067
63.07000 9.127
63.08000 7.077
63.09000 13.287
63.10000 9.010
63.11000 13.291
63.12000 5.155
63.13000 15.346
63.14000 11.086
63.15000 4.063
63.16000 4.010
63.17000 13.211
63.18000 11.004
63.19000 11.169
63.20000 12.136
63.21000 7.148
63.22000 8.018
63.23000 6.037
63.24000 4.020
63.25000 12.221
63.26000 4.122
63.27000 10.192
63.28000 5.053
63.29000 7.019
63.30000 9.072
63.31000 6.994
63.32000 6.043
63.33000 7.007
63.34000 8.122
63.35000 10.000
63.36000 9.050
63.37000 8.063
63.38000 9.150
63.39000 5.128
63.40000 4.178
63.41000 7.124
63.42000 7.113
63.43000 7.031
63.44000 8.053
63.45000 13.298
63.46000 10.176
63.47000 7.181
63.48000 8.125
63.49000 9.985
63.50000 7.033
63.51000 11.268
63.52000 8.079
63.53000 6.040
63.54000 6.040
63.55000 8.168
63.56000 4.983
63.57000 7.985
63.58000 4.043
63.59000 14.197
63.60000 7.031
63.61000 7.087
63.62000 8.110
63.63000 8.306
63.64000 11.245
63.65000 9.176
63.66000 12.163
63.67000 7.156
63.68000 11.019
63.69000 8.173
63.70000 8.074
63.71000 14.180
63.72000 5.143
63.73000 7.041
63.74000 10.259
63.75000 6.979
63.76000 9.163
63.77000 7.170
63.78000 4.035
63.79000 10.216
63.80000 5.119
63.81000 6.106
63.82000 4.951
63.83000 10.145
63.84000 7.040
63.85000 7.123
63.86000 8.164
63.87000 5.009
63.88000 12.063
63.89000 8.089
63.90000 11.262
63.91000 14.232
63.92000 16.113
63.93000 4.066
63.94000 7.139
63.95000 5.040
63.96000 6.056
63.97000 8.083
63.98000 6.142
63.99000 5.153
64.00000 7.050
64.01000 9.007
64.02000 7.020
64.03000 5.069
64.04000 7.104
64.05000 3.010
64.06000 11.042
64.07000 7.935
64.08000 7.072
64.09000 10.181
64.10000 8.006
64.11000 6.133
64.12000 12.139
64.13000 5.043
64.14000 5.005
64.15000 12.283
64.16000 2.984
64.17000 10.078
64.18000 11.275
64.19000 8.164
64.20000 3.053
64.21000 9.149
64.22000 5.086
64.23000 6.097
64.24000 10.087
64.25000 6.016
64.26000 8.200
64.27000 8.089
64.28000 6.102
64.29000 8.238
64.30000 12.085
64.31000 5.918
64.32000 7.102
64.33000 10.175
64.34000 12.055
64.35000 10.136
64.36000 11.226
64.37000 8.084
64.38000 8.089
64.39000 6.126
64.40000 7.070
64.41000 7.046
64.42000 7.088
64.43000 7.014
64.44000 8.084
64.45000 5.024
64.46000 13.137
64.47000 2.030
64.48000 9.251
64.49000 10.162
64.50000 11.141
64.51000 10.287
64.52000 1.993
64.53000 8.049
64.54000 8.074
64.55000 4.008
64.56000 11.100
64.57000 10.122
64.58000 4.133
64.59000 7.057
64.60000 7.061
64.61000 7.114
64.62000 4.031
64.63000 7.228
64.64000 4.002
64.65000 10.144
64.66000 8.077
64.67000 6.007
64.68000 12.176
64.69000 9.042
64.70000 7.082
64.71000 5.084
64.72000 3.019
64.73000 9.174
64.74000 6.127
64.75000 11.086
64.76000 7.050
64.77000 5.018
64.78000 10.257
64.79000 8.109
64.80000 8.120
64.81000 8.114
64.82000 8.053
64.83000 11.130
64.84000 8.177
64.85000 7.092
64.86000 14.313
64.87000 7.985
64.88000 4.049
64.89000 10.120
64.90000 6.121
64.91000 2.995
64.92000 9.090
64.93000 8.146
64.94000 11.081
64.95000 7.053
64.96000 6.039
64.97000 6.021
64.98000 6.002
64.99000 7.984
65.00000 8.025
