20.00000 39.316
20.01000 40.654
20.02000 33.390
20.03000 44.829
20.04000 43.131
20.05000 30.337
20.06000 42.459
20.07000 33.205
20.08000 37.577
20.09000 29.093
20.10000 49.468
20.11000 31.378
20.12000 36.353
20.13000 42.648
20.14000 30.197
20.15000 39.497
20.16000 41.309
20.17000 31.225
20.18000 25.288
20.19000 31.421
20.20000 33.131
20.21000 40.234
20.22000 31.452
20.23000 39.541
20.24000 26.253
20.25000 37.487
20.26000 39.553
20.27000 36.685
20.28000 40.190
20.29000 39.393
20.30000 33.382
20.31000 45.598
20.32000 39.445
20.33000 34.432
20.34000 38.586
20.35000 38.360
20.36000 48.733
20.37000 36.441
20.38000 39.255
20.39000 28.298
20.40000 33.249
20.41000 42.457
20.42000 32.435
20.43000 36.440
20.44000 42.618
20.45000 41.367
20.46000 48.742
20.47000 32.646
20.48000 41.583
20.49000 33.474
20.50000 44.701
20.51000 32.290
20.52000 26.374
20.53000 30.074
20.54000 40.315
20.55000 29.395
20.56000 40.329
20.57000 41.224
20.58000 31.370
20.59000 31.299
20.60000 36.094
20.61000 36.562
20.62000 33.382
20.63000 34.374
20.64000 50.452
20.65000 29.190
20.66000 38.360
20.67000 36.326
20.68000 32.525
20.69000 32.405
20.70000 38.425
20.71000 29.382
20.72000 30.297
20.73000 31.379
20.74000 27.284
20.75000 32.372
20.76000 37.385
20.77000 32.440
20.78000 33.477
20.79000 28.348
20.80000 18.129
20.81000 40.496
20.82000 28.259
20.83000 34.453
20.84000 27.261
20.85000 33.378
20.86000 39.471
20.87000 33.319
20.88000 28.333
20.89000 34.297
20.90000 31.310
20.91000 32.356
20.92000 35.158
20.93000 35.307
20.94000 36.207
20.95000 34.572
20.96000 26.256
20.97000 35.406
20.98000 34.314
20.99000 25.461
21.00000 30.310
21.01000 33.292
21.02000 32.527
21.03000 39.417
21.04000 28.028
21.05000 28.264
21.06000 37.635
21.07000 28.146
21.08000 28.469
21.09000 33.512
21.10000 38.490
21.11000 31.185
21.12000 32.251
21.13000 26.253
21.14000 34.186
21.15000 31.354
21.16000 44.627
21.17000 35.483
21.18000 35.349
21.19000 51.353
21.20000 39.604
21.21000 36.258
21.22000 29.454
21.23000 35.534
21.24000 29.314
21.25000 35.480
21.26000 24.222
21.27000 26.349
21.28000 30.164
21.29000 35.273
21.30000 37.556
21.31000 29.318
21.32000 43.633
21.33000 25.140
21.34000 35.240
21.35000 30.403
21.36000 36.373
21.37000 43.711
21.38000 37.361
21.39000 24.237
21.40000 28.382
21.41000 21.283
21.42000 34.302
21.43000 33.313
21.44000 40.159
21.45000 33.269
21.46000 32.391
21.47000 26.448
21.48000 32.168
21.49000 28.722
21.50000 37.340
21.51000 36.618
21.52000 31.445
21.53000 24.318
21.54000 35.420
21.55000 31.426
21.56000 34.197
21.57000 24.366
21.58000 29.260
21.59000 33.442
21.60000 27.351
21.61000 35.506
21.62000 33.440
21.63000 29.241
21.64000 25.089
21.65000 29.226
21.66000 34.231
21.67000 41.666
21.68000 32.312
21.69000 37.429
21.70000 34.358
21.71000 30.380
21.72000 33.364
21.73000 35.519
21.74000 32.426
21.75000 21.146
21.76000 29.309
21.77000 33.324
21.78000 20.195
21.79000 30.402
21.80000 27.277
21.81000 28.431
21.82000 50.765
21.83000 20.254
21.84000 30.277
21.85000 32.338
21.86000 35.221
21.87000 38.550
21.88000 27.290
21.89000 34.327
21.90000 22.198
21.91000 21.282
21.92000 31.400
21.93000 25.211
21.94000 26.451
21.95000 29.234
21.96000 25.106
21.97000 27.310
21.98000 27.379
21.99000 23.224
22.00000 28.451
22.01000 30.251
22.02000 37.444
22.03000 25.285
22.04000 18.241
22.05000 34.376
22.06000 23.128
22.07000 18.231
22.08000 33.272
22.09000 27.343
22.10000 25.262
22.11000 32.507
22.12000 25.197
22.13000 35.553
22.14000 23.239
22.15000 30.462
22.16000 33.301
22.17000 29.375
22.18000 26.510
22.19000 31.320
22.20000 20.210
22.21000 31.643
22.22000 27.418
22.23000 27.375
22.24000 32.346
22.25000 30.290
22.26000 36.301
22.27000 23.197
22.28000 30.512
22.29000 26.426
22.30000 25.228
22.31000 25.399
22.32000 25.443
22.33000 20.308
22.34000 22.446
22.35000 22.159
22.36000 24.447
22.37000 25.161
22.38000 31.250
22.39000 28.351
22.40000 28.421
22.41000 32.524
22.42000 24.320
22.43000 28.484
22.44000 30.148
22.45000 27.208
22.46000 27.478
22.47000 21.115
22.48000 30.246
22.49000 20.412
22.50000 31.151
22.51000 20.331
22.52000 22.295
22.53000 18.191
22.54000 16.056
22.55000 25.335
22.56000 18.208
22.57000 26.323
22.58000 28.205
22.59000 18.302
22.60000 22.186
22.61000 30.430
22.62000 26.265
22.63000 20.410
22.64000 26.363
22.65000 22.196
22.66000 29.431
22.67000 32.336
22.68000 24.325
22.69000 29.441
22.70000 20.291
22.71000 21.192
22.72000 26.346
22.73000 25.401
22.74000 25.152
22.75000 30.596
22.76000 21.265
22.77000 27.414
22.78000 35.380
22.79000 27.160
22.80000 21.186
22.81000 24.380
22.82000 17.107
22.83000 28.320
22.84000 27.229
22.85000 24.222
22.86000 18.207
22.87000 28.456
22.88000 17.052
22.89000 23.342
22.90000 20.105
22.91000 30.430
22.92000 22.114
22.93000 29.450
22.94000 24.440
22.95000 23.384
22.96000 30.145
22.97000 17.237
22.98000 23.403
22.99000 25.346
23.00000 29.312
23.01000 26.219
23.02000 22.433
23.03000 21.229
23.04000 18.253
23.05000 26.314
23.06000 18.213
23.07000 27.361
23.08000 36.391
23.09000 19.212
23.10000 28.395
23.11000 19.240
23.12000 21.047
23.13000 22.427
23.14000 15.191
23.15000 27.174
23.16000 21.268
23.17000 19.069
23.18000 20.148
23.19000 24.295
23.20000 25.338
23.21000 21.331
23.22000 21.363
23.23000 22.230
23.24000 21.374
23.25000 28.434
23.26000 29.416
23.27000 30.321
23.28000 18.228
23.29000 22.353
23.30000 21.234
23.31000 19.308
23.32000 30.361
23.33000 19.201
23.34000 19.246
23.35000 24.228
23.36000 27.424
23.37000 21.259
23.38000 24.168
23.39000 30.079
23.40000 19.193
23.41000 28.398
23.42000 17.386
23.43000 26.521
23.44000 24.263
23.45000 18.234
23.46000 21.145
23.47000 19.196
23.48000 26.128
23.49000 22.305
23.50000 20.231
23.51000 22.171
23.52000 24.496
23.53000 27.504
23.54000 16.120
23.55000 17.312
23.56000 23.380
23.57000 28.445
23.58000 21.262
23.59000 23.136
23.60000 25.203
23.61000 27.170
23.62000 17.064
23.63000 28.440
23.64000 18.999
23.65000 20.362
23.66000 21.319
23.67000 12.157
23.68000 32.478
23.69000 20.154
23.70000 19.349
23.71000 25.380
23.72000 20.255
23.73000 19.347
23.74000 26.397
23.75000 22.320
23.76000 21.283
23.77000 22.470
23.78000 19.495
23.79000 16.182
23.80000 36.376
23.81000 21.450
23.82000 15.200
23.83000 21.278
23.84000 25.174
23.85000 20.305
23.86000 25.425
23.87000 23.273
23.88000 18.232
23.89000 16.400
23.90000 11.099
23.91000 23.327
23.92000 15.236
23.93000 23.307
23.94000 9.212
23.95000 17.344
23.96000 18.027
23.97000 13.112
23.98000 16.295
23.99000 22.279
24.00000 12.090
24.01000 27.284
24.02000 27.102
24.03000 16.369
24.04000 14.159
24.05000 20.200
24.06000 29.441
24.07000 25.359
24.08000 10.215
24.09000 29.207
24.10000 17.090
24.11000 18.192
24.12000 21.380
24.13000 19.349
24.14000 18.223
24.15000 25.443
24.16000 22.296
24.17000 9.093
24.18000 15.135
24.19000 16.064
24.20000 13.233
24.21000 13.172
24.22000 15.191
24.23000 13.180
24.24000 20.289
24.25000 22.370
24.26000 15.243
24.27000 17.093
24.28000 11.137
24.29000 11.057
24.30000 13.256
24.31000 15.196
24.32000 10.993
24.33000 15.056
24.34000 15.329
24.35000 22.349
24.36000 14.196
24.37000 17.195
24.38000 16.131
24.39000 21.220
24.40000 19.414
24.41000 20.364
24.42000 21.087
24.43000 14.325
24.44000 14.236
24.45000 14.065
24.46000 21.959
24.47000 19.195
24.48000 22.186
24.49000 18.129
24.50000 17.137
24.51000 13.242
24.52000 15.203
24.53000 19.377
24.54000 13.128
24.55000 18.360
24.56000 14.178
24.57000 19.274
24.58000 19.168
24.59000 24.301
24.60000 16.290
24.61000 12.141
24.62000 27.037
24.63000 12.094
24.64000 23.293
24.65000 17.248
24.66000 13.227
24.67000 11.242
24.68000 12.293
24.69000 15.185
24.70000 18.304
24.71000 13.216
24.72000 12.238
24.73000 13.099
24.74000 22.318
24.75000 20.141
24.76000 11.219
24.77000 12.171
24.78000 19.217
24.79000 15.232
24.80000 14.039
24.81000 22.465
24.82000 22.412
24.83000 16.066
24.84000 17.044
24.85000 16.213
24.86000 21.167
24.87000 16.275
24.88000 25.291
24.89000 17.254
24.90000 11.090
24.91000 11.193
24.92000 15.178
24.93000 17.136
24.94000 15.170
24.95000 18.229
24.96000 22.155
24.97000 14.197
24.98000 12.330
24.99000 13.164
25.00000 9.185
25.01000 12.026
25.02000 22.362
25.03000 11.078
25.04000 20.187
25.05000 18.344
25.06000 18.415
25.07000 11.158
25.08000 19.292
25.09000 15.337
25.10000 13.091
25.11000 6.031
25.12000 14.251
25.13000 17.231
25.14000 13.088
25.15000 14.147
25.16000 18.348
25.17000 13.301
25.18000 14.064
25.19000 19.229
25.20000 14.094
25.21000 15.107
25.22000 16.175
25.23000 18.341
25.24000 9.171
25.25000 15.061
25.26000 21.381
25.27000 10.161
25.28000 11.181
25.29000 23.318
25.30000 21.115
25.31000 15.107
25.32000 17.162
25.33000 17.383
25.34000 18.298
25.35000 13.231
25.36000 15.238
25.37000 20.435
25.38000 15.227
25.39000 11.217
25.40000 11.212
25.41000 18.342
25.42000 14.203
25.43000 13.111
25.44000 6.053
25.45000 19.361
25.46000 15.334
25.47000 18.336
25.48000 12.063
25.49000 13.102
25.50000 15.208
25.51000 13.354
25.52000 25.314
25.53000 14.151
25.54000 17.388
25.55000 16.018
25.56000 15.191
25.57000 16.204
25.58000 16.163
25.59000 16.289
25.60000 15.158
25.61000 16.143
25.62000 12.223
25.63000 15.267
25.64000 14.347
25.65000 13.076
25.66000 16.281
25.67000 8.200
25.68000 7.052
25.69000 17.316
25.70000 16.042
25.71000 19.202
25.72000 22.250
25.73000 9.153
25.74000 20.252
25.75000 11.056
25.76000 9.205
25.77000 15.132
25.78000 11.117
25.79000 14.341
25.80000 10.162
25.81000 10.218
25.82000 9.007
25.83000 16.399
25.84000 14.174
25.85000 19.170
25.86000 9.264
25.87000 12.244
25.88000 13.024
25.89000 15.187
25.90000 18.160
25.91000 12.998
25.92000 19.417
25.93000 13.381
25.94000 13.268
25.95000 16.151
25.96000 17.140
25.97000 13.161
25.98000 12.247
25.99000 16.270
26.00000 12.107
26.01000 16.181
26.02000 12.125
26.03000 18.248
26.04000 10.151
26.05000 14.251
26.06000 16.190
26.07000 15.153
26.08000 16.225
26.09000 10.077
26.10000 11.104
26.11000 5.967
26.12000 14.243
26.13000 12.094
26.14000 12.178
26.15000 12.087
26.16000 20.050
26.17000 8.057
26.18000 16.380
26.19000 17.062
26.20000 12.244
26.21000 18.106
26.22000 15.264
26.23000 23.349
26.24000 17.252
26.25000 11.182
26.26000 13.239
26.27000 12.161
26.28000 14.184
26.29000 14.120
26.30000 15.097
26.31000 14.269
26.32000 12.076
26.33000 12.216
26.34000 14.216
26.35000 16.228
26.36000 16.079
26.37000 10.091
26.38000 8.095
26.39000 13.158
26.40000 16.135
26.41000 14.101
26.42000 15.219
26.43000 20.625
26.44000 10.112
26.45000 14.101
26.46000 15.140
26.47000 14.248
26.48000 6.050
26.49000 11.216
26.50000 12.302
26.51000 7.158
26.52000 15.132
26.53000 14.335
26.54000 11.139
26.55000 14.225
26.56000 9.118
26.57000 10.238
26.58000 10.105
26.59000 12.068
26.60000 11.159
26.61000 11.024
26.62000 6.041
26.63000 8.242
26.64000 9.186
26.65000 14.099
26.66000 10.106
26.67000 11.087
26.68000 15.184
26.69000 8.053
26.70000 13.254
26.71000 10.195
26.72000 18.316
26.73000 13.195
26.74000 18.190
26.75000 10.118
26.76000 10.056
26.77000 12.164
26.78000 13.171
26.79000 6.065
26.80000 15.082
26.81000 10.128
26.82000 9.981
26.83000 18.259
26.84000 11.997
26.85000 18.277
26.86000 10.094
26.87000 9.125
26.88000 12.054
26.89000 13.182
26.90000 9.045
26.91000 15.340
26.92000 7.030
26.93000 16.061
26.94000 15.094
26.95000 12.229
26.96000 8.151
26.97000 9.105
26.98000 16.246
26.99000 14.241
27.00000 11.229
27.01000 10.982
27.02000 15.145
27.03000 6.125
27.04000 13.107
27.05000 11.151
27.06000 8.229
27.07000 15.118
27.08000 11.313
27.09000 8.982
27.10000 13.170
27.11000 11.156
27.12000 10.072
27.13000 8.236
27.14000 9.986
27.15000 12.175
27.16000 10.139
27.17000 18.145
27.18000 4.134
27.19000 10.233
27.20000 13.175
27.21000 21.222
27.22000 13.162
27.23000 20.364
27.24000 17.036
27.25000 10.173
27.26000 11.186
27.27000 8.200
27.28000 9.093
27.29000 12.303
27.30000 12.088
27.31000 6.031
27.32000 7.060
27.33000 16.253
27.34000 12.152
27.35000 12.182
27.36000 13.133
27.37000 12.089
27.38000 6.164
27.39000 12.367
27.40000 3.012
27.41000 10.218
27.42000 19.174
27.43000 8.067
27.44000 11.154
27.45000 11.123
27.46000 7.009
27.47000 7.121
27.48000 12.137
27.49000 15.231
27.50000 12.202
27.51000 12.061
27.52000 10.139
27.53000 4.106
27.54000 13.183
27.55000 6.015
27.56000 11.237
27.57000 10.079
27.58000 9.150
27.59000 8.084
27.60000 12.056
27.61000 14.094
27.62000 19.158
27.63000 8.134
27.64000 15.126
27.65000 9.989
27.66000 18.257
27.67000 11.172
27.68000 19.370
27.69000 12.198
27.70000 13.222
27.71000 14.196
27.72000 6.087
27.73000 7.234
27.74000 12.253
27.75000 13.080
27.76000 16.168
27.77000 11.142
27.78000 13.175
27.79000 13.119
27.80000 14.212
27.81000 12.115
27.82000 15.130
27.83000 10.140
27.84000 11.186
27.85000 16.328
27.86000 11.085
27.87000 16.329
27.88000 7.194
27.89000 9.200
27.90000 12.142
27.91000 12.157
27.92000 9.028
27.93000 13.355
27.94000 10.202
27.95000 9.134
27.96000 9.151
27.97000 8.126
27.98000 11.128
27.99000 2.955
28.00000 6.041
28.01000 9.221
28.02000 15.278
28.03000 3.060
28.04000 10.229
28.05000 13.268
28.06000 9.015
28.07000 12.106
28.08000 10.135
28.09000 11.203
28.10000 11.146
28.11000 9.054
28.12000 12.175
28.13000 14.010
28.14000 19.268
28.15000 11.254
28.16000 5.098
28.17000 17.200
28.18000 10.092
28.19000 13.238
28.20000 8.060
28.21000 6.019
28.22000 9.127
28.23000 12.211
28.24000 5.070
28.25000 16.282
28.26000 9.188
28.27000 14.203
28.28000 8.125
28.29000 4.069
28.30000 8.158
28.31000 12.082
28.32000 8.096
28.33000 8.136
28.34000 5.000
28.35000 7.188
28.36000 11.257
28.37000 10.279
28.38000 15.247
28.39000 10.338
28.40000 15.183
28.41000 8.176
28.42000 15.242
28.43000 7.142
28.44000 13.258
28.45000 13.107
28.46000 13.217
28.47000 3.067
28.48000 16.240
28.49000 7.054
28.50000 13.300
28.51000 14.206
28.52000 9.150
28.53000 11.216
28.54000 12.055
28.55000 13.239
28.56000 5.004
28.57000 15.245
28.58000 13.239
28.59000 15.217
28.60000 11.114
28.61000 8.015
28.62000 14.190
28.63000 16.058
28.64000 4.098
28.65000 7.084
28.66000 7.196
28.67000 4.010
28.68000 8.205
28.69000 8.069
28.70000 14.367
28.71000 12.285
28.72000 17.116
28.73000 10.068
28.74000 14.146
28.75000 11.135
28.76000 13.203
28.77000 11.127
28.78000 11.167
28.79000 8.062
28.80000 5.066
28.81000 12.186
28.82000 10.207
28.83000 10.106
28.84000 5.098
28.85000 7.958
28.86000 9.206
28.87000 13.069
28.88000 5.125
28.89000 13.091
28.90000 9.349
28.91000 10.052
28.92000 8.155
28.93000 5.030
28.94000 10.098
28.95000 11.996
28.96000 12.241
28.97000 13.131
28.98000 8.191
28.99000 9.077
29.00000 10.108
29.01000 8.121
29.02000 7.106
29.03000 15.239
29.04000 9.109
29.05000 8.012
29.06000 16.277
29.07000 8.121
29.08000 6.176
29.09000 8.209
29.10000 8.131
29.11000 11.259
29.12000 7.001
29.13000 5.101
29.14000 5.026
29.15000 4.008
29.16000 15.102
29.17000 9.045
29.18000 11.094
29.19000 9.168
29.20000 12.122
29.21000 5.035
29.22000 15.062
29.23000 8.122
29.24000 7.071
29.25000 5.044
29.26000 8.232
29.27000 7.149
29.28000 6.984
29.29000 14.193
29.30000 13.191
29.31000 6.156
29.32000 14.197
29.33000 11.132
29.34000 9.162
29.35000 6.101
29.36000 11.142
29.37000 9.116
29.38000 5.022
29.39000 11.096
29.40000 9.235
29.41000 11.160
29.42000 6.092
29.43000 11.154
29.44000 12.220
29.45000 12.298
29.46000 11.230
29.47000 11.173
29.48000 6.118
29.49000 6.026
29.50000 10.150
29.51000 7.041
29.52000 7.125
29.53000 6.078
29.54000 5.099
29.55000 7.183
29.56000 5.021
29.57000 8.048
29.58000 9.098
29.59000 12.176
29.60000 5.997
29.61000 16.248
29.62000 6.167
29.63000 15.073
29.64000 10.005
29.65000 10.185
29.66000 9.253
29.67000 5.006
29.68000 13.114
29.69000 9.234
29.70000 10.201
29.71000 4.063
29.72000 10.025
29.73000 10.214
29.74000 10.246
29.75000 11.160
29.76000 11.209
29.77000 8.166
29.78000 11.250
29.79000 8.083
29.80000 8.906
29.81000 5.029
29.82000 7.975
29.83000 9.184
29.84000 10.208
29.85000 11.238
29.86000 13.112
29.87000 11.117
29.88000 13.146
29.89000 13.159
29.90000 14.149
29.91000 8.186
29.92000 8.130
29.93000 5.008
29.94000 8.017
29.95000 8.144
29.96000 11.145
29.97000 10.062
29.98000 7.137
29.99000 8.211
30.00000 5.963
30.01000 7.175
30.02000 7.186
30.03000 7.135
30.04000 7.085
30.05000 7.095
30.06000 7.169
30.07000 12.306
30.08000 10.182
30.09000 3.031
30.10000 7.052
30.11000 10.279
30.12000 15.229
30.13000 13.159
30.14000 5.068
30.15000 11.278
30.16000 8.062
30.17000 5.999
30.18000 8.047
30.19000 8.038
30.20000 7.152
30.21000 10.149
30.22000 7.155
30.23000 8.070
30.24000 9.042
30.25000 12.116
30.26000 6.170
30.27000 8.134
30.28000 14.124
30.29000 7.091
30.30000 5.076
30.31000 10.137
30.32000 6.029
30.33000 3.020
30.34000 14.342
30.35000 9.069
30.36000 8.067
30.37000 15.105
30.38000 14.107
30.39000 7.144
30.40000 13.158
30.41000 11.084
30.42000 4.125
30.43000 8.186
30.44000 9.117
30.45000 7.065
30.46000 3.008
30.47000 7.113
30.48000 6.154
30.49000 5.110
30.50000 10.174
30.51000 12.258
30.52000 10.076
30.53000 7.248
30.54000 8.051
30.55000 8.186
30.56000 9.214
30.57000 9.047
30.58000 6.972
30.59000 5.032
30.60000 8.172
30.61000 8.139
30.62000 10.186
30.63000 11.081
30.64000 15.190
30.65000 9.127
30.66000 9.021
30.67000 10.086
30.68000 10.105
30.69000 6.039
30.70000 5.039
30.71000 8.116
30.72000 10.033
30.73000 7.116
30.74000 4.079
30.75000 13.294
30.76000 6.059
30.77000 9.239
30.78000 11.196
30.79000 3.963
30.80000 5.178
30.81000 8.237
30.82000 11.990
30.83000 12.249
30.84000 9.091
30.85000 6.060
30.86000 11.236
30.87000 8.078
30.88000 2.015
30.89000 9.143
30.90000 12.122
30.91000 6.138
30.92000 5.082
30.93000 8.123
30.94000 13.162
30.95000 12.303
30.96000 7.054
30.97000 5.110
30.98000 8.095
30.99000 11.215
31.00000 7.991
31.01000 9.006
31.02000 7.132
31.03000 6.093
31.04000 12.190
31.05000 6.153
31.06000 13.118
31.07000 7.947
31.08000 4.002
31.09000 7.103
31.10000 10.126
31.11000 6.057
31.12000 9.253
31.13000 9.187
31.14000 10.173
31.15000 13.123
31.16000 7.101
31.17000 6.059
31.18000 6.098
31.19000 2.055
31.20000 7.077
31.21000 11.950
31.22000 3.999
31.23000 7.028
31.24000 8.103
31.25000 4.051
31.26000 12.189
31.27000 9.227
31.28000 3.067
31.29000 8.267
31.30000 5.033
31.31000 13.050
31.32000 12.311
31.33000 6.103
31.34000 7.998
31.35000 12.069
31.36000 13.196
31.37000 7.008
31.38000 11.062
31.39000 5.064
31.40000 7.169
31.41000 7.183
31.42000 3.076
31.43000 6.080
31.44000 9.026
31.45000 4.043
31.46000 6.149
31.47000 4.098
31.48000 6.109
31.49000 8.085
31.50000 12.169
31.51000 9.183
31.52000 5.952
31.53000 10.264
31.54000 18.144
31.55000 6.166
31.56000 6.054
31.57000 5.016
31.58000 10.018
31.59000 11.076
31.60000 2.977
31.61000 6.073
31.62000 11.199
31.63000 9.142
31.64000 4.099
31.65000 14.989
31.66000 6.091
31.67000 5.114
31.68000 8.061
31.69000 8.174
31.70000 4.040
31.71000 9.098
31.72000 10.153
31.73000 7.211
31.74000 4.137
31.75000 1.008
31.76000 11.258
31.77000 8.076
31.78000 9.105
31.79000 8.147
31.80000 6.044
31.81000 4.053
31.82000 7.123
31.83000 6.200
31.84000 4.152
31.85000 12.271
31.86000 11.157
31.87000 7.063
31.88000 7.017
31.89000 7.142
31.90000 7.007
31.91000 6.115
31.92000 5.072
31.93000 6.066
31.94000 7.009
31.95000 7.063
31.96000 13.187
31.97000 11.164
31.98000 8.104
31.99000 5.089
32.00000 9.148
32.01000 6.033
32.02000 9.153
32.03000 5.082
32.04000 4.136
32.05000 4.981
32.06000 14.233
32.07000 6.142
32.08000 8.074
32.09000 3.051
32.10000 8.220
32.11000 4.031
32.12000 7.304
32.13000 7.041
32.14000 7.073
32.15000 4.968
32.16000 8.095
32.17000 8.078
32.18000 6.111
32.19000 13.056
32.20000 8.097
32.21000 13.088
32.22000 4.078
32.23000 2.127
32.24000 9.175
32.25000 4.124
32.26000 7.046
32.27000 6.998
32.28000 7.031
32.29000 6.087
32.30000 5.092
32.31000 10.130
32.32000 9.166
32.33000 11.210
32.34000 6.008
32.35000 4.087
32.36000 6.092
32.37000 0.999
32.38000 8.099
32.39000 4.078
32.40000 8.122
32.41000 7.123
32.42000 6.080
32.43000 12.284
32.44000 8.022
32.45000 8.115
32.46000 10.113
32.47000 9.179
32.48000 5.022
32.49000 5.035
32.50000 7.090
32.51000 8.124
32.52000 7.080
32.53000 3.960
32.54000 5.038
32.55000 0.000
32.56000 5.996
32.57000 4.047
32.58000 2.026
32.59000 4.072
32.60000 5.088
32.61000 2.039
32.62000 5.122
32.63000 7.049
32.64000 10.104
32.65000 5.139
32.66000 11.126
32.67000 8.149
32.68000 6.134
32.69000 7.007
32.70000 11.124
32.71000 8.142
32.72000 6.128
32.73000 3.005
32.74000 8.087
32.75000 3.074
32.76000 8.148
32.77000 9.181
32.78000 8.184
32.79000 6.131
32.80000 6.064
32.81000 3.040
32.82000 7.030
32.83000 8.080
32.84000 8.039
32.85000 5.091
32.86000 7.005
32.87000 10.165
32.88000 9.021
32.89000 8.181
32.90000 5.131
32.91000 5.004
32.92000 6.035
32.93000 8.068
32.94000 8.054
32.95000 10.023
32.96000 7.148
32.97000 3.089
32.98000 9.245
32.99000 9.066
33.00000 8.039
33.01000 11.026
33.02000 7.045
33.03000 4.035
33.04000 5.012
33.05000 8.204
33.06000 8.048
33.07000 12.151
33.08000 7.023
33.09000 10.093
33.10000 8.121
33.11000 8.160
33.12000 6.052
33.13000 3.008
33.14000 5.037
33.15000 6.984
33.16000 7.015
33.17000 6.029
33.18000 6.101
33.19000 7.074
33.20000 7.025
33.21000 7.151
33.22000 11.214
33.23000 10.163
33.24000 7.051
33.25000 8.105
33.26000 8.310
33.27000 2.031
33.28000 6.045
33.29000 6.126
33.30000 6.168
33.31000 7.070
33.32000 9.102
33.33000 6.130
33.34000 4.021
33.35000 5.068
33.36000 9.095
33.37000 5.998
33.38000 6.183
33.39000 9.134
33.40000 11.235
33.41000 2.004
33.42000 9.114
33.43000 7.097
33.44000 3.011
33.45000 6.109
33.46000 12.390
33.47000 9.008
33.48000 6.038
33.49000 9.094
33.50000 10.161
33.51000 9.193
33.52000 5.093
33.53000 8.179
33.54000 5.030
33.55000 7.259
33.56000 7.022
33.57000 1.986
33.58000 7.096
33.59000 2.985
33.60000 6.167
33.61000 5.061
33.62000 5.115
33.63000 4.140
33.64000 4.949
33.65000 6.055
33.66000 12.054
33.67000 1.010
33.68000 6.032
33.69000 4.957
33.70000 8.194
33.71000 4.033
33.72000 6.109
33.73000 7.105
33.74000 6.152
33.75000 11.148
33.76000 7.094
33.77000 3.036
33.78000 5.045
33.79000 1.027
33.80000 7.085
33.81000 3.020
33.82000 10.053
33.83000 4.087
33.84000 10.068
33.85000 4.034
33.86000 9.169
33.87000 5.039
33.88000 5.153
33.89000 4.076
33.90000 5.021
33.91000 8.154
33.92000 8.157
33.93000 5.987
33.94000 6.079
33.95000 3.034
33.96000 5.044
33.97000 6.086
33.98000 5.069
33.99000 6.070
34.00000 6.110
34.01000 7.042
34.02000 8.118
34.03000 8.034
34.04000 8.205
34.05000 5.064
34.06000 7.174
34.07000 9.154
34.08000 5.083
34.09000 6.996
34.10000 6.001
34.11000 6.145
34.12000 9.203
34.13000 6.021
34.14000 6.085
34.15000 4.994
34.16000 5.088
34.17000 5.138
34.18000 7.035
34.19000 5.095
34.20000 6.148
34.21000 6.996
34.22000 10.096
34.23000 9.106
34.24000 8.075
34.25000 4.097
34.26000 8.002
34.27000 2.014
34.28000 4.088
34.29000 8.045
34.30000 8.113
34.31000 12.170
34.32000 0.981
34.33000 8.114
34.34000 8.077
34.35000 6.082
34.36000 1.980
34.37000 5.054
34.38000 5.222
34.39000 6.139
34.40000 5.107
34.41000 6.100
34.42000 11.199
34.43000 3.013
34.44000 5.001
34.45000 6.102
34.46000 4.032
34.47000 5.030
34.48000 4.036
34.49000 3.059
34.50000 6.032
34.51000 3.083
34.52000 7.121
34.53000 7.130
34.54000 6.077
34.55000 4.066
34.56000 4.080
34.57000 7.033
34.58000 9.145
34.59000 7.032
34.60000 4.079
34.61000 7.261
34.62000 10.161
34.63000 10.164
34.64000 6.109
34.65000 7.032
34.66000 4.046
34.67000 6.940
34.68000 5.165
34.69000 6.037
34.70000 6.192
34.71000 6.077
34.72000 6.021
34.73000 11.062
34.74000 7.124
34.75000 4.005
34.76000 2.992
34.77000 10.158
34.78000 7.056
34.79000 2.121
34.80000 5.022
34.81000 3.077
34.82000 10.241
34.83000 6.102
34.84000 9.108
34.85000 5.017
34.86000 5.076
34.87000 6.068
34.88000 5.036
34.89000 2.031
34.90000 5.010
34.91000 7.947
34.92000 7.092
34.93000 5.217
34.94000 8.073
34.95000 6.117
34.96000 3.999
34.97000 6.097
34.98000 4.134
34.99000 2.058
35.00000 5.002
35.01000 8.077
35.02000 4.047
35.03000 5.002
35.04000 5.113
35.05000 6.113
35.06000 9.121
35.07000 13.155
35.08000 5.019
35.09000 8.079
35.10000 6.063
35.11000 8.068
35.12000 8.168
35.13000 8.195
35.14000 4.027
35.15000 8.148
35.16000 4.981
35.17000 7.041
35.18000 5.036
35.19000 7.163
35.20000 3.077
35.21000 7.052
35.22000 2.991
35.23000 5.992
35.24000 1.004
35.25000 3.992
35.26000 6.011
35.27000 8.055
35.28000 5.068
35.29000 4.981
35.30000 2.029
35.31000 10.145
35.32000 5.025
35.33000 3.988
35.34000 6.103
35.35000 8.049
35.36000 6.188
35.37000 6.124
35.38000 6.937
35.39000 6.030
35.40000 7.085
35.41000 8.960
35.42000 3.118
35.43000 11.168
35.44000 10.219
35.45000 8.164
35.46000 1.005
35.47000 4.172
35.48000 6.085
35.49000 5.064
35.50000 5.990
35.51000 3.049
35.52000 8.022
35.53000 5.129
35.54000 4.044
35.55000 6.205
35.56000 2.938
35.57000 5.068
35.58000 2.013
35.59000 10.045
35.60000 9.154
35.61000 12.238
35.62000 4.058
35.63000 6.152
35.64000 1.963
35.65000 7.023
35.66000 3.019
35.67000 5.112
35.68000 5.089
35.69000 2.012
35.70000 8.093
35.71000 4.062
35.72000 1.991
35.73000 3.120
35.74000 10.266
35.75000 7.123
35.76000 6.136
35.77000 6.106
35.78000 5.049
35.79000 1.979
35.80000 3.998
35.81000 4.999
35.82000 5.081
35.83000 3.064
35.84000 7.057
35.85000 6.039
35.86000 4.015
35.87000 4.076
35.88000 4.062
35.89000 3.128
35.90000 2.999
35.91000 2.022
35.92000 8.050
35.93000 9.277
35.94000 6.076
35.95000 8.041
35.96000 10.081
35.97000 4.121
35.98000 4.041
35.99000 6.001
36.00000 2.000
36.01000 5.054
36.02000 6.006
36.03000 9.173
36.04000 8.194
36.05000 5.036
36.06000 4.138
36.07000 4.971
36.08000 8.008
36.09000 6.115
36.10000 6.127
36.11000 6.102
36.12000 7.078
36.13000 6.133
36.14000 3.089
36.15000 2.055
36.16000 7.116
36.17000 1.998
36.18000 7.092
36.19000 4.016
36.20000 4.939
36.21000 4.069
36.22000 7.156
36.23000 5.189
36.24000 7.111
36.25000 4.100
36.26000 4.154
36.27000 6.092
36.28000 7.054
36.29000 6.028
36.30000 6.040
36.31000 5.018
36.32000 11.201
36.33000 3.074
36.34000 4.088
36.35000 5.080
36.36000 4.028
36.37000 5.048
36.38000 8.026
36.39000 7.143
36.40000 7.164
36.41000 2.012
36.42000 2.034
36.43000 4.077
36.44000 1.999
36.45000 8.150
36.46000 5.088
36.47000 8.240
36.48000 4.072
36.49000 6.083
36.50000 4.000
36.51000 10.106
36.52000 1.972
36.53000 10.020
36.54000 4.085
36.55000 4.041
36.56000 6.094
36.57000 7.072
36.58000 7.098
36.59000 3.992
36.60000 2.981
36.61000 7.143
36.62000 7.085
36.63000 5.016
36.64000 3.991
36.65000 3.128
36.66000 8.199
36.67000 2.020
36.68000 3.068
36.69000 4.077
36.70000 5.144
36.71000 5.018
36.72000 7.231
36.73000 3.959
36.74000 3.028
36.75000 5.013
36.76000 2.131
36.77000 4.131
36.78000 3.986
36.79000 0.975
36.80000 4.106
36.81000 4.007
36.82000 4.080
36.83000 6.184
36.84000 5.056
36.85000 4.088
36.86000 7.084
36.87000 3.016
36.88000 4.026
36.89000 4.024
36.90000 9.125
36.91000 5.976
36.92000 4.091
36.93000 0.996
36.94000 3.106
36.95000 1.994
36.96000 0.995
36.97000 6.087
36.98000 4.007
36.99000 3.023
37.00000 3.108
37.01000 6.094
37.02000 2.078
37.03000 0.973
37.04000 4.022
37.05000 7.173
37.06000 3.095
37.07000 6.144
37.08000 6.051
37.09000 3.052
37.10000 11.088
37.11000 0.987
37.12000 5.120
37.13000 2.033
37.14000 9.105
37.15000 3.028
37.16000 6.060
37.17000 7.037
37.18000 3.070
37.19000 6.003
37.20000 2.995
37.21000 6.014
37.22000 4.027
37.23000 4.999
37.24000 3.027
37.25000 4.074
37.26000 11.212
37.27000 2.003
37.28000 6.075
37.29000 7.148
37.30000 4.137
37.31000 5.018
37.32000 5.969
37.33000 5.972
37.34000 5.980
37.35000 4.114
37.36000 7.024
37.37000 7.097
37.38000 7.182
37.39000 5.080
37.40000 4.982
37.41000 5.083
37.42000 7.112
37.43000 2.981
37.44000 6.081
37.45000 6.975
37.46000 7.085
37.47000 4.066
37.48000 2.972
37.49000 9.144
37.50000 2.995
37.51000 6.028
37.52000 4.102
37.53000 6.109
37.54000 5.057
37.55000 4.084
37.56000 7.037
37.57000 2.037
37.58000 3.993
37.59000 2.048
37.60000 3.050
37.61000 6.039
37.62000 2.963
37.63000 2.015
37.64000 3.020
37.65000 4.057
37.66000 5.102
37.67000 4.002
37.68000 4.949
37.69000 5.054
37.70000 3.134
37.71000 3.972
37.72000 2.011
37.73000 5.148
37.74000 2.996
37.75000 5.103
37.76000 6.037
37.77000 6.083
37.78000 5.029
37.79000 4.061
37.80000 6.168
37.81000 3.022
37.82000 0.000
37.83000 5.081
37.84000 4.980
37.85000 8.073
37.86000 3.053
37.87000 2.065
37.88000 4.075
37.89000 3.035
37.90000 6.083
37.91000 8.103
37.92000 6.042
37.93000 3.959
37.94000 9.031
37.95000 9.092
37.96000 7.106
37.97000 10.305
37.98000 2.005
37.99000 6.107
38.00000 5.091
38.01000 4.100
38.02000 6.111
38.03000 6.157
38.04000 3.020
38.05000 5.171
38.06000 4.105
38.07000 5.044
38.08000 2.028
38.09000 7.113
38.10000 5.974
38.11000 5.029
38.12000 4.051
38.13000 8.044
38.14000 6.127
38.15000 3.149
38.16000 6.054
38.17000 2.008
38.18000 4.011
38.19000 4.019
38.20000 6.080
38.21000 2.017
38.22000 5.068
38.23000 0.998
38.24000 8.173
38.25000 5.117
38.26000 5.033
38.27000 8.114
38.28000 0.000
38.29000 6.107
38.30000 4.118
38.31000 4.093
38.32000 6.078
38.33000 4.110
38.34000 9.031
38.35000 4.015
38.36000 4.093
38.37000 9.088
38.38000 4.124
38.39000 3.028
38.40000 4.043
38.41000 8.264
38.42000 3.990
38.43000 4.020
38.44000 7.055
38.45000 7.081
38.46000 5.030
38.47000 4.039
38.48000 2.017
38.49000 6.053
38.50000 3.023
38.51000 1.982
38.52000 4.059
38.53000 6.135
38.54000 5.073
38.55000 6.183
38.56000 8.122
38.57000 9.122
38.58000 7.074
38.59000 8.069
38.60000 2.978
38.61000 0.000
38.62000 2.031
38.63000 5.088
38.64000 2.019
38.65000 3.994
38.66000 3.999
38.67000 1.045
38.68000 4.022
38.69000 4.036
38.70000 3.135
38.71000 6.093
38.72000 3.073
38.73000 2.034
38.74000 1.032
38.75000 1.026
38.76000 4.126
38.77000 0.990
38.78000 3.031
38.79000 5.082
38.80000 5.118
38.81000 1.029
38.82000 3.082
38.83000 4.114
38.84000 5.063
38.85000 6.151
38.86000 5.977
38.87000 4.969
38.88000 5.053
38.89000 4.045
38.90000 8.112
38.91000 7.989
38.92000 7.160
38.93000 4.039
38.94000 2.039
38.95000 6.053
38.96000 5.017
38.97000 2.033
38.98000 7.028
38.99000 4.089
39.00000 6.102
39.01000 6.083
39.02000 3.078
39.03000 3.016
39.04000 3.965
39.05000 2.094
39.06000 5.043
39.07000 4.092
39.08000 6.114
39.09000 3.148
39.10000 6.155
39.11000 4.141
39.12000 2.000
39.13000 4.991
39.14000 4.995
39.15000 8.058
39.16000 4.098
39.17000 3.991
39.18000 4.049
39.19000 4.051
39.20000 5.071
39.21000 8.141
39.22000 4.096
39.23000 5.109
39.24000 3.968
39.25000 1.998
39.26000 8.006
39.27000 3.028
39.28000 6.146
39.29000 6.066
39.30000 2.993
39.31000 4.102
39.32000 3.092
39.33000 5.048
39.34000 5.049
39.35000 1.045
39.36000 4.075
39.37000 1.040
39.38000 6.115
39.39000 2.970
39.40000 2.990
39.41000 4.030
39.42000 4.059
39.43000 2.059
39.44000 1.063
39.45000 3.040
39.46000 2.010
39.47000 3.058
39.48000 4.018
39.49000 7.118
39.50000 3.022
39.51000 7.066
39.52000 4.119
39.53000 5.037
39.54000 2.996
39.55000 4.081
39.56000 5.098
39.57000 6.128
39.58000 2.057
39.59000 3.019
39.60000 3.082
39.61000 6.102
39.62000 1.997
39.63000 6.164
39.64000 5.077
39.65000 2.001
39.66000 6.048
39.67000 5.064
39.68000 9.054
39.69000 4.953
39.70000 8.062
39.71000 2.043
39.72000 5.045
39.73000 5.059
39.74000 4.016
39.75000 3.073
39.76000 7.144
39.77000 7.032
39.78000 3.094
39.79000 6.080
39.80000 2.043
39.81000 4.102
39.82000 4.011
39.83000 2.038
39.84000 4.059
39.85000 7.044
39.86000 2.009
39.87000 4.071
39.88000 2.040
39.89000 5.068
39.90000 1.004
39.91000 4.074
39.92000 0.000
39.93000 2.997
39.94000 4.034
39.95000 4.989
39.96000 4.037
39.97000 3.020
39.98000 5.162
39.99000 0.995
40.00000 3.038
40.01000 4.023
40.02000 5.113
40.03000 0.972
40.04000 5.068
40.05000 4.022
40.06000 4.126
40.07000 4.962
40.08000 6.100
40.09000 3.987
40.10000 7.087
40.11000 2.995
40.12000 5.012
40.13000 4.018
40.14000 6.086
40.15000 5.996
40.16000 1.028
40.17000 3.057
40.18000 1.998
40.19000 7.181
40.20000 7.246
40.21000 3.027
40.22000 2.996
40.23000 4.105
40.24000 5.136
40.25000 4.020
40.26000 1.007
40.27000 1.996
40.28000 2.019
40.29000 4.018
40.30000 4.090
40.31000 6.033
40.32000 4.066
40.33000 5.006
40.34000 2.995
40.35000 4.083
40.36000 5.010
40.37000 4.122
40.38000 5.183
40.39000 3.081
40.40000 4.016
40.41000 3.980
40.42000 4.113
40.43000 5.035
40.44000 4.158
40.45000 0.000
40.46000 5.191
40.47000 5.124
40.48000 4.126
40.49000 2.982
40.50000 4.155
40.51000 5.068
40.52000 4.034
40.53000 0.000
40.54000 7.134
40.55000 1.079
40.56000 1.003
40.57000 4.052
40.58000 3.987
40.59000 1.027
40.60000 3.032
40.61000 2.036
40.62000 3.103
40.63000 3.049
40.64000 4.012
40.65000 5.068
40.66000 9.118
40.67000 2.026
40.68000 5.076
40.69000 3.076
40.70000 8.007
40.71000 6.091
40.72000 5.057
40.73000 2.049
40.74000 4.967
40.75000 4.073
40.76000 4.016
40.77000 3.045
40.78000 3.042
40.79000 7.109
40.80000 2.109
40.81000 3.029
40.82000 7.135
40.83000 4.056
40.84000 3.031
40.85000 5.062
40.86000 3.011
40.87000 2.030
40.88000 6.040
40.89000 0.998
40.90000 3.996
40.91000 3.063
40.92000 5.088
40.93000 8.116
40.94000 5.049
40.95000 4.178
40.96000 1.996
40.97000 3.100
40.98000 4.023
40.99000 7.227
41.00000 5.044
41.01000 3.035
41.02000 6.078
41.03000 3.033
41.04000 1.031
41.05000 3.025
41.06000 6.167
41.07000 8.134
41.08000 6.087
41.09000 3.030
41.10000 3.008
41.11000 5.007
41.12000 1.030
41.13000 3.073
41.14000 4.017
41.15000 2.031
41.16000 1.011
41.17000 3.994
41.18000 5.035
41.19000 4.062
41.20000 5.037
41.21000 4.079
41.22000 6.106
41.23000 6.107
41.24000 2.021
41.25000 7.054
41.26000 3.981
41.27000 4.113
41.28000 1.973
41.29000 3.937
41.30000 2.026
41.31000 3.023
41.32000 7.018
41.33000 1.021
41.34000 5.022
41.35000 3.976
41.36000 2.016
41.37000 3.047
41.38000 9.082
41.39000 5.970
41.40000 6.112
41.41000 3.010
41.42000 4.032
41.43000 3.026
41.44000 3.042
41.45000 0.988
41.46000 4.023
41.47000 3.007
41.48000 1.983
41.49000 7.020
41.50000 3.950
41.51000 3.027
41.52000 4.082
41.53000 4.088
41.54000 1.002
41.55000 2.058
41.56000 3.010
41.57000 3.116
41.58000 3.043
41.59000 4.943
41.60000 7.012
41.61000 3.127
41.62000 7.120
41.63000 7.065
41.64000 4.066
41.65000 2.045
41.66000 1.998
41.67000 3.038
41.68000 2.018
41.69000 5.005
41.70000 6.182
41.71000 5.019
41.72000 4.155
41.73000 3.007
41.74000 0.000
41.75000 5.090
41.76000 5.162
41.77000 7.057
41.78000 5.102
41.79000 3.052
41.80000 2.026
41.81000 4.092
41.82000 6.121
41.83000 1.013
41.84000 3.020
41.85000 3.048
41.86000 3.994
41.87000 6.045
41.88000 5.048
41.89000 9.198
41.90000 4.998
41.91000 3.040
41.92000 4.088
41.93000 4.118
41.94000 5.036
41.95000 0.983
41.96000 1.982
41.97000 2.010
41.98000 2.036
41.99000 1.996
42.00000 2.994
42.01000 3.985
42.02000 3.037
42.03000 12.192
42.04000 1.030
42.05000 3.072
42.06000 1.974
42.07000 2.009
42.08000 0.000
42.09000 3.079
42.10000 4.057
42.11000 2.980
42.12000 5.069
42.13000 2.103
42.14000 3.066
42.15000 3.088
42.16000 0.000
42.17000 3.989
42.18000 4.121
42.19000 3.021
42.20000 7.206
42.21000 4.106
42.22000 9.091
42.23000 5.040
42.24000 5.996
42.25000 3.034
42.26000 6.220
42.27000 4.065
42.28000 1.995
42.29000 4.966
42.30000 2.006
42.31000 2.060
42.32000 5.059
42.33000 6.076
42.34000 6.062
42.35000 4.179
42.36000 8.073
42.37000 0.000
42.38000 2.012
42.39000 0.994
42.40000 5.008
42.41000 6.026
42.42000 4.095
42.43000 1.985
42.44000 3.033
42.45000 6.084
42.46000 2.100
42.47000 2.997
42.48000 3.058
42.49000 6.095
42.50000 6.072
42.51000 1.009
42.52000 1.043
42.53000 3.140
42.54000 6.049
42.55000 4.026
42.56000 3.068
42.57000 1.008
42.58000 2.958
42.59000 5.087
42.60000 4.012
42.61000 3.966
42.62000 7.081
42.63000 3.980
42.64000 5.085
42.65000 3.041
42.66000 3.110
42.67000 7.007
42.68000 2.045
42.69000 4.070
42.70000 2.019
42.71000 6.090
42.72000 1.975
42.73000 1.036
42.74000 3.072
42.75000 1.063
42.76000 3.013
42.77000 2.011
42.78000 4.027
42.79000 6.017
42.80000 1.990
42.81000 2.076
42.82000 2.049
42.83000 6.018
42.84000 1.014
42.85000 3.036
42.86000 3.001
42.87000 6.008
42.88000 3.059
42.89000 3.005
42.90000 2.017
42.91000 2.039
42.92000 4.025
42.93000 0.998
42.94000 0.991
42.95000 2.048
42.96000 3.045
42.97000 3.037
42.98000 4.094
42.99000 4.029
43.00000 6.007
43.01000 2.994
43.02000 2.039
43.03000 4.102
43.04000 1.000
43.05000 3.129
43.06000 1.016
43.07000 4.042
43.08000 1.012
43.09000 4.988
43.10000 1.020
43.11000 1.016
43.12000 5.045
43.13000 7.123
43.14000 1.004
43.15000 0.995
43.16000 0.970
43.17000 5.080
43.18000 7.166
43.19000 4.063
43.20000 4.063
43.21000 2.034
43.22000 2.058
43.23000 1.026
43.24000 0.977
43.25000 2.093
43.26000 1.976
43.27000 0.991
43.28000 4.028
43.29000 6.022
43.30000 4.066
43.31000 2.061
43.32000 2.028
43.33000 0.984
43.34000 2.060
43.35000 0.000
43.36000 1.030
43.37000 0.000
43.38000 4.081
43.39000 2.990
43.40000 4.048
43.41000 4.001
43.42000 1.003
43.43000 5.068
43.44000 3.033
43.45000 3.982
43.46000 1.979
43.47000 0.000
43.48000 4.011
43.49000 4.210
43.50000 5.021
43.51000 6.092
43.52000 3.003
43.53000 5.113
43.54000 1.014
43.55000 3.101
43.56000 0.000
43.57000 6.294
43.58000 4.078
43.59000 2.038
43.60000 0.000
43.61000 0.000
43.62000 5.072
43.63000 2.000
43.64000 3.984
43.65000 7.223
43.66000 3.068
43.67000 7.065
43.68000 3.983
43.69000 8.029
43.70000 3.033
43.71000 3.042
43.72000 5.113
43.73000 6.089
43.74000 1.044
43.75000 0.000
43.76000 3.095
43.77000 3.086
43.78000 4.129
43.79000 3.015
43.80000 3.038
43.81000 5.044
43.82000 2.032
43.83000 0.989
43.84000 2.037
43.85000 4.090
43.86000 4.069
43.87000 1.048
43.88000 0.000
43.89000 7.103
43.90000 4.108
43.91000 5.979
43.92000 5.079
43.93000 6.127
43.94000 5.989
43.95000 3.050
43.96000 4.050
43.97000 1.027
43.98000 0.995
43.99000 7.042
44.00000 1.994
44.01000 5.050
44.02000 4.055
44.03000 4.080
44.04000 1.008
44.05000 3.049
44.06000 4.028
44.07000 3.007
44.08000 5.065
44.09000 6.100
44.10000 5.120
44.11000 7.115
44.12000 2.994
44.13000 2.028
44.14000 1.024
44.15000 1.019
44.16000 1.976
44.17000 6.134
44.18000 6.024
44.19000 4.029
44.20000 1.995
44.21000 6.097
44.22000 6.070
44.23000 2.053
44.24000 3.059
44.25000 1.991
44.26000 2.989
44.27000 4.052
44.28000 2.026
44.29000 7.116
44.30000 0.998
44.31000 2.070
44.32000 1.017
44.33000 4.097
44.34000 3.040
44.35000 2.012
44.36000 5.036
44.37000 1.967
44.38000 2.056
44.39000 2.980
44.40000 2.077
44.41000 4.014
44.42000 0.992
44.43000 2.078
44.44000 1.055
44.45000 0.995
44.46000 3.052
44.47000 0.000
44.48000 5.020
44.49000 3.039
44.50000 4.065
44.51000 3.048
44.52000 1.035
44.53000 5.111
44.54000 2.040
44.55000 2.059
44.56000 1.995
44.57000 2.011
44.58000 3.106
44.59000 1.990
44.60000 6.130
44.61000 2.026
44.62000 3.992
44.63000 2.971
44.64000 1.007
44.65000 3.055
44.66000 2.985
44.67000 4.007
44.68000 1.994
44.69000 1.020
44.70000 7.155
44.71000 4.006
44.72000 5.031
44.73000 2.030
44.74000 4.112
44.75000 3.073
44.76000 0.992
44.77000 2.042
44.78000 1.015
44.79000 1.045
44.80000 4.011
44.81000 6.078
44.82000 2.032
44.83000 1.026
44.84000 1.969
44.85000 0.000
44.86000 3.072
44.87000 0.994
44.88000 0.000
44.89000 1.975
44.90000 2.057
44.91000 2.036
44.92000 3.054
44.93000 4.013
44.94000 3.028
44.95000 3.045
44.96000 2.983
44.97000 2.031
44.98000 0.974
44.99000 3.088
45.00000 0.000
45.01000 6.002
45.02000 2.003
45.03000 4.135
45.04000 2.017
45.05000 3.097
45.06000 1.996
45.07000 3.028
45.08000 5.106
45.09000 0.000
45.10000 5.053
45.11000 2.020
45.12000 2.030
45.13000 0.993
45.14000 3.028
45.15000 0.000
45.16000 6.081
45.17000 2.007
45.18000 3.079
45.19000 1.049
45.20000 2.996
45.21000 4.010
45.22000 4.072
45.23000 2.009
45.24000 4.028
45.25000 1.990
45.26000 2.034
45.27000 1.040
45.28000 2.004
45.29000 2.026
45.30000 1.057
45.31000 1.983
45.32000 2.036
45.33000 1.000
45.34000 1.032
45.35000 0.996
45.36000 2.026
45.37000 2.043
45.38000 2.049
45.39000 0.982
45.40000 1.029
45.41000 0.980
45.42000 3.022
45.43000 3.018
45.44000 1.995
45.45000 6.136
45.46000 1.050
45.47000 0.992
45.48000 1.001
45.49000 4.048
45.50000 3.051
45.51000 3.037
45.52000 3.001
45.53000 3.139
45.54000 3.115
45.55000 3.005
45.56000 1.012
45.57000 3.003
45.58000 3.078
45.59000 2.981
45.60000 6.166
45.61000 3.007
45.62000 3.054
45.63000 3.018
45.64000 3.027
45.65000 2.001
45.66000 1.994
45.67000 5.048
45.68000 0.000
45.69000 1.019
45.70000 2.043
45.71000 5.024
45.72000 4.154
45.73000 2.023
45.74000 1.047
45.75000 1.979
45.76000 5.096
45.77000 4.013
45.78000 0.000
45.79000 2.090
45.80000 2.059
45.81000 3.032
45.82000 0.994
45.83000 2.049
45.84000 2.975
45.85000 2.057
45.86000 2.117
45.87000 0.987
45.88000 4.083
45.89000 6.088
45.90000 2.004
45.91000 2.013
45.92000 3.163
45.93000 2.073
45.94000 5.044
45.95000 3.959
45.96000 4.998
45.97000 1.012
45.98000 6.162
45.99000 0.986
46.00000 3.015
46.01000 2.045
46.02000 5.083
46.03000 2.978
46.04000 0.986
46.05000 1.979
46.06000 2.018
46.07000 4.109
46.08000 4.123
46.09000 1.048
46.10000 2.038
46.11000 2.026
46.12000 2.003
46.13000 0.990
46.14000 2.984
46.15000 3.067
46.16000 7.105
46.17000 3.943
46.18000 4.033
46.19000 4.108
46.20000 2.036
46.21000 3.103
46.22000 3.008
46.23000 2.029
46.24000 2.014
46.25000 1.025
46.26000 1.966
46.27000 3.966
46.28000 1.006
46.29000 2.053
46.30000 2.030
46.31000 5.069
46.32000 2.033
46.33000 4.946
46.34000 4.005
46.35000 3.103
46.36000 2.071
46.37000 1.044
46.38000 4.106
46.39000 3.986
46.40000 2.067
46.41000 2.043
46.42000 7.007
46.43000 1.999
46.44000 2.039
46.45000 1.006
46.46000 2.039
46.47000 5.011
46.48000 1.025
46.49000 4.030
46.50000 3.042
46.51000 2.064
46.52000 3.041
46.53000 4.042
46.54000 3.044
46.55000 1.050
46.56000 1.023
46.57000 3.110
46.58000 4.173
46.59000 2.014
46.60000 7.061
46.61000 1.024
46.62000 0.000
46.63000 2.002
46.64000 3.131
46.65000 5.045
46.66000 2.028
46.67000 5.063
46.68000 5.130
46.69000 4.010
46.70000 0.985
46.71000 3.095
46.72000 6.027
46.73000 7.080
46.74000 1.030
46.75000 0.980
46.76000 3.102
46.77000 2.070
46.78000 1.992
46.79000 0.988
46.80000 4.067
46.81000 2.041
46.82000 5.110
46.83000 1.993
46.84000 2.036
46.85000 3.055
46.86000 1.003
46.87000 6.010
46.88000 3.028
46.89000 5.002
46.90000 3.037
46.91000 0.000
46.92000 2.033
46.93000 0.000
46.94000 4.056
46.95000 4.041
46.96000 4.104
46.97000 4.021
46.98000 3.057
46.99000 3.019
47.00000 0.000
47.01000 4.032
47.02000 2.987
47.03000 1.007
47.04000 3.952
47.05000 1.010
47.06000 5.083
47.07000 0.000
47.08000 3.977
47.09000 3.957
47.10000 3.038
47.11000 2.009
47.12000 0.976
47.13000 1.051
47.14000 1.025
47.15000 1.966
47.16000 2.003
47.17000 6.065
47.18000 3.004
47.19000 2.084
47.20000 1.994
47.21000 3.112
47.22000 3.008
47.23000 3.983
47.24000 2.008
47.25000 2.999
47.26000 6.085
47.27000 2.096
47.28000 3.112
47.29000 4.078
47.30000 3.123
47.31000 3.013
47.32000 3.048
47.33000 4.065
47.34000 1.983
47.35000 3.056
47.36000 1.002
47.37000 1.986
47.38000 2.073
47.39000 2.070
47.40000 0.998
47.41000 4.044
47.42000 4.096
47.43000 2.015
47.44000 2.047
47.45000 0.990
47.46000 0.991
47.47000 3.062
47.48000 2.008
47.49000 4.023
47.50000 3.033
47.51000 1.969
47.52000 3.035
47.53000 0.990
47.54000 1.009
47.55000 5.978
47.56000 1.004
47.57000 2.008
47.58000 2.034
47.59000 1.018
47.60000 6.127
47.61000 0.989
47.62000 7.070
47.63000 2.058
47.64000 1.004
47.65000 2.017
47.66000 4.072
47.67000 3.116
47.68000 3.000
47.69000 3.041
47.70000 1.026
47.71000 1.972
47.72000 1.962
47.73000 3.028
47.74000 1.018
47.75000 4.005
47.76000 4.016
47.77000 4.059
47.78000 2.029
47.79000 4.077
47.80000 4.214
47.81000 0.000
47.82000 0.998
47.83000 2.035
47.84000 4.000
47.85000 4.132
47.86000 6.999
47.87000 3.000
47.88000 0.000
47.89000 0.000
47.90000 1.006
47.91000 0.000
47.92000 6.268
47.93000 5.064
47.94000 2.989
47.95000 3.176
47.96000 1.007
47.97000 1.995
47.98000 1.967
47.99000 3.063
48.00000 2.997
48.01000 2.035
48.02000 0.993
48.03000 0.000
48.04000 2.065
48.05000 2.022
48.06000 5.093
48.07000 2.019
48.08000 0.000
48.09000 1.054
48.10000 0.000
48.11000 4.179
48.12000 1.027
48.13000 6.004
48.14000 0.999
48.15000 2.003
48.16000 1.028
48.17000 0.000
48.18000 3.028
48.19000 0.000
48.20000 3.053
48.21000 1.991
48.22000 3.037
48.23000 0.000
48.24000 0.000
48.25000 6.975
48.26000 5.011
48.27000 3.026
48.28000 3.038
48.29000 5.182
48.30000 2.153
48.31000 5.104
48.32000 1.993
48.33000 2.012
48.34000 2.026
48.35000 3.161
48.36000 1.053
48.37000 1.007
48.38000 2.055
48.39000 7.084
48.40000 1.985
48.41000 2.017
48.42000 1.002
48.43000 1.053
48.44000 4.121
48.45000 4.023
48.46000 3.023
48.47000 1.965
48.48000 2.003
48.49000 1.031
48.50000 5.040
48.51000 0.000
48.52000 2.006
48.53000 4.002
48.54000 3.081
48.55000 2.056
48.56000 1.035
48.57000 4.066
48.58000 4.089
48.59000 2.066
48.60000 3.060
48.61000 3.025
48.62000 3.976
48.63000 2.065
48.64000 2.070
48.65000 3.040
48.66000 3.987
48.67000 3.018
48.68000 2.051
48.69000 2.053
48.70000 4.044
48.71000 1.978
48.72000 0.000
48.73000 2.988
48.74000 3.026
48.75000 0.992
48.76000 1.032
48.77000 1.044
48.78000 0.984
48.79000 4.118
48.80000 7.101
48.81000 3.030
48.82000 2.992
48.83000 4.998
48.84000 1.011
48.85000 3.074
48.86000 0.999
48.87000 3.012
48.88000 2.026
48.89000 1.033
48.90000 2.019
48.91000 0.000
48.92000 2.034
48.93000 2.015
48.94000 0.976
48.95000 0.000
48.96000 1.043
48.97000 1.006
48.98000 1.005
48.99000 3.986
49.00000 3.027
49.01000 1.016
49.02000 5.053
49.03000 2.008
49.04000 1.972
49.05000 3.062
49.06000 0.000
49.07000 3.062
49.08000 5.067
49.09000 2.044
49.10000 5.035
49.11000 1.983
49.12000 8.119
49.13000 2.044
49.14000 4.093
49.15000 3.991
49.16000 2.031
49.17000 0.000
49.18000 3.071
49.19000 4.096
49.20000 0.978
49.21000 0.991
49.22000 3.012
49.23000 4.121
49.24000 3.069
49.25000 3.067
49.26000 1.996
49.27000 5.076
49.28000 0.976
49.29000 1.990
49.30000 0.982
49.31000 0.000
49.32000 2.006
49.33000 3.036
49.34000 0.989
49.35000 2.076
49.36000 2.018
49.37000 2.025
49.38000 4.060
49.39000 2.933
49.40000 1.948
49.41000 2.029
49.42000 0.999
49.43000 4.001
49.44000 0.000
49.45000 0.000
49.46000 1.999
49.47000 1.005
49.48000 1.023
49.49000 0.000
49.50000 2.026
49.51000 0.000
49.52000 0.995
49.53000 0.986
49.54000 6.060
49.55000 4.078
49.56000 3.081
49.57000 1.001
49.58000 3.016
49.59000 2.070
49.60000 0.980
49.61000 2.032
49.62000 2.022
49.63000 2.048
49.64000 4.096
49.65000 2.007
49.66000 3.059
49.67000 3.011
49.68000 2.964
49.69000 2.021
49.70000 2.036
49.71000 1.029
49.72000 2.088
49.73000 2.014
49.74000 0.000
49.75000 0.996
49.76000 2.051
49.77000 2.101
49.78000 5.157
49.79000 2.967
49.80000 4.053
49.81000 3.014
49.82000 1.993
49.83000 4.005
49.84000 2.009
49.85000 1.995
49.86000 2.013
49.87000 4.130
49.88000 2.091
49.89000 0.000
49.90000 3.041
49.91000 2.022
49.92000 0.000
49.93000 2.005
49.94000 4.055
49.95000 2.023
49.96000 1.985
49.97000 4.078
49.98000 6.029
49.99000 2.044
50.00000 1.017
50.01000 2.018
50.02000 0.983
50.03000 1.020
50.04000 0.995
50.05000 0.980
50.06000 0.000
50.07000 1.045
50.08000 3.073
50.09000 1.005
50.10000 3.075
50.11000 3.009
50.12000 0.000
50.13000 1.067
50.14000 3.034
50.15000 1.013
50.16000 2.054
50.17000 2.016
50.18000 1.991
50.19000 1.009
50.20000 3.063
50.21000 3.021
50.22000 2.051
50.23000 0.983
50.24000 2.037
50.25000 3.076
50.26000 1.004
50.27000 0.992
50.28000 1.009
50.29000 0.990
50.30000 1.028
50.31000 0.990
50.32000 3.037
50.33000 1.037
50.34000 3.036
50.35000 2.038
50.36000 3.079
50.37000 2.035
50.38000 1.031
50.39000 0.995
50.40000 1.976
50.41000 0.000
50.42000 2.976
50.43000 1.012
50.44000 1.013
50.45000 3.053
50.46000 0.993
50.47000 2.965
50.48000 2.059
50.49000 1.043
50.50000 0.000
50.51000 0.999
50.52000 2.008
50.53000 0.000
50.54000 1.987
50.55000 1.023
50.56000 0.000
50.57000 3.044
50.58000 4.030
50.59000 0.991
50.60000 1.049
50.61000 2.094
50.62000 1.025
50.63000 3.069
50.64000 3.027
50.65000 1.012
50.66000 7.153
50.67000 1.998
50.68000 2.068
50.69000 5.049
50.70000 2.002
50.71000 1.984
50.72000 4.180
50.73000 3.118
50.74000 3.031
50.75000 3.069
50.76000 1.047
50.77000 4.080
50.78000 2.014
50.79000 0.987
50.80000 0.000
50.81000 0.000
50.82000 2.043
50.83000 4.135
50.84000 1.031
50.85000 2.010
50.86000 4.097
50.87000 0.000
50.88000 0.000
50.89000 1.028
50.90000 3.053
50.91000 3.006
50.92000 2.079
50.93000 2.017
50.94000 2.016
50.95000 3.083
50.96000 3.143
50.97000 2.055
50.98000 5.030
50.99000 0.000
51.00000 0.997
51.01000 0.000
51.02000 0.000
51.03000 1.993
51.04000 3.007
51.05000 1.005
51.06000 2.004
51.07000 1.975
51.08000 0.000
51.09000 0.000
51.10000 0.000
51.11000 5.138
51.12000 2.027
51.13000 1.011
51.14000 8.138
51.15000 5.052
51.16000 1.080
51.17000 3.036
51.18000 0.994
51.19000 2.033
51.20000 3.011
51.21000 0.000
51.22000 4.111
51.23000 1.002
51.24000 0.000
51.25000 2.004
51.26000 1.991
51.27000 1.993
51.28000 0.000
51.29000 2.985
51.30000 2.056
51.31000 0.986
51.32000 4.081
51.33000 0.000
51.34000 1.007
51.35000 1.038
51.36000 3.036
51.37000 0.000
51.38000 4.025
51.39000 2.011
51.40000 2.043
51.41000 0.984
51.42000 1.048
51.43000 4.047
51.44000 0.000
51.45000 2.059
51.46000 1.018
51.47000 0.992
51.48000 0.977
51.49000 0.000
51.50000 0.000
51.51000 0.986
51.52000 1.025
51.53000 2.001
51.54000 1.029
51.55000 2.025
51.56000 2.019
51.57000 2.032
51.58000 3.101
51.59000 2.006
51.60000 1.046
51.61000 4.011
51.62000 2.993
51.63000 0.989
51.64000 6.151
51.65000 0.998
51.66000 2.989
51.67000 0.995
51.68000 0.000
51.69000 2.031
51.70000 4.021
51.71000 2.013
51.72000 3.065
51.73000 3.097
51.74000 1.002
51.75000 2.983
51.76000 0.967
51.77000 3.051
51.78000 1.001
51.79000 4.049
51.80000 6.038
51.81000 1.979
51.82000 6.102
51.83000 2.024
51.84000 3.035
51.85000 1.977
51.86000 2.067
51.87000 1.982
51.88000 3.002
51.89000 2.003
51.90000 0.000
51.91000 5.062
51.92000 1.003
51.93000 1.997
51.94000 3.059
51.95000 0.000
51.96000 2.051
51.97000 0.000
51.98000 2.032
51.99000 5.147
52.00000 2.048
52.01000 2.011
52.02000 2.052
52.03000 4.110
52.04000 3.100
52.05000 2.082
52.06000 1.031
52.07000 2.069
52.08000 1.020
52.09000 3.146
52.10000 1.003
52.11000 4.048
52.12000 2.981
52.13000 2.035
52.14000 4.029
52.15000 2.024
52.16000 0.976
52.17000 2.032
52.18000 0.000
52.19000 2.003
52.20000 0.000
52.21000 4.068
52.22000 0.992
52.23000 3.058
52.24000 1.031
52.25000 0.000
52.26000 1.012
52.27000 0.988
52.28000 1.023
52.29000 3.041
52.30000 2.005
52.31000 2.024
52.32000 1.980
52.33000 7.116
52.34000 2.077
52.35000 0.995
52.36000 0.000
52.37000 2.009
52.38000 2.033
52.39000 0.000
52.40000 2.987
52.41000 0.982
52.42000 3.067
52.43000 5.024
52.44000 0.000
52.45000 4.123
52.46000 0.000
52.47000 4.040
52.48000 4.059
52.49000 1.048
52.50000 0.000
52.51000 1.045
52.52000 2.974
52.53000 0.970
52.54000 1.081
52.55000 2.002
52.56000 2.008
52.57000 1.979
52.58000 6.063
52.59000 2.099
52.60000 1.004
52.61000 2.005
52.62000 0.000
52.63000 0.982
52.64000 1.048
52.65000 0.000
52.66000 3.014
52.67000 0.000
52.68000 1.025
52.69000 0.981
52.70000 1.009
52.71000 3.056
52.72000 1.999
52.73000 6.076
52.74000 3.026
52.75000 5.099
52.76000 0.989
52.77000 2.007
52.78000 4.004
52.79000 2.012
52.80000 4.997
52.81000 0.995
52.82000 3.104
52.83000 1.029
52.84000 3.065
52.85000 2.064
52.86000 1.014
52.87000 1.011
52.88000 2.036
52.89000 2.053
52.90000 5.992
52.91000 4.057
52.92000 0.000
52.93000 2.024
52.94000 3.974
52.95000 1.991
52.96000 3.027
52.97000 1.047
52.98000 0.000
52.99000 0.969
53.00000 9.187
53.01000 2.025
53.02000 1.011
53.03000 1.000
53.04000 5.163
53.05000 2.022
53.06000 1.006
53.07000 3.034
53.08000 3.006
53.09000 3.016
53.10000 3.955
53.11000 2.050
53.12000 2.996
53.13000 1.042
53.14000 1.027
53.15000 0.000
53.16000 0.000
53.17000 1.016
53.18000 4.113
53.19000 2.012
53.20000 1.996
53.21000 0.000
53.22000 2.029
53.23000 1.005
53.24000 0.000
53.25000 4.015
53.26000 0.000
53.27000 2.050
53.28000 2.031
53.29000 2.069
53.30000 0.994
53.31000 1.002
53.32000 1.010
53.33000 0.984
53.34000 0.988
53.35000 1.979
53.36000 4.034
53.37000 2.006
53.38000 1.037
53.39000 4.983
53.40000 0.995
53.41000 0.000
53.42000 4.053
53.43000 1.040
53.44000 2.008
53.45000 4.041
53.46000 0.000
53.47000 2.001
53.48000 3.080
53.49000 2.043
53.50000 3.020
53.51000 1.030
53.52000 2.019
53.53000 2.009
53.54000 0.969
53.55000 1.044
53.56000 1.022
53.57000 0.984
53.58000 1.016
53.59000 2.038
53.60000 0.000
53.61000 0.996
53.62000 3.037
53.63000 0.000
53.64000 0.000
53.65000 0.996
53.66000 3.029
53.67000 1.002
53.68000 6.112
53.69000 2.046
53.70000 1.041
53.71000 0.991
53.72000 4.100
53.73000 4.080
53.74000 1.030
53.75000 4.041
53.76000 3.032
53.77000 0.000
53.78000 4.074
53.79000 1.022
53.80000 0.980
53.81000 1.043
53.82000 2.006
53.83000 0.000
53.84000 1.997
53.85000 0.000
53.86000 1.080
53.87000 0.000
53.88000 0.000
53.89000 4.028
53.90000 2.044
53.91000 2.088
53.92000 1.972
53.93000 0.996
53.94000 1.046
53.95000 1.992
53.96000 0.000
53.97000 1.099
53.98000 0.000
53.99000 0.959
54.00000 0.000
54.01000 0.000
54.02000 1.057
54.03000 1.031
54.04000 2.059
54.05000 5.046
54.06000 0.992
54.07000 1.000
54.08000 1.006
54.09000 5.039
54.10000 1.002
54.11000 1.007
54.12000 2.057
54.13000 0.000
54.14000 1.999
54.15000 1.081
54.16000 1.030
54.17000 3.004
54.18000 2.032
54.19000 0.000
54.20000 1.039
54.21000 0.989
54.22000 3.054
54.23000 1.005
54.24000 2.999
54.25000 0.000
54.26000 3.020
54.27000 1.041
54.28000 0.000
54.29000 2.031
54.30000 0.000
54.31000 0.988
54.32000 1.051
54.33000 0.986
54.34000 0.000
54.35000 2.035
54.36000 1.019
54.37000 3.995
54.38000 4.043
54.39000 0.999
54.40000 0.000
54.41000 3.027
54.42000 1.011
54.43000 5.106
54.44000 3.063
54.45000 1.004
54.46000 0.974
54.47000 4.035
54.48000 2.027
54.49000 1.994
54.50000 3.117
54.51000 1.016
54.52000 0.000
54.53000 2.020
54.54000 1.025
54.55000 2.965
54.56000 1.007
54.57000 5.001
54.58000 1.003
54.59000 0.000
54.60000 0.000
54.61000 2.097
54.62000 4.013
54.63000 3.023
54.64000 0.992
54.65000 3.121
54.66000 1.040
54.67000 3.054
54.68000 0.000
54.69000 3.983
54.70000 0.987
54.71000 1.011
54.72000 3.048
54.73000 2.016
54.74000 0.000
54.75000 2.100
54.76000 0.986
54.77000 0.000
54.78000 2.063
54.79000 0.986
54.80000 1.036
54.81000 0.996
54.82000 3.011
54.83000 4.990
54.84000 0.974
54.85000 0.000
54.86000 0.000
54.87000 3.022
54.88000 2.005
54.89000 1.998
54.90000 1.025
54.91000 2.020
54.92000 2.070
54.93000 3.112
54.94000 3.115
54.95000 1.047
54.96000 1.005
54.97000 2.083
54.98000 0.000
54.99000 6.125
55.00000 1.024
55.01000 2.003
55.02000 0.000
55.03000 0.975
55.04000 1.020
55.05000 2.027
55.06000 2.971
55.07000 2.010
55.08000 1.041
55.09000 1.011
55.10000 3.071
55.11000 0.978
55.12000 1.015
55.13000 1.998
55.14000 2.025
55.15000 1.034
55.16000 1.994
55.17000 0.000
55.18000 1.961
55.19000 1.016
55.20000 4.054
55.21000 3.065
55.22000 6.227
55.23000 2.040
55.24000 4.074
55.25000 2.076
55.26000 1.038
55.27000 2.064
55.28000 1.016
55.29000 5.002
55.30000 1.009
55.31000 1.001
55.32000 1.990
55.33000 2.008
55.34000 2.014
55.35000 3.055
55.36000 1.036
55.37000 1.006
55.38000 2.021
55.39000 0.000
55.40000 0.998
55.41000 2.009
55.42000 1.021
55.43000 1.010
55.44000 0.000
55.45000 3.109
55.46000 1.014
55.47000 4.079
55.48000 3.011
55.49000 1.027
55.50000 3.043
55.51000 4.065
55.52000 2.007
55.53000 2.096
55.54000 2.046
55.55000 2.053
55.56000 2.042
55.57000 1.026
55.58000 2.017
55.59000 0.000
55.60000 2.072
55.61000 1.993
55.62000 6.126
55.63000 4.015
55.64000 0.000
55.65000 1.039
55.66000 1.016
55.67000 1.985
55.68000 0.000
55.69000 0.000
55.70000 2.984
55.71000 0.000
55.72000 2.064
55.73000 0.000
55.74000 0.978
55.75000 1.031
55.76000 1.044
55.77000 2.087
55.78000 2.034
55.79000 1.011
55.80000 0.999
55.81000 1.028
55.82000 1.995
55.83000 0.000
55.84000 3.036
55.85000 3.060
55.86000 1.000
55.87000 3.966
55.88000 1.990
55.89000 2.025
55.90000 6.074
55.91000 2.067
55.92000 0.982
55.93000 3.001
55.94000 0.000
55.95000 2.020
55.96000 0.982
55.97000 0.994
55.98000 6.037
55.99000 0.000
56.00000 3.006
56.01000 0.000
56.02000 2.098
56.03000 1.000
56.04000 0.991
56.05000 1.010
56.06000 0.000
56.07000 1.047
56.08000 4.011
56.09000 2.071
56.10000 0.984
56.11000 0.987
56.12000 3.012
56.13000 1.003
56.14000 1.002
56.15000 1.014
56.16000 1.060
56.17000 3.009
56.18000 0.000
56.19000 0.000
56.20000 2.003
56.21000 5.099
56.22000 1.996
56.23000 3.050
56.24000 1.024
56.25000 2.948
56.26000 1.029
56.27000 0.973
56.28000 2.076
56.29000 1.004
56.30000 2.991
56.31000 3.024
56.32000 1.015
56.33000 0.000
56.34000 0.000
56.35000 3.001
56.36000 0.000
56.37000 0.977
56.38000 2.003
56.39000 0.000
56.40000 0.000
56.41000 2.053
56.42000 3.050
56.43000 1.029
56.44000 1.024
56.45000 6.076
56.46000 3.052
56.47000 3.064
56.48000 0.976
56.49000 1.004
56.50000 0.989
56.51000 2.032
56.52000 1.036
56.53000 3.065
56.54000 1.069
56.55000 2.026
56.56000 1.988
56.57000 3.087
56.58000 0.000
56.59000 0.995
56.60000 0.000
56.61000 2.027
56.62000 0.000
56.63000 2.022
56.64000 2.041
56.65000 5.111
56.66000 1.028
56.67000 3.027
56.68000 2.016
56.69000 2.005
56.70000 2.025
56.71000 1.022
56.72000 0.000
56.73000 3.008
56.74000 2.021
56.75000 1.033
56.76000 2.116
56.77000 1.986
56.78000 0.984
56.79000 2.049
56.80000 4.053
56.81000 0.000
56.82000 1.017
56.83000 0.000
56.84000 2.043
56.85000 3.021
56.86000 0.000
56.87000 0.000
56.88000 0.000
56.89000 0.000
56.90000 2.073
56.91000 0.000
56.92000 3.055
56.93000 2.028
56.94000 1.998
56.95000 4.055
56.96000 0.000
56.97000 1.048
56.98000 2.003
56.99000 1.990
57.00000 0.000
57.01000 0.000
57.02000 2.032
57.03000 0.994
57.04000 2.039
57.05000 0.973
57.06000 2.039
57.07000 1.034
57.08000 0.990
57.09000 0.000
57.10000 1.036
57.11000 1.988
57.12000 1.033
57.13000 2.083
57.14000 2.080
57.15000 2.002
57.16000 0.998
57.17000 3.051
57.18000 1.024
57.19000 0.000
57.20000 3.020
57.21000 1.040
57.22000 2.004
57.23000 4.080
57.24000 2.028
57.25000 1.004
57.26000 0.989
57.27000 0.000
57.28000 0.000
57.29000 0.000
57.30000 0.000
57.31000 0.985
57.32000 0.000
57.33000 0.976
57.34000 4.064
57.35000 0.999
57.36000 4.068
57.37000 3.064
57.38000 1.061
57.39000 0.991
57.40000 2.023
57.41000 0.000
57.42000 5.057
57.43000 0.000
57.44000 0.000
57.45000 0.000
57.46000 0.997
57.47000 0.984
57.48000 3.007
57.49000 3.007
57.50000 3.066
57.51000 2.001
57.52000 1.013
57.53000 3.135
57.54000 1.044
57.55000 2.114
57.56000 1.029
57.57000 2.988
57.58000 1.005
57.59000 0.999
57.60000 2.065
57.61000 2.048
57.62000 4.013
57.63000 3.066
57.64000 4.117
57.65000 2.042
57.66000 0.000
57.67000 2.051
57.68000 2.049
57.69000 3.070
57.70000 2.063
57.71000 2.053
57.72000 1.016
57.73000 1.023
57.74000 5.110
57.75000 1.003
57.76000 0.969
57.77000 2.036
57.78000 3.044
57.79000 1.980
57.80000 2.017
57.81000 1.015
57.82000 3.077
57.83000 1.011
57.84000 1.016
57.85000 3.054
57.86000 3.059
57.87000 4.085
57.88000 1.007
57.89000 6.065
57.90000 1.002
57.91000 4.055
57.92000 1.013
57.93000 3.047
57.94000 2.067
57.95000 3.034
57.96000 1.032
57.97000 3.071
57.98000 1.012
57.99000 2.047
58.00000 0.000
58.01000 1.999
58.02000 0.000
58.03000 1.005
58.04000 2.007
58.05000 2.008
58.06000 2.999
58.07000 4.059
58.08000 1.012
58.09000 0.999
58.10000 1.994
58.11000 3.004
58.12000 1.053
58.13000 0.000
58.14000 2.009
58.15000 1.032
58.16000 3.073
58.17000 2.010
58.18000 2.003
58.19000 0.000
58.20000 2.128
58.21000 0.000
58.22000 3.005
58.23000 0.000
58.24000 0.000
58.25000 1.020
58.26000 1.996
58.27000 1.005
58.28000 0.000
58.29000 0.000
58.30000 2.038
58.31000 0.000
58.32000 2.043
58.33000 1.020
58.34000 2.033
58.35000 2.041
58.36000 2.020
58.37000 4.089
58.38000 1.996
58.39000 2.040
58.40000 2.037
58.41000 0.000
58.42000 1.058
58.43000 1.031
58.44000 3.030
58.45000 1.013
58.46000 1.010
58.47000 0.995
58.48000 2.038
58.49000 1.033
58.50000 1.984
58.51000 1.023
58.52000 1.010
58.53000 2.047
58.54000 0.000
58.55000 1.016
58.56000 4.050
58.57000 0.984
58.58000 3.014
58.59000 2.005
58.60000 1.980
58.61000 0.000
58.62000 0.000
58.63000 2.063
58.64000 0.000
58.65000 0.000
58.66000 2.041
58.67000 1.984
58.68000 3.982
58.69000 3.077
58.70000 1.023
58.71000 2.028
58.72000 1.049
58.73000 0.000
58.74000 0.000
58.75000 2.987
58.76000 0.000
58.77000 9.031
58.78000 0.000
58.79000 0.000
58.80000 0.000
58.81000 0.980
58.82000 0.000
58.83000 1.012
58.84000 4.070
58.85000 3.088
58.86000 1.016
58.87000 1.024
58.88000 2.029
58.89000 0.998
58.90000 3.130
58.91000 2.012
58.92000 0.000
58.93000 0.000
58.94000 4.029
58.95000 3.025
58.96000 1.014
58.97000 0.995
58.98000 2.015
58.99000 2.053
59.00000 4.080
59.01000 0.000
59.02000 2.029
59.03000 0.000
59.04000 1.981
59.05000 2.031
59.06000 1.049
59.07000 0.000
59.08000 1.993
59.09000 1.004
59.10000 3.031
59.11000 4.138
59.12000 2.023
59.13000 3.027
59.14000 0.987
59.15000 0.980
59.16000 3.034
59.17000 2.044
59.18000 2.034
59.19000 0.000
59.20000 1.987
59.21000 2.031
59.22000 0.996
59.23000 2.007
59.24000 4.072
59.25000 3.044
59.26000 2.019
59.27000 0.000
59.28000 2.988
59.29000 0.977
59.30000 4.057
59.31000 0.000
59.32000 0.989
59.33000 0.000
59.34000 3.059
59.35000 1.047
59.36000 1.051
59.37000 1.028
59.38000 0.000
59.39000 0.992
59.40000 3.063
59.41000 0.000
59.42000 2.011
59.43000 0.000
59.44000 1.020
59.45000 1.053
59.46000 2.045
59.47000 2.956
59.48000 3.023
59.49000 0.000
59.50000 1.023
59.51000 2.023
59.52000 2.018
59.53000 1.962
59.54000 2.037
59.55000 0.991
59.56000 1.000
59.57000 2.038
59.58000 0.996
59.59000 0.000
59.60000 4.139
59.61000 3.001
59.62000 2.003
59.63000 1.046
59.64000 2.973
59.65000 3.025
59.66000 1.979
59.67000 4.047
59.68000 1.977
59.69000 0.976
59.70000 0.994
59.71000 0.000
59.72000 1.971
59.73000 1.043
59.74000 3.033
59.75000 0.000
59.76000 1.005
59.77000 2.039
59.78000 0.000
59.79000 0.979
59.80000 1.007
59.81000 1.991
59.82000 3.050
59.83000 1.060
59.84000 1.014
59.85000 2.044
59.86000 2.022
59.87000 2.051
59.88000 4.085
59.89000 0.000
59.90000 1.022
59.91000 3.007
59.92000 0.000
59.93000 0.000
59.94000 4.019
59.95000 1.048
59.96000 1.999
59.97000 2.123
59.98000 0.995
59.99000 3.957
60.00000 1.062
60.01000 3.091
60.02000 2.000
60.03000 3.000
60.04000 4.009
60.05000 2.051
60.06000 2.008
60.07000 0.000
60.08000 1.018
60.09000 3.106
60.10000 0.999
60.11000 0.000
60.12000 0.000
60.13000 2.002
60.14000 1.014
60.15000 0.000
60.16000 4.088
60.17000 2.010
60.18000 2.010
60.19000 0.000
60.20000 0.000
60.21000 2.022
60.22000 2.085
60.23000 3.065
60.24000 0.000
60.25000 3.968
60.26000 0.000
60.27000 1.022
60.28000 1.002
60.29000 1.003
60.30000 2.004
60.31000 1.050
60.32000 2.011
60.33000 0.993
60.34000 3.071
60.35000 2.081
60.36000 0.989
60.37000 3.073
60.38000 1.036
60.39000 0.000
60.40000 5.077
60.41000 2.968
60.42000 2.012
60.43000 1.008
60.44000 2.029
60.45000 0.995
60.46000 3.059
60.47000 3.020
60.48000 2.054
60.49000 1.034
60.50000 1.001
60.51000 1.003
60.52000 3.068
60.53000 3.026
60.54000 1.006
60.55000 2.012
60.56000 0.000
60.57000 2.010
60.58000 0.000
60.59000 2.032
60.60000 2.054
60.61000 2.995
60.62000 4.037
60.63000 1.000
60.64000 0.000
60.65000 2.079
60.66000 0.000
60.67000 4.079
60.68000 1.001
60.69000 4.033
60.70000 1.991
60.71000 1.044
60.72000 1.013
60.73000 1.045
60.74000 1.024
60.75000 1.998
60.76000 0.995
60.77000 0.988
60.78000 5.135
60.79000 3.015
60.80000 1.034
60.81000 0.983
60.82000 3.033
60.83000 1.074
60.84000 3.072
60.85000 4.119
60.86000 0.000
60.87000 1.009
60.88000 1.035
60.89000 2.029
60.90000 2.011
60.91000 3.933
60.92000 4.028
60.93000 1.008
60.94000 3.058
60.95000 1.013
60.96000 1.024
60.97000 1.978
60.98000 1.013
60.99000 2.005
61.00000 2.005
61.01000 1.029
61.02000 0.000
61.03000 1.947
61.04000 3.155
61.05000 1.996
61.06000 1.965
61.07000 0.000
61.08000 5.015
61.09000 2.069
61.10000 1.027
61.11000 0.000
61.12000 0.000
61.13000 1.999
61.14000 2.011
61.15000 0.985
61.16000 2.014
61.17000 2.026
61.18000 1.970
61.19000 1.020
61.20000 0.000
61.21000 0.000
61.22000 1.033
61.23000 1.031
61.24000 0.997
61.25000 1.059
61.26000 0.962
61.27000 1.043
61.28000 0.980
61.29000 1.013
61.30000 3.085
61.31000 0.988
61.32000 3.063
61.33000 0.000
61.34000 1.005
61.35000 0.000
61.36000 0.000
61.37000 1.118
61.38000 2.090
61.39000 2.014
61.40000 2.033
61.41000 0.000
61.42000 3.053
61.43000 5.086
61.44000 0.999
61.45000 3.101
61.46000 0.000
61.47000 0.000
61.48000 0.993
61.49000 0.000
61.50000 0.000
61.51000 0.000
61.52000 1.996
61.53000 1.017
61.54000 0.996
61.55000 1.986
61.56000 2.012
61.57000 2.047
61.58000 1.027
61.59000 0.000
61.60000 0.000
61.61000 4.007
61.62000 0.000
61.63000 1.014
61.64000 2.014
61.65000 0.000
61.66000 1.025
61.67000 1.993
61.68000 0.980
61.69000 1.011
61.70000 0.975
61.71000 1.969
61.72000 0.978
61.73000 0.000
61.74000 0.973
61.75000 0.000
61.76000 0.000
61.77000 1.048
61.78000 1.975
61.79000 4.011
61.80000 2.071
61.81000 0.000
61.82000 0.000
61.83000 1.030
61.84000 4.038
61.85000 1.009
61.86000 1.989
61.87000 1.985
61.88000 0.000
61.89000 0.989
61.90000 1.975
61.91000 0.993
61.92000 1.015
61.93000 1.993
61.94000 0.000
61.95000 2.041
61.96000 0.979
61.97000 2.020
61.98000 0.000
61.99000 2.015
62.00000 0.000
62.01000 1.013
62.02000 0.978
62.03000 0.000
62.04000 2.074
62.05000 1.959
62.06000 3.007
62.07000 2.008
62.08000 2.004
62.09000 2.046
62.10000 2.005
62.11000 0.000
62.12000 0.000
62.13000 1.016
62.14000 1.004
62.15000 0.993
62.16000 3.054
62.17000 0.000
62.18000 0.996
62.19000 1.017
62.20000 5.143
62.21000 3.063
62.22000 0.990
62.23000 0.000
62.24000 3.025
62.25000 0.000
62.26000 1.019
62.27000 1.994
62.28000 1.986
62.29000 4.106
62.30000 0.000
62.31000 3.048
62.32000 2.039
62.33000 0.986
62.34000 0.981
62.35000 3.053
62.36000 0.000
62.37000 4.005
62.38000 0.994
62.39000 0.976
62.40000 3.107
62.41000 3.095
62.42000 0.000
62.43000 0.984
62.44000 4.071
62.45000 1.047
62.46000 0.969
62.47000 0.000
62.48000 0.991
62.49000 3.002
62.50000 1.985
62.51000 0.000
62.52000 5.021
62.53000 4.075
62.54000 1.027
62.55000 0.000
62.56000 2.063
62.57000 1.046
62.58000 2.992
62.59000 3.079
62.60000 3.035
62.61000 0.000
62.62000 1.052
62.63000 5.095
62.64000 2.109
62.65000 1.996
62.66000 4.076
62.67000 3.062
62.68000 0.000
62.69000 0.000
62.70000 3.099
62.71000 2.011
62.72000 0.991
62.73000 2.033
62.74000 2.975
62.75000 0.000
62.76000 0.990
62.77000 1.005
62.78000 1.005
62.79000 1.975
62.80000 2.028
62.81000 3.114
62.82000 0.000
62.83000 0.000
62.84000 3.052
62.85000 0.997
62.86000 4.019
62.87000 0.000
62.88000 1.025
62.89000 4.091
62.90000 1.013
62.91000 2.993
62.92000 0.991
62.93000 2.059
62.94000 0.995
62.95000 2.014
62.96000 1.040
62.97000 1.994
62.98000 0.000
62.99000 0.000
63.00000 1.022
63.01000 2.021
63.02000 0.000
63.03000 2.075
63.04000 0.000
63.05000 2.988
63.06000 2.031
63.07000 1.003
63.08000 1.030
63.09000 2.026
63.10000 0.000
63.11000 0.998
63.12000 2.099
63.13000 1.982
63.14000 0.000
63.15000 2.058
63.16000 2.075
63.17000 0.973
63.18000 2.030
63.19000 2.030
63.20000 1.016
63.21000 0.998
63.22000 1.040
63.23000 1.034
63.24000 2.040
63.25000 0.000
63.26000 1.013
63.27000 0.960
63.28000 2.028
63.29000 0.996
63.30000 3.055
63.31000 2.007
63.32000 1.009
63.33000 1.031
63.34000 1.018
63.35000 2.123
63.36000 1.975
63.37000 2.086
63.38000 0.996
63.39000 2.072
63.40000 0.000
63.41000 0.000
63.42000 3.012
63.43000 0.996
63.44000 2.035
63.45000 2.972
63.46000 0.000
63.47000 2.047
63.48000 4.062
63.49000 7.043
63.50000 3.092
63.51000 0.967
63.52000 1.022
63.53000 1.003
63.54000 1.066
63.55000 0.984
63.56000 0.000
63.57000 3.048
63.58000 4.093
63.59000 1.025
63.60000 2.020
63.61000 1.013
63.62000 0.000
63.63000 0.993
63.64000 0.998
63.65000 0.000
63.66000 2.037
63.67000 1.006
63.68000 1.032
63.69000 3.021
63.70000 2.006
63.71000 1.997
63.72000 1.007
63.73000 3.093
63.74000 0.000
63.75000 1.987
63.76000 0.982
63.77000 0.000
63.78000 0.984
63.79000 0.990
63.80000 1.956
63.81000 3.029
63.82000 0.000
63.83000 0.000
63.84000 6.023
63.85000 0.000
63.86000 2.008
63.87000 1.005
63.88000 0.000
63.89000 0.000
63.90000 2.065
63.91000 3.072
63.92000 0.000
63.93000 1.039
63.94000 3.034
63.95000 1.033
63.96000 6.195
63.97000 2.028
63.98000 2.026
63.99000 0.971
64.00000 0.988
64.01000 0.000
64.02000 4.007
64.03000 2.061
64.04000 2.992
64.05000 0.000
64.06000 0.000
64.07000 1.035
64.08000 2.034
64.09000 0.000
64.10000 0.000
64.11000 1.000
64.12000 4.014
64.13000 2.042
64.14000 0.999
64.15000 1.979
64.16000 2.049
64.17000 4.014
64.18000 1.008
64.19000 2.059
64.20000 1.033
64.21000 2.007
64.22000 0.000
64.23000 2.000
64.24000 2.031
64.25000 0.000
64.26000 3.046
64.27000 0.000
64.28000 4.035
64.29000 0.000
64.30000 2.055
64.31000 1.007
64.32000 3.054
64.33000 0.984
64.34000 1.998
64.35000 0.997
64.36000 1.011
64.37000 2.035
64.38000 0.000
64.39000 1.016
64.40000 2.001
64.41000 2.017
64.42000 4.089
64.43000 0.989
64.44000 2.052
64.45000 0.000
64.46000 3.004
64.47000 5.124
64.48000 0.000
64.49000 1.031
64.50000 3.993
64.51000 3.025
64.52000 0.993
64.53000 1.010
64.54000 1.001
64.55000 4.032
64.56000 1.025
64.57000 3.035
64.58000 1.000
64.59000 1.945
64.60000 5.003
64.61000 2.052
64.62000 1.993
64.63000 1.043
64.64000 0.000
64.65000 1.006
64.66000 1.000
64.67000 3.063
64.68000 0.000
64.69000 0.984
64.70000 4.036
64.71000 1.006
64.72000 4.033
64.73000 0.000
64.74000 4.054
64.75000 0.000
64.76000 3.065
64.77000 2.971
64.78000 2.962
64.79000 0.995
64.80000 0.997
64.81000 2.041
64.82000 1.998
64.83000 0.000
64.84000 0.996
64.85000 2.980
64.86000 1.013
64.87000 0.992
64.88000 0.000
64.89000 0.000
64.90000 0.997
64.91000 1.001
64.92000 1.006
64.93000 3.068
64.94000 2.968
64.95000 1.991
64.96000 1.986
64.97000 0.991
64.98000 1.018
64.99000 0.986
65.00000 1.025
