20.00000 21.379
20.01000 21.243
20.02000 14.288
20.03000 22.240
20.04000 22.233
20.05000 18.225
20.06000 17.166
20.07000 19.360
20.08000 18.134
20.09000 13.176
20.10000 11.170
20.11000 13.283
20.12000 19.222
20.13000 19.275
20.14000 17.249
20.15000 21.512
20.16000 14.134
20.17000 27.384
20.18000 13.050
20.19000 30.367
20.20000 14.192
20.21000 21.168
20.22000 17.223
20.23000 20.026
20.24000 14.184
20.25000 23.359
20.26000 15.341
20.27000 13.161
20.28000 27.381
20.29000 15.230
20.30000 23.368
20.31000 19.365
20.32000 22.146
20.33000 13.970
20.34000 20.198
20.35000 9.064
20.36000 22.203
20.37000 19.115
20.38000 15.179
20.39000 16.336
20.40000 24.281
20.41000 14.183
20.42000 17.306
20.43000 16.216
20.44000 19.363
20.45000 20.129
20.46000 15.178
20.47000 17.332
20.48000 21.221
20.49000 15.105
20.50000 15.261
20.51000 25.352
20.52000 17.134
20.53000 23.384
20.54000 16.240
20.55000 16.091
20.56000 26.479
20.57000 20.301
20.58000 22.153
20.59000 20.183
20.60000 17.247
20.61000 18.254
20.62000 23.198
20.63000 18.267
20.64000 25.321
20.65000 20.107
20.66000 16.081
20.67000 23.296
20.68000 19.318
20.69000 24.203
20.70000 8.111
20.71000 20.349
20.72000 10.159
20.73000 20.352
20.74000 27.459
20.75000 16.218
20.76000 12.055
20.77000 16.134
20.78000 24.225
20.79000 23.115
20.80000 10.001
20.81000 19.440
20.82000 20.259
20.83000 15.167
20.84000 22.237
20.85000 21.303
20.86000 16.210
20.87000 21.240
20.88000 14.166
20.89000 18.154
20.90000 12.062
20.91000 12.263
20.92000 18.457
20.93000 24.166
20.94000 13.124
20.95000 31.508
20.96000 18.269
20.97000 17.222
20.98000 8.195
20.99000 22.204
21.00000 17.227
21.01000 22.263
21.02000 25.436
21.03000 14.093
21.04000 14.145
21.05000 29.538
21.06000 19.438
21.07000 14.271
21.08000 21.157
21.09000 16.260
21.10000 18.269
21.11000 30.477
21.12000 31.370
21.13000 22.452
21.14000 18.298
21.15000 20.437
21.16000 21.215
21.17000 22.374
21.18000 24.357
21.19000 21.166
21.20000 22.029
21.21000 22.298
21.22000 16.255
21.23000 20.394
21.24000 21.282
21.25000 19.397
21.26000 28.179
21.27000 22.232
21.28000 25.359
21.29000 15.164
21.30000 29.471
21.31000 16.291
21.32000 25.207
21.33000 27.292
21.34000 18.087
21.35000 12.067
21.36000 22.367
21.37000 21.335
21.38000 23.260
21.39000 25.292
21.40000 20.301
21.41000 20.114
21.42000 21.258
21.43000 20.509
21.44000 19.252
21.45000 28.451
21.46000 22.378
21.47000 33.555
21.48000 30.257
21.49000 21.304
21.50000 22.244
21.51000 20.446
21.52000 25.068
21.53000 15.232
21.54000 29.314
21.55000 31.355
21.56000 19.321
21.57000 20.230
21.58000 15.073
21.59000 20.192
21.60000 15.033
21.61000 25.367
21.62000 14.121
21.63000 21.223
21.64000 28.305
21.65000 24.240
21.66000 20.324
21.67000 27.236
21.68000 23.312
21.69000 21.362
21.70000 20.328
21.71000 17.257
21.72000 19.240
21.73000 17.196
21.74000 21.143
21.75000 23.147
21.76000 23.354
21.77000 25.281
21.78000 25.396
21.79000 25.438
21.80000 22.324
21.81000 20.208
21.82000 28.231
21.83000 17.267
21.84000 26.091
21.85000 28.292
21.86000 18.448
21.87000 34.389
21.88000 20.215
21.89000 21.160
21.90000 33.290
21.91000 24.531
21.92000 27.510
21.93000 28.393
21.94000 23.256
21.95000 21.368
21.96000 26.264
21.97000 25.439
21.98000 28.247
21.99000 23.150
22.00000 21.213
22.01000 25.261
22.02000 17.189
22.03000 19.287
22.04000 16.221
22.05000 20.481
22.06000 18.427
22.07000 27.309
22.08000 19.300
22.09000 24.292
22.10000 14.193
22.11000 30.315
22.12000 22.359
22.13000 26.362
22.14000 24.320
22.15000 21.252
22.16000 18.281
22.17000 16.159
22.18000 31.326
22.19000 20.398
22.20000 22.200
22.21000 23.247
22.22000 26.532
22.23000 20.336
22.24000 19.134
22.25000 27.446
22.26000 30.281
22.27000 23.223
22.28000 30.434
22.29000 29.232
22.30000 23.436
22.31000 31.494
22.32000 13.120
22.33000 25.352
22.34000 20.238
22.35000 24.307
22.36000 18.948
22.37000 20.284
22.38000 25.158
22.39000 33.826
22.40000 18.273
22.41000 22.289
22.42000 20.231
22.43000 25.424
22.44000 28.227
22.45000 25.477
22.46000 18.237
22.47000 20.148
22.48000 26.263
22.49000 22.335
22.50000 18.024
22.51000 22.310
22.52000 32.259
22.53000 28.572
22.54000 28.512
22.55000 24.220
22.56000 19.211
22.57000 22.392
22.58000 17.360
22.59000 29.329
22.60000 25.386
22.61000 23.447
22.62000 21.165
22.63000 31.446
22.64000 23.296
22.65000 16.306
22.66000 23.546
22.67000 32.502
22.68000 25.215
22.69000 23.408
22.70000 26.578
22.71000 26.220
22.72000 23.311
22.73000 28.249
22.74000 29.302
22.75000 28.558
22.76000 25.327
22.77000 32.353
22.78000 19.082
22.79000 28.408
22.80000 28.152
22.81000 22.305
22.82000 24.287
22.83000 28.253
22.84000 19.117
22.85000 33.422
22.86000 22.312
22.87000 25.203
22.88000 24.226
22.89000 19.972
22.90000 25.278
22.91000 28.545
22.92000 34.457
22.93000 27.408
22.94000 32.457
22.95000 22.242
22.96000 23.563
22.97000 23.295
22.98000 20.343
22.99000 23.208
23.00000 27.336
23.01000 20.322
23.02000 26.456
23.03000 28.581
23.04000 22.314
23.05000 21.269
23.06000 19.230
23.07000 25.082
23.08000 23.226
23.09000 20.366
23.10000 30.346
23.11000 34.589
23.12000 18.329
23.13000 22.347
23.14000 23.425
23.15000 30.362
23.16000 24.474
23.17000 23.327
23.18000 31.665
23.19000 33.413
23.20000 24.453
23.21000 32.510
23.22000 24.308
23.23000 27.380
23.24000 20.192
23.25000 28.385
23.26000 35.419
23.27000 35.327
23.28000 25.250
23.29000 28.197
23.30000 23.232
23.31000 28.382
23.32000 29.412
23.33000 24.169
23.34000 22.269
23.35000 26.236
23.36000 25.387
23.37000 21.478
23.38000 26.253
23.39000 27.282
23.40000 27.606
23.41000 36.610
23.42000 29.388
23.43000 26.201
23.44000 28.233
23.45000 25.415
23.46000 30.363
23.47000 30.354
23.48000 24.206
23.49000 30.549
23.50000 25.497
23.51000 24.380
23.52000 26.179
23.53000 34.632
23.54000 30.267
23.55000 35.541
23.56000 21.058
23.57000 25.209
23.58000 27.227
23.59000 31.335
23.60000 27.584
23.61000 25.421
23.62000 26.135
23.63000 31.378
23.64000 19.362
23.65000 34.393
23.66000 34.594
23.67000 23.399
23.68000 26.369
23.69000 41.364
23.70000 36.592
23.71000 27.395
23.72000 33.402
23.73000 29.131
23.74000 35.393
23.75000 34.340
23.76000 25.468
23.77000 27.158
23.78000 37.542
23.79000 33.553
23.80000 24.361
23.81000 29.279
23.82000 20.304
23.83000 40.416
23.84000 27.384
23.85000 40.699
23.86000 36.597
23.87000 30.347
23.88000 27.225
23.89000 37.411
23.90000 21.330
23.91000 27.361
23.92000 32.414
23.93000 30.157
23.94000 35.523
23.95000 40.599
23.96000 25.396
23.97000 43.585
23.98000 39.641
23.99000 33.437
24.00000 28.416
24.01000 27.540
24.02000 38.516
24.03000 45.722
24.04000 30.395
24.05000 28.379
24.06000 29.335
24.07000 37.740
24.08000 35.359
24.09000 27.393
24.10000 26.444
24.11000 32.238
24.12000 26.456
24.13000 36.431
24.14000 36.612
24.15000 44.846
24.16000 29.094
24.17000 27.017
24.18000 41.921
24.19000 35.306
24.20000 26.244
24.21000 41.395
24.22000 40.624
24.23000 29.341
24.24000 38.612
24.25000 30.538
24.26000 47.524
24.27000 28.644
24.28000 25.419
24.29000 39.549
24.30000 30.142
24.31000 39.546
24.32000 37.411
24.33000 18.262
24.34000 32.368
24.35000 39.413
24.36000 33.532
24.37000 35.285
24.38000 30.659
24.39000 29.510
24.40000 40.709
24.41000 36.859
24.42000 30.536
24.43000 44.495
24.44000 38.381
24.45000 32.472
24.46000 29.558
24.47000 28.360
24.48000 40.271
24.49000 37.668
24.50000 44.556
24.51000 32.659
24.52000 32.511
24.53000 34.478
24.54000 37.603
24.55000 29.420
24.56000 36.619
24.57000 33.640
24.58000 30.418
24.59000 29.224
24.60000 36.535
24.61000 36.499
24.62000 38.515
24.63000 33.669
24.64000 37.470
24.65000 25.456
24.66000 48.597
24.67000 34.551
24.68000 39.547
24.69000 32.285
24.70000 39.371
24.71000 40.385
24.72000 45.775
24.73000 30.381
24.74000 39.799
24.75000 44.813
24.76000 30.245
24.77000 45.439
24.78000 23.393
24.79000 43.552
24.80000 37.694
24.81000 38.393
24.82000 36.717
24.83000 43.582
24.84000 36.409
24.85000 43.627
24.86000 39.627
24.87000 40.689
24.88000 29.354
24.89000 41.515
24.90000 46.896
24.91000 40.602
24.92000 38.597
24.93000 32.389
24.94000 39.504
24.95000 45.549
24.96000 41.441
24.97000 39.565
24.98000 50.536
24.99000 39.756
25.00000 44.459
25.01000 25.293
25.02000 37.868
25.03000 35.536
25.04000 44.655
25.05000 38.371
25.06000 27.663
25.07000 33.499
25.08000 34.258
25.09000 39.411
25.10000 30.953
25.11000 49.758
25.12000 48.859
25.13000 38.540
25.14000 53.892
25.15000 40.395
25.16000 42.230
25.17000 38.789
25.18000 33.582
25.19000 41.627
25.20000 39.398
25.21000 44.786
25.22000 48.639
25.23000 41.538
25.24000 46.348
25.25000 49.740
25.26000 38.386
25.27000 33.406
25.28000 46.749
25.29000 47.556
25.30000 56.196
25.31000 44.520
25.32000 43.826
25.33000 47.745
25.34000 51.649
25.35000 40.488
25.36000 34.206
25.37000 46.427
25.38000 40.559
25.39000 31.349
25.40000 50.494
25.41000 52.743
25.42000 36.313
25.43000 41.788
25.44000 39.321
25.45000 43.539
25.46000 43.654
25.47000 52.749
25.48000 50.766
25.49000 39.570
25.50000 44.582
25.51000 48.590
25.52000 50.690
25.53000 45.754
25.54000 57.849
25.55000 46.525
25.56000 37.594
25.57000 41.572
25.58000 35.747
25.59000 48.507
25.60000 44.577
25.61000 55.577
25.62000 47.518
25.63000 38.885
25.64000 52.444
25.65000 38.601
25.66000 39.266
25.67000 49.605
25.68000 47.482
25.69000 23.387
25.70000 49.437
25.71000 62.735
25.72000 46.587
25.73000 34.726
25.74000 43.756
25.75000 52.840
25.76000 40.510
25.77000 48.550
25.78000 48.512
25.79000 49.694
25.80000 46.535
25.81000 45.604
25.82000 42.422
25.83000 49.398
25.84000 45.707
25.85000 43.591
25.86000 50.667
25.87000 44.788
25.88000 48.513
25.89000 63.748
25.90000 49.850
25.91000 62.859
25.92000 62.607
25.93000 42.295
25.94000 58.661
25.95000 47.586
25.96000 54.499
25.97000 59.619
25.98000 56.789
25.99000 47.433
26.00000 51.383
26.01000 67.618
26.02000 44.696
26.03000 57.626
26.04000 51.855
26.05000 39.290
26.06000 52.735
26.07000 38.373
26.08000 51.765
26.09000 53.410
26.10000 55.868
26.11000 57.588
26.12000 56.875
26.13000 41.379
26.14000 48.692
26.15000 52.666
26.16000 45.729
26.17000 52.071
26.18000 57.975
26.19000 54.610
26.20000 57.858
26.21000 63.741
26.22000 50.426
26.23000 52.893
26.24000 62.116
26.25000 51.667
26.26000 58.882
26.27000 62.965
26.28000 49.565
26.29000 49.738
26.30000 50.448
26.31000 59.513
26.32000 70.136
26.33000 59.903
26.34000 47.844
26.35000 58.763
26.36000 45.314
26.37000 55.834
26.38000 57.644
26.39000 41.753
26.40000 53.432
26.41000 58.713
26.42000 57.705
26.43000 65.971
26.44000 61.794
26.45000 54.738
26.46000 49.454
26.47000 63.686
26.48000 51.463
26.49000 59.500
26.50000 50.901
26.51000 58.680
26.52000 38.501
26.53000 57.094
26.54000 60.723
26.55000 46.566
26.56000 48.812
26.57000 55.905
26.58000 55.558
26.59000 48.546
26.60000 55.542
26.61000 47.818
26.62000 50.450
26.63000 54.860
26.64000 63.731
26.65000 51.695
26.66000 69.904
26.67000 47.606
26.68000 59.580
26.69000 65.535
26.70000 50.522
26.71000 54.661
26.72000 52.493
26.73000 67.790
26.74000 44.582
26.75000 66.798
26.76000 52.725
26.77000 53.665
26.78000 61.764
26.79000 32.572
26.80000 55.475
26.81000 53.905
26.82000 63.883
26.83000 65.101
26.84000 64.077
26.85000 51.030
26.86000 59.982
26.87000 70.788
26.88000 50.771
26.89000 51.511
26.90000 59.928
26.91000 55.659
26.92000 60.235
26.93000 50.815
26.94000 71.350
26.95000 63.810
26.96000 74.404
26.97000 61.808
26.98000 57.891
26.99000 58.450
27.00000 67.790
27.01000 55.678
27.02000 47.702
27.03000 57.137
27.04000 59.981
27.05000 53.722
27.06000 63.923
27.07000 65.505
27.08000 66.568
27.09000 59.689
27.10000 48.364
27.11000 66.154
27.12000 61.535
27.13000 79.255
27.14000 62.008
27.15000 50.297
27.16000 45.856
27.17000 66.739
27.18000 79.420
27.19000 70.910
27.20000 54.575
27.21000 63.779
27.22000 55.579
27.23000 74.090
27.24000 71.315
27.25000 59.930
27.26000 52.746
27.27000 61.169
27.28000 51.431
27.29000 80.615
27.30000 58.775
27.31000 70.803
27.32000 59.972
27.33000 73.876
27.34000 69.866
27.35000 60.681
27.36000 71.074
27.37000 51.438
27.38000 54.187
27.39000 66.896
27.40000 65.941
27.41000 64.946
27.42000 60.834
27.43000 63.863
27.44000 63.858
27.45000 59.902
27.46000 64.018
27.47000 64.728
27.48000 63.798
27.49000 68.875
27.50000 63.663
27.51000 63.698
27.52000 63.759
27.53000 64.117
27.54000 57.740
27.55000 68.964
27.56000 67.916
27.57000 57.568
27.58000 66.649
27.59000 75.196
27.60000 60.463
27.61000 58.814
27.62000 50.474
27.63000 78.883
27.64000 67.812
27.65000 40.725
27.66000 62.857
27.67000 66.795
27.68000 52.618
27.69000 69.764
27.70000 60.960
27.71000 52.633
27.72000 56.625
27.73000 62.761
27.74000 63.746
27.75000 67.223
27.76000 58.762
27.77000 58.846
27.78000 73.014
27.79000 69.090
27.80000 77.925
27.81000 62.036
27.82000 57.986
27.83000 59.458
27.84000 57.649
27.85000 54.457
27.86000 82.291
27.87000 74.993
27.88000 60.817
27.89000 62.941
27.90000 78.782
27.91000 59.703
27.92000 73.908
27.93000 66.877
27.94000 74.157
27.95000 52.796
27.96000 48.755
27.97000 65.508
27.98000 61.989
27.99000 60.947
28.00000 74.773
28.01000 69.737
28.02000 73.972
28.03000 61.876
28.04000 63.974
28.05000 74.191
28.06000 67.633
28.07000 67.611
28.08000 43.519
28.09000 57.837
28.10000 65.777
28.11000 56.561
28.12000 57.641
28.13000 70.762
28.14000 72.160
28.15000 71.677
28.16000 57.727
28.17000 61.097
28.18000 63.899
28.19000 56.717
28.20000 61.790
28.21000 62.943
28.22000 53.961
28.23000 54.979
28.24000 78.856
28.25000 71.918
28.26000 57.797
28.27000 73.849
28.28000 62.732
28.29000 58.740
28.30000 56.962
28.31000 64.947
28.32000 43.612
28.33000 70.949
28.34000 68.799
28.35000 61.809
28.36000 52.615
28.37000 63.763
28.38000 45.527
28.39000 54.854
28.40000 63.925
28.41000 47.663
28.42000 62.274
28.43000 62.800
28.44000 59.063
28.45000 66.056
28.46000 48.686
28.47000 52.457
28.48000 57.577
28.49000 60.624
28.50000 52.953
28.51000 55.741
28.52000 55.927
28.53000 50.614
28.54000 66.858
28.55000 69.991
28.56000 66.885
28.57000 69.273
28.58000 60.838
28.59000 58.849
28.60000 62.908
28.61000 62.930
28.62000 55.968
28.63000 62.659
28.64000 54.670
28.65000 53.770
28.66000 53.679
28.67000 51.488
28.68000 63.775
28.69000 44.523
28.70000 48.778
28.71000 63.040
28.72000 55.700
28.73000 61.797
28.74000 65.956
28.75000 53.500
28.76000 60.458
28.77000 52.769
28.78000 64.992
28.79000 48.742
28.80000 77.039
28.81000 56.468
28.82000 53.770
28.83000 39.503
28.84000 43.886
28.85000 63.260
28.86000 48.543
28.87000 55.924
28.88000 56.957
28.89000 52.726
28.90000 51.560
28.91000 62.696
28.92000 60.521
28.93000 59.862
28.94000 52.836
28.95000 42.536
28.96000 65.672
28.97000 53.872
28.98000 44.745
28.99000 57.918
29.00000 61.750
29.01000 56.812
29.02000 45.511
29.03000 54.631
29.04000 54.807
29.05000 53.774
29.06000 51.896
29.07000 48.633
29.08000 67.744
29.09000 40.574
29.10000 49.640
29.11000 55.834
29.12000 52.791
29.13000 43.660
29.14000 46.729
29.15000 51.775
29.16000 47.542
29.17000 55.739
29.18000 50.748
29.19000 49.841
29.20000 58.534
29.21000 48.622
29.22000 49.619
29.23000 50.666
29.24000 46.654
29.25000 45.803
29.26000 56.818
29.27000 52.080
29.28000 51.759
29.29000 56.640
29.30000 55.688
29.31000 49.666
29.32000 44.684
29.33000 47.682
29.34000 48.559
29.35000 56.719
29.36000 57.004
29.37000 61.015
29.38000 44.594
29.39000 37.397
29.40000 42.412
29.41000 47.671
29.42000 41.850
29.43000 53.944
29.44000 58.796
29.45000 56.878
29.46000 47.447
29.47000 50.683
29.48000 44.744
29.49000 54.570
29.50000 52.684
29.51000 48.532
29.52000 50.830
29.53000 56.897
29.54000 52.887
29.55000 60.906
29.56000 46.494
29.57000 68.798
29.58000 53.800
29.59000 45.564
29.60000 51.708
29.61000 54.948
29.62000 47.749
29.63000 43.312
29.64000 65.823
29.65000 42.577
29.66000 57.072
29.67000 52.731
29.68000 37.644
29.69000 55.030
29.70000 59.041
29.71000 43.630
29.72000 51.894
29.73000 49.420
29.74000 32.347
29.75000 54.751
29.76000 47.646
29.77000 43.474
29.78000 28.503
29.79000 55.525
29.80000 44.819
29.81000 46.523
29.82000 54.687
29.83000 54.378
29.84000 35.394
29.85000 62.637
29.86000 43.754
29.87000 43.416
29.88000 37.530
29.89000 52.644
29.90000 53.623
29.91000 48.588
29.92000 35.360
29.93000 33.598
29.94000 39.569
29.95000 38.568
29.96000 51.814
29.97000 42.588
29.98000 37.497
29.99000 50.582
30.00000 38.652
30.01000 41.390
30.02000 38.804
30.03000 57.069
30.04000 37.429
30.05000 28.195
30.06000 44.892
30.07000 47.640
30.08000 37.866
30.09000 51.370
30.10000 39.732
30.11000 45.833
30.12000 48.508
30.13000 39.778
30.14000 57.781
30.15000 47.495
30.16000 44.624
30.17000 42.430
30.18000 31.496
30.19000 49.809
30.20000 40.646
30.21000 37.601
30.22000 42.604
30.23000 52.516
30.24000 50.573
30.25000 37.802
30.26000 32.343
30.27000 39.586
30.28000 35.419
30.29000 47.704
30.30000 53.933
30.31000 38.666
30.32000 35.525
30.33000 44.694
30.34000 51.770
30.35000 40.400
30.36000 44.812
30.37000 36.479
30.38000 49.743
30.39000 33.499
30.40000 40.382
30.41000 41.463
30.42000 43.281
30.43000 39.571
30.44000 36.588
30.45000 53.604
30.46000 28.329
30.47000 46.462
30.48000 35.227
30.49000 49.431
30.50000 43.590
30.51000 49.282
30.52000 42.510
30.53000 45.595
30.54000 39.756
30.55000 53.550
30.56000 35.386
30.57000 41.628
30.58000 39.415
30.59000 37.623
30.60000 34.706
30.61000 31.510
30.62000 40.601
30.63000 33.358
30.64000 35.468
30.65000 35.552
30.66000 43.463
30.67000 42.307
30.68000 45.650
30.69000 48.640
30.70000 46.613
30.71000 31.509
30.72000 43.491
30.73000 41.441
30.74000 33.305
30.75000 41.418
30.76000 43.562
30.77000 44.594
30.78000 28.299
30.79000 53.902
30.80000 30.540
30.81000 35.605
30.82000 28.389
30.83000 34.378
30.84000 44.689
30.85000 38.481
30.86000 31.179
30.87000 25.288
30.88000 40.593
30.89000 33.463
30.90000 36.600
30.91000 38.541
30.92000 35.584
30.93000 38.503
30.94000 40.649
30.95000 34.282
30.96000 30.510
30.97000 45.814
30.98000 38.630
30.99000 38.552
31.00000 39.476
31.01000 30.310
31.02000 47.552
31.03000 39.611
31.04000 44.512
31.05000 28.449
31.06000 35.318
31.07000 26.543
31.08000 32.568
31.09000 29.366
31.10000 31.289
31.11000 44.732
31.12000 41.592
31.13000 36.380
31.14000 39.632
31.15000 31.669
31.16000 30.580
31.17000 41.820
31.18000 34.645
31.19000 39.369
31.20000 35.337
31.21000 39.577
31.22000 34.479
31.23000 34.437
31.24000 45.660
31.25000 40.575
31.26000 31.276
31.27000 47.456
31.28000 32.463
31.29000 40.625
31.30000 26.407
31.31000 33.366
31.32000 25.150
31.33000 32.670
31.34000 37.451
31.35000 33.310
31.36000 26.563
31.37000 35.712
31.38000 25.400
31.39000 20.329
31.40000 42.416
31.41000 36.636
31.42000 28.199
31.43000 34.487
31.44000 38.484
31.45000 28.617
31.46000 25.227
31.47000 32.740
31.48000 43.428
31.49000 26.363
31.50000 35.664
31.51000 24.376
31.52000 33.459
31.53000 40.630
31.54000 27.328
31.55000 37.459
31.56000 29.450
31.57000 39.352
31.58000 34.109
31.59000 30.144
31.60000 34.504
31.61000 41.451
31.62000 29.233
31.63000 32.188
31.64000 46.399
31.65000 38.260
31.66000 32.751
31.67000 29.404
31.68000 33.337
31.69000 27.309
31.70000 20.266
31.71000 36.266
31.72000 20.308
31.73000 30.333
31.74000 40.602
31.75000 35.296
31.76000 29.288
31.77000 25.443
31.78000 20.251
31.79000 24.597
31.80000 37.333
31.81000 28.583
31.82000 31.283
31.83000 27.234
31.84000 22.593
31.85000 31.414
31.86000 21.231
31.87000 28.452
31.88000 30.499
31.89000 16.077
31.90000 35.225
31.91000 31.301
31.92000 27.552
31.93000 33.567
31.94000 16.380
31.95000 26.258
31.96000 29.279
31.97000 35.311
31.98000 30.342
31.99000 32.410
32.00000 35.339
32.01000 35.500
32.02000 27.195
32.03000 32.464
32.04000 28.515
32.05000 29.253
32.06000 43.632
32.07000 22.155
32.08000 28.229
32.09000 26.312
32.10000 32.393
32.11000 32.400
32.12000 30.299
32.13000 25.472
32.14000 27.642
32.15000 26.314
32.16000 41.474
32.17000 34.432
32.18000 34.462
32.19000 35.639
32.20000 24.294
32.21000 30.351
32.22000 33.213
32.23000 21.401
32.24000 32.273
32.25000 20.176
32.26000 26.200
32.27000 27.275
32.28000 32.275
32.29000 27.399
32.30000 35.495
32.31000 22.270
32.32000 31.362
32.33000 27.322
32.34000 28.195
32.35000 26.367
32.36000 29.561
32.37000 27.369
32.38000 34.386
32.39000 30.220
32.40000 31.572
32.41000 28.558
32.42000 30.468
32.43000 25.371
32.44000 29.236
32.45000 25.447
32.46000 37.429
32.47000 25.422
32.48000 27.291
32.49000 15.162
32.50000 35.297
32.51000 24.328
32.52000 24.267
32.53000 23.328
32.54000 35.267
32.55000 21.271
32.56000 35.468
32.57000 19.253
32.58000 23.149
32.59000 37.513
32.60000 28.416
32.61000 22.100
32.62000 23.318
32.63000 23.146
32.64000 22.277
32.65000 22.183
32.66000 27.239
32.67000 17.211
32.68000 24.284
32.69000 22.466
32.70000 20.292
32.71000 25.141
32.72000 23.221
32.73000 24.241
32.74000 20.222
32.75000 31.260
32.76000 15.085
32.77000 25.530
32.78000 17.195
32.79000 29.591
32.80000 30.402
32.81000 24.487
32.82000 23.367
32.83000 25.501
32.84000 28.300
32.85000 21.228
32.86000 25.644
32.87000 26.392
32.88000 22.380
32.89000 16.327
32.90000 26.313
32.91000 18.313
32.92000 30.302
32.93000 22.154
32.94000 23.443
32.95000 18.146
32.96000 17.261
32.97000 23.498
32.98000 14.145
32.99000 20.198
33.00000 22.282
33.01000 23.462
33.02000 21.355
33.03000 32.434
33.04000 19.452
33.05000 26.405
33.06000 16.274
33.07000 34.520
33.08000 24.001
33.09000 24.228
33.10000 33.269
33.11000 26.108
33.12000 15.145
33.13000 21.295
33.14000 21.129
33.15000 19.193
33.16000 22.092
33.17000 23.382
33.18000 19.075
33.19000 22.336
33.20000 16.212
33.21000 21.399
33.22000 20.238
33.23000 19.303
33.24000 16.090
33.25000 23.233
33.26000 19.474
33.27000 24.424
33.28000 15.003
33.29000 15.322
33.30000 17.315
33.31000 19.329
33.32000 22.534
33.33000 11.173
33.34000 16.218
33.35000 24.295
33.36000 16.049
33.37000 27.367
33.38000 22.426
33.39000 24.297
33.40000 12.041
33.41000 25.276
33.42000 26.485
33.43000 25.343
33.44000 27.294
33.45000 19.384
33.46000 20.314
33.47000 24.382
33.48000 26.417
33.49000 16.093
33.50000 22.337
33.51000 21.163
33.52000 22.244
33.53000 17.373
33.54000 16.135
33.55000 18.258
33.56000 19.454
33.57000 25.408
33.58000 19.124
33.59000 19.198
33.60000 9.176
33.61000 14.132
33.62000 16.144
33.63000 27.193
33.64000 17.119
33.65000 19.411
33.66000 17.155
33.67000 19.237
33.68000 29.509
33.69000 23.395
33.70000 22.275
33.71000 27.583
33.72000 23.132
33.73000 16.269
33.74000 20.290
33.75000 21.217
33.76000 15.200
33.77000 22.243
33.78000 24.125
33.79000 15.268
33.80000 22.075
33.81000 23.112
33.82000 30.470
33.83000 15.160
33.84000 14.108
33.85000 27.356
33.86000 17.279
33.87000 17.417
33.88000 17.269
33.89000 18.288
33.90000 20.214
33.91000 18.259
33.92000 23.275
33.93000 13.253
33.94000 20.135
33.95000 18.251
33.96000 16.131
33.97000 22.301
33.98000 15.243
33.99000 24.390
34.00000 12.360
34.01000 18.029
34.02000 18.219
34.03000 26.468
34.04000 19.435
34.05000 15.947
34.06000 24.673
34.07000 17.197
34.08000 21.156
34.09000 17.076
34.10000 21.302
34.11000 22.305
34.12000 31.482
34.13000 26.146
34.14000 27.196
34.15000 22.404
34.16000 16.097
34.17000 26.300
34.18000 21.343
34.19000 19.330
34.20000 15.283
34.21000 15.131
34.22000 18.219
34.23000 14.187
34.24000 28.753
34.25000 19.312
34.26000 14.074
34.27000 21.265
34.28000 21.400
34.29000 21.264
34.30000 12.187
34.31000 12.268
34.32000 17.288
34.33000 17.329
34.34000 16.252
34.35000 21.074
34.36000 18.333
34.37000 22.217
34.38000 16.135
34.39000 12.026
34.40000 16.211
34.41000 17.224
34.42000 17.098
34.43000 19.221
34.44000 16.292
34.45000 12.145
34.46000 14.059
34.47000 14.290
34.48000 16.194
34.49000 19.222
34.50000 23.292
34.51000 22.263
34.52000 26.276
34.53000 19.357
34.54000 19.014
34.55000 19.192
34.56000 12.105
34.57000 13.169
34.58000 19.422
34.59000 17.204
34.60000 25.318
34.61000 14.157
34.62000 24.232
34.63000 15.073
34.64000 19.117
34.65000 13.277
34.66000 28.419
34.67000 19.245
34.68000 13.010
34.69000 18.061
34.70000 13.070
34.71000 16.127
34.72000 14.065
34.73000 17.228
34.74000 21.311
34.75000 22.215
34.76000 10.174
34.77000 20.259
34.78000 20.082
34.79000 21.356
34.80000 13.226
34.81000 17.143
34.82000 20.348
34.83000 18.066
34.84000 21.204
34.85000 15.103
34.86000 14.195
34.87000 19.364
34.88000 17.100
34.89000 11.986
34.90000 20.312
34.91000 19.351
34.92000 26.296
34.93000 17.262
34.94000 17.074
34.95000 22.362
34.96000 19.298
34.97000 21.561
34.98000 21.172
34.99000 22.469
35.00000 22.369
35.01000 21.081
35.02000 20.444
35.03000 14.205
35.04000 20.198
35.05000 16.159
35.06000 24.440
35.07000 16.210
35.08000 14.174
35.09000 19.268
35.10000 15.157
35.11000 17.088
35.12000 19.281
35.13000 16.309
35.14000 26.338
35.15000 18.403
35.16000 21.389
35.17000 15.008
35.18000 21.349
35.19000 21.258
35.20000 24.711
35.21000 16.067
35.22000 17.316
35.23000 16.080
35.24000 14.196
35.25000 18.176
35.26000 19.141
35.27000 15.270
35.28000 17.299
35.29000 10.096
35.30000 24.322
35.31000 15.182
35.32000 20.232
35.33000 17.119
35.34000 13.239
35.35000 17.159
35.36000 16.173
35.37000 16.155
35.38000 29.271
35.39000 18.497
35.40000 17.271
35.41000 22.238
35.42000 24.186
35.43000 24.071
35.44000 18.197
35.45000 14.129
35.46000 14.033
35.47000 19.370
35.48000 21.125
35.49000 20.267
35.50000 22.270
35.51000 9.185
35.52000 16.205
35.53000 16.230
35.54000 23.163
35.55000 25.300
35.56000 17.095
35.57000 19.240
35.58000 18.257
35.59000 12.141
35.60000 19.336
35.61000 14.108
35.62000 21.318
35.63000 19.169
35.64000 18.272
35.65000 15.171
35.66000 12.061
35.67000 18.235
35.68000 18.412
35.69000 14.022
35.70000 13.192
35.71000 14.274
35.72000 20.324
35.73000 19.250
35.74000 18.285
35.75000 14.230
35.76000 22.530
35.77000 19.292
35.78000 18.182
35.79000 20.220
35.80000 21.400
35.81000 25.388
35.82000 11.239
35.83000 15.202
35.84000 12.176
35.85000 17.239
35.86000 22.109
35.87000 11.958
35.88000 16.284
35.89000 15.117
35.90000 15.225
35.91000 24.455
35.92000 17.076
35.93000 16.234
35.94000 18.273
35.95000 14.289
35.96000 22.082
35.97000 22.470
35.98000 25.178
35.99000 23.175
36.00000 19.185
36.01000 14.169
36.02000 18.064
36.03000 18.375
36.04000 24.282
36.05000 20.271
36.06000 26.413
36.07000 20.395
36.08000 17.178
36.09000 15.372
36.10000 22.227
36.11000 15.206
36.12000 27.217
36.13000 18.210
36.14000 20.179
36.15000 16.118
36.16000 13.315
36.17000 15.087
36.18000 22.235
36.19000 14.093
36.20000 21.410
36.21000 16.272
36.22000 13.223
36.23000 20.075
36.24000 17.073
36.25000 21.314
36.26000 16.249
36.27000 19.189
36.28000 15.274
36.29000 17.279
36.30000 17.230
36.31000 18.044
36.32000 16.176
36.33000 13.398
36.34000 20.167
36.35000 22.279
36.36000 27.273
36.37000 20.303
36.38000 26.435
36.39000 15.249
36.40000 19.351
36.41000 14.118
36.42000 8.116
36.43000 13.122
36.44000 11.202
36.45000 27.354
36.46000 18.180
36.47000 20.457
36.48000 24.433
36.49000 16.172
36.50000 16.082
36.51000 20.402
36.52000 21.212
36.53000 21.289
36.54000 22.149
36.55000 21.513
36.56000 22.214
36.57000 20.225
36.58000 20.398
36.59000 22.266
36.60000 16.076
36.61000 17.234
36.62000 21.330
36.63000 12.082
36.64000 12.248
36.65000 8.966
36.66000 26.257
36.67000 11.071
36.68000 18.205
36.69000 15.177
36.70000 19.352
36.71000 13.331
36.72000 21.433
36.73000 7.999
36.74000 19.114
36.75000 20.146
36.76000 14.197
36.77000 16.288
36.78000 21.420
36.79000 14.162
36.80000 19.211
36.81000 25.567
36.82000 20.299
36.83000 18.078
36.84000 19.269
36.85000 19.117
36.86000 24.221
36.87000 24.205
36.88000 25.309
36.89000 18.232
36.90000 16.280
36.91000 16.124
36.92000 18.294
36.93000 15.065
36.94000 21.170
36.95000 23.423
36.96000 17.263
36.97000 20.184
36.98000 21.197
36.99000 23.469
37.00000 18.436
37.01000 21.399
37.02000 15.125
37.03000 12.956
37.04000 13.172
37.05000 18.314
37.06000 10.124
37.07000 16.216
37.08000 14.076
37.09000 13.194
37.10000 22.303
37.11000 22.059
37.12000 20.333
37.13000 24.357
37.14000 14.988
37.15000 22.390
37.16000 20.169
37.17000 16.185
37.18000 22.339
37.19000 17.287
37.20000 13.266
37.21000 10.125
37.22000 14.089
37.23000 18.244
37.24000 25.446
37.25000 16.238
37.26000 21.437
37.27000 14.116
37.28000 27.247
37.29000 19.265
37.30000 14.136
37.31000 17.275
37.32000 25.156
37.33000 18.263
37.34000 15.079
37.35000 19.253
37.36000 17.200
37.37000 22.521
37.38000 20.412
37.39000 19.376
37.40000 19.326
37.41000 14.182
37.42000 15.197
37.43000 13.264
37.44000 22.275
37.45000 20.119
37.46000 18.318
37.47000 22.342
37.48000 23.413
37.49000 22.411
37.50000 13.301
37.51000 32.350
37.52000 11.251
37.53000 17.543
37.54000 17.096
37.55000 17.104
37.56000 24.235
37.57000 19.213
37.58000 25.361
37.59000 18.111
37.60000 15.251
37.61000 20.263
37.62000 17.190
37.63000 30.797
37.64000 16.315
37.65000 10.159
37.66000 20.103
37.67000 19.205
37.68000 18.254
37.69000 16.163
37.70000 28.536
37.71000 19.199
37.72000 19.350
37.73000 19.183
37.74000 28.168
37.75000 16.260
37.76000 19.215
37.77000 19.164
37.78000 15.920
37.79000 22.192
37.80000 15.186
37.81000 19.380
37.82000 14.180
37.83000 21.139
37.84000 20.377
37.85000 23.261
37.86000 22.119
37.87000 18.247
37.88000 21.191
37.89000 19.314
37.90000 20.258
37.91000 19.061
37.92000 24.314
37.93000 20.252
37.94000 14.138
37.95000 21.148
37.96000 25.329
37.97000 17.074
37.98000 13.092
37.99000 26.354
38.00000 29.333
38.01000 18.298
38.02000 19.175
38.03000 19.310
38.04000 14.145
38.05000 20.400
38.06000 25.395
38.07000 23.380
38.08000 19.113
38.09000 23.196
38.10000 24.276
38.11000 15.019
38.12000 26.024
38.13000 17.293
38.14000 20.300
38.15000 14.187
38.16000 19.255
38.17000 16.162
38.18000 22.100
38.19000 21.467
38.20000 17.432
38.21000 21.257
38.22000 17.157
38.23000 29.399
38.24000 26.398
38.25000 24.208
38.26000 18.202
38.27000 14.058
38.28000 12.167
38.29000 22.285
38.30000 17.418
38.31000 25.388
38.32000 18.230
38.33000 20.301
38.34000 16.270
38.35000 18.424
38.36000 28.343
38.37000 22.298
38.38000 15.127
38.39000 28.275
38.40000 16.186
38.41000 25.274
38.42000 17.135
38.43000 17.286
38.44000 16.145
38.45000 19.169
38.46000 27.263
38.47000 19.189
38.48000 20.166
38.49000 18.339
38.50000 24.312
38.51000 23.446
38.52000 29.361
38.53000 19.127
38.54000 18.234
38.55000 22.334
38.56000 19.259
38.57000 17.159
38.58000 21.464
38.59000 15.232
38.60000 22.243
38.61000 15.207
38.62000 30.330
38.63000 14.112
38.64000 18.399
38.65000 22.418
38.66000 19.157
38.67000 21.380
38.68000 21.312
38.69000 20.592
38.70000 20.310
38.71000 11.153
38.72000 30.240
38.73000 26.266
38.74000 25.200
38.75000 25.308
38.76000 22.429
38.77000 29.226
38.78000 21.272
38.79000 20.316
38.80000 31.514
38.81000 25.225
38.82000 16.178
38.83000 15.157
38.84000 28.434
38.85000 26.416
38.86000 26.238
38.87000 19.266
38.88000 28.161
38.89000 16.293
38.90000 21.499
38.91000 24.594
38.92000 24.463
38.93000 28.105
38.94000 20.224
38.95000 21.368
38.96000 15.327
38.97000 24.341
38.98000 21.202
38.99000 21.107
39.00000 19.365
39.01000 22.379
39.02000 23.477
39.03000 22.443
39.04000 19.206
39.05000 26.367
39.06000 11.003
39.07000 24.346
39.08000 28.248
39.09000 27.054
39.10000 23.259
39.11000 19.238
39.12000 22.426
39.13000 17.043
39.14000 25.290
39.15000 24.109
39.16000 25.423
39.17000 18.158
39.18000 23.128
39.19000 20.391
39.20000 30.420
39.21000 21.148
39.22000 25.382
39.23000 23.497
39.24000 21.282
39.25000 22.355
39.26000 21.116
39.27000 24.223
39.28000 20.296
39.29000 25.367
39.30000 19.314
39.31000 19.236
39.32000 20.341
39.33000 25.648
39.34000 20.184
39.35000 26.101
39.36000 15.268
39.37000 28.369
39.38000 22.458
39.39000 31.284
39.40000 24.318
39.41000 29.369
39.42000 22.383
39.43000 16.344
39.44000 19.128
39.45000 24.444
39.46000 17.364
39.47000 11.237
39.48000 14.266
39.49000 19.311
39.50000 21.198
39.51000 14.081
39.52000 23.150
39.53000 23.072
39.54000 16.267
39.55000 20.436
39.56000 18.436
39.57000 24.117
39.58000 20.055
39.59000 20.303
39.60000 17.231
39.61000 21.401
39.62000 18.141
39.63000 17.060
39.64000 22.338
39.65000 25.181
39.66000 18.172
39.67000 17.343
39.68000 21.085
39.69000 26.438
39.70000 21.487
39.71000 41.504
39.72000 17.215
39.73000 27.374
39.74000 20.298
39.75000 20.328
39.76000 18.315
39.77000 18.149
39.78000 16.210
39.79000 17.438
39.80000 18.393
39.81000 17.379
39.82000 29.461
39.83000 19.298
39.84000 23.403
39.85000 27.600
39.86000 22.102
39.87000 15.063
39.88000 14.205
39.89000 19.074
39.90000 20.346
39.91000 15.167
39.92000 22.379
39.93000 18.154
39.94000 20.361
39.95000 12.119
39.96000 24.386
39.97000 19.429
39.98000 23.421
39.99000 31.404
40.00000 18.104
40.01000 16.203
40.02000 27.488
40.03000 17.325
40.04000 25.305
40.05000 28.373
40.06000 20.300
40.07000 17.161
40.08000 19.144
40.09000 29.260
40.10000 28.407
40.11000 16.225
40.12000 17.217
40.13000 31.368
40.14000 17.287
40.15000 18.203
40.16000 24.309
40.17000 24.126
40.18000 14.162
40.19000 21.159
40.20000 29.387
40.21000 22.482
40.22000 18.199
40.23000 23.372
40.24000 25.428
40.25000 33.615
40.26000 19.144
40.27000 22.257
40.28000 19.199
40.29000 17.258
40.30000 23.304
40.31000 27.454
40.32000 20.164
40.33000 20.215
40.34000 20.301
40.35000 25.200
40.36000 26.294
40.37000 23.260
40.38000 21.572
40.39000 15.191
40.40000 18.988
40.41000 13.081
40.42000 28.430
40.43000 20.333
40.44000 33.266
40.45000 17.125
40.46000 7.033
40.47000 15.189
40.48000 25.362
40.49000 30.295
40.50000 14.249
40.51000 18.178
40.52000 20.166
40.53000 33.412
40.54000 18.173
40.55000 29.363
40.56000 17.336
40.57000 20.414
40.58000 21.395
40.59000 23.320
40.60000 32.583
40.61000 20.353
40.62000 15.257
40.63000 20.250
40.64000 23.326
40.65000 15.134
40.66000 16.334
40.67000 11.273
40.68000 19.398
40.69000 22.992
40.70000 30.451
40.71000 26.429
40.72000 27.151
40.73000 21.143
40.74000 23.269
40.75000 23.322
40.76000 29.278
40.77000 20.373
40.78000 19.230
40.79000 16.307
40.80000 21.293
40.81000 18.141
40.82000 16.092
40.83000 31.281
40.84000 24.320
40.85000 27.244
40.86000 21.346
40.87000 16.008
40.88000 32.525
40.89000 14.221
40.90000 32.631
40.91000 20.230
40.92000 28.341
40.93000 24.212
40.94000 18.147
40.95000 22.359
40.96000 24.286
40.97000 22.315
40.98000 21.173
40.99000 22.167
41.00000 24.374
41.01000 17.144
41.02000 20.396
41.03000 23.165
41.04000 27.292
41.05000 25.442
41.06000 16.419
41.07000 19.122
41.08000 20.415
41.09000 25.244
41.10000 25.358
41.11000 30.550
41.12000 28.382
41.13000 20.242
41.14000 16.221
41.15000 32.281
41.16000 13.254
41.17000 24.250
41.18000 16.194
41.19000 19.282
41.20000 19.404
41.21000 23.274
41.22000 20.176
41.23000 20.204
41.24000 18.281
41.25000 23.351
41.26000 24.320
41.27000 17.076
41.28000 23.240
41.29000 25.292
41.30000 23.120
41.31000 27.139
41.32000 23.359
41.33000 26.313
41.34000 20.199
41.35000 19.274
41.36000 15.236
41.37000 26.267
41.38000 19.331
41.39000 18.181
41.40000 22.313
41.41000 23.102
41.42000 20.297
41.43000 15.198
41.44000 25.088
41.45000 25.339
41.46000 24.261
41.47000 21.411
41.48000 22.356
41.49000 21.288
41.50000 17.192
41.51000 23.341
41.52000 19.341
41.53000 22.273
41.54000 30.607
41.55000 23.323
41.56000 30.604
41.57000 27.461
41.58000 13.290
41.59000 20.315
41.60000 15.179
41.61000 26.200
41.62000 18.207
41.63000 17.260
41.64000 26.368
41.65000 16.362
41.66000 18.168
41.67000 28.324
41.68000 29.572
41.69000 23.376
41.70000 23.214
41.71000 23.336
41.72000 26.243
41.73000 27.483
41.74000 21.095
41.75000 21.302
41.76000 15.235
41.77000 24.630
41.78000 22.347
41.79000 21.406
41.80000 26.409
41.81000 29.274
41.82000 24.336
41.83000 22.392
41.84000 22.528
41.85000 26.258
41.86000 26.255
41.87000 17.273
41.88000 18.244
41.89000 21.162
41.90000 18.255
41.91000 19.270
41.92000 23.486
41.93000 26.476
41.94000 22.294
41.95000 17.235
41.96000 18.980
41.97000 22.106
41.98000 21.259
41.99000 17.165
42.00000 25.455
42.01000 24.368
42.02000 22.117
42.03000 27.712
42.04000 19.253
42.05000 25.429
42.06000 30.331
42.07000 20.253
42.08000 23.102
42.09000 22.337
42.10000 31.391
42.11000 21.206
42.12000 15.376
42.13000 20.526
42.14000 21.169
42.15000 16.397
42.16000 30.475
42.17000 24.470
42.18000 20.319
42.19000 29.341
42.20000 21.353
42.21000 25.297
42.22000 24.376
42.23000 22.005
42.24000 24.336
42.25000 19.136
42.26000 23.183
42.27000 17.185
42.28000 15.271
42.29000 28.222
42.30000 16.203
42.31000 11.312
42.32000 28.475
42.33000 25.368
42.34000 15.194
42.35000 34.230
42.36000 25.425
42.37000 20.419
42.38000 19.219
42.39000 16.082
42.40000 23.341
42.41000 20.181
42.42000 18.110
42.43000 25.319
42.44000 18.415
42.45000 29.259
42.46000 13.110
42.47000 23.420
42.48000 32.814
42.49000 18.233
42.50000 14.195
42.51000 15.149
42.52000 20.213
42.53000 18.163
42.54000 25.403
42.55000 18.446
42.56000 20.149
42.57000 24.280
42.58000 21.387
42.59000 24.215
42.60000 14.225
42.61000 25.413
42.62000 21.435
42.63000 27.514
42.64000 22.371
42.65000 26.347
42.66000 26.369
42.67000 15.124
42.68000 24.302
42.69000 25.298
42.70000 25.479
42.71000 23.162
42.72000 22.480
42.73000 25.492
42.74000 18.226
42.75000 17.175
42.76000 33.112
42.77000 17.352
42.78000 21.437
42.79000 30.249
42.80000 25.664
42.81000 21.293
42.82000 23.366
42.83000 24.407
42.84000 23.276
42.85000 31.305
42.86000 24.206
42.87000 26.339
42.88000 16.143
42.89000 17.132
42.90000 21.178
42.91000 23.392
42.92000 29.334
42.93000 13.103
42.94000 25.164
42.95000 20.208
42.96000 16.287
42.97000 21.181
42.98000 13.245
42.99000 25.364
43.00000 26.462
43.01000 16.134
43.02000 21.419
43.03000 27.316
43.04000 31.423
43.05000 23.298
43.06000 21.265
43.07000 24.339
43.08000 29.426
43.09000 23.243
43.10000 27.360
43.11000 24.231
43.12000 22.335
43.13000 21.290
43.14000 28.256
43.15000 19.233
43.16000 20.288
43.17000 26.269
43.18000 27.406
43.19000 20.165
43.20000 17.046
43.21000 26.376
43.22000 25.294
43.23000 13.287
43.24000 18.210
43.25000 28.284
43.26000 20.379
43.27000 25.239
43.28000 17.371
43.29000 22.259
43.30000 27.240
43.31000 25.379
43.32000 23.310
43.33000 21.218
43.34000 23.304
43.35000 21.212
43.36000 29.437
43.37000 15.132
43.38000 19.340
43.39000 30.281
43.40000 20.152
43.41000 28.428
43.42000 16.266
43.43000 16.188
43.44000 23.189
43.45000 25.406
43.46000 21.055
43.47000 21.242
43.48000 12.123
43.49000 19.229
43.50000 25.280
43.51000 23.336
43.52000 19.232
43.53000 15.166
43.54000 20.497
43.55000 23.340
43.56000 19.194
43.57000 22.460
43.58000 21.147
43.59000 30.340
43.60000 23.327
43.61000 13.093
43.62000 30.448
43.63000 18.313
43.64000 20.548
43.65000 29.431
43.66000 33.401
43.67000 17.219
43.68000 22.220
43.69000 16.270
43.70000 18.093
43.71000 23.377
43.72000 18.228
43.73000 17.249
43.74000 21.365
43.75000 21.521
43.76000 17.296
43.77000 21.461
43.78000 29.514
43.79000 16.074
43.80000 18.358
43.81000 24.455
43.82000 21.325
43.83000 17.287
43.84000 15.183
43.85000 13.357
43.86000 19.253
43.87000 30.452
43.88000 18.264
43.89000 22.289
43.90000 22.379
43.91000 16.093
43.92000 23.259
43.93000 18.027
43.94000 21.384
43.95000 14.108
43.96000 13.039
43.97000 22.352
43.98000 10.233
43.99000 28.390
44.00000 20.306
44.01000 21.431
44.02000 21.267
44.03000 18.220
44.04000 28.245
44.05000 18.120
44.06000 19.391
44.07000 15.198
44.08000 22.206
44.09000 15.117
44.10000 26.433
44.11000 23.359
44.12000 15.158
44.13000 20.165
44.14000 25.147
44.15000 17.210
44.16000 28.478
44.17000 15.175
44.18000 33.532
44.19000 25.422
44.20000 15.236
44.21000 19.486
44.22000 20.139
44.23000 19.316
44.24000 20.410
44.25000 25.280
44.26000 18.337
44.27000 20.296
44.28000 25.427
44.29000 17.056
44.30000 23.289
44.31000 24.352
44.32000 18.260
44.33000 24.473
44.34000 26.326
44.35000 24.253
44.36000 25.165
44.37000 17.240
44.38000 20.355
44.39000 13.165
44.40000 24.442
44.41000 21.351
44.42000 24.259
44.43000 19.285
44.44000 19.159
44.45000 25.304
44.46000 28.528
44.47000 23.066
44.48000 27.293
44.49000 32.462
44.50000 29.141
44.51000 24.499
44.52000 22.232
44.53000 21.360
44.54000 28.429
44.55000 31.390
44.56000 23.291
44.57000 25.454
44.58000 22.239
44.59000 27.590
44.60000 29.566
44.61000 21.082
44.62000 21.312
44.63000 23.380
44.64000 20.412
44.65000 18.243
44.66000 17.036
44.67000 23.442
44.68000 19.094
44.69000 17.236
44.70000 20.319
44.71000 26.515
44.72000 25.218
44.73000 22.290
44.74000 16.152
44.75000 26.254
44.76000 21.394
44.77000 16.418
44.78000 19.231
44.79000 27.308
44.80000 19.218
44.81000 22.287
44.82000 16.282
44.83000 26.176
44.84000 28.372
44.85000 27.366
44.86000 16.098
44.87000 21.183
44.88000 27.323
44.89000 28.516
44.90000 18.339
44.91000 29.351
44.92000 26.354
44.93000 30.367
44.94000 23.246
44.95000 16.222
44.96000 22.495
44.97000 25.309
44.98000 15.242
44.99000 15.136
45.00000 26.387
45.01000 26.246
45.02000 30.395
45.03000 27.230
45.04000 22.390
45.05000 28.568
45.06000 24.264
45.07000 24.152
45.08000 16.281
45.09000 22.305
45.10000 16.226
45.11000 15.145
45.12000 24.327
45.13000 22.224
45.14000 19.113
45.15000 15.228
45.16000 17.200
45.17000 25.367
45.18000 23.232
45.19000 14.162
45.20000 18.302
45.21000 23.419
45.22000 17.272
45.23000 17.405
45.24000 18.131
45.25000 21.040
45.26000 18.214
45.27000 26.405
45.28000 22.278
45.29000 30.592
45.30000 23.222
45.31000 13.160
45.32000 19.221
45.33000 23.428
45.34000 17.158
45.35000 26.174
45.36000 19.209
45.37000 21.308
45.38000 14.019
45.39000 18.254
45.40000 23.053
45.41000 24.362
45.42000 18.190
45.43000 20.319
45.44000 24.357
45.45000 14.084
45.46000 21.313
45.47000 25.205
45.48000 24.390
45.49000 26.490
45.50000 19.249
45.51000 26.175
45.52000 23.327
45.53000 20.251
45.54000 20.215
45.55000 21.388
45.56000 20.415
45.57000 20.278
45.58000 26.661
45.59000 21.277
45.60000 27.292
45.61000 23.266
45.62000 17.318
45.63000 19.215
45.64000 16.303
45.65000 17.359
45.66000 26.368
45.67000 23.157
45.68000 20.114
45.69000 25.322
45.70000 14.070
45.71000 23.211
45.72000 26.375
45.73000 22.338
45.74000 27.395
45.75000 23.170
45.76000 24.203
45.77000 19.271
45.78000 12.266
45.79000 23.202
45.80000 24.380
45.81000 25.442
45.82000 16.293
45.83000 15.179
45.84000 19.195
45.85000 23.340
45.86000 18.133
45.87000 18.170
45.88000 27.348
45.89000 13.295
45.90000 24.325
45.91000 22.428
45.92000 24.430
45.93000 15.302
45.94000 17.438
45.95000 24.305
45.96000 21.290
45.97000 26.142
45.98000 16.161
45.99000 15.125
46.00000 13.237
46.01000 18.272
46.02000 24.534
46.03000 32.426
46.04000 19.212
46.05000 24.319
46.06000 21.106
46.07000 19.362
46.08000 17.193
46.09000 27.264
46.10000 17.203
46.11000 20.041
46.12000 29.355
46.13000 16.224
46.14000 16.294
46.15000 13.183
46.16000 23.297
46.17000 18.298
46.18000 19.367
46.19000 19.181
46.20000 26.977
46.21000 22.193
46.22000 29.342
46.23000 25.163
46.24000 25.330
46.25000 17.142
46.26000 24.419
46.27000 15.217
46.28000 23.351
46.29000 18.256
46.30000 27.411
46.31000 13.987
46.32000 19.415
46.33000 23.340
46.34000 27.404
46.35000 19.439
46.36000 17.139
46.37000 27.542
46.38000 31.244
46.39000 24.312
46.40000 20.167
46.41000 25.383
46.42000 14.163
46.43000 18.010
46.44000 30.251
46.45000 18.119
46.46000 26.499
46.47000 22.280
46.48000 26.460
46.49000 22.058
46.50000 19.039
46.51000 11.089
46.52000 22.971
46.53000 16.270
46.54000 13.011
46.55000 14.245
46.56000 22.327
46.57000 19.288
46.58000 20.231
46.59000 20.284
46.60000 26.277
46.61000 20.234
46.62000 18.223
46.63000 20.113
46.64000 29.530
46.65000 28.357
46.66000 23.246
46.67000 21.166
46.68000 28.466
46.69000 20.325
46.70000 18.242
46.71000 21.450
46.72000 15.263
46.73000 26.111
46.74000 24.160
46.75000 23.318
46.76000 21.225
46.77000 24.352
46.78000 21.289
46.79000 24.212
46.80000 13.113
46.81000 19.158
46.82000 13.998
46.83000 15.265
46.84000 19.223
46.85000 22.155
46.86000 21.219
46.87000 29.561
46.88000 18.063
46.89000 18.192
46.90000 22.311
46.91000 24.538
46.92000 20.217
46.93000 28.441
46.94000 24.149
46.95000 21.228
46.96000 15.152
46.97000 23.393
46.98000 24.333
46.99000 22.297
47.00000 25.368
47.01000 12.165
47.02000 34.372
47.03000 18.284
47.04000 20.245
47.05000 12.307
47.06000 16.215
47.07000 23.333
47.08000 25.216
47.09000 16.241
47.10000 19.493
47.11000 16.229
47.12000 18.337
47.13000 15.101
47.14000 25.405
47.15000 24.276
47.16000 17.483
47.17000 19.223
47.18000 22.149
47.19000 23.369
47.20000 27.358
47.21000 22.268
47.22000 26.460
47.23000 21.507
47.24000 15.197
47.25000 17.245
47.26000 16.220
47.27000 22.244
47.28000 23.260
47.29000 23.363
47.30000 12.167
47.31000 20.240
47.32000 22.248
47.33000 24.436
47.34000 21.196
47.35000 24.484
47.36000 31.665
47.37000 20.297
47.38000 27.645
47.39000 21.057
47.40000 25.194
47.41000 24.152
47.42000 12.106
47.43000 12.125
47.44000 17.140
47.45000 15.154
47.46000 24.356
47.47000 28.292
47.48000 20.290
47.49000 25.340
47.50000 19.289
47.51000 16.236
47.52000 19.401
47.53000 17.181
47.54000 24.156
47.55000 21.404
47.56000 18.152
47.57000 23.279
47.58000 17.424
47.59000 28.473
47.60000 25.367
47.61000 21.229
47.62000 16.310
47.63000 10.140
47.64000 16.355
47.65000 23.654
47.66000 20.288
47.67000 19.312
47.68000 18.222
47.69000 24.429
47.70000 12.198
47.71000 18.216
47.72000 14.212
47.73000 20.317
47.74000 19.227
47.75000 17.191
47.76000 13.156
47.77000 22.227
47.78000 22.290
47.79000 11.165
47.80000 16.121
47.81000 16.105
47.82000 22.530
47.83000 21.468
47.84000 23.265
47.85000 22.312
47.86000 22.247
47.87000 16.253
47.88000 25.319
47.89000 21.264
47.90000 23.218
47.91000 13.088
47.92000 19.260
47.93000 16.155
47.94000 21.523
47.95000 23.315
47.96000 19.253
47.97000 20.102
47.98000 26.345
47.99000 23.236
48.00000 19.281
48.01000 19.298
48.02000 12.215
48.03000 15.121
48.04000 22.222
48.05000 17.369
48.06000 13.124
48.07000 19.548
48.08000 19.313
48.09000 17.153
48.10000 12.327
48.11000 22.249
48.12000 21.281
48.13000 24.547
48.14000 23.424
48.15000 23.443
48.16000 17.312
48.17000 24.188
48.18000 17.197
48.19000 16.280
48.20000 25.255
48.21000 14.182
48.22000 20.202
48.23000 21.120
48.24000 19.201
48.25000 24.413
48.26000 15.061
48.27000 28.635
48.28000 14.259
48.29000 13.052
48.30000 26.368
48.31000 12.249
48.32000 18.128
48.33000 17.178
48.34000 20.263
48.35000 21.085
48.36000 22.244
48.37000 12.139
48.38000 21.312
48.39000 17.295
48.40000 24.378
48.41000 14.150
48.42000 22.329
48.43000 24.178
48.44000 19.364
48.45000 22.248
48.46000 22.157
48.47000 20.206
48.48000 21.259
48.49000 20.123
48.50000 13.109
48.51000 20.162
48.52000 22.384
48.53000 22.350
48.54000 12.222
48.55000 16.176
48.56000 17.308
48.57000 16.217
48.58000 20.225
48.59000 16.160
48.60000 19.506
48.61000 29.346
48.62000 21.226
48.63000 22.322
48.64000 24.254
48.65000 19.259
48.66000 12.027
48.67000 18.419
48.68000 12.152
48.69000 12.230
48.70000 21.241
48.71000 20.237
48.72000 18.095
48.73000 18.284
48.74000 24.233
48.75000 21.386
48.76000 20.081
48.77000 20.373
48.78000 17.344
48.79000 18.129
48.80000 22.280
48.81000 10.189
48.82000 12.193
48.83000 17.328
48.84000 20.325
48.85000 12.966
48.86000 17.268
48.87000 23.281
48.88000 24.485
48.89000 20.189
48.90000 14.164
48.91000 18.180
48.92000 20.186
48.93000 22.583
48.94000 25.344
48.95000 11.045
48.96000 17.317
48.97000 21.045
48.98000 16.306
48.99000 7.945
49.00000 20.304
49.01000 18.215
49.02000 21.442
49.03000 20.031
49.04000 18.339
49.05000 20.227
49.06000 21.231
49.07000 23.328
49.08000 16.182
49.09000 14.180
49.10000 18.373
49.11000 14.438
49.12000 17.343
49.13000 19.283
49.14000 17.136
49.15000 24.290
49.16000 23.281
49.17000 19.382
49.18000 16.027
49.19000 19.223
49.20000 19.398
49.21000 22.254
49.22000 27.313
49.23000 20.368
49.24000 26.143
49.25000 15.167
49.26000 18.390
49.27000 15.148
49.28000 12.994
49.29000 15.277
49.30000 22.444
49.31000 20.178
49.32000 16.126
49.33000 20.523
49.34000 15.287
49.35000 8.054
49.36000 20.322
49.37000 15.180
49.38000 11.108
49.39000 16.161
49.40000 24.356
49.41000 11.098
49.42000 20.245
49.43000 14.274
49.44000 16.207
49.45000 19.365
49.46000 15.233
49.47000 12.164
49.48000 9.083
49.49000 18.243
49.50000 13.182
49.51000 19.426
49.52000 19.428
49.53000 16.205
49.54000 14.152
49.55000 15.202
49.56000 16.110
49.57000 17.210
49.58000 17.214
49.59000 20.177
49.60000 22.364
49.61000 15.247
49.62000 22.374
49.63000 19.310
49.64000 16.311
49.65000 17.172
49.66000 29.461
49.67000 24.578
49.68000 18.362
49.69000 16.146
49.70000 17.216
49.71000 20.264
49.72000 20.354
49.73000 21.452
49.74000 21.394
49.75000 19.254
49.76000 17.042
49.77000 11.146
49.78000 20.090
49.79000 17.079
49.80000 8.086
49.81000 20.391
49.82000 18.248
49.83000 26.292
49.84000 12.066
49.85000 19.255
49.86000 12.111
49.87000 15.248
49.88000 13.051
49.89000 23.319
49.90000 19.241
49.91000 18.243
49.92000 14.251
49.93000 20.287
49.94000 22.352
49.95000 13.048
49.96000 22.194
49.97000 22.148
49.98000 18.213
49.99000 14.067
50.00000 16.422
50.01000 23.158
50.02000 16.270
50.03000 18.342
50.04000 13.105
50.05000 18.232
50.06000 21.271
50.07000 18.246
50.08000 24.388
50.09000 22.328
50.10000 16.072
50.11000 15.158
50.12000 14.071
50.13000 13.088
50.14000 20.308
50.15000 21.479
50.16000 17.998
50.17000 22.423
50.18000 11.258
50.19000 14.063
50.20000 10.177
50.21000 12.024
50.22000 21.071
50.23000 12.132
50.24000 17.121
50.25000 16.167
50.26000 14.277
50.27000 17.110
50.28000 13.133
50.29000 19.482
50.30000 18.195
50.31000 16.208
50.32000 17.204
50.33000 17.207
50.34000 16.119
50.35000 19.183
50.36000 19.237
50.37000 22.406
50.38000 21.277
50.39000 18.232
50.40000 18.195
50.41000 17.123
50.42000 21.317
50.43000 20.351
50.44000 22.342
50.45000 20.256
50.46000 14.142
50.47000 17.267
50.48000 18.352
50.49000 24.496
50.50000 14.202
50.51000 23.530
50.52000 16.051
50.53000 10.135
50.54000 32.336
50.55000 19.089
50.56000 15.204
50.57000 18.349
50.58000 30.259
50.59000 24.436
50.60000 21.142
50.61000 14.254
50.62000 22.231
50.63000 18.128
50.64000 6.054
50.65000 20.219
50.66000 12.202
50.67000 17.097
50.68000 17.105
50.69000 16.088
50.70000 20.504
50.71000 22.209
50.72000 23.373
50.73000 24.386
50.74000 16.353
50.75000 15.345
50.76000 17.242
50.77000 17.171
50.78000 17.124
50.79000 20.263
50.80000 16.189
50.81000 21.513
50.82000 14.054
50.83000 13.122
50.84000 16.273
50.85000 22.547
50.86000 9.043
50.87000 17.026
50.88000 15.147
50.89000 13.110
50.90000 19.243
50.91000 22.360
50.92000 13.068
50.93000 15.318
50.94000 15.318
50.95000 14.299
50.96000 15.189
50.97000 17.123
50.98000 20.053
50.99000 10.183
51.00000 16.068
51.01000 23.223
51.02000 18.166
51.03000 15.177
51.04000 15.074
51.05000 22.198
51.06000 18.213
51.07000 8.286
51.08000 17.312
51.09000 14.942
51.10000 21.455
51.11000 24.330
51.12000 12.205
51.13000 15.133
51.14000 17.131
51.15000 14.999
51.16000 22.345
51.17000 15.224
51.18000 6.046
51.19000 15.156
51.20000 15.312
51.21000 8.125
51.22000 15.363
51.23000 10.991
51.24000 21.234
51.25000 18.271
51.26000 15.106
51.27000 19.292
51.28000 12.995
51.29000 15.286
51.30000 14.344
51.31000 14.100
51.32000 21.213
51.33000 16.223
51.34000 14.240
51.35000 14.207
51.36000 24.276
51.37000 19.294
51.38000 18.296
51.39000 19.397
51.40000 16.287
51.41000 13.213
51.42000 15.189
51.43000 20.364
51.44000 14.078
51.45000 16.276
51.46000 13.082
51.47000 14.271
51.48000 28.410
51.49000 15.096
51.50000 17.413
51.51000 11.251
51.52000 19.252
51.53000 11.027
51.54000 11.130
51.55000 17.961
51.56000 13.267
51.57000 19.317
51.58000 21.329
51.59000 16.196
51.60000 21.346
51.61000 22.185
51.62000 17.254
51.63000 13.157
51.64000 11.134
51.65000 20.226
51.66000 15.133
51.67000 14.316
51.68000 16.191
51.69000 15.153
51.70000 21.234
51.71000 15.345
51.72000 14.086
51.73000 13.291
51.74000 24.359
51.75000 15.141
51.76000 17.254
51.77000 14.117
51.78000 17.337
51.79000 18.189
51.80000 14.074
51.81000 23.442
51.82000 9.009
51.83000 17.471
51.84000 28.383
51.85000 16.246
51.86000 18.295
51.87000 22.282
51.88000 14.009
51.89000 12.044
51.90000 15.241
51.91000 8.153
51.92000 14.277
51.93000 14.116
51.94000 12.014
51.95000 12.087
51.96000 19.132
51.97000 13.212
51.98000 8.089
51.99000 9.042
52.00000 13.205
52.01000 14.137
52.02000 17.249
52.03000 17.221
52.04000 15.241
52.05000 19.217
52.06000 9.146
52.07000 17.204
52.08000 20.338
52.09000 11.158
52.10000 13.148
52.11000 17.273
52.12000 19.213
52.13000 10.302
52.14000 11.198
52.15000 14.192
52.16000 12.178
52.17000 22.094
52.18000 11.180
52.19000 17.154
52.20000 21.483
52.21000 17.284
52.22000 22.130
52.23000 18.006
52.24000 10.158
52.25000 20.073
52.26000 15.072
52.27000 12.135
52.28000 17.169
52.29000 13.044
52.30000 18.403
52.31000 20.094
52.32000 10.172
52.33000 18.084
52.34000 12.110
52.35000 15.255
52.36000 15.103
52.37000 13.007
52.38000 20.263
52.39000 14.224
52.40000 13.046
52.41000 15.232
52.42000 21.183
52.43000 14.963
52.44000 16.129
52.45000 17.157
52.46000 17.359
52.47000 22.349
52.48000 16.180
52.49000 11.006
52.50000 16.239
52.51000 17.499
52.52000 16.257
52.53000 22.232
52.54000 13.180
52.55000 19.229
52.56000 11.343
52.57000 16.283
52.58000 18.192
52.59000 16.258
52.60000 10.150
52.61000 12.194
52.62000 16.225
52.63000 8.081
52.64000 12.173
52.65000 18.243
52.66000 12.064
52.67000 18.243
52.68000 13.060
52.69000 8.104
52.70000 15.129
52.71000 17.120
52.72000 11.177
52.73000 20.258
52.74000 14.061
52.75000 14.193
52.76000 25.328
52.77000 13.306
52.78000 14.233
52.79000 13.147
52.80000 18.163
52.81000 11.168
52.82000 14.133
52.83000 19.299
52.84000 13.106
52.85000 12.056
52.86000 12.320
52.87000 25.414
52.88000 12.121
52.89000 20.346
52.90000 16.082
52.91000 20.555
52.92000 14.289
52.93000 18.315
52.94000 14.370
52.95000 14.226
52.96000 27.419
52.97000 19.272
52.98000 9.166
52.99000 16.136
53.00000 15.357
53.01000 18.296
53.02000 20.246
53.03000 8.112
53.04000 11.167
53.05000 19.463
53.06000 14.221
53.07000 16.275
53.08000 12.165
53.09000 13.319
53.10000 21.191
53.11000 16.322
53.12000 9.120
53.13000 20.467
53.14000 20.250
53.15000 13.048
53.16000 19.056
53.17000 13.158
53.18000 11.042
53.19000 18.216
53.20000 11.111
53.21000 20.342
53.22000 14.167
53.23000 11.096
53.24000 17.202
53.25000 13.304
53.26000 14.052
53.27000 20.255
53.28000 13.134
53.29000 14.185
53.30000 22.118
53.31000 15.206
53.32000 19.290
53.33000 19.315
53.34000 13.132
53.35000 14.342
53.36000 22.113
53.37000 14.208
53.38000 16.177
53.39000 17.172
53.40000 11.200
53.41000 17.416
53.42000 7.125
53.43000 16.226
53.44000 15.370
53.45000 12.988
53.46000 15.415
53.47000 16.131
53.48000 13.350
53.49000 9.078
53.50000 10.224
53.51000 8.082
53.52000 20.323
53.53000 9.159
53.54000 18.335
53.55000 12.251
53.56000 17.279
53.57000 22.267
53.58000 15.193
53.59000 8.144
53.60000 12.155
53.61000 19.225
53.62000 13.254
53.63000 18.163
53.64000 9.131
53.65000 15.241
53.66000 9.018
53.67000 12.165
53.68000 20.398
53.69000 15.210
53.70000 15.047
53.71000 8.135
53.72000 15.135
53.73000 8.039
53.74000 14.289
53.75000 14.166
53.76000 11.049
53.77000 15.148
53.78000 18.269
53.79000 13.242
53.80000 12.194
53.81000 9.031
53.82000 10.164
53.83000 9.086
53.84000 14.129
53.85000 9.082
53.86000 18.396
53.87000 8.991
53.88000 18.064
53.89000 19.246
53.90000 9.153
53.91000 14.147
53.92000 12.253
53.93000 14.157
53.94000 13.071
53.95000 14.178
53.96000 12.243
53.97000 9.179
53.98000 10.960
53.99000 16.191
54.00000 12.067
54.01000 15.423
54.02000 18.212
54.03000 15.292
54.04000 11.978
54.05000 17.213
54.06000 8.143
54.07000 10.042
54.08000 18.513
54.09000 14.129
54.10000 13.148
54.11000 13.154
54.12000 16.091
54.13000 16.312
54.14000 12.158
54.15000 11.146
54.16000 16.233
54.17000 16.106
54.18000 17.195
54.19000 13.138
54.20000 13.233
54.21000 12.115
54.22000 20.090
54.23000 11.213
54.24000 13.148
54.25000 5.124
54.26000 24.474
54.27000 10.068
54.28000 17.118
54.29000 12.130
54.30000 16.171
54.31000 15.374
54.32000 13.257
54.33000 23.182
54.34000 8.153
54.35000 16.290
54.36000 14.085
54.37000 11.027
54.38000 17.182
54.39000 15.342
54.40000 14.259
54.41000 21.384
54.42000 9.150
54.43000 14.003
54.44000 15.267
54.45000 12.021
54.46000 17.297
54.47000 14.298
54.48000 17.235
54.49000 12.328
54.50000 10.194
54.51000 15.138
54.52000 10.249
54.53000 7.187
54.54000 14.197
54.55000 17.119
54.56000 11.016
54.57000 19.207
54.58000 11.087
54.59000 11.203
54.60000 13.223
54.61000 9.147
54.62000 11.092
54.63000 9.089
54.64000 6.052
54.65000 14.189
54.66000 15.218
54.67000 9.112
54.68000 17.240
54.69000 15.324
54.70000 14.148
54.71000 18.206
54.72000 11.181
54.73000 13.266
54.74000 16.179
54.75000 12.071
54.76000 15.288
54.77000 17.145
54.78000 14.187
54.79000 12.175
54.80000 21.264
54.81000 11.372
54.82000 10.134
54.83000 13.167
54.84000 18.421
54.85000 21.399
54.86000 16.287
54.87000 20.208
54.88000 11.190
54.89000 12.193
54.90000 10.305
54.91000 15.316
54.92000 18.320
54.93000 14.243
54.94000 11.971
54.95000 15.211
54.96000 10.154
54.97000 19.334
54.98000 11.052
54.99000 10.010
55.00000 7.097
55.01000 15.170
55.02000 17.407
55.03000 11.101
55.04000 14.213
55.05000 19.395
55.06000 14.309
55.07000 17.346
55.08000 20.150
55.09000 18.388
55.10000 9.044
55.11000 16.134
55.12000 9.109
55.13000 13.259
55.14000 21.068
55.15000 13.978
55.16000 16.118
55.17000 20.040
55.18000 16.467
55.19000 18.134
55.20000 16.080
55.21000 14.137
55.22000 26.129
55.23000 14.235
55.24000 22.448
55.25000 19.317
55.26000 20.313
55.27000 16.182
55.28000 12.077
55.29000 11.148
55.30000 11.072
55.31000 6.979
55.32000 15.128
55.33000 16.033
55.34000 15.143
55.35000 11.206
55.36000 16.236
55.37000 6.033
55.38000 10.122
55.39000 12.206
55.40000 17.335
55.41000 17.365
55.42000 14.044
55.43000 22.272
55.44000 12.102
55.45000 12.069
55.46000 13.145
55.47000 12.005
55.48000 17.360
55.49000 16.042
55.50000 16.186
55.51000 17.141
55.52000 21.570
55.53000 9.125
55.54000 11.129
55.55000 18.303
55.56000 8.079
55.57000 15.057
55.58000 12.095
55.59000 10.176
55.60000 7.106
55.61000 16.369
55.62000 16.411
55.63000 11.119
55.64000 8.131
55.65000 7.120
55.66000 7.054
55.67000 7.094
55.68000 5.115
55.69000 10.010
55.70000 17.258
55.71000 18.295
55.72000 8.029
55.73000 16.188
55.74000 16.264
55.75000 7.029
55.76000 11.035
55.77000 10.141
55.78000 14.134
55.79000 14.149
55.80000 8.130
55.81000 9.995
55.82000 16.337
55.83000 16.178
55.84000 14.131
55.85000 10.079
55.86000 12.028
55.87000 12.223
55.88000 9.178
55.89000 14.127
55.90000 11.339
55.91000 9.188
55.92000 13.173
55.93000 13.018
55.94000 13.066
55.95000 15.081
55.96000 8.142
55.97000 15.235
55.98000 11.153
55.99000 16.297
56.00000 15.216
56.01000 6.092
56.02000 11.041
56.03000 11.056
56.04000 15.029
56.05000 16.199
56.06000 18.353
56.07000 19.222
56.08000 16.313
56.09000 13.957
56.10000 16.249
56.11000 9.101
56.12000 13.091
56.13000 10.141
56.14000 12.234
56.15000 16.277
56.16000 8.960
56.17000 13.034
56.18000 10.069
56.19000 9.047
56.20000 7.013
56.21000 13.126
56.22000 17.067
56.23000 6.030
56.24000 18.214
56.25000 14.153
56.26000 13.106
56.27000 8.055
56.28000 12.125
56.29000 9.032
56.30000 9.978
56.31000 11.147
56.32000 26.284
56.33000 18.276
56.34000 14.214
56.35000 12.080
56.36000 14.080
56.37000 13.188
56.38000 20.253
56.39000 9.013
56.40000 10.286
56.41000 13.239
56.42000 14.104
56.43000 13.168
56.44000 14.217
56.45000 11.163
56.46000 18.418
56.47000 12.210
56.48000 19.148
56.49000 20.337
56.50000 16.127
56.51000 14.227
56.52000 8.043
56.53000 18.098
56.54000 18.285
56.55000 9.142
56.56000 11.252
56.57000 10.170
56.58000 13.197
56.59000 16.158
56.60000 6.138
56.61000 13.094
56.62000 13.200
56.63000 13.357
56.64000 14.126
56.65000 16.315
56.66000 15.201
56.67000 14.242
56.68000 12.232
56.69000 16.125
56.70000 11.071
56.71000 8.053
56.72000 17.197
56.73000 11.210
56.74000 14.128
56.75000 13.103
56.76000 12.155
56.77000 5.051
56.78000 8.199
56.79000 11.174
56.80000 10.143
56.81000 10.071
56.82000 17.249
56.83000 16.288
56.84000 9.004
56.85000 14.326
56.86000 11.022
56.87000 11.168
56.88000 12.148
56.89000 13.226
56.90000 10.022
56.91000 14.041
56.92000 12.168
56.93000 10.182
56.94000 11.199
56.95000 12.063
56.96000 17.218
56.97000 11.026
56.98000 11.160
56.99000 8.096
57.00000 8.135
57.01000 11.122
57.02000 5.018
57.03000 19.141
57.04000 11.119
57.05000 16.321
57.06000 18.374
57.07000 14.074
57.08000 14.121
57.09000 11.087
57.10000 15.199
57.11000 16.188
57.12000 6.174
57.13000 18.034
57.14000 11.133
57.15000 11.144
57.16000 10.227
57.17000 6.011
57.18000 10.026
57.19000 6.163
57.20000 15.051
57.21000 12.224
57.22000 11.071
57.23000 8.212
57.24000 14.095
57.25000 15.036
57.26000 15.137
57.27000 17.140
57.28000 14.320
57.29000 11.070
57.30000 7.102
57.31000 12.278
57.32000 16.099
57.33000 11.248
57.34000 7.081
57.35000 12.964
57.36000 10.119
57.37000 12.112
57.38000 14.030
57.39000 13.152
57.40000 17.120
57.41000 10.088
57.42000 12.040
57.43000 12.056
57.44000 18.214
57.45000 13.235
57.46000 11.264
57.47000 9.997
57.48000 5.943
57.49000 13.093
57.50000 12.076
57.51000 12.156
57.52000 15.208
57.53000 10.071
57.54000 11.060
57.55000 8.106
57.56000 10.070
57.57000 9.068
57.58000 14.254
57.59000 10.156
57.60000 15.222
57.61000 14.137
57.62000 13.266
57.63000 22.199
57.64000 12.174
57.65000 8.143
57.66000 9.102
57.67000 12.199
57.68000 19.175
57.69000 15.433
57.70000 7.139
57.71000 6.103
57.72000 5.116
57.73000 10.082
57.74000 9.076
57.75000 10.972
57.76000 14.159
57.77000 10.143
57.78000 10.170
57.79000 9.153
57.80000 14.959
57.81000 7.108
57.82000 7.056
57.83000 5.036
57.84000 11.117
57.85000 12.027
57.86000 13.322
57.87000 15.122
57.88000 11.149
57.89000 13.104
57.90000 13.235
57.91000 12.308
57.92000 16.143
57.93000 13.246
57.94000 14.116
57.95000 7.089
57.96000 5.063
57.97000 13.060
57.98000 9.111
57.99000 15.220
58.00000 13.212
58.01000 13.105
58.02000 11.040
58.03000 13.150
58.04000 15.096
58.05000 10.018
58.06000 13.166
58.07000 14.323
58.08000 11.101
58.09000 10.205
58.10000 20.113
58.11000 16.092
58.12000 11.010
58.13000 4.980
58.14000 10.076
58.15000 12.255
58.16000 10.934
58.17000 7.076
58.18000 10.153
58.19000 5.182
58.20000 17.235
58.21000 8.015
58.22000 9.140
58.23000 10.130
58.24000 16.027
58.25000 14.133
58.26000 8.067
58.27000 13.049
58.28000 9.045
58.29000 11.255
58.30000 12.244
58.31000 15.200
58.32000 17.177
58.33000 15.168
58.34000 11.277
58.35000 15.121
58.36000 7.064
58.37000 9.116
58.38000 8.151
58.39000 10.018
58.40000 10.195
58.41000 8.198
58.42000 12.149
58.43000 9.207
58.44000 11.225
58.45000 11.134
58.46000 11.196
58.47000 11.222
58.48000 17.130
58.49000 9.220
58.50000 8.114
58.51000 11.072
58.52000 15.201
58.53000 10.277
58.54000 14.149
58.55000 9.121
58.56000 11.964
58.57000 6.208
58.58000 9.069
58.59000 10.074
58.60000 11.114
58.61000 6.080
58.62000 16.285
58.63000 17.173
58.64000 11.165
58.65000 13.060
58.66000 12.098
58.67000 9.139
58.68000 13.185
58.69000 12.170
58.70000 5.022
58.71000 9.108
58.72000 9.056
58.73000 11.147
58.74000 7.130
58.75000 12.151
58.76000 13.044
58.77000 10.206
58.78000 16.221
58.79000 11.087
58.80000 13.364
58.81000 15.203
58.82000 7.076
58.83000 11.077
58.84000 12.234
58.85000 7.058
58.86000 10.127
58.87000 6.999
58.88000 13.046
58.89000 12.092
58.90000 11.364
58.91000 13.204
58.92000 13.106
58.93000 10.249
58.94000 10.039
58.95000 10.233
58.96000 11.194
58.97000 12.200
58.98000 14.129
58.99000 7.010
59.00000 10.171
59.01000 10.149
59.02000 8.986
59.03000 13.278
59.04000 13.057
59.05000 7.052
59.06000 13.988
59.07000 4.065
59.08000 9.075
59.09000 13.191
59.10000 8.031
59.11000 5.067
59.12000 14.946
59.13000 19.351
59.14000 9.205
59.15000 15.323
59.16000 11.148
59.17000 12.178
59.18000 11.107
59.19000 13.237
59.20000 8.100
59.21000 11.079
59.22000 9.109
59.23000 10.182
59.24000 9.328
59.25000 11.186
59.26000 9.163
59.27000 10.056
59.28000 8.098
59.29000 10.023
59.30000 11.106
59.31000 14.079
59.32000 3.027
59.33000 13.207
59.34000 6.163
59.35000 12.088
59.36000 11.131
59.37000 12.076
59.38000 8.166
59.39000 14.117
59.40000 10.235
59.41000 14.246
59.42000 12.195
59.43000 5.066
59.44000 4.065
59.45000 11.272
59.46000 9.134
59.47000 10.086
59.48000 6.206
59.49000 13.202
59.50000 16.133
59.51000 9.171
59.52000 10.137
59.53000 8.968
59.54000 10.111
59.55000 7.070
59.56000 7.022
59.57000 13.252
59.58000 7.190
59.59000 11.175
59.60000 13.250
59.61000 12.276
59.62000 9.109
59.63000 13.156
59.64000 12.074
59.65000 11.062
59.66000 12.001
59.67000 13.165
59.68000 11.196
59.69000 10.981
59.70000 9.136
59.71000 9.006
59.72000 13.258
59.73000 7.153
59.74000 9.033
59.75000 11.180
59.76000 13.201
59.77000 5.129
59.78000 12.203
59.79000 9.108
59.80000 9.078
59.81000 5.055
59.82000 11.045
59.83000 9.095
59.84000 13.076
59.85000 11.188
59.86000 12.198
59.87000 9.096
59.88000 12.154
59.89000 14.239
59.90000 14.277
59.91000 8.104
59.92000 14.270
59.93000 6.012
59.94000 8.147
59.95000 10.077
59.96000 11.069
59.97000 13.161
59.98000 7.993
59.99000 13.189
60.00000 17.239
60.01000 13.162
60.02000 13.270
60.03000 12.161
60.04000 9.970
60.05000 7.066
60.06000 4.107
60.07000 8.981
60.08000 9.145
60.09000 15.265
60.10000 8.129
60.11000 9.109
60.12000 9.184
60.13000 10.182
60.14000 7.034
60.15000 12.188
60.16000 13.122
60.17000 12.073
60.18000 12.186
60.19000 11.118
60.20000 7.111
60.21000 7.053
60.22000 8.142
60.23000 6.980
60.24000 10.256
60.25000 15.111
60.26000 13.109
60.27000 7.268
60.28000 7.122
60.29000 8.221
60.30000 17.177
60.31000 10.159
60.32000 11.254
60.33000 14.253
60.34000 11.117
60.35000 14.056
60.36000 9.071
60.37000 14.174
60.38000 5.966
60.39000 8.185
60.40000 7.043
60.41000 6.142
60.42000 7.098
60.43000 9.944
60.44000 7.195
60.45000 9.152
60.46000 10.253
60.47000 6.091
60.48000 14.112
60.49000 5.152
60.50000 7.054
60.51000 15.234
60.52000 7.248
60.53000 11.172
60.54000 10.206
60.55000 13.227
60.56000 10.310
60.57000 7.102
60.58000 21.425
60.59000 11.233
60.60000 10.030
60.61000 8.033
60.62000 12.038
60.63000 9.222
60.64000 8.075
60.65000 5.128
60.66000 12.287
60.67000 12.142
60.68000 10.129
60.69000 7.049
60.70000 8.119
60.71000 11.055
60.72000 9.180
60.73000 10.166
60.74000 5.097
60.75000 9.031
60.76000 18.417
60.77000 8.073
60.78000 9.074
60.79000 5.980
60.80000 6.012
60.81000 18.321
60.82000 11.082
60.83000 6.065
60.84000 8.068
60.85000 8.003
60.86000 10.203
60.87000 10.115
60.88000 9.153
60.89000 15.224
60.90000 11.117
60.91000 9.230
60.92000 11.122
60.93000 18.288
60.94000 17.189
60.95000 15.267
60.96000 13.065
60.97000 9.120
60.98000 6.019
60.99000 9.144
61.00000 11.168
61.01000 11.093
61.02000 9.121
61.03000 7.090
61.04000 8.161
61.05000 15.148
61.06000 10.994
61.07000 13.352
61.08000 6.949
61.09000 6.107
61.10000 9.070
61.11000 8.030
61.12000 7.152
61.13000 9.160
61.14000 17.334
61.15000 11.056
61.16000 8.193
61.17000 14.324
61.18000 8.126
61.19000 11.089
61.20000 11.220
61.21000 6.035
61.22000 8.120
61.23000 9.045
61.24000 6.146
61.25000 6.100
61.26000 7.058
61.27000 7.030
61.28000 15.027
61.29000 13.085
61.30000 11.353
61.31000 15.205
61.32000 6.982
61.33000 10.191
61.34000 9.967
61.35000 9.234
61.36000 5.038
61.37000 11.991
61.38000 14.047
61.39000 13.023
61.40000 8.118
61.41000 9.144
61.42000 7.989
61.43000 9.253
61.44000 14.175
61.45000 10.111
61.46000 6.072
61.47000 13.205
61.48000 5.051
61.49000 11.109
61.50000 8.165
61.51000 9.089
61.52000 6.093
61.53000 14.138
61.54000 9.105
61.55000 2.116
61.56000 11.275
61.57000 11.966
61.58000 7.136
61.59000 14.301
61.60000 17.191
61.61000 17.212
61.62000 12.031
61.63000 9.119
61.64000 10.185
61.65000 7.126
61.66000 9.148
61.67000 11.143
61.68000 12.153
61.69000 10.049
61.70000 9.069
61.71000 5.058
61.72000 7.064
61.73000 13.121
61.74000 9.150
61.75000 10.103
61.76000 11.150
61.77000 7.210
61.78000 7.157
61.79000 13.169
61.80000 8.074
61.81000 8.962
61.82000 5.022
61.83000 6.003
61.84000 10.153
61.85000 8.072
61.86000 4.002
61.87000 6.081
61.88000 9.009
61.89000 10.174
61.90000 5.006
61.91000 9.089
61.92000 7.005
61.93000 4.003
61.94000 8.161
61.95000 12.110
61.96000 6.042
61.97000 8.078
61.98000 8.042
61.99000 5.047
62.00000 11.159
62.01000 6.056
62.02000 8.116
62.03000 12.125
62.04000 9.003
62.05000 6.142
62.06000 9.254
62.07000 5.041
62.08000 4.053
62.09000 12.122
62.10000 8.187
62.11000 6.133
62.12000 6.059
62.13000 5.998
62.14000 10.265
62.15000 10.088
62.16000 6.094
62.17000 10.118
62.18000 10.167
62.19000 12.076
62.20000 12.111
62.21000 8.158
62.22000 3.002
62.23000 12.201
62.24000 6.100
62.25000 10.226
62.26000 7.069
62.27000 8.137
62.28000 6.160
62.29000 13.012
62.30000 3.977
62.31000 8.258
62.32000 4.080
62.33000 10.063
62.34000 10.097
62.35000 13.162
62.36000 5.964
62.37000 9.117
62.38000 8.172
62.39000 5.984
62.40000 12.154
62.41000 11.202
62.42000 8.108
62.43000 8.013
62.44000 13.069
62.45000 10.088
62.46000 3.042
62.47000 8.139
62.48000 3.994
62.49000 9.073
62.50000 5.038
62.51000 5.028
62.52000 6.147
62.53000 9.119
62.54000 9.083
62.55000 12.104
62.56000 10.199
62.57000 15.218
62.58000 19.023
62.59000 10.976
62.60000 10.040
62.61000 13.280
62.62000 13.039
62.63000 8.040
62.64000 3.073
62.65000 4.043
62.66000 12.119
62.67000 6.100
62.68000 5.993
62.69000 6.134
62.70000 7.033
62.71000 5.100
62.72000 11.065
62.73000 7.165
62.74000 7.134
62.75000 8.134
62.76000 8.110
62.77000 8.098
62.78000 7.018
62.79000 7.098
62.80000 5.060
62.81000 6.162
62.82000 14.214
62.83000 11.239
62.84000 10.095
62.85000 8.149
62.86000 7.071
62.87000 7.036
62.88000 8.017
62.89000 8.016
62.90000 9.996
62.91000 7.185
62.92000 12.014
62.93000 9.014
62.94000 10.151
62.95000 11.164
62.96000 7.010
62.97000 10.021
62.98000 6.938
62.99000 7.003
63.00000 10.108
63.01000 9.176
63.02000 3.073
63.03000 5.967
63.04000 9.064
63.05000 7.987
63.06000 16.139
63.07000 12.230
63.08000 15.410
63.09000 10.019
63.10000 8.095
63.11000 5.003
63.12000 8.914
63.13000 10.128
63.14000 10.130
63.15000 7.096
63.16000 9.119
63.17000 9.024
63.18000 11.126
63.19000 10.101
63.20000 9.109
63.21000 8.041
63.22000 2.993
63.23000 14.270
63.24000 9.227
63.25000 9.394
63.26000 8.183
63.27000 11.057
63.28000 11.144
63.29000 14.242
63.30000 10.208
63.31000 10.224
63.32000 5.043
63.33000 5.242
63.34000 9.118
63.35000 11.123
63.36000 11.044
63.37000 13.211
63.38000 9.033
63.39000 7.051
63.40000 11.059
63.41000 8.157
63.42000 5.999
63.43000 8.228
63.44000 11.147
63.45000 8.992
63.46000 9.035
63.47000 6.043
63.48000 9.297
63.49000 9.129
63.50000 6.086
63.51000 6.959
63.52000 7.070
63.53000 16.131
63.54000 8.105
63.55000 11.061
63.56000 8.112
63.57000 6.098
63.58000 7.002
63.59000 14.280
63.60000 8.120
63.61000 7.040
63.62000 10.115
63.63000 13.176
63.64000 8.082
63.65000 13.271
63.66000 12.334
63.67000 7.034
63.68000 4.115
63.69000 9.188
63.70000 15.068
63.71000 3.965
63.72000 8.177
63.73000 9.188
63.74000 7.951
63.75000 12.261
63.76000 4.034
63.77000 6.098
63.78000 11.173
63.79000 9.278
63.80000 5.105
63.81000 8.173
63.82000 11.102
63.83000 9.105
63.84000 5.031
63.85000 8.013
63.86000 10.105
63.87000 10.161
63.88000 7.077
63.89000 10.019
63.90000 8.113
63.91000 1.969
63.92000 3.966
63.93000 12.170
63.94000 4.121
63.95000 2.022
63.96000 8.186
63.97000 9.059
63.98000 5.085
63.99000 6.062
64.00000 9.133
64.01000 4.053
64.02000 6.141
64.03000 7.022
64.04000 8.103
64.05000 10.153
64.06000 4.077
64.07000 10.185
64.08000 10.108
64.09000 4.029
64.10000 12.278
64.11000 14.153
64.12000 6.166
64.13000 11.102
64.14000 5.046
64.15000 5.020
64.16000 13.082
64.17000 8.185
64.18000 0.984
64.19000 8.202
64.20000 8.182
64.21000 5.112
64.22000 9.154
64.23000 5.074
64.24000 9.202
64.25000 7.026
64.26000 13.214
64.27000 10.175
64.28000 10.257
64.29000 11.177
64.30000 8.400
64.31000 5.939
64.32000 12.166
64.33000 10.011
64.34000 6.074
64.35000 7.010
64.36000 10.046
64.37000 7.003
64.38000 9.176
64.39000 11.170
64.40000 8.347
64.41000 8.047
64.42000 4.064
64.43000 4.046
64.44000 10.024
64.45000 6.156
64.46000 3.048
64.47000 12.161
64.48000 5.113
64.49000 10.005
64.50000 12.232
64.51000 7.099
64.52000 14.287
64.53000 8.199
64.54000 6.072
64.55000 5.021
64.56000 12.159
64.57000 10.080
64.58000 13.144
64.59000 7.012
64.60000 8.053
64.61000 7.113
64.62000 9.075
64.63000 4.068
64.64000 2.000
64.65000 11.189
64.66000 4.050
64.67000 7.030
64.68000 7.985
64.69000 6.109
64.70000 9.097
64.71000 11.075
64.72000 9.002
64.73000 7.100
64.74000 9.063
64.75000 4.014
64.76000 4.083
64.77000 4.971
64.78000 9.045
64.79000 7.970
64.80000 6.112
64.81000 9.175
64.82000 11.060
64.83000 9.290
64.84000 7.068
64.85000 6.201
64.86000 6.054
64.87000 10.303
64.88000 12.315
64.89000 11.113
64.90000 10.073
64.91000 15.074
64.92000 8.039
64.93000 7.097
64.94000 11.996
64.95000 6.076
64.96000 5.127
64.97000 13.107
64.98000 10.030
64.99000 12.017
65.00000 3.988
