20.00000 18.327
20.01000 15.258
20.02000 19.295
20.03000 20.231
20.04000 15.290
20.05000 19.394
20.06000 19.978
20.07000 20.331
20.08000 25.184
20.09000 17.272
20.10000 26.184
20.11000 25.486
20.12000 24.388
20.13000 24.490
20.14000 16.243
20.15000 26.251
20.16000 18.303
20.17000 19.390
20.18000 25.185
20.19000 15.237
20.20000 17.223
20.21000 25.174
20.22000 27.423
20.23000 24.231
20.24000 23.403
20.25000 16.334
20.26000 14.130
20.27000 22.269
20.28000 20.161
20.29000 18.190
20.30000 17.174
20.31000 17.315
20.32000 15.107
20.33000 21.352
20.34000 19.278
20.35000 16.156
20.36000 25.188
20.37000 15.361
20.38000 18.168
20.39000 19.518
20.40000 22.256
20.41000 16.259
20.42000 17.082
20.43000 13.157
20.44000 19.207
20.45000 20.279
20.46000 10.134
20.47000 16.188
20.48000 24.128
20.49000 11.226
20.50000 17.265
20.51000 18.303
20.52000 26.235
20.53000 19.310
20.54000 23.273
20.55000 16.238
20.56000 22.238
20.57000 21.254
20.58000 16.234
20.59000 29.440
20.60000 12.054
20.61000 17.292
20.62000 17.233
20.63000 26.350
20.64000 15.186
20.65000 10.116
20.66000 29.303
20.67000 21.101
20.68000 12.148
20.69000 19.182
20.70000 27.220
20.71000 23.150
20.72000 23.406
20.73000 22.206
20.74000 20.162
20.75000 20.334
20.76000 23.408
20.77000 20.357
20.78000 26.436
20.79000 24.239
20.80000 24.310
20.81000 20.231
20.82000 27.279
20.83000 19.285
20.84000 22.317
20.85000 23.295
20.86000 21.420
20.87000 23.163
20.88000 28.220
20.89000 16.993
20.90000 21.342
20.91000 19.218
20.92000 24.252
20.93000 17.238
20.94000 26.121
20.95000 15.197
20.96000 15.187
20.97000 23.214
20.98000 14.102
20.99000 25.096
21.00000 22.237
21.01000 19.171
21.02000 22.130
21.03000 13.174
21.04000 23.275
21.05000 23.320
21.06000 35.755
21.07000 26.338
21.08000 23.204
21.09000 24.177
21.10000 27.286
21.11000 24.293
21.12000 17.219
21.13000 19.370
21.14000 21.239
21.15000 15.041
21.16000 17.183
21.17000 25.371
21.18000 25.316
21.19000 26.245
21.20000 22.209
21.21000 19.221
21.22000 21.211
21.23000 21.230
21.24000 17.183
21.25000 22.142
21.26000 23.300
21.27000 19.225
21.28000 22.410
21.29000 26.444
21.30000 15.062
21.31000 23.250
21.32000 14.060
21.33000 26.396
21.34000 18.347
21.35000 19.202
21.36000 26.251
21.37000 20.032
21.38000 22.273
21.39000 24.463
21.40000 20.243
21.41000 25.447
21.42000 20.254
21.43000 23.294
21.44000 20.160
21.45000 19.493
21.46000 16.117
21.47000 27.256
21.48000 17.332
21.49000 27.707
21.50000 22.296
21.51000 24.099
21.52000 25.521
21.53000 22.313
21.54000 18.316
21.55000 24.411
21.56000 22.285
21.57000 23.222
21.58000 21.464
21.59000 19.383
21.60000 21.444
21.61000 20.321
21.62000 27.430
21.63000 26.562
21.64000 21.232
21.65000 25.256
21.66000 22.185
21.67000 20.269
21.68000 22.578
21.69000 23.444
21.70000 28.319
21.71000 19.470
21.72000 24.406
21.73000 12.157
21.74000 28.178
21.75000 16.343
21.76000 25.628
21.77000 26.156
21.78000 26.380
21.79000 28.166
21.80000 17.159
21.81000 26.276
21.82000 16.084
21.83000 26.324
21.84000 22.057
21.85000 21.509
21.86000 31.493
21.87000 32.470
21.88000 18.133
21.89000 20.457
21.90000 25.158
21.91000 25.155
21.92000 18.292
21.93000 37.469
21.94000 23.251
21.95000 20.156
21.96000 23.509
21.97000 23.299
21.98000 23.301
21.99000 21.340
22.00000 35.296
22.01000 23.191
22.02000 25.306
22.03000 14.036
22.04000 20.307
22.05000 22.150
22.06000 20.355
22.07000 22.157
22.08000 31.580
22.09000 25.150
22.10000 38.813
22.11000 19.186
22.12000 18.322
22.13000 24.422
22.14000 22.275
22.15000 23.147
22.16000 30.410
22.17000 25.382
22.18000 33.668
22.19000 22.191
22.20000 18.159
22.21000 27.415
22.22000 17.226
22.23000 32.359
22.24000 33.356
22.25000 20.280
22.26000 28.379
22.27000 19.402
22.28000 26.562
22.29000 27.338
22.30000 21.177
22.31000 26.274
22.32000 22.358
22.33000 23.360
22.34000 22.360
22.35000 29.305
22.36000 22.299
22.37000 12.159
22.38000 29.383
22.39000 29.292
22.40000 29.236
22.41000 21.332
22.42000 29.500
22.43000 11.098
22.44000 25.357
22.45000 25.214
22.46000 18.242
22.47000 29.434
22.48000 26.335
22.49000 21.150
22.50000 29.265
22.51000 33.378
22.52000 25.427
22.53000 23.108
22.54000 21.511
22.55000 25.347
22.56000 22.190
22.57000 34.413
22.58000 29.321
22.59000 22.158
22.60000 24.247
22.61000 29.391
22.62000 28.491
22.63000 30.560
22.64000 17.197
22.65000 22.363
22.66000 34.473
22.67000 26.336
22.68000 26.376
22.69000 25.085
22.70000 23.319
22.71000 31.254
22.72000 22.277
22.73000 19.260
22.74000 26.455
22.75000 21.215
22.76000 19.321
22.77000 30.513
22.78000 26.572
22.79000 30.570
22.80000 21.189
22.81000 22.180
22.82000 19.371
22.83000 26.404
22.84000 32.318
22.85000 21.449
22.86000 20.349
22.87000 21.113
22.88000 23.330
22.89000 30.533
22.90000 28.281
22.91000 30.252
22.92000 28.349
22.93000 25.371
22.94000 27.418
22.95000 20.234
22.96000 22.323
22.97000 28.322
22.98000 33.545
22.99000 29.530
23.00000 25.129
23.01000 18.253
23.02000 32.179
23.03000 32.544
23.04000 28.267
23.05000 21.178
23.06000 29.420
23.07000 39.609
23.08000 25.265
23.09000 29.351
23.10000 24.121
23.11000 25.413
23.12000 33.474
23.13000 30.476
23.14000 29.418
23.15000 22.046
23.16000 34.318
23.17000 30.342
23.18000 29.311
23.19000 30.252
23.20000 23.298
23.21000 28.477
23.22000 33.360
23.23000 22.306
23.24000 26.426
23.25000 29.325
23.26000 25.075
23.27000 28.141
23.28000 27.405
23.29000 22.112
23.30000 25.405
23.31000 26.287
23.32000 27.397
23.33000 25.446
23.34000 32.445
23.35000 22.065
23.36000 23.345
23.37000 30.100
23.38000 25.336
23.39000 32.438
23.40000 26.340
23.41000 29.385
23.42000 35.498
23.43000 25.225
23.44000 30.234
23.45000 33.406
23.46000 27.196
23.47000 25.464
23.48000 25.313
23.49000 23.188
23.50000 35.275
23.51000 38.582
23.52000 32.505
23.53000 30.623
23.54000 32.416
23.55000 35.561
23.56000 31.315
23.57000 35.547
23.58000 34.493
23.59000 44.252
23.60000 31.554
23.61000 16.257
23.62000 33.330
23.63000 29.416
23.64000 27.532
23.65000 27.371
23.66000 40.491
23.67000 41.485
23.68000 41.584
23.69000 33.316
23.70000 26.568
23.71000 27.315
23.72000 18.200
23.73000 22.354
23.74000 38.601
23.75000 26.217
23.76000 27.250
23.77000 22.456
23.78000 26.480
23.79000 26.560
23.80000 23.202
23.81000 34.673
23.82000 22.338
23.83000 31.481
23.84000 33.631
23.85000 29.640
23.86000 23.274
23.87000 32.195
23.88000 43.437
23.89000 37.502
23.90000 40.904
23.91000 30.530
23.92000 28.429
23.93000 27.317
23.94000 32.733
23.95000 33.320
23.96000 37.682
23.97000 32.354
23.98000 32.359
23.99000 25.168
24.00000 31.420
24.01000 33.417
24.02000 24.424
24.03000 33.354
24.04000 22.337
24.05000 29.321
24.06000 36.564
24.07000 41.664
24.08000 38.450
24.09000 32.460
24.10000 33.578
24.11000 35.508
24.12000 37.398
24.13000 32.168
24.14000 26.195
24.15000 25.316
24.16000 43.689
24.17000 31.428
24.18000 28.420
24.19000 31.193
24.20000 29.255
24.21000 39.759
24.22000 24.552
24.23000 38.503
24.24000 27.512
24.25000 35.538
24.26000 31.319
24.27000 24.334
24.28000 34.285
24.29000 48.650
24.30000 29.333
24.31000 38.745
24.32000 31.448
24.33000 32.412
24.34000 47.734
24.35000 27.452
24.36000 35.304
24.37000 35.468
24.38000 30.370
24.39000 34.805
24.40000 35.500
24.41000 35.265
24.42000 43.761
24.43000 25.381
24.44000 41.642
24.45000 33.295
24.46000 31.281
24.47000 45.951
24.48000 39.509
24.49000 35.604
24.50000 35.341
24.51000 26.497
24.52000 32.367
24.53000 33.638
24.54000 30.471
24.55000 32.445
24.56000 39.607
24.57000 47.660
24.58000 35.330
24.59000 43.862
24.60000 30.586
24.61000 30.371
24.62000 40.723
24.63000 37.672
24.64000 36.287
24.65000 46.343
24.66000 28.513
24.67000 41.402
24.68000 34.240
24.69000 38.587
24.70000 41.631
24.71000 27.376
24.72000 26.375
24.73000 33.380
24.74000 41.676
24.75000 32.298
24.76000 36.508
24.77000 42.425
24.78000 47.708
24.79000 36.511
24.80000 31.437
24.81000 38.446
24.82000 43.959
24.83000 32.248
24.84000 44.006
24.85000 45.804
24.86000 34.692
24.87000 37.561
24.88000 41.509
24.89000 35.211
24.90000 36.565
24.91000 39.352
24.92000 40.597
24.93000 39.419
24.94000 40.719
24.95000 33.290
24.96000 44.399
24.97000 41.504
24.98000 34.481
24.99000 40.354
25.00000 34.401
25.01000 39.547
25.02000 43.504
25.03000 46.555
25.04000 33.601
25.05000 37.588
25.06000 39.399
25.07000 37.432
25.08000 43.613
25.09000 43.575
25.10000 44.531
25.11000 51.714
25.12000 43.262
25.13000 42.695
25.14000 45.551
25.15000 43.521
25.16000 31.324
25.17000 39.298
25.18000 30.465
25.19000 37.338
25.20000 48.006
25.21000 39.709
25.22000 46.582
25.23000 48.584
25.24000 35.645
25.25000 34.490
25.26000 39.256
25.27000 49.789
25.28000 45.692
25.29000 56.853
25.30000 46.639
25.31000 39.382
25.32000 48.484
25.33000 41.784
25.34000 44.769
25.35000 53.486
25.36000 43.489
25.37000 42.735
25.38000 51.911
25.39000 38.796
25.40000 33.566
25.41000 46.314
25.42000 44.553
25.43000 44.355
25.44000 37.475
25.45000 41.558
25.46000 40.427
25.47000 40.648
25.48000 46.897
25.49000 37.939
25.50000 36.696
25.51000 44.461
25.52000 47.782
25.53000 47.388
25.54000 49.591
25.55000 40.322
25.56000 43.672
25.57000 43.711
25.58000 40.314
25.59000 53.167
25.60000 42.278
25.61000 51.082
25.62000 35.560
25.63000 42.507
25.64000 29.350
25.65000 54.785
25.66000 37.215
25.67000 62.973
25.68000 49.870
25.69000 47.551
25.70000 48.478
25.71000 35.372
25.72000 38.194
25.73000 55.891
25.74000 48.804
25.75000 54.976
25.76000 41.400
25.77000 41.491
25.78000 40.455
25.79000 55.513
25.80000 61.849
25.81000 46.506
25.82000 42.433
25.83000 46.607
25.84000 43.694
25.85000 46.487
25.86000 56.794
25.87000 59.770
25.88000 50.698
25.89000 63.712
25.90000 44.499
25.91000 44.758
25.92000 41.469
25.93000 46.142
25.94000 47.827
25.95000 56.964
25.96000 50.820
25.97000 56.514
25.98000 48.512
25.99000 55.810
26.00000 47.633
26.01000 46.559
26.02000 51.955
26.03000 55.285
26.04000 52.089
26.05000 36.487
26.06000 47.591
26.07000 44.487
26.08000 41.474
26.09000 57.609
26.10000 59.966
26.11000 47.771
26.12000 51.698
26.13000 49.046
26.14000 52.991
26.15000 38.666
26.16000 65.590
26.17000 41.351
26.18000 42.658
26.19000 59.803
26.20000 48.694
26.21000 51.985
26.22000 60.843
26.23000 56.762
26.24000 53.715
26.25000 52.547
26.26000 55.478
26.27000 45.538
26.28000 46.615
26.29000 42.831
26.30000 58.822
26.31000 46.608
26.32000 59.899
26.33000 36.420
26.34000 64.711
26.35000 59.641
26.36000 73.056
26.37000 60.978
26.38000 53.877
26.39000 56.902
26.40000 45.379
26.41000 53.261
26.42000 53.669
26.43000 53.600
26.44000 50.889
26.45000 57.806
26.46000 49.791
26.47000 47.689
26.48000 51.477
26.49000 51.121
26.50000 45.306
26.51000 52.425
26.52000 58.629
26.53000 52.632
26.54000 50.166
26.55000 46.697
26.56000 66.882
26.57000 59.951
26.58000 50.549
26.59000 57.514
26.60000 43.795
26.61000 59.653
26.62000 57.979
26.63000 66.745
26.64000 58.752
26.65000 52.547
26.66000 53.112
26.67000 52.677
26.68000 57.685
26.69000 58.766
26.70000 54.614
26.71000 52.876
26.72000 73.216
26.73000 59.821
26.74000 50.646
26.75000 59.906
26.76000 55.637
26.77000 58.720
26.78000 57.457
26.79000 60.749
26.80000 65.964
26.81000 59.873
26.82000 54.738
26.83000 52.650
26.84000 57.707
26.85000 60.782
26.86000 52.793
26.87000 74.075
26.88000 52.770
26.89000 47.704
26.90000 62.761
26.91000 63.714
26.92000 67.785
26.93000 58.809
26.94000 47.454
26.95000 51.492
26.96000 51.823
26.97000 61.679
26.98000 68.688
26.99000 42.578
27.00000 52.034
27.01000 51.962
27.02000 58.084
27.03000 50.505
27.04000 64.041
27.05000 59.908
27.06000 56.985
27.07000 60.950
27.08000 52.588
27.09000 41.742
27.10000 76.971
27.11000 63.871
27.12000 79.025
27.13000 55.555
27.14000 63.886
27.15000 56.799
27.16000 62.841
27.17000 75.766
27.18000 55.700
27.19000 58.568
27.20000 67.815
27.21000 58.140
27.22000 61.583
27.23000 53.923
27.24000 43.901
27.25000 59.942
27.26000 49.595
27.27000 61.608
27.28000 50.814
27.29000 55.611
27.30000 43.882
27.31000 58.752
27.32000 70.930
27.33000 59.228
27.34000 55.588
27.35000 52.567
27.36000 62.807
27.37000 59.645
27.38000 66.790
27.39000 53.933
27.40000 46.806
27.41000 53.645
27.42000 65.036
27.43000 66.781
27.44000 54.828
27.45000 67.239
27.46000 67.584
27.47000 59.079
27.48000 49.563
27.49000 62.539
27.50000 52.816
27.51000 62.643
27.52000 61.874
27.53000 58.707
27.54000 57.711
27.55000 49.861
27.56000 67.720
27.57000 71.806
27.58000 59.820
27.59000 46.658
27.60000 71.916
27.61000 62.009
27.62000 57.577
27.63000 66.671
27.64000 65.266
27.65000 56.979
27.66000 55.861
27.67000 65.725
27.68000 56.988
27.69000 61.799
27.70000 54.776
27.71000 65.039
27.72000 72.053
27.73000 62.032
27.74000 63.971
27.75000 79.717
27.76000 57.441
27.77000 59.808
27.78000 65.131
27.79000 55.831
27.80000 71.004
27.81000 63.323
27.82000 71.037
27.83000 55.909
27.84000 50.520
27.85000 70.431
27.86000 80.957
27.87000 53.634
27.88000 65.023
27.89000 58.919
27.90000 53.168
27.91000 52.709
27.92000 53.808
27.93000 62.078
27.94000 60.893
27.95000 72.076
27.96000 54.903
27.97000 54.528
27.98000 59.996
27.99000 63.906
28.00000 68.508
28.01000 64.601
28.02000 77.064
28.03000 59.752
28.04000 55.791
28.05000 46.548
28.06000 53.628
28.07000 72.215
28.08000 56.456
28.09000 52.539
28.10000 53.744
28.11000 59.924
28.12000 72.096
28.13000 47.684
28.14000 52.712
28.15000 71.937
28.16000 52.703
28.17000 53.470
28.18000 64.907
28.19000 53.568
28.20000 48.699
28.21000 60.418
28.22000 58.834
28.23000 65.049
28.24000 58.757
28.25000 62.184
28.26000 61.853
28.27000 80.216
28.28000 62.041
28.29000 63.843
28.30000 68.952
28.31000 44.981
28.32000 64.587
28.33000 57.566
28.34000 58.746
28.35000 59.046
28.36000 66.059
28.37000 62.685
28.38000 60.831
28.39000 69.772
28.40000 65.728
28.41000 62.983
28.42000 48.631
28.43000 70.144
28.44000 61.929
28.45000 48.708
28.46000 47.626
28.47000 57.730
28.48000 57.730
28.49000 52.090
28.50000 53.714
28.51000 50.679
28.52000 51.584
28.53000 56.591
28.54000 60.952
28.55000 62.110
28.56000 62.655
28.57000 55.743
28.58000 60.974
28.59000 68.971
28.60000 40.761
28.61000 50.979
28.62000 50.504
28.63000 52.598
28.64000 56.820
28.65000 64.204
28.66000 50.768
28.67000 50.917
28.68000 57.930
28.69000 49.570
28.70000 66.710
28.71000 58.110
28.72000 55.596
28.73000 68.879
28.74000 50.610
28.75000 60.609
28.76000 65.801
28.77000 43.535
28.78000 57.897
28.79000 63.956
28.80000 64.412
28.81000 47.618
28.82000 54.855
28.83000 58.665
28.84000 55.924
28.85000 51.653
28.86000 55.587
28.87000 72.077
28.88000 44.783
28.89000 69.815
28.90000 55.797
28.91000 44.182
28.92000 74.931
28.93000 40.530
28.94000 62.831
28.95000 51.450
28.96000 64.779
28.97000 60.741
28.98000 49.502
28.99000 51.748
29.00000 47.692
29.01000 61.580
29.02000 44.892
29.03000 43.667
29.04000 56.816
29.05000 60.971
29.06000 48.870
29.07000 59.334
29.08000 55.006
29.09000 61.799
29.10000 52.778
29.11000 57.949
29.12000 64.235
29.13000 51.745
29.14000 54.929
29.15000 47.649
29.16000 44.653
29.17000 53.778
29.18000 52.668
29.19000 45.596
29.20000 55.815
29.21000 48.582
29.22000 48.717
29.23000 58.920
29.24000 53.462
29.25000 44.710
29.26000 43.703
29.27000 37.462
29.28000 51.720
29.29000 51.719
29.30000 55.449
29.31000 41.534
29.32000 46.658
29.33000 46.519
29.34000 53.603
29.35000 60.638
29.36000 46.623
29.37000 47.785
29.38000 51.642
29.39000 42.567
29.40000 44.647
29.41000 45.443
29.42000 50.838
29.43000 53.730
29.44000 45.865
29.45000 47.268
29.46000 43.307
29.47000 52.651
29.48000 34.314
29.49000 64.768
29.50000 46.584
29.51000 57.813
29.52000 38.482
29.53000 41.652
29.54000 52.635
29.55000 44.564
29.56000 43.441
29.57000 47.919
29.58000 48.785
29.59000 46.781
29.60000 50.649
29.61000 41.543
29.62000 52.693
29.63000 48.339
29.64000 48.155
29.65000 37.471
29.66000 52.061
29.67000 49.562
29.68000 41.487
29.69000 49.609
29.70000 33.531
29.71000 44.660
29.72000 33.268
29.73000 48.800
29.74000 32.337
29.75000 44.895
29.76000 52.904
29.77000 44.996
29.78000 45.784
29.79000 48.417
29.80000 44.528
29.81000 43.592
29.82000 38.510
29.83000 52.939
29.84000 42.733
29.85000 45.498
29.86000 36.413
29.87000 43.573
29.88000 44.478
29.89000 44.822
29.90000 60.000
29.91000 36.318
29.92000 41.585
29.93000 34.607
29.94000 46.542
29.95000 34.275
29.96000 44.456
29.97000 48.630
29.98000 44.626
29.99000 35.618
30.00000 44.061
30.01000 48.678
30.02000 45.546
30.03000 43.722
30.04000 46.802
30.05000 46.593
30.06000 47.588
30.07000 55.120
30.08000 50.559
30.09000 44.828
30.10000 42.633
30.11000 60.906
30.12000 44.641
30.13000 28.354
30.14000 41.557
30.15000 31.448
30.16000 46.741
30.17000 45.464
30.18000 45.526
30.19000 38.581
30.20000 44.792
30.21000 53.865
30.22000 38.596
30.23000 50.641
30.24000 40.686
30.25000 41.679
30.26000 48.776
30.27000 30.475
30.28000 33.196
30.29000 33.537
30.30000 39.469
30.31000 46.872
30.32000 44.607
30.33000 50.642
30.34000 45.662
30.35000 35.192
30.36000 35.697
30.37000 34.298
30.38000 36.466
30.39000 31.483
30.40000 32.669
30.41000 43.586
30.42000 43.660
30.43000 42.766
30.44000 35.652
30.45000 34.355
30.46000 52.627
30.47000 40.539
30.48000 49.485
30.49000 44.298
30.50000 27.497
30.51000 42.635
30.52000 43.697
30.53000 45.708
30.54000 27.329
30.55000 36.533
30.56000 36.680
30.57000 34.793
30.58000 40.448
30.59000 48.385
30.60000 40.710
30.61000 42.472
30.62000 27.311
30.63000 37.574
30.64000 53.474
30.65000 46.786
30.66000 34.357
30.67000 25.194
30.68000 29.435
30.69000 32.494
30.70000 29.251
30.71000 42.667
30.72000 38.771
30.73000 43.578
30.74000 29.482
30.75000 42.446
30.76000 37.691
30.77000 38.602
30.78000 38.199
30.79000 31.343
30.80000 50.659
30.81000 38.439
30.82000 38.673
30.83000 34.370
30.84000 38.528
30.85000 28.204
30.86000 22.294
30.87000 42.320
30.88000 38.473
30.89000 47.602
30.90000 45.743
30.91000 26.590
30.92000 39.510
30.93000 33.361
30.94000 38.810
30.95000 32.634
30.96000 41.797
30.97000 28.517
30.98000 37.716
30.99000 25.436
31.00000 35.324
31.01000 38.412
31.02000 44.494
31.03000 32.281
31.04000 28.306
31.05000 20.176
31.06000 39.283
31.07000 33.354
31.08000 24.174
31.09000 29.301
31.10000 45.513
31.11000 31.546
31.12000 32.374
31.13000 33.476
31.14000 35.616
31.15000 25.219
31.16000 39.504
31.17000 38.522
31.18000 37.263
31.19000 30.536
31.20000 31.341
31.21000 30.286
31.22000 31.382
31.23000 36.620
31.24000 43.357
31.25000 37.382
31.26000 34.356
31.27000 34.438
31.28000 36.408
31.29000 27.152
31.30000 35.235
31.31000 28.403
31.32000 44.852
31.33000 40.412
31.34000 35.499
31.35000 31.669
31.36000 37.587
31.37000 21.257
31.38000 31.584
31.39000 36.423
31.40000 32.418
31.41000 27.076
31.42000 27.194
31.43000 32.517
31.44000 39.668
31.45000 32.249
31.46000 20.145
31.47000 34.464
31.48000 30.407
31.49000 38.804
31.50000 33.471
31.51000 27.263
31.52000 34.591
31.53000 28.475
31.54000 28.364
31.55000 29.319
31.56000 30.419
31.57000 32.393
31.58000 19.197
31.59000 35.530
31.60000 33.568
31.61000 41.334
31.62000 22.358
31.63000 35.378
31.64000 28.235
31.65000 19.273
31.66000 31.275
31.67000 24.404
31.68000 36.668
31.69000 23.383
31.70000 23.211
31.71000 34.685
31.72000 34.377
31.73000 29.723
31.74000 27.333
31.75000 28.555
31.76000 20.219
31.77000 38.428
31.78000 32.336
31.79000 27.677
31.80000 27.481
31.81000 23.299
31.82000 35.370
31.83000 36.607
31.84000 29.299
31.85000 25.342
31.86000 22.183
31.87000 21.411
31.88000 27.288
31.89000 37.357
31.90000 28.366
31.91000 27.193
31.92000 29.459
31.93000 31.446
31.94000 25.217
31.95000 32.509
31.96000 27.108
31.97000 37.423
31.98000 33.653
31.99000 23.319
32.00000 32.321
32.01000 32.543
32.02000 30.400
32.03000 37.372
32.04000 27.288
32.05000 23.291
32.06000 24.371
32.07000 32.502
32.08000 31.264
32.09000 27.228
32.10000 29.406
32.11000 31.494
32.12000 23.293
32.13000 25.383
32.14000 33.169
32.15000 23.313
32.16000 30.532
32.17000 28.526
32.18000 23.329
32.19000 29.483
32.20000 22.456
32.21000 20.179
32.22000 24.498
32.23000 28.442
32.24000 32.386
32.25000 30.437
32.26000 26.125
32.27000 26.365
32.28000 26.389
32.29000 28.343
32.30000 23.436
32.31000 34.413
32.32000 34.376
32.33000 28.249
32.34000 35.307
32.35000 20.269
32.36000 33.370
32.37000 33.235
32.38000 37.389
32.39000 31.573
32.40000 37.516
32.41000 32.285
32.42000 30.338
32.43000 37.255
32.44000 24.232
32.45000 31.455
32.46000 16.115
32.47000 23.302
32.48000 31.300
32.49000 31.290
32.50000 28.178
32.51000 28.443
32.52000 26.170
32.53000 29.472
32.54000 31.404
32.55000 32.532
32.56000 31.388
32.57000 33.470
32.58000 24.186
32.59000 23.411
32.60000 30.673
32.61000 28.303
32.62000 26.551
32.63000 24.294
32.64000 28.367
32.65000 27.412
32.66000 25.205
32.67000 33.261
32.68000 26.370
32.69000 31.414
32.70000 31.556
32.71000 27.238
32.72000 23.376
32.73000 28.181
32.74000 25.228
32.75000 24.367
32.76000 16.251
32.77000 22.371
32.78000 23.252
32.79000 18.255
32.80000 35.214
32.81000 26.326
32.82000 22.197
32.83000 28.079
32.84000 19.324
32.85000 25.262
32.86000 26.236
32.87000 21.528
32.88000 21.292
32.89000 29.310
32.90000 19.149
32.91000 30.465
32.92000 27.496
32.93000 22.374
32.94000 19.342
32.95000 22.263
32.96000 25.256
32.97000 16.008
32.98000 13.166
32.99000 24.464
33.00000 19.041
33.01000 18.131
33.02000 23.256
33.03000 20.391
33.04000 28.278
33.05000 31.340
33.06000 21.200
33.07000 23.207
33.08000 21.153
33.09000 18.357
33.10000 17.340
33.11000 17.195
33.12000 23.158
33.13000 29.438
33.14000 23.328
33.15000 23.285
33.16000 24.356
33.17000 22.103
33.18000 16.293
33.19000 27.475
33.20000 23.245
33.21000 18.329
33.22000 20.399
33.23000 28.262
33.24000 19.273
33.25000 25.301
33.26000 18.265
33.27000 24.301
33.28000 29.646
33.29000 15.193
33.30000 16.359
33.31000 28.503
33.32000 17.255
33.33000 22.248
33.34000 21.404
33.35000 17.212
33.36000 23.348
33.37000 29.334
33.38000 22.393
33.39000 16.382
33.40000 20.108
33.41000 24.514
33.42000 13.268
33.43000 22.258
33.44000 21.299
33.45000 25.531
33.46000 16.101
33.47000 29.386
33.48000 19.240
33.49000 16.272
33.50000 17.165
33.51000 21.294
33.52000 12.137
33.53000 22.393
33.54000 18.003
33.55000 23.383
33.56000 18.236
33.57000 23.336
33.58000 26.211
33.59000 24.282
33.60000 27.258
33.61000 22.342
33.62000 29.264
33.63000 10.093
33.64000 29.502
33.65000 18.162
33.66000 17.285
33.67000 24.447
33.68000 22.205
33.69000 24.198
33.70000 16.132
33.71000 23.306
33.72000 18.207
33.73000 15.116
33.74000 20.278
33.75000 26.355
33.76000 15.276
33.77000 13.169
33.78000 23.320
33.79000 16.197
33.80000 18.297
33.81000 24.503
33.82000 22.396
33.83000 16.234
33.84000 11.114
33.85000 23.661
33.86000 23.195
33.87000 21.248
33.88000 19.132
33.89000 19.213
33.90000 10.133
33.91000 24.563
33.92000 12.328
33.93000 17.225
33.94000 28.396
33.95000 25.122
33.96000 25.385
33.97000 20.299
33.98000 18.359
33.99000 13.132
34.00000 18.456
34.01000 20.234
34.02000 22.198
34.03000 18.216
34.04000 25.423
34.05000 22.445
34.06000 12.281
34.07000 26.446
34.08000 20.412
34.09000 15.181
34.10000 19.180
34.11000 29.500
34.12000 19.200
34.13000 16.162
34.14000 16.143
34.15000 22.398
34.16000 26.329
34.17000 26.230
34.18000 16.254
34.19000 24.410
34.20000 18.095
34.21000 18.274
34.22000 23.327
34.23000 20.215
34.24000 20.226
34.25000 17.366
34.26000 24.445
34.27000 17.132
34.28000 22.276
34.29000 12.223
34.30000 22.198
34.31000 27.500
34.32000 17.334
34.33000 14.200
34.34000 18.207
34.35000 22.299
34.36000 20.341
34.37000 27.220
34.38000 23.032
34.39000 18.306
34.40000 24.304
34.41000 16.100
34.42000 19.359
34.43000 21.334
34.44000 20.361
34.45000 19.330
34.46000 19.099
34.47000 12.128
34.48000 21.192
34.49000 28.451
34.50000 23.160
34.51000 19.217
34.52000 22.173
34.53000 24.102
34.54000 19.317
34.55000 20.351
34.56000 28.473
34.57000 25.499
34.58000 20.358
34.59000 21.145
34.60000 24.218
34.61000 27.489
34.62000 18.214
34.63000 13.189
34.64000 20.327
34.65000 19.146
34.66000 24.269
34.67000 22.283
34.68000 20.357
34.69000 14.176
34.70000 12.181
34.71000 18.320
34.72000 21.307
34.73000 18.350
34.74000 19.253
34.75000 26.442
34.76000 19.347
34.77000 15.121
34.78000 21.241
34.79000 21.448
34.80000 24.283
34.81000 14.255
34.82000 24.371
34.83000 13.037
34.84000 18.425
34.85000 21.445
34.86000 23.211
34.87000 21.405
34.88000 17.147
34.89000 17.428
34.90000 26.505
34.91000 26.416
34.92000 14.222
34.93000 21.242
34.94000 23.062
34.95000 21.022
34.96000 19.211
34.97000 15.078
34.98000 15.268
34.99000 18.313
35.00000 17.161
35.01000 20.454
35.02000 26.391
35.03000 20.316
35.04000 13.110
35.05000 20.280
35.06000 12.248
35.07000 13.061
35.08000 17.049
35.09000 19.265
35.10000 17.386
35.11000 19.371
35.12000 12.056
35.13000 13.234
35.14000 16.162
35.15000 13.240
35.16000 15.256
35.17000 16.258
35.18000 16.160
35.19000 16.236
35.20000 25.328
35.21000 21.256
35.22000 19.166
35.23000 17.163
35.24000 12.163
35.25000 13.180
35.26000 21.051
35.27000 12.144
35.28000 17.297
35.29000 14.138
35.30000 17.211
35.31000 21.170
35.32000 22.333
35.33000 13.191
35.34000 28.419
35.35000 20.343
35.36000 15.160
35.37000 21.454
35.38000 27.362
35.39000 19.288
35.40000 25.401
35.41000 21.063
35.42000 22.351
35.43000 25.297
35.44000 13.283
35.45000 17.134
35.46000 14.136
35.47000 21.159
35.48000 16.082
35.49000 10.188
35.50000 23.383
35.51000 16.226
35.52000 11.265
35.53000 24.493
35.54000 17.380
35.55000 20.193
35.56000 22.282
35.57000 15.375
35.58000 21.259
35.59000 12.155
35.60000 18.505
35.61000 21.203
35.62000 16.483
35.63000 22.308
35.64000 21.036
35.65000 18.173
35.66000 14.167
35.67000 13.359
35.68000 23.178
35.69000 19.317
35.70000 21.281
35.71000 15.225
35.72000 18.233
35.73000 22.392
35.74000 16.164
35.75000 25.363
35.76000 12.150
35.77000 20.116
35.78000 28.279
35.79000 16.401
35.80000 21.300
35.81000 12.100
35.82000 18.323
35.83000 27.473
35.84000 15.239
35.85000 18.168
35.86000 21.297
35.87000 11.194
35.88000 17.447
35.89000 19.422
35.90000 23.447
35.91000 24.310
35.92000 16.305
35.93000 18.054
35.94000 23.445
35.95000 19.214
35.96000 16.232
35.97000 20.029
35.98000 26.277
35.99000 23.150
36.00000 15.076
36.01000 17.369
36.02000 18.117
36.03000 18.116
36.04000 20.175
36.05000 22.551
36.06000 17.309
36.07000 12.023
36.08000 12.164
36.09000 18.264
36.10000 12.173
36.11000 22.261
36.12000 12.116
36.13000 24.203
36.14000 16.096
36.15000 18.263
36.16000 31.321
36.17000 17.158
36.18000 18.261
36.19000 22.570
36.20000 19.299
36.21000 20.147
36.22000 20.251
36.23000 15.213
36.24000 25.418
36.25000 13.212
36.26000 16.256
36.27000 13.151
36.28000 16.029
36.29000 28.340
36.30000 18.273
36.31000 24.402
36.32000 14.119
36.33000 20.454
36.34000 19.267
36.35000 19.244
36.36000 17.241
36.37000 22.208
36.38000 24.267
36.39000 20.406
36.40000 19.116
36.41000 20.209
36.42000 26.362
36.43000 16.211
36.44000 15.262
36.45000 16.118
36.46000 17.281
36.47000 17.128
36.48000 11.176
36.49000 20.483
36.50000 23.425
36.51000 19.237
36.52000 20.404
36.53000 21.279
36.54000 18.306
36.55000 23.287
36.56000 17.140
36.57000 21.327
36.58000 15.119
36.59000 18.156
36.60000 16.164
36.61000 19.179
36.62000 17.229
36.63000 14.401
36.64000 20.180
36.65000 20.144
36.66000 15.311
36.67000 26.466
36.68000 25.238
36.69000 26.207
36.70000 18.304
36.71000 16.186
36.72000 22.277
36.73000 25.193
36.74000 17.149
36.75000 18.255
36.76000 18.121
36.77000 21.194
36.78000 13.214
36.79000 15.292
36.80000 21.279
36.81000 24.329
36.82000 22.395
36.83000 18.370
36.84000 21.235
36.85000 23.362
36.86000 27.333
36.87000 16.188
36.88000 22.369
36.89000 18.364
36.90000 17.237
36.91000 16.078
36.92000 14.290
36.93000 15.179
36.94000 23.427
36.95000 14.167
36.96000 18.375
36.97000 18.145
36.98000 24.193
36.99000 35.421
37.00000 16.282
37.01000 22.268
37.02000 27.277
37.03000 16.172
37.04000 22.211
37.05000 20.202
37.06000 13.199
37.07000 21.269
37.08000 26.093
37.09000 20.300
37.10000 16.318
37.11000 16.153
37.12000 15.319
37.13000 21.225
37.14000 12.067
37.15000 23.326
37.16000 18.210
37.17000 17.211
37.18000 26.396
37.19000 19.257
37.20000 15.123
37.21000 14.306
37.22000 23.347
37.23000 20.475
37.24000 16.133
37.25000 18.451
37.26000 21.111
37.27000 18.342
37.28000 23.268
37.29000 16.158
37.30000 13.180
37.31000 16.192
37.32000 19.220
37.33000 15.118
37.34000 20.405
37.35000 19.285
37.36000 18.394
37.37000 17.119
37.38000 22.262
37.39000 19.382
37.40000 18.332
37.41000 24.432
37.42000 17.279
37.43000 19.347
37.44000 21.380
37.45000 22.344
37.46000 22.320
37.47000 20.219
37.48000 17.993
37.49000 23.384
37.50000 15.325
37.51000 13.064
37.52000 25.129
37.53000 21.197
37.54000 24.270
37.55000 21.263
37.56000 17.254
37.57000 26.431
37.58000 16.211
37.59000 23.167
37.60000 24.095
37.61000 22.342
37.62000 16.177
37.63000 25.325
37.64000 20.417
37.65000 28.451
37.66000 24.167
37.67000 18.290
37.68000 22.331
37.69000 16.320
37.70000 19.456
37.71000 17.240
37.72000 24.198
37.73000 23.231
37.74000 20.139
37.75000 20.243
37.76000 23.188
37.77000 24.138
37.78000 18.306
37.79000 24.438
37.80000 15.198
37.81000 22.348
37.82000 26.281
37.83000 16.348
37.84000 14.107
37.85000 18.201
37.86000 18.363
37.87000 25.406
37.88000 20.228
37.89000 29.600
37.90000 27.351
37.91000 18.169
37.92000 20.263
37.93000 15.052
37.94000 22.276
37.95000 17.270
37.96000 25.250
37.97000 25.091
37.98000 23.246
37.99000 25.398
38.00000 22.282
38.01000 23.238
38.02000 20.275
38.03000 21.408
38.04000 20.059
38.05000 16.213
38.06000 18.151
38.07000 17.175
38.08000 16.231
38.09000 15.041
38.10000 24.199
38.11000 24.213
38.12000 23.287
38.13000 17.296
38.14000 12.097
38.15000 25.421
38.16000 23.132
38.17000 22.379
38.18000 24.437
38.19000 19.305
38.20000 23.271
38.21000 18.224
38.22000 23.239
38.23000 21.196
38.24000 23.197
38.25000 13.079
38.26000 15.050
38.27000 21.374
38.28000 15.166
38.29000 21.240
38.30000 27.221
38.31000 23.183
38.32000 19.285
38.33000 21.444
38.34000 26.275
38.35000 18.209
38.36000 15.031
38.37000 21.196
38.38000 19.382
38.39000 21.504
38.40000 11.164
38.41000 18.227
38.42000 20.219
38.43000 18.289
38.44000 28.348
38.45000 22.332
38.46000 28.128
38.47000 25.316
38.48000 22.449
38.49000 18.427
38.50000 19.243
38.51000 22.307
38.52000 15.269
38.53000 26.275
38.54000 17.095
38.55000 17.358
38.56000 23.224
38.57000 27.394
38.58000 18.266
38.59000 17.169
38.60000 25.069
38.61000 19.326
38.62000 23.272
38.63000 26.275
38.64000 22.317
38.65000 28.282
38.66000 21.192
38.67000 25.570
38.68000 22.405
38.69000 19.226
38.70000 27.150
38.71000 21.117
38.72000 22.230
38.73000 19.126
38.74000 23.370
38.75000 17.164
38.76000 16.188
38.77000 21.149
38.78000 16.054
38.79000 21.383
38.80000 19.408
38.81000 23.217
38.82000 21.331
38.83000 24.337
38.84000 27.396
38.85000 33.599
38.86000 28.314
38.87000 24.409
38.88000 23.260
38.89000 18.374
38.90000 22.177
38.91000 24.249
38.92000 23.293
38.93000 19.490
38.94000 18.278
38.95000 21.241
38.96000 19.210
38.97000 22.297
38.98000 22.241
38.99000 22.431
39.00000 22.344
39.01000 19.176
39.02000 21.346
39.03000 29.291
39.04000 26.580
39.05000 20.303
39.06000 29.320
39.07000 21.413
39.08000 27.451
39.09000 20.298
39.10000 17.211
39.11000 21.981
39.12000 15.197
39.13000 21.536
39.14000 12.035
39.15000 22.219
39.16000 22.497
39.17000 19.285
39.18000 25.494
39.19000 18.129
39.20000 19.290
39.21000 22.376
39.22000 14.086
39.23000 27.365
39.24000 22.341
39.25000 19.223
39.26000 15.138
39.27000 18.462
39.28000 27.503
39.29000 23.477
39.30000 21.435
39.31000 23.470
39.32000 21.218
39.33000 15.201
39.34000 19.329
39.35000 20.327
39.36000 21.460
39.37000 24.280
39.38000 28.268
39.39000 21.250
39.40000 30.376
39.41000 20.252
39.42000 21.157
39.43000 26.577
39.44000 19.149
39.45000 18.393
39.46000 24.289
39.47000 25.355
39.48000 24.334
39.49000 21.307
39.50000 25.226
39.51000 16.372
39.52000 13.154
39.53000 24.463
39.54000 23.372
39.55000 19.311
39.56000 17.364
39.57000 15.276
39.58000 19.217
39.59000 24.310
39.60000 17.203
39.61000 20.106
39.62000 21.294
39.63000 20.289
39.64000 24.256
39.65000 23.250
39.66000 17.254
39.67000 15.315
39.68000 29.440
39.69000 20.366
39.70000 28.475
39.71000 29.277
39.72000 27.201
39.73000 27.486
39.74000 26.299
39.75000 25.353
39.76000 23.393
39.77000 17.304
39.78000 19.113
39.79000 18.355
39.80000 23.260
39.81000 15.280
39.82000 21.106
39.83000 16.149
39.84000 17.280
39.85000 21.255
39.86000 28.433
39.87000 17.217
39.88000 25.203
39.89000 23.284
39.90000 22.242
39.91000 21.314
39.92000 14.993
39.93000 31.465
39.94000 14.188
39.95000 16.316
39.96000 20.300
39.97000 25.312
39.98000 19.238
39.99000 22.411
40.00000 16.105
40.01000 22.395
40.02000 17.968
40.03000 18.303
40.04000 26.376
40.05000 17.108
40.06000 25.528
40.07000 19.215
40.08000 22.472
40.09000 24.165
40.10000 26.198
40.11000 19.306
40.12000 26.536
40.13000 27.201
40.14000 25.347
40.15000 21.128
40.16000 23.496
40.17000 21.352
40.18000 24.501
40.19000 23.084
40.20000 23.197
40.21000 13.167
40.22000 22.294
40.23000 22.251
40.24000 18.332
40.25000 22.440
40.26000 14.085
40.27000 18.212
40.28000 24.288
40.29000 23.215
40.30000 25.228
40.31000 20.182
40.32000 19.225
40.33000 23.348
40.34000 19.325
40.35000 20.192
40.36000 17.188
40.37000 25.189
40.38000 19.251
40.39000 25.392
40.40000 21.209
40.41000 19.132
40.42000 23.318
40.43000 17.234
40.44000 24.341
40.45000 26.282
40.46000 27.360
40.47000 15.275
40.48000 25.373
40.49000 23.145
40.50000 26.117
40.51000 21.310
40.52000 14.082
40.53000 25.279
40.54000 19.339
40.55000 22.107
40.56000 20.160
40.57000 20.323
40.58000 23.394
40.59000 17.138
40.60000 25.395
40.61000 21.304
40.62000 19.363
40.63000 21.177
40.64000 29.063
40.65000 20.169
40.66000 29.321
40.67000 30.353
40.68000 16.156
40.69000 21.208
40.70000 17.140
40.71000 14.208
40.72000 23.354
40.73000 28.415
40.74000 23.374
40.75000 19.162
40.76000 18.428
40.77000 20.268
40.78000 27.376
40.79000 14.263
40.80000 30.451
40.81000 17.352
40.82000 17.204
40.83000 26.196
40.84000 19.169
40.85000 19.247
40.86000 16.090
40.87000 28.450
40.88000 25.349
40.89000 14.054
40.90000 23.348
40.91000 19.341
40.92000 23.237
40.93000 21.256
40.94000 19.224
40.95000 21.263
40.96000 16.407
40.97000 28.389
40.98000 15.273
40.99000 24.343
41.00000 15.337
41.01000 16.197
41.02000 30.348
41.03000 19.313
41.04000 25.574
41.05000 25.122
41.06000 18.131
41.07000 11.168
41.08000 24.355
41.09000 27.442
41.10000 15.188
41.11000 18.251
41.12000 23.290
41.13000 26.419
41.14000 23.205
41.15000 17.190
41.16000 22.180
41.17000 30.197
41.18000 31.322
41.19000 25.713
41.20000 16.296
41.21000 21.121
41.22000 30.553
41.23000 24.597
41.24000 24.380
41.25000 24.258
41.26000 23.311
41.27000 32.285
41.28000 13.103
41.29000 19.109
41.30000 21.215
41.31000 22.354
41.32000 23.227
41.33000 16.285
41.34000 28.446
41.35000 26.313
41.36000 21.304
41.37000 11.101
41.38000 22.248
41.39000 27.160
41.40000 25.322
41.41000 24.424
41.42000 24.395
41.43000 27.249
41.44000 13.095
41.45000 33.338
41.46000 24.256
41.47000 27.254
41.48000 23.317
41.49000 19.126
41.50000 23.303
41.51000 36.615
41.52000 22.484
41.53000 25.359
41.54000 21.346
41.55000 23.201
41.56000 24.331
41.57000 32.411
41.58000 22.223
41.59000 27.821
41.60000 26.367
41.61000 26.452
41.62000 16.045
41.63000 21.328
41.64000 15.056
41.65000 14.230
41.66000 14.270
41.67000 31.548
41.68000 25.414
41.69000 18.249
41.70000 26.254
41.71000 17.333
41.72000 19.319
41.73000 20.326
41.74000 20.302
41.75000 24.373
41.76000 18.446
41.77000 25.264
41.78000 16.184
41.79000 25.516
41.80000 11.137
41.81000 25.300
41.82000 16.161
41.83000 26.128
41.84000 21.198
41.85000 26.476
41.86000 14.208
41.87000 22.363
41.88000 18.290
41.89000 20.395
41.90000 21.433
41.91000 28.564
41.92000 25.529
41.93000 24.464
41.94000 26.311
41.95000 16.273
41.96000 22.356
41.97000 31.569
41.98000 23.266
41.99000 20.301
42.00000 15.332
42.01000 22.185
42.02000 22.321
42.03000 18.206
42.04000 24.243
42.05000 26.345
42.06000 22.210
42.07000 27.287
42.08000 24.235
42.09000 30.362
42.10000 17.327
42.11000 24.328
42.12000 28.178
42.13000 21.380
42.14000 21.312
42.15000 23.305
42.16000 19.391
42.17000 11.084
42.18000 18.446
42.19000 30.546
42.20000 25.396
42.21000 22.433
42.22000 18.117
42.23000 27.283
42.24000 17.282
42.25000 20.416
42.26000 23.440
42.27000 26.346
42.28000 24.460
42.29000 17.220
42.30000 27.395
42.31000 20.406
42.32000 22.324
42.33000 26.312
42.34000 24.417
42.35000 24.494
42.36000 34.187
42.37000 19.217
42.38000 14.269
42.39000 21.280
42.40000 17.193
42.41000 19.084
42.42000 25.522
42.43000 27.309
42.44000 19.049
42.45000 13.174
42.46000 21.282
42.47000 33.780
42.48000 21.106
42.49000 31.461
42.50000 30.431
42.51000 18.228
42.52000 29.365
42.53000 16.133
42.54000 26.326
42.55000 20.373
42.56000 16.245
42.57000 24.269
42.58000 21.285
42.59000 20.351
42.60000 24.271
42.61000 19.413
42.62000 15.225
42.63000 31.601
42.64000 20.585
42.65000 21.282
42.66000 24.432
42.67000 19.119
42.68000 25.148
42.69000 19.030
42.70000 17.214
42.71000 20.336
42.72000 24.314
42.73000 34.694
42.74000 21.374
42.75000 17.210
42.76000 22.117
42.77000 25.252
42.78000 11.106
42.79000 25.311
42.80000 23.219
42.81000 35.624
42.82000 20.135
42.83000 29.685
42.84000 33.975
42.85000 17.126
42.86000 22.374
42.87000 23.259
42.88000 23.167
42.89000 24.270
42.90000 23.355
42.91000 18.235
42.92000 25.467
42.93000 16.189
42.94000 25.285
42.95000 29.618
42.96000 23.176
42.97000 23.315
42.98000 31.351
42.99000 28.489
43.00000 8.140
43.01000 23.117
43.02000 28.235
43.03000 20.375
43.04000 23.334
43.05000 26.487
43.06000 16.141
43.07000 26.255
43.08000 21.365
43.09000 26.411
43.10000 24.239
43.11000 24.477
43.12000 32.437
43.13000 29.661
43.14000 24.073
43.15000 24.243
43.16000 26.337
43.17000 23.136
43.18000 20.342
43.19000 27.078
43.20000 25.346
43.21000 22.374
43.22000 31.291
43.23000 23.327
43.24000 30.556
43.25000 13.275
43.26000 21.422
43.27000 21.163
43.28000 25.372
43.29000 26.255
43.30000 22.311
43.31000 15.302
43.32000 18.085
43.33000 17.203
43.34000 26.317
43.35000 19.221
43.36000 23.221
43.37000 22.167
43.38000 19.341
43.39000 26.269
43.40000 25.431
43.41000 20.364
43.42000 22.952
43.43000 16.170
43.44000 28.313
43.45000 30.418
43.46000 24.145
43.47000 27.265
43.48000 25.337
43.49000 25.378
43.50000 26.495
43.51000 18.196
43.52000 33.499
43.53000 22.104
43.54000 25.394
43.55000 31.290
43.56000 21.070
43.57000 30.677
43.58000 23.353
43.59000 19.063
43.60000 19.349
43.61000 31.394
43.62000 21.317
43.63000 14.225
43.64000 25.243
43.65000 14.117
43.66000 27.318
43.67000 19.034
43.68000 18.278
43.69000 26.457
43.70000 23.165
43.71000 19.229
43.72000 26.325
43.73000 27.456
43.74000 22.173
43.75000 25.525
43.76000 29.361
43.77000 23.577
43.78000 14.240
43.79000 26.351
43.80000 25.348
43.81000 18.219
43.82000 28.286
43.83000 25.104
43.84000 23.276
43.85000 18.035
43.86000 17.071
43.87000 20.158
43.88000 17.125
43.89000 27.247
43.90000 22.454
43.91000 21.151
43.92000 26.382
43.93000 23.408
43.94000 26.254
43.95000 20.189
43.96000 21.346
43.97000 24.306
43.98000 34.330
43.99000 18.110
44.00000 18.121
44.01000 24.090
44.02000 23.106
44.03000 15.404
44.04000 22.404
44.05000 22.336
44.06000 35.376
44.07000 16.171
44.08000 21.319
44.09000 19.227
44.10000 19.432
44.11000 20.524
44.12000 22.309
44.13000 23.286
44.14000 28.271
44.15000 21.221
44.16000 25.511
44.17000 22.445
44.18000 24.507
44.19000 15.234
44.20000 26.292
44.21000 12.320
44.22000 25.056
44.23000 21.277
44.24000 23.431
44.25000 18.279
44.26000 19.240
44.27000 21.258
44.28000 19.243
44.29000 21.277
44.30000 26.476
44.31000 21.230
44.32000 19.465
44.33000 28.529
44.34000 21.120
44.35000 20.178
44.36000 23.308
44.37000 16.253
44.38000 22.315
44.39000 20.287
44.40000 21.267
44.41000 17.440
44.42000 20.107
44.43000 16.379
44.44000 26.325
44.45000 20.360
44.46000 25.301
44.47000 22.256
44.48000 21.218
44.49000 24.310
44.50000 22.137
44.51000 16.289
44.52000 21.229
44.53000 27.310
44.54000 26.380
44.55000 27.486
44.56000 18.326
44.57000 18.324
44.58000 26.391
44.59000 20.253
44.60000 24.297
44.61000 26.394
44.62000 12.083
44.63000 18.270
44.64000 19.214
44.65000 22.078
44.66000 23.249
44.67000 19.306
44.68000 24.240
44.69000 20.213
44.70000 15.250
44.71000 17.183
44.72000 21.235
44.73000 20.215
44.74000 20.234
44.75000 20.177
44.76000 20.145
44.77000 23.072
44.78000 33.729
44.79000 17.056
44.80000 19.214
44.81000 19.138
44.82000 25.444
44.83000 20.392
44.84000 31.217
44.85000 20.241
44.86000 17.351
44.87000 28.375
44.88000 18.467
44.89000 28.330
44.90000 15.168
44.91000 19.158
44.92000 16.339
44.93000 18.283
44.94000 22.408
44.95000 25.408
44.96000 22.214
44.97000 32.352
44.98000 16.204
44.99000 20.430
45.00000 26.290
45.01000 20.276
45.02000 18.164
45.03000 22.417
45.04000 17.205
45.05000 22.267
45.06000 16.342
45.07000 20.397
45.08000 22.267
45.09000 23.597
45.10000 21.283
45.11000 26.271
45.12000 20.377
45.13000 17.346
45.14000 30.308
45.15000 16.053
45.16000 18.241
45.17000 24.334
45.18000 19.314
45.19000 21.200
45.20000 26.408
45.21000 19.282
45.22000 26.291
45.23000 28.448
45.24000 26.351
45.25000 26.348
45.26000 26.241
45.27000 24.317
45.28000 23.558
45.29000 21.245
45.30000 14.218
45.31000 21.132
45.32000 23.161
45.33000 27.321
45.34000 21.268
45.35000 20.286
45.36000 29.441
45.37000 23.120
45.38000 21.439
45.39000 22.131
45.40000 25.355
45.41000 21.242
45.42000 27.489
45.43000 19.198
45.44000 24.500
45.45000 25.374
45.46000 25.186
45.47000 20.179
45.48000 28.603
45.49000 25.331
45.50000 24.173
45.51000 21.286
45.52000 16.231
45.53000 22.290
45.54000 26.418
45.55000 19.275
45.56000 20.431
45.57000 11.038
45.58000 21.186
45.59000 26.338
45.60000 26.367
45.61000 19.283
45.62000 23.136
45.63000 12.203
45.64000 22.094
45.65000 23.326
45.66000 29.275
45.67000 23.174
45.68000 22.236
45.69000 28.651
45.70000 28.476
45.71000 12.143
45.72000 16.119
45.73000 23.322
45.74000 13.347
45.75000 19.404
45.76000 19.113
45.77000 19.358
45.78000 29.424
45.79000 23.319
45.80000 26.201
45.81000 22.537
45.82000 23.255
45.83000 15.087
45.84000 24.385
45.85000 18.223
45.86000 18.309
45.87000 26.699
45.88000 20.072
45.89000 19.232
45.90000 21.324
45.91000 23.404
45.92000 22.109
45.93000 25.466
45.94000 27.315
45.95000 24.266
45.96000 20.565
45.97000 11.112
45.98000 23.339
45.99000 19.342
46.00000 26.218
46.01000 12.222
46.02000 24.549
46.03000 18.131
46.04000 18.167
46.05000 18.199
46.06000 18.247
46.07000 23.327
46.08000 12.219
46.09000 24.407
46.10000 24.343
46.11000 19.300
46.12000 23.263
46.13000 16.100
46.14000 24.323
46.15000 13.183
46.16000 16.234
46.17000 19.242
46.18000 25.253
46.19000 33.626
46.20000 21.280
46.21000 22.432
46.22000 20.115
46.23000 24.142
46.24000 17.343
46.25000 14.190
46.26000 23.530
46.27000 24.250
46.28000 17.164
46.29000 30.358
46.30000 27.251
46.31000 24.348
46.32000 17.237
46.33000 18.335
46.34000 16.200
46.35000 22.303
46.36000 22.503
46.37000 20.335
46.38000 24.314
46.39000 22.189
46.40000 25.559
46.41000 17.229
46.42000 17.152
46.43000 26.228
46.44000 16.142
46.45000 25.419
46.46000 22.163
46.47000 19.332
46.48000 26.209
46.49000 29.374
46.50000 35.343
46.51000 20.112
46.52000 21.277
46.53000 13.246
46.54000 24.345
46.55000 25.168
46.56000 22.047
46.57000 27.191
46.58000 22.280
46.59000 20.466
46.60000 25.238
46.61000 21.268
46.62000 23.184
46.63000 19.168
46.64000 23.533
46.65000 21.136
46.66000 22.109
46.67000 18.111
46.68000 15.285
46.69000 20.281
46.70000 24.172
46.71000 23.317
46.72000 18.363
46.73000 20.383
46.74000 27.356
46.75000 13.149
46.76000 23.336
46.77000 21.334
46.78000 20.372
46.79000 29.338
46.80000 25.181
46.81000 22.309
46.82000 23.266
46.83000 7.131
46.84000 20.212
46.85000 21.237
46.86000 25.411
46.87000 23.477
46.88000 12.131
46.89000 29.348
46.90000 22.296
46.91000 27.363
46.92000 17.234
46.93000 24.303
46.94000 27.438
46.95000 21.445
46.96000 15.180
46.97000 21.580
46.98000 19.005
46.99000 22.416
47.00000 27.406
47.01000 31.500
47.02000 20.310
47.03000 21.221
47.04000 21.236
47.05000 24.487
47.06000 22.325
47.07000 22.281
47.08000 27.302
47.09000 21.370
47.10000 28.438
47.11000 24.432
47.12000 16.172
47.13000 24.299
47.14000 22.475
47.15000 17.288
47.16000 18.306
47.17000 26.293
47.18000 21.142
47.19000 23.392
47.20000 22.261
47.21000 19.239
47.22000 15.075
47.23000 22.113
47.24000 22.450
47.25000 17.186
47.26000 23.358
47.27000 27.461
47.28000 24.207
47.29000 17.219
47.30000 22.435
47.31000 22.428
47.32000 15.106
47.33000 22.467
47.34000 20.305
47.35000 24.411
47.36000 15.127
47.37000 16.251
47.38000 26.583
47.39000 25.266
47.40000 22.248
47.41000 24.525
47.42000 19.250
47.43000 17.125
47.44000 19.268
47.45000 19.170
47.46000 19.351
47.47000 23.463
47.48000 25.498
47.49000 21.501
47.50000 22.205
47.51000 22.241
47.52000 14.153
47.53000 21.207
47.54000 11.041
47.55000 19.287
47.56000 17.356
47.57000 18.947
47.58000 21.403
47.59000 26.067
47.60000 21.342
47.61000 25.225
47.62000 28.199
47.63000 26.547
47.64000 15.117
47.65000 14.220
47.66000 19.106
47.67000 13.150
47.68000 16.190
47.69000 16.410
47.70000 26.202
47.71000 22.348
47.72000 17.319
47.73000 15.170
47.74000 26.346
47.75000 16.275
47.76000 20.260
47.77000 17.424
47.78000 18.209
47.79000 17.273
47.80000 26.193
47.81000 19.308
47.82000 21.434
47.83000 18.139
47.84000 21.389
47.85000 19.106
47.86000 17.131
47.87000 20.164
47.88000 26.237
47.89000 28.213
47.90000 26.320
47.91000 13.194
47.92000 14.198
47.93000 16.300
47.94000 18.066
47.95000 22.342
47.96000 21.274
47.97000 15.257
47.98000 21.237
47.99000 13.149
48.00000 20.436
48.01000 20.213
48.02000 21.338
48.03000 16.224
48.04000 23.303
48.05000 22.330
48.06000 19.166
48.07000 20.271
48.08000 14.339
48.09000 21.115
48.10000 13.190
48.11000 17.269
48.12000 20.314
48.13000 19.371
48.14000 15.169
48.15000 19.280
48.16000 21.213
48.17000 15.054
48.18000 23.019
48.19000 34.444
48.20000 20.019
48.21000 16.225
48.22000 22.221
48.23000 28.260
48.24000 18.289
48.25000 13.272
48.26000 14.232
48.27000 24.333
48.28000 10.988
48.29000 17.258
48.30000 22.213
48.31000 15.353
48.32000 20.398
48.33000 18.227
48.34000 15.219
48.35000 18.247
48.36000 23.325
48.37000 19.335
48.38000 12.038
48.39000 22.305
48.40000 24.321
48.41000 12.220
48.42000 20.339
48.43000 22.368
48.44000 24.360
48.45000 16.241
48.46000 15.124
48.47000 26.188
48.48000 14.027
48.49000 24.521
48.50000 20.230
48.51000 23.323
48.52000 22.183
48.53000 17.093
48.54000 27.360
48.55000 18.477
48.56000 13.186
48.57000 21.174
48.58000 21.254
48.59000 23.319
48.60000 28.456
48.61000 18.019
48.62000 19.249
48.63000 21.205
48.64000 22.420
48.65000 14.127
48.66000 20.178
48.67000 25.237
48.68000 18.238
48.69000 28.580
48.70000 19.270
48.71000 15.134
48.72000 16.253
48.73000 23.407
48.74000 13.128
48.75000 20.179
48.76000 17.337
48.77000 20.207
48.78000 22.323
48.79000 18.092
48.80000 18.313
48.81000 24.369
48.82000 13.185
48.83000 17.163
48.84000 14.163
48.85000 25.374
48.86000 18.366
48.87000 17.200
48.88000 25.207
48.89000 19.203
48.90000 26.310
48.91000 23.154
48.92000 26.433
48.93000 17.142
48.94000 16.207
48.95000 19.198
48.96000 18.182
48.97000 26.153
48.98000 12.162
48.99000 14.134
49.00000 17.067
49.01000 16.144
49.02000 16.147
49.03000 17.233
49.04000 22.074
49.05000 15.081
49.06000 12.165
49.07000 20.475
49.08000 17.194
49.09000 23.242
49.10000 19.132
49.11000 17.223
49.12000 21.469
49.13000 21.511
49.14000 19.242
49.15000 19.264
49.16000 24.210
49.17000 28.325
49.18000 20.208
49.19000 11.088
49.20000 13.243
49.21000 25.205
49.22000 22.447
49.23000 19.235
49.24000 14.110
49.25000 18.222
49.26000 17.162
49.27000 18.360
49.28000 21.228
49.29000 22.288
49.30000 25.378
49.31000 15.992
49.32000 21.026
49.33000 21.436
49.34000 22.590
49.35000 22.281
49.36000 16.310
49.37000 21.286
49.38000 21.417
49.39000 23.182
49.40000 22.561
49.41000 18.351
49.42000 16.088
49.43000 14.123
49.44000 8.942
49.45000 21.203
49.46000 20.279
49.47000 24.346
49.48000 22.190
49.49000 5.112
49.50000 17.198
49.51000 23.279
49.52000 16.224
49.53000 15.131
49.54000 21.158
49.55000 21.057
49.56000 8.008
49.57000 15.219
49.58000 14.171
49.59000 20.328
49.60000 14.037
49.61000 23.201
49.62000 20.228
49.63000 18.220
49.64000 24.199
49.65000 20.139
49.66000 21.530
49.67000 26.465
49.68000 19.376
49.69000 15.226
49.70000 25.358
49.71000 15.083
49.72000 30.186
49.73000 16.134
49.74000 8.060
49.75000 16.301
49.76000 10.132
49.77000 13.026
49.78000 20.322
49.79000 22.281
49.80000 18.114
49.81000 15.292
49.82000 24.236
49.83000 20.004
49.84000 19.283
49.85000 20.364
49.86000 22.407
49.87000 12.168
49.88000 30.316
49.89000 21.442
49.90000 18.213
49.91000 20.326
49.92000 18.196
49.93000 17.102
49.94000 17.276
49.95000 22.400
49.96000 20.337
49.97000 17.156
49.98000 18.262
49.99000 22.385
50.00000 13.321
50.01000 9.048
50.02000 11.158
50.03000 19.231
50.04000 19.410
50.05000 17.282
50.06000 16.305
50.07000 12.118
50.08000 22.146
50.09000 21.354
50.10000 21.378
50.11000 15.375
50.12000 13.267
50.13000 21.272
50.14000 14.302
50.15000 23.273
50.16000 26.391
50.17000 27.171
50.18000 19.187
50.19000 18.338
50.20000 17.224
50.21000 20.383
50.22000 14.240
50.23000 17.288
50.24000 15.193
50.25000 12.159
50.26000 22.156
50.27000 14.086
50.28000 24.345
50.29000 25.204
50.30000 16.286
50.31000 21.220
50.32000 18.050
50.33000 15.281
50.34000 22.324
50.35000 13.216
50.36000 19.242
50.37000 19.284
50.38000 14.025
50.39000 20.398
50.40000 21.164
50.41000 14.304
50.42000 22.343
50.43000 14.122
50.44000 13.124
50.45000 19.504
50.46000 20.275
50.47000 18.487
50.48000 21.157
50.49000 17.320
50.50000 25.219
50.51000 15.065
50.52000 18.275
50.53000 16.162
50.54000 20.541
50.55000 23.451
50.56000 14.316
50.57000 19.299
50.58000 23.254
50.59000 16.246
50.60000 21.251
50.61000 21.389
50.62000 19.252
50.63000 15.195
50.64000 22.349
50.65000 20.392
50.66000 18.209
50.67000 20.210
50.68000 13.284
50.69000 24.195
50.70000 17.273
50.71000 19.344
50.72000 16.273
50.73000 15.204
50.74000 23.548
50.75000 23.219
50.76000 16.274
50.77000 16.200
50.78000 18.148
50.79000 21.246
50.80000 20.362
50.81000 14.046
50.82000 20.304
50.83000 14.067
50.84000 11.084
50.85000 16.044
50.86000 13.113
50.87000 24.264
50.88000 15.172
50.89000 19.449
50.90000 18.237
50.91000 13.081
50.92000 23.226
50.93000 19.193
50.94000 20.274
50.95000 17.176
50.96000 14.202
50.97000 14.306
50.98000 21.306
50.99000 11.123
51.00000 13.300
51.01000 17.203
51.02000 16.168
51.03000 13.068
51.04000 18.165
51.05000 16.098
51.06000 18.337
51.07000 22.327
51.08000 13.140
51.09000 17.089
51.10000 21.271
51.11000 11.239
51.12000 13.034
51.13000 15.133
51.14000 19.224
51.15000 20.247
51.16000 18.179
51.17000 17.266
51.18000 24.341
51.19000 12.293
51.20000 20.180
51.21000 26.296
51.22000 15.155
51.23000 18.234
51.24000 19.138
51.25000 17.206
51.26000 16.049
51.27000 16.296
51.28000 16.165
51.29000 14.374
51.30000 16.186
51.31000 16.209
51.32000 24.244
51.33000 16.274
51.34000 16.275
51.35000 9.096
51.36000 17.109
51.37000 20.373
51.38000 12.058
51.39000 20.333
51.40000 21.542
51.41000 18.111
51.42000 20.301
51.43000 16.145
51.44000 14.232
51.45000 18.213
51.46000 13.197
51.47000 11.206
51.48000 14.206
51.49000 9.042
51.50000 14.153
51.51000 16.351
51.52000 18.041
51.53000 21.331
51.54000 16.332
51.55000 19.403
51.56000 16.286
51.57000 21.203
51.58000 9.038
51.59000 14.085
51.60000 17.260
51.61000 25.163
51.62000 17.272
51.63000 12.114
51.64000 13.167
51.65000 20.187
51.66000 23.323
51.67000 12.202
51.68000 19.293
51.69000 21.207
51.70000 10.171
51.71000 19.275
51.72000 23.229
51.73000 16.284
51.74000 17.405
51.75000 16.136
51.76000 15.985
51.77000 17.212
51.78000 17.242
51.79000 19.304
51.80000 16.163
51.81000 20.498
51.82000 16.263
51.83000 19.271
51.84000 15.180
51.85000 16.199
51.86000 19.241
51.87000 22.308
51.88000 15.966
51.89000 18.316
51.90000 19.378
51.91000 15.193
51.92000 19.221
51.93000 17.020
51.94000 13.136
51.95000 11.078
51.96000 13.132
51.97000 13.214
51.98000 13.221
51.99000 22.056
52.00000 11.145
52.01000 22.209
52.02000 16.170
52.03000 13.212
52.04000 12.197
52.05000 18.166
52.06000 13.306
52.07000 10.014
52.08000 18.264
52.09000 17.192
52.10000 23.360
52.11000 16.074
52.12000 21.029
52.13000 24.402
52.14000 14.076
52.15000 11.197
52.16000 18.109
52.17000 13.278
52.18000 15.294
52.19000 26.234
52.20000 12.210
52.21000 14.201
52.22000 21.188
52.23000 19.171
52.24000 17.263
52.25000 17.411
52.26000 12.158
52.27000 15.235
52.28000 21.265
52.29000 10.205
52.30000 18.205
52.31000 19.358
52.32000 25.262
52.33000 14.080
52.34000 17.252
52.35000 16.236
52.36000 19.251
52.37000 16.250
52.38000 16.179
52.39000 12.160
52.40000 13.276
52.41000 14.048
52.42000 10.126
52.43000 21.122
52.44000 16.317
52.45000 17.360
52.46000 17.388
52.47000 21.296
52.48000 18.337
52.49000 8.109
52.50000 11.234
52.51000 17.212
52.52000 13.151
52.53000 16.155
52.54000 12.028
52.55000 11.362
52.56000 17.241
52.57000 19.242
52.58000 20.366
52.59000 13.073
52.60000 18.039
52.61000 16.213
52.62000 16.107
52.63000 18.101
52.64000 11.225
52.65000 16.193
52.66000 15.191
52.67000 19.250
52.68000 14.178
52.69000 10.070
52.70000 14.330
52.71000 21.117
52.72000 18.204
52.73000 22.607
52.74000 18.307
52.75000 5.184
52.76000 19.413
52.77000 15.135
52.78000 20.176
52.79000 12.087
52.80000 12.078
52.81000 20.060
52.82000 13.059
52.83000 21.355
52.84000 17.171
52.85000 8.939
52.86000 15.981
52.87000 15.001
52.88000 13.118
52.89000 14.143
52.90000 17.091
52.91000 18.440
52.92000 9.097
52.93000 15.104
52.94000 24.249
52.95000 18.208
52.96000 23.223
52.97000 16.213
52.98000 16.043
52.99000 17.210
53.00000 10.077
53.01000 21.120
53.02000 17.278
53.03000 21.150
53.04000 18.086
53.05000 13.081
53.06000 13.179
53.07000 14.132
53.08000 14.121
53.09000 19.384
53.10000 17.306
53.11000 14.149
53.12000 12.992
53.13000 16.229
53.14000 18.260
53.15000 15.202
53.16000 16.335
53.17000 15.009
53.18000 19.284
53.19000 18.275
53.20000 15.081
53.21000 15.239
53.22000 20.366
53.23000 16.216
53.24000 16.256
53.25000 21.283
53.26000 14.360
53.27000 14.257
53.28000 18.193
53.29000 12.162
53.30000 10.068
53.31000 14.067
53.32000 13.087
53.33000 15.218
53.34000 22.513
53.35000 21.314
53.36000 18.232
53.37000 15.213
53.38000 19.182
53.39000 17.319
53.40000 11.156
53.41000 15.113
53.42000 20.322
53.43000 15.212
53.44000 13.114
53.45000 16.262
53.46000 16.103
53.47000 19.196
53.48000 9.264
53.49000 20.287
53.50000 18.099
53.51000 17.310
53.52000 9.079
53.53000 23.329
53.54000 16.396
53.55000 13.124
53.56000 13.076
53.57000 17.274
53.58000 10.059
53.59000 17.208
53.60000 12.212
53.61000 18.293
53.62000 15.212
53.63000 5.971
53.64000 13.313
53.65000 14.146
53.66000 14.079
53.67000 10.132
53.68000 19.301
53.69000 21.214
53.70000 17.336
53.71000 17.199
53.72000 10.290
53.73000 16.226
53.74000 14.254
53.75000 13.215
53.76000 12.006
53.77000 12.255
53.78000 16.062
53.79000 24.223
53.80000 11.094
53.81000 12.267
53.82000 16.184
53.83000 18.302
53.84000 17.097
53.85000 11.253
53.86000 10.220
53.87000 11.221
53.88000 9.247
53.89000 20.299
53.90000 23.207
53.91000 17.169
53.92000 14.256
53.93000 9.043
53.94000 19.188
53.95000 11.136
53.96000 18.161
53.97000 17.216
53.98000 15.455
53.99000 19.170
54.00000 18.170
54.01000 24.250
54.02000 12.071
54.03000 17.333
54.04000 18.329
54.05000 15.211
54.06000 19.245
54.07000 7.070
54.08000 25.401
54.09000 21.169
54.10000 12.236
54.11000 17.184
54.12000 8.070
54.13000 19.330
54.14000 15.233
54.15000 18.191
54.16000 16.307
54.17000 19.060
54.18000 16.267
54.19000 15.321
54.20000 19.328
54.21000 17.397
54.22000 13.143
54.23000 14.175
54.24000 16.323
54.25000 24.357
54.26000 15.256
54.27000 13.018
54.28000 14.099
54.29000 8.146
54.30000 19.231
54.31000 10.094
54.32000 13.218
54.33000 19.187
54.34000 11.275
54.35000 14.193
54.36000 17.164
54.37000 15.208
54.38000 22.273
54.39000 16.063
54.40000 14.228
54.41000 13.066
54.42000 14.977
54.43000 17.192
54.44000 22.175
54.45000 11.168
54.46000 13.062
54.47000 13.033
54.48000 11.079
54.49000 19.155
54.50000 16.270
54.51000 19.457
54.52000 15.998
54.53000 11.039
54.54000 18.301
54.55000 11.330
54.56000 10.984
54.57000 8.987
54.58000 10.187
54.59000 15.232
54.60000 17.150
54.61000 15.164
54.62000 13.240
54.63000 13.206
54.64000 19.080
54.65000 18.996
54.66000 17.273
54.67000 12.122
54.68000 13.206
54.69000 17.313
54.70000 13.109
54.71000 10.074
54.72000 16.289
54.73000 21.252
54.74000 12.315
54.75000 10.024
54.76000 14.202
54.77000 10.175
54.78000 16.112
54.79000 13.106
54.80000 16.339
54.81000 11.182
54.82000 14.172
54.83000 18.253
54.84000 11.212
54.85000 11.023
54.86000 11.204
54.87000 11.095
54.88000 10.145
54.89000 11.012
54.90000 26.344
54.91000 13.222
54.92000 10.242
54.93000 10.182
54.94000 12.066
54.95000 15.064
54.96000 11.048
54.97000 14.208
54.98000 14.201
54.99000 17.210
55.00000 13.194
55.01000 13.335
55.02000 13.027
55.03000 13.117
55.04000 16.265
55.05000 13.105
55.06000 12.076
55.07000 12.249
55.08000 13.182
55.09000 17.128
55.10000 14.317
55.11000 13.289
55.12000 15.130
55.13000 12.109
55.14000 13.175
55.15000 18.400
55.16000 13.242
55.17000 12.120
55.18000 11.160
55.19000 19.251
55.20000 13.226
55.21000 14.058
55.22000 12.082
55.23000 18.215
55.24000 13.168
55.25000 13.026
55.26000 14.243
55.27000 5.070
55.28000 22.210
55.29000 15.178
55.30000 16.243
55.31000 9.135
55.32000 18.337
55.33000 9.148
55.34000 10.120
55.35000 16.267
55.36000 13.180
55.37000 15.056
55.38000 22.406
55.39000 13.332
55.40000 8.088
55.41000 13.368
55.42000 15.439
55.43000 15.077
55.44000 13.087
55.45000 12.394
55.46000 20.185
55.47000 10.200
55.48000 16.224
55.49000 7.141
55.50000 22.385
55.51000 16.324
55.52000 6.980
55.53000 13.051
55.54000 14.471
55.55000 18.132
55.56000 20.341
55.57000 9.019
55.58000 10.086
55.59000 20.205
55.60000 14.182
55.61000 13.203
55.62000 12.099
55.63000 12.108
55.64000 13.252
55.65000 13.256
55.66000 12.961
55.67000 12.215
55.68000 11.123
55.69000 9.088
55.70000 12.223
55.71000 15.193
55.72000 9.018
55.73000 17.278
55.74000 13.141
55.75000 13.094
55.76000 9.106
55.77000 17.274
55.78000 18.065
55.79000 10.129
55.80000 12.125
55.81000 14.211
55.82000 18.352
55.83000 12.217
55.84000 11.087
55.85000 18.134
55.86000 11.163
55.87000 15.356
55.88000 9.134
55.89000 13.223
55.90000 13.221
55.91000 11.945
55.92000 14.048
55.93000 16.220
55.94000 13.121
55.95000 20.266
55.96000 7.027
55.97000 14.108
55.98000 12.235
55.99000 13.102
56.00000 10.203
56.01000 16.212
56.02000 13.135
56.03000 10.206
56.04000 15.272
56.05000 15.289
56.06000 10.054
56.07000 11.202
56.08000 11.121
56.09000 10.186
56.10000 11.019
56.11000 12.191
56.12000 13.114
56.13000 10.213
56.14000 18.348
56.15000 20.062
56.16000 11.107
56.17000 12.224
56.18000 11.166
56.19000 16.283
56.20000 14.074
56.21000 9.234
56.22000 20.627
56.23000 6.021
56.24000 13.239
56.25000 11.127
56.26000 11.225
56.27000 16.091
56.28000 6.048
56.29000 14.061
56.30000 11.087
56.31000 11.077
56.32000 22.242
56.33000 15.178
56.34000 10.232
56.35000 8.192
56.36000 18.211
56.37000 8.208
56.38000 11.121
56.39000 16.349
56.40000 17.149
56.41000 12.143
56.42000 7.158
56.43000 13.170
56.44000 15.223
56.45000 22.373
56.46000 6.137
56.47000 7.132
56.48000 13.174
56.49000 18.258
56.50000 11.231
56.51000 9.215
56.52000 12.015
56.53000 17.139
56.54000 6.105
56.55000 9.036
56.56000 11.163
56.57000 17.263
56.58000 4.072
56.59000 5.975
56.60000 12.338
56.61000 19.258
56.62000 13.243
56.63000 11.140
56.64000 15.390
56.65000 14.232
56.66000 18.272
56.67000 17.335
56.68000 12.155
56.69000 4.014
56.70000 13.305
56.71000 11.169
56.72000 15.160
56.73000 19.245
56.74000 12.068
56.75000 16.259
56.76000 18.312
56.77000 16.238
56.78000 13.151
56.79000 9.164
56.80000 13.111
56.81000 13.204
56.82000 11.139
56.83000 14.112
56.84000 8.224
56.85000 14.304
56.86000 11.273
56.87000 18.410
56.88000 18.234
56.89000 9.161
56.90000 17.332
56.91000 18.180
56.92000 14.280
56.93000 13.108
56.94000 10.155
56.95000 11.160
56.96000 10.192
56.97000 15.191
56.98000 11.165
56.99000 16.244
57.00000 17.395
57.01000 16.289
57.02000 12.252
57.03000 6.139
57.04000 8.118
57.05000 14.066
57.06000 14.145
57.07000 9.270
57.08000 21.152
57.09000 13.001
57.10000 12.121
57.11000 11.226
57.12000 10.112
57.13000 16.178
57.14000 13.274
57.15000 11.269
57.16000 13.186
57.17000 16.481
57.18000 8.158
57.19000 6.209
57.20000 13.251
57.21000 13.214
57.22000 15.210
57.23000 14.091
57.24000 11.124
57.25000 13.166
57.26000 13.156
57.27000 11.198
57.28000 6.093
57.29000 12.080
57.30000 11.121
57.31000 10.131
57.32000 9.167
57.33000 14.136
57.34000 6.118
57.35000 15.168
57.36000 18.961
57.37000 16.226
57.38000 12.107
57.39000 9.988
57.40000 9.122
57.41000 12.198
57.42000 17.115
57.43000 13.202
57.44000 13.143
57.45000 18.115
57.46000 9.065
57.47000 9.166
57.48000 9.152
57.49000 14.104
57.50000 14.081
57.51000 12.217
57.52000 13.059
57.53000 7.015
57.54000 16.252
57.55000 12.192
57.56000 11.211
57.57000 11.069
57.58000 7.180
57.59000 8.082
57.60000 10.054
57.61000 8.992
57.62000 18.176
57.63000 12.311
57.64000 11.133
57.65000 13.239
57.66000 12.174
57.67000 14.189
57.68000 15.137
57.69000 12.168
57.70000 16.143
57.71000 4.996
57.72000 12.190
57.73000 14.152
57.74000 13.195
57.75000 18.140
57.76000 14.200
57.77000 14.205
57.78000 10.128
57.79000 19.232
57.80000 17.284
57.81000 13.263
57.82000 14.180
57.83000 7.030
57.84000 11.051
57.85000 12.187
57.86000 15.209
57.87000 10.112
57.88000 14.181
57.89000 11.091
57.90000 10.257
57.91000 12.157
57.92000 14.320
57.93000 9.016
57.94000 23.228
57.95000 17.371
57.96000 10.005
57.97000 14.193
57.98000 12.157
57.99000 12.107
58.00000 8.135
58.01000 21.229
58.02000 11.165
58.03000 13.086
58.04000 11.041
58.05000 12.144
58.06000 11.051
58.07000 11.161
58.08000 12.107
58.09000 11.307
58.10000 12.213
58.11000 10.155
58.12000 16.198
58.13000 15.080
58.14000 13.226
58.15000 12.109
58.16000 9.167
58.17000 15.103
58.18000 13.220
58.19000 9.056
58.20000 11.104
58.21000 10.141
58.22000 18.269
58.23000 13.243
58.24000 12.170
58.25000 10.139
58.26000 5.074
58.27000 11.122
58.28000 9.173
58.29000 9.125
58.30000 8.138
58.31000 20.212
58.32000 12.165
58.33000 13.286
58.34000 14.167
58.35000 13.098
58.36000 4.050
58.37000 12.102
58.38000 9.016
58.39000 14.418
58.40000 18.318
58.41000 16.111
58.42000 12.177
58.43000 15.162
58.44000 19.071
58.45000 17.175
58.46000 14.109
58.47000 10.072
58.48000 16.316
58.49000 12.101
58.50000 15.251
58.51000 9.102
58.52000 14.194
58.53000 16.156
58.54000 8.110
58.55000 10.174
58.56000 10.160
58.57000 16.230
58.58000 16.125
58.59000 18.221
58.60000 13.238
58.61000 5.101
58.62000 5.059
58.63000 12.034
58.64000 10.349
58.65000 16.226
58.66000 12.235
58.67000 14.099
58.68000 11.146
58.69000 12.118
58.70000 10.222
58.71000 13.261
58.72000 10.103
58.73000 12.043
58.74000 11.176
58.75000 9.134
58.76000 12.089
58.77000 14.112
58.78000 9.145
58.79000 11.136
58.80000 9.192
58.81000 7.189
58.82000 8.095
58.83000 15.300
58.84000 9.003
58.85000 8.159
58.86000 9.155
58.87000 10.069
58.88000 7.113
58.89000 9.024
58.90000 14.089
58.91000 20.078
58.92000 11.022
58.93000 8.008
58.94000 7.068
58.95000 13.339
58.96000 11.294
58.97000 15.191
58.98000 16.153
58.99000 15.079
59.00000 13.174
59.01000 16.372
59.02000 9.152
59.03000 15.162
59.04000 12.096
59.05000 8.983
59.06000 10.148
59.07000 19.203
59.08000 12.022
59.09000 8.015
59.10000 9.158
59.11000 4.082
59.12000 8.125
59.13000 11.026
59.14000 16.203
59.15000 8.113
59.16000 17.238
59.17000 6.071
59.18000 10.150
59.19000 10.093
59.20000 13.115
59.21000 8.120
59.22000 9.021
59.23000 11.079
59.24000 16.178
59.25000 13.194
59.26000 8.092
59.27000 14.064
59.28000 7.089
59.29000 10.149
59.30000 13.042
59.31000 11.143
59.32000 16.093
59.33000 11.196
59.34000 9.240
59.35000 10.131
59.36000 9.147
59.37000 11.041
59.38000 8.095
59.39000 9.064
59.40000 12.084
59.41000 6.070
59.42000 7.122
59.43000 6.969
59.44000 7.018
59.45000 4.975
59.46000 12.133
59.47000 8.075
59.48000 15.095
59.49000 14.084
59.50000 8.055
59.51000 11.213
59.52000 8.083
59.53000 10.082
59.54000 9.081
59.55000 14.318
59.56000 4.094
59.57000 9.110
59.58000 13.126
59.59000 8.093
59.60000 11.110
59.61000 17.162
59.62000 8.071
59.63000 13.178
59.64000 8.114
59.65000 15.178
59.66000 10.154
59.67000 14.175
59.68000 9.178
59.69000 9.080
59.70000 12.043
59.71000 9.175
59.72000 11.121
59.73000 8.066
59.74000 8.120
59.75000 8.023
59.76000 10.124
59.77000 12.106
59.78000 10.252
59.79000 11.097
59.80000 8.147
59.81000 11.163
59.82000 15.080
59.83000 10.130
59.84000 8.099
59.85000 13.082
59.86000 8.105
59.87000 12.141
59.88000 15.170
59.89000 13.215
59.90000 10.086
59.91000 8.085
59.92000 13.360
59.93000 15.077
59.94000 15.129
59.95000 4.023
59.96000 15.137
59.97000 7.999
59.98000 10.128
59.99000 6.079
60.00000 9.118
60.01000 9.160
60.02000 15.097
60.03000 10.159
60.04000 7.056
60.05000 13.285
60.06000 16.036
60.07000 9.108
60.08000 5.064
60.09000 13.019
60.10000 12.218
60.11000 12.154
60.12000 10.237
60.13000 9.063
60.14000 11.979
60.15000 12.144
60.16000 6.069
60.17000 14.225
60.18000 12.170
60.19000 10.216
60.20000 3.050
60.21000 12.063
60.22000 14.135
60.23000 14.273
60.24000 18.155
60.25000 13.268
60.26000 17.320
60.27000 14.248
60.28000 9.135
60.29000 4.057
60.30000 11.061
60.31000 11.009
60.32000 12.326
60.33000 13.285
60.34000 8.025
60.35000 9.092
60.36000 5.134
60.37000 21.255
60.38000 11.258
60.39000 15.133
60.40000 16.199
60.41000 8.213
60.42000 13.326
60.43000 14.302
60.44000 11.117
60.45000 11.197
60.46000 9.169
60.47000 7.091
60.48000 5.124
60.49000 11.216
60.50000 9.156
60.51000 12.297
60.52000 9.133
60.53000 7.107
60.54000 11.070
60.55000 6.081
60.56000 8.118
60.57000 2.060
60.58000 15.302
60.59000 7.010
60.60000 7.056
60.61000 6.065
60.62000 8.976
60.63000 11.149
60.64000 13.220
60.65000 11.181
60.66000 12.145
60.67000 11.058
60.68000 9.129
60.69000 4.991
60.70000 9.171
60.71000 12.176
60.72000 12.295
60.73000 16.110
60.74000 11.150
60.75000 20.288
60.76000 14.189
60.77000 6.020
60.78000 9.155
60.79000 17.208
60.80000 13.242
60.81000 10.087
60.82000 8.003
60.83000 12.193
60.84000 6.119
60.85000 16.207
60.86000 5.121
60.87000 6.113
60.88000 7.104
60.89000 9.173
60.90000 9.192
60.91000 8.196
60.92000 11.047
60.93000 7.009
60.94000 11.121
60.95000 9.084
60.96000 8.030
60.97000 8.028
60.98000 7.148
60.99000 17.315
61.00000 6.946
61.01000 10.078
61.02000 9.098
61.03000 15.158
61.04000 9.991
61.05000 14.135
61.06000 3.996
61.07000 11.096
61.08000 12.082
61.09000 8.989
61.10000 6.176
61.11000 8.105
61.12000 10.103
61.13000 9.121
61.14000 7.976
61.15000 8.138
61.16000 3.969
61.17000 13.292
61.18000 9.072
61.19000 17.177
61.20000 13.201
61.21000 8.979
61.22000 5.015
61.23000 11.266
61.24000 11.036
61.25000 5.060
61.26000 12.327
61.27000 7.204
61.28000 6.117
61.29000 20.171
61.30000 9.145
61.31000 6.072
61.32000 14.204
61.33000 7.223
61.34000 12.097
61.35000 9.166
61.36000 16.161
61.37000 10.083
61.38000 12.186
61.39000 8.129
61.40000 8.065
61.41000 8.036
61.42000 7.051
61.43000 14.228
61.44000 14.162
61.45000 10.245
61.46000 5.061
61.47000 11.101
61.48000 8.083
61.49000 5.036
61.50000 11.126
61.51000 13.193
61.52000 6.990
61.53000 8.069
61.54000 5.125
61.55000 10.178
61.56000 8.254
61.57000 12.103
61.58000 9.076
61.59000 7.117
61.60000 11.185
61.61000 6.046
61.62000 11.158
61.63000 12.164
61.64000 10.003
61.65000 6.147
61.66000 8.026
61.67000 6.099
61.68000 13.253
61.69000 5.007
61.70000 9.098
61.71000 8.199
61.72000 10.181
61.73000 11.193
61.74000 3.986
61.75000 9.115
61.76000 10.168
61.77000 13.194
61.78000 9.083
61.79000 5.059
61.80000 13.065
61.81000 11.160
61.82000 9.015
61.83000 10.231
61.84000 9.076
61.85000 8.102
61.86000 6.073
61.87000 18.331
61.88000 3.026
61.89000 9.207
61.90000 13.073
61.91000 6.019
61.92000 7.036
61.93000 8.122
61.94000 10.111
61.95000 5.101
61.96000 13.262
61.97000 9.050
61.98000 13.187
61.99000 5.063
62.00000 11.149
62.01000 9.043
62.02000 13.180
62.03000 8.125
62.04000 8.099
62.05000 7.042
62.06000 10.109
62.07000 11.053
62.08000 9.136
62.09000 9.065
62.10000 8.034
62.11000 12.116
62.12000 18.209
62.13000 15.978
62.14000 11.174
62.15000 6.058
62.16000 7.029
62.17000 9.049
62.18000 23.407
62.19000 14.177
62.20000 9.130
62.21000 7.122
62.22000 8.036
62.23000 10.106
62.24000 10.280
62.25000 4.021
62.26000 3.077
62.27000 10.071
62.28000 6.104
62.29000 4.994
62.30000 7.987
62.31000 15.092
62.32000 10.168
62.33000 5.010
62.34000 14.005
62.35000 8.149
62.36000 9.092
62.37000 8.078
62.38000 7.093
62.39000 8.063
62.40000 7.983
62.41000 9.117
62.42000 11.125
62.43000 10.190
62.44000 12.285
62.45000 12.051
62.46000 12.121
62.47000 12.331
62.48000 7.008
62.49000 9.122
62.50000 9.106
62.51000 13.177
62.52000 9.087
62.53000 8.010
62.54000 18.093
62.55000 10.156
62.56000 7.049
62.57000 9.137
62.58000 9.223
62.59000 12.151
62.60000 9.020
62.61000 14.250
62.62000 7.122
62.63000 7.170
62.64000 6.111
62.65000 8.138
62.66000 13.059
62.67000 5.003
62.68000 7.003
62.69000 14.307
62.70000 13.190
62.71000 10.106
62.72000 8.179
62.73000 7.103
62.74000 13.275
62.75000 9.154
62.76000 11.252
62.77000 8.307
62.78000 10.122
62.79000 16.127
62.80000 14.109
62.81000 8.112
62.82000 9.028
62.83000 5.098
62.84000 11.217
62.85000 12.291
62.86000 13.098
62.87000 10.155
62.88000 8.024
62.89000 12.090
62.90000 8.078
62.91000 11.183
62.92000 12.071
62.93000 5.994
62.94000 11.086
62.95000 7.186
62.96000 13.093
62.97000 12.091
62.98000 7.103
62.99000 10.177
63.00000 7.122
63.01000 6.992
63.02000 6.083
63.03000 8.145
63.04000 7.015
63.05000 12.113
63.06000 4.975
63.07000 10.155
63.08000 9.117
63.09000 14.216
63.10000 9.204
63.11000 5.033
63.12000 7.205
63.13000 8.153
63.14000 7.975
63.15000 6.076
63.16000 10.244
63.17000 7.192
63.18000 17.183
63.19000 7.163
63.20000 18.287
63.21000 15.224
63.22000 15.314
63.23000 10.180
63.24000 5.105
63.25000 12.290
63.26000 13.050
63.27000 5.980
63.28000 11.012
63.29000 13.010
63.30000 4.046
63.31000 6.059
63.32000 9.013
63.33000 10.102
63.34000 11.141
63.35000 9.221
63.36000 10.154
63.37000 9.994
63.38000 10.286
63.39000 9.122
63.40000 7.119
63.41000 12.177
63.42000 5.102
63.43000 12.213
63.44000 11.017
63.45000 12.227
63.46000 9.024
63.47000 6.073
63.48000 5.193
63.49000 11.239
63.50000 4.956
63.51000 6.002
63.52000 7.038
63.53000 13.140
63.54000 13.135
63.55000 12.235
63.56000 9.084
63.57000 5.176
63.58000 4.031
63.59000 10.069
63.60000 12.326
63.61000 9.133
63.62000 9.106
63.63000 10.030
63.64000 5.060
63.65000 4.054
63.66000 9.023
63.67000 9.236
63.68000 6.143
63.69000 5.074
63.70000 8.063
63.71000 15.080
63.72000 12.156
63.73000 9.062
63.74000 9.145
63.75000 4.088
63.76000 7.150
63.77000 7.044
63.78000 6.998
63.79000 6.074
63.80000 14.306
63.81000 6.222
63.82000 9.184
63.83000 10.031
63.84000 7.166
63.85000 6.135
63.86000 8.015
63.87000 16.239
63.88000 14.253
63.89000 10.051
63.90000 10.192
63.91000 16.127
63.92000 14.223
63.93000 7.045
63.94000 10.162
63.95000 11.157
63.96000 8.195
63.97000 9.170
63.98000 4.114
63.99000 5.061
64.00000 10.122
64.01000 9.150
64.02000 10.075
64.03000 5.103
64.04000 12.087
64.05000 13.130
64.06000 7.107
64.07000 13.282
64.08000 9.047
64.09000 4.988
64.10000 10.143
64.11000 9.112
64.12000 9.101
64.13000 7.053
64.14000 9.044
64.15000 9.090
64.16000 14.979
64.17000 10.189
64.18000 6.062
64.19000 12.210
64.20000 5.009
64.21000 7.014
64.22000 4.120
64.23000 9.078
64.24000 5.083
64.25000 7.160
64.26000 7.045
64.27000 2.962
64.28000 12.240
64.29000 8.110
64.30000 12.261
64.31000 10.241
64.32000 11.094
64.33000 7.084
64.34000 8.139
64.35000 9.199
64.36000 9.122
64.37000 9.017
64.38000 7.016
64.39000 10.157
64.40000 7.076
64.41000 6.098
64.42000 4.041
64.43000 7.972
64.44000 7.138
64.45000 6.019
64.46000 15.150
64.47000 4.029
64.48000 9.040
64.49000 10.188
64.50000 8.087
64.51000 5.036
64.52000 10.064
64.53000 6.091
64.54000 7.070
64.55000 13.153
64.56000 10.071
64.57000 8.123
64.58000 7.082
64.59000 9.059
64.60000 13.281
64.61000 7.034
64.62000 9.098
64.63000 12.119
64.64000 6.073
64.65000 5.957
64.66000 9.187
64.67000 9.099
64.68000 14.180
64.69000 11.070
64.70000 6.130
64.71000 9.120
64.72000 5.005
64.73000 6.096
64.74000 5.104
64.75000 11.207
64.76000 10.211
64.77000 9.019
64.78000 4.029
64.79000 5.072
64.80000 12.141
64.81000 7.092
64.82000 10.083
64.83000 6.206
64.84000 10.106
64.85000 4.123
64.86000 7.098
64.87000 10.060
64.88000 4.013
64.89000 7.095
64.90000 8.087
64.91000 4.024
64.92000 4.992
64.93000 6.076
64.94000 3.024
64.95000 9.984
64.96000 16.089
64.97000 0.977
64.98000 7.052
64.99000 7.117
65.00000 5.018
