20.00000 22.275
20.01000 19.277
20.02000 18.199
20.03000 18.138
20.04000 21.165
20.05000 16.353
20.06000 28.189
20.07000 17.155
20.08000 17.145
20.09000 23.538
20.10000 15.234
20.11000 17.210
20.12000 29.499
20.13000 17.331
20.14000 19.205
20.15000 17.112
20.16000 27.321
20.17000 19.361
20.18000 16.100
20.19000 8.977
20.20000 27.499
20.21000 26.259
20.22000 27.355
20.23000 20.219
20.24000 18.234
20.25000 17.096
20.26000 10.050
20.27000 22.129
20.28000 17.228
20.29000 20.321
20.30000 28.385
20.31000 19.387
20.32000 22.270
20.33000 21.246
20.34000 22.331
20.35000 17.293
20.36000 19.159
20.37000 19.072
20.38000 14.394
20.39000 21.256
20.40000 26.418
20.41000 26.107
20.42000 19.135
20.43000 15.145
20.44000 22.256
20.45000 17.259
20.46000 15.262
20.47000 25.491
20.48000 16.299
20.49000 14.182
20.50000 19.292
20.51000 23.248
20.52000 17.139
20.53000 10.188
20.54000 25.428
20.55000 15.053
20.56000 13.095
20.57000 15.258
20.58000 18.120
20.59000 16.286
20.60000 20.165
20.61000 12.241
20.62000 20.169
20.63000 14.236
20.64000 15.373
20.65000 10.970
20.66000 23.205
20.67000 15.249
20.68000 12.268
20.69000 14.134
20.70000 19.263
20.71000 24.326
20.72000 26.343
20.73000 12.119
20.74000 29.166
20.75000 15.158
20.76000 22.392
20.77000 22.173
20.78000 18.181
20.79000 24.254
20.80000 8.201
20.81000 22.338
20.82000 17.354
20.83000 20.190
20.84000 18.238
20.85000 15.181
20.86000 13.051
20.87000 26.190
20.88000 22.348
20.89000 12.200
20.90000 16.146
20.91000 19.197
20.92000 18.351
20.93000 19.318
20.94000 19.155
20.95000 14.190
20.96000 23.352
20.97000 27.074
20.98000 27.047
20.99000 17.153
21.00000 21.177
21.01000 19.296
21.02000 23.031
21.03000 29.296
21.04000 21.189
21.05000 16.229
21.06000 21.145
21.07000 26.401
21.08000 11.199
21.09000 17.309
21.10000 15.101
21.11000 14.381
21.12000 18.265
21.13000 15.246
21.14000 19.348
21.15000 20.278
21.16000 21.139
21.17000 11.148
21.18000 12.232
21.19000 18.121
21.20000 22.112
21.21000 14.284
21.22000 17.282
21.23000 23.378
21.24000 33.559
21.25000 19.155
21.26000 19.260
21.27000 16.239
21.28000 19.299
21.29000 19.126
21.30000 23.207
21.31000 13.271
21.32000 26.385
21.33000 15.335
21.34000 20.362
21.35000 20.231
21.36000 27.270
21.37000 15.329
21.38000 19.342
21.39000 18.136
21.40000 21.376
21.41000 12.261
21.42000 16.119
21.43000 12.151
21.44000 18.083
21.45000 21.217
21.46000 25.358
21.47000 16.243
21.48000 18.265
21.49000 12.288
21.50000 22.215
21.51000 27.426
21.52000 21.257
21.53000 15.137
21.54000 14.181
21.55000 20.183
21.56000 16.221
21.57000 26.247
21.58000 18.317
21.59000 21.374
21.60000 17.089
21.61000 19.260
21.62000 20.445
21.63000 18.183
21.64000 21.100
21.65000 22.102
21.66000 17.235
21.67000 13.356
21.68000 18.233
21.69000 14.167
21.70000 26.360
21.71000 24.269
21.72000 22.489
21.73000 18.173
21.74000 26.395
21.75000 23.150
21.76000 16.122
21.77000 19.145
21.78000 21.177
21.79000 15.214
21.80000 20.235
21.81000 23.303
21.82000 13.149
21.83000 20.395
21.84000 17.138
21.85000 31.412
21.86000 23.272
21.87000 19.209
21.88000 15.359
21.89000 20.331
21.90000 21.230
21.91000 26.584
21.92000 22.317
21.93000 26.613
21.94000 14.103
21.95000 26.536
21.96000 19.065
21.97000 20.305
21.98000 26.340
21.99000 20.254
22.00000 15.153
22.01000 15.124
22.02000 14.396
22.03000 11.024
22.04000 18.111
22.05000 25.337
22.06000 15.305
22.07000 16.171
22.08000 19.224
22.09000 26.581
22.10000 16.187
22.11000 34.457
22.12000 24.421
22.13000 24.226
22.14000 11.101
22.15000 27.506
22.16000 20.274
22.17000 14.178
22.18000 21.007
22.19000 17.109
22.20000 13.366
22.21000 17.231
22.22000 21.301
22.23000 17.393
22.24000 19.141
22.25000 12.235
22.26000 18.133
22.27000 10.194
22.28000 17.286
22.29000 12.172
22.30000 14.087
22.31000 25.174
22.32000 20.197
22.33000 12.016
22.34000 25.340
22.35000 21.167
22.36000 18.299
22.37000 25.352
22.38000 21.161
22.39000 21.445
22.40000 20.349
22.41000 16.298
22.42000 20.202
22.43000 28.239
22.44000 16.420
22.45000 17.309
22.46000 13.094
22.47000 24.304
22.48000 12.251
22.49000 19.191
22.50000 14.107
22.51000 21.566
22.52000 23.292
22.53000 20.350
22.54000 26.431
22.55000 29.572
22.56000 23.449
22.57000 23.212
22.58000 23.387
22.59000 20.201
22.60000 20.383
22.61000 22.286
22.62000 27.277
22.63000 17.193
22.64000 20.362
22.65000 18.152
22.66000 24.262
22.67000 14.123
22.68000 21.446
22.69000 20.292
22.70000 20.211
22.71000 13.224
22.72000 13.154
22.73000 18.144
22.74000 24.431
22.75000 20.339
22.76000 24.191
22.77000 15.253
22.78000 13.091
22.79000 17.155
22.80000 16.276
22.81000 20.193
22.82000 22.280
22.83000 17.190
22.84000 19.243
22.85000 14.171
22.86000 18.239
22.87000 20.219
22.88000 19.280
22.89000 26.164
22.90000 20.280
22.91000 18.087
22.92000 22.170
22.93000 22.203
22.94000 19.292
22.95000 29.483
22.96000 22.339
22.97000 14.212
22.98000 23.422
22.99000 25.334
23.00000 24.240
23.01000 11.147
23.02000 19.226
23.03000 28.337
23.04000 19.122
23.05000 24.195
23.06000 17.244
23.07000 22.348
23.08000 23.196
23.09000 21.241
23.10000 26.463
23.11000 28.280
23.12000 16.236
23.13000 11.096
23.14000 17.039
23.15000 23.261
23.16000 20.358
23.17000 25.471
23.18000 21.356
23.19000 19.244
23.20000 25.429
23.21000 27.471
23.22000 25.286
23.23000 22.271
23.24000 29.239
23.25000 20.386
23.26000 19.108
23.27000 12.040
23.28000 16.261
23.29000 21.249
23.30000 18.225
23.31000 20.201
23.32000 25.456
23.33000 26.347
23.34000 24.454
23.35000 24.381
23.36000 28.364
23.37000 27.585
23.38000 22.191
23.39000 27.185
23.40000 27.172
23.41000 19.241
23.42000 18.329
23.43000 21.329
23.44000 23.335
23.45000 25.179
23.46000 19.326
23.47000 20.013
23.48000 13.134
23.49000 20.935
23.50000 21.289
23.51000 16.239
23.52000 32.333
23.53000 23.207
23.54000 27.410
23.55000 24.343
23.56000 19.323
23.57000 21.203
23.58000 18.237
23.59000 23.340
23.60000 22.255
23.61000 20.292
23.62000 22.184
23.63000 25.463
23.64000 23.166
23.65000 19.183
23.66000 30.058
23.67000 13.067
23.68000 17.122
23.69000 28.458
23.70000 26.444
23.71000 34.429
23.72000 22.186
23.73000 28.572
23.74000 16.173
23.75000 14.353
23.76000 22.405
23.77000 28.293
23.78000 16.084
23.79000 29.535
23.80000 21.246
23.81000 19.245
23.82000 29.247
23.83000 16.162
23.84000 22.217
23.85000 26.361
23.86000 27.473
23.87000 24.304
23.88000 28.342
23.89000 24.429
23.90000 23.173
23.91000 25.420
23.92000 28.235
23.93000 32.440
23.94000 28.330
23.95000 25.376
23.96000 22.232
23.97000 23.027
23.98000 24.345
23.99000 25.203
24.00000 23.279
24.01000 22.289
24.02000 27.406
24.03000 24.178
24.04000 18.959
24.05000 17.265
24.06000 19.191
24.07000 28.480
24.08000 20.316
24.09000 31.172
24.10000 27.313
24.11000 25.287
24.12000 17.088
24.13000 12.165
24.14000 28.440
24.15000 19.326
24.16000 27.186
24.17000 19.316
24.18000 25.375
24.19000 31.537
24.20000 22.491
24.21000 31.439
24.22000 18.316
24.23000 13.204
24.24000 25.257
24.25000 22.119
24.26000 18.236
24.27000 26.537
24.28000 26.362
24.29000 24.309
24.30000 21.225
24.31000 30.454
24.32000 31.671
24.33000 22.156
24.34000 28.419
24.35000 19.156
24.36000 24.638
24.37000 31.332
24.38000 24.420
24.39000 27.305
24.40000 24.518
24.41000 35.335
24.42000 21.187
24.43000 24.436
24.44000 27.293
24.45000 25.250
24.46000 15.143
24.47000 26.438
24.48000 34.419
24.49000 30.241
24.50000 34.532
24.51000 23.483
24.52000 37.436
24.53000 22.215
24.54000 27.180
24.55000 25.464
24.56000 18.390
24.57000 28.410
24.58000 31.554
24.59000 27.229
24.60000 18.295
24.61000 27.645
24.62000 34.362
24.63000 28.621
24.64000 25.389
24.65000 28.219
24.66000 33.511
24.67000 22.458
24.68000 30.539
24.69000 18.280
24.70000 32.404
24.71000 20.336
24.72000 26.288
24.73000 28.229
24.74000 32.207
24.75000 34.525
24.76000 25.516
24.77000 34.581
24.78000 24.316
24.79000 28.437
24.80000 28.308
24.81000 17.195
24.82000 29.308
24.83000 23.583
24.84000 43.649
24.85000 29.384
24.86000 32.226
24.87000 33.447
24.88000 27.349
24.89000 20.351
24.90000 27.397
24.91000 32.394
24.92000 29.359
24.93000 26.504
24.94000 14.378
24.95000 25.281
24.96000 35.371
24.97000 32.397
24.98000 26.230
24.99000 29.236
25.00000 23.655
25.01000 38.245
25.02000 32.385
25.03000 25.242
25.04000 16.230
25.05000 24.165
25.06000 30.402
25.07000 22.442
25.08000 30.264
25.09000 24.140
25.10000 27.400
25.11000 28.199
25.12000 38.347
25.13000 19.306
25.14000 25.139
25.15000 50.659
25.16000 25.438
25.17000 24.293
25.18000 17.032
25.19000 25.370
25.20000 25.515
25.21000 28.094
25.22000 24.279
25.23000 29.519
25.24000 35.426
25.25000 41.672
25.26000 29.310
25.27000 28.411
25.28000 22.318
25.29000 28.454
25.30000 29.527
25.31000 28.250
25.32000 30.483
25.33000 37.465
25.34000 28.322
25.35000 20.139
25.36000 26.121
25.37000 27.341
25.38000 26.339
25.39000 40.450
25.40000 29.309
25.41000 32.604
25.42000 24.424
25.43000 25.301
25.44000 30.454
25.45000 29.410
25.46000 41.394
25.47000 39.426
25.48000 27.107
25.49000 31.241
25.50000 34.158
25.51000 34.393
25.52000 28.500
25.53000 22.037
25.54000 39.516
25.55000 20.438
25.56000 32.419
25.57000 39.448
25.58000 26.537
25.59000 36.652
25.60000 35.338
25.61000 32.467
25.62000 33.476
25.63000 35.222
25.64000 30.330
25.65000 27.215
25.66000 20.360
25.67000 27.207
25.68000 34.523
25.69000 31.424
25.70000 26.320
25.71000 20.296
25.72000 35.387
25.73000 28.253
25.74000 16.164
25.75000 36.434
25.76000 50.704
25.77000 23.403
25.78000 33.322
25.79000 33.370
25.80000 30.460
25.81000 39.337
25.82000 32.401
25.83000 35.424
25.84000 32.466
25.85000 28.331
25.86000 31.468
25.87000 36.563
25.88000 34.495
25.89000 37.599
25.90000 28.425
25.91000 38.594
25.92000 28.280
25.93000 37.633
25.94000 44.385
25.95000 34.568
25.96000 28.334
25.97000 41.736
25.98000 38.630
25.99000 35.769
26.00000 33.537
26.01000 42.605
26.02000 31.217
26.03000 27.418
26.04000 30.543
26.05000 33.097
26.06000 32.510
26.07000 36.478
26.08000 35.342
26.09000 48.842
26.10000 40.526
26.11000 30.268
26.12000 37.396
26.13000 35.495
26.14000 27.488
26.15000 40.469
26.16000 32.268
26.17000 29.531
26.18000 32.393
26.19000 41.597
26.20000 32.333
26.21000 41.498
26.22000 30.490
26.23000 33.149
26.24000 40.541
26.25000 28.220
26.26000 22.259
26.27000 36.330
26.28000 30.454
26.29000 27.295
26.30000 33.544
26.31000 30.501
26.32000 36.342
26.33000 39.695
26.34000 25.323
26.35000 44.622
26.36000 40.682
26.37000 47.746
26.38000 26.353
26.39000 42.860
26.40000 46.692
26.41000 32.417
26.42000 38.435
26.43000 30.436
26.44000 46.554
26.45000 36.704
26.46000 30.311
26.47000 34.372
26.48000 38.260
26.49000 33.519
26.50000 38.573
26.51000 40.563
26.52000 35.508
26.53000 30.367
26.54000 28.367
26.55000 45.474
26.56000 31.540
26.57000 39.163
26.58000 33.409
26.59000 37.425
26.60000 46.811
26.61000 34.396
26.62000 40.433
26.63000 55.894
26.64000 35.653
26.65000 36.627
26.66000 33.571
26.67000 39.389
26.68000 32.315
26.69000 42.720
26.70000 40.221
26.71000 30.406
26.72000 37.643
26.73000 30.270
26.74000 44.355
26.75000 34.432
26.76000 31.588
26.77000 26.174
26.78000 35.197
26.79000 40.524
26.80000 36.534
26.81000 36.721
26.82000 38.729
26.83000 34.645
26.84000 35.426
26.85000 38.204
26.86000 36.460
26.87000 33.486
26.88000 25.509
26.89000 44.462
26.90000 32.437
26.91000 31.650
26.92000 41.662
26.93000 42.694
26.94000 42.169
26.95000 52.748
26.96000 25.465
26.97000 40.463
26.98000 45.642
26.99000 37.816
27.00000 31.409
27.01000 47.504
27.02000 43.684
27.03000 45.555
27.04000 41.496
27.05000 38.381
27.06000 41.630
27.07000 34.400
27.08000 35.533
27.09000 33.494
27.10000 30.411
27.11000 29.359
27.12000 29.391
27.13000 44.346
27.14000 33.395
27.15000 43.685
27.16000 34.532
27.17000 28.429
27.18000 42.491
27.19000 38.318
27.20000 57.697
27.21000 50.767
27.22000 45.512
27.23000 40.605
27.24000 33.061
27.25000 34.533
27.26000 47.534
27.27000 41.787
27.28000 26.452
27.29000 41.645
27.30000 39.521
27.31000 33.634
27.32000 34.540
27.33000 33.376
27.34000 53.677
27.35000 31.485
27.36000 32.547
27.37000 31.505
27.38000 27.370
27.39000 37.696
27.40000 35.517
27.41000 40.313
27.42000 38.440
27.43000 33.750
27.44000 40.673
27.45000 38.414
27.46000 44.595
27.47000 44.553
27.48000 37.611
27.49000 35.512
27.50000 43.601
27.51000 26.224
27.52000 37.603
27.53000 44.583
27.54000 41.329
27.55000 24.327
27.56000 42.513
27.57000 44.435
27.58000 34.471
27.59000 37.495
27.60000 37.367
27.61000 45.778
27.62000 32.341
27.63000 27.329
27.64000 38.759
27.65000 42.306
27.66000 39.444
27.67000 34.558
27.68000 38.489
27.69000 25.309
27.70000 37.304
27.71000 39.598
27.72000 35.427
27.73000 32.342
27.74000 37.473
27.75000 38.618
27.76000 39.639
27.77000 39.262
27.78000 37.635
27.79000 42.663
27.80000 41.319
27.81000 38.509
27.82000 49.895
27.83000 34.595
27.84000 44.698
27.85000 25.440
27.86000 33.447
27.87000 30.334
27.88000 29.542
27.89000 37.518
27.90000 36.474
27.91000 38.616
27.92000 34.563
27.93000 46.506
27.94000 40.619
27.95000 28.562
27.96000 41.393
27.97000 34.380
27.98000 36.711
27.99000 34.379
28.00000 48.813
28.01000 48.696
28.02000 33.373
28.03000 47.595
28.04000 50.840
28.05000 36.417
28.06000 36.442
28.07000 37.443
28.08000 42.533
28.09000 33.415
28.10000 43.586
28.11000 38.720
28.12000 39.449
28.13000 43.541
28.14000 44.656
28.15000 37.505
28.16000 32.458
28.17000 34.524
28.18000 34.392
28.19000 35.362
28.20000 36.347
28.21000 41.679
28.22000 33.410
28.23000 34.435
28.24000 39.549
28.25000 31.339
28.26000 47.419
28.27000 36.492
28.28000 34.331
28.29000 33.308
28.30000 24.361
28.31000 40.563
28.32000 32.352
28.33000 29.056
28.34000 40.662
28.35000 24.182
28.36000 30.255
28.37000 34.179
28.38000 34.478
28.39000 32.611
28.40000 48.515
28.41000 43.308
28.42000 33.295
28.43000 41.708
28.44000 40.493
28.45000 29.243
28.46000 41.504
28.47000 34.597
28.48000 25.330
28.49000 25.101
28.50000 25.289
28.51000 34.502
28.52000 45.711
28.53000 25.464
28.54000 41.795
28.55000 33.308
28.56000 39.895
28.57000 30.303
28.58000 32.567
28.59000 26.315
28.60000 27.276
28.61000 30.468
28.62000 33.495
28.63000 31.509
28.64000 43.580
28.65000 45.482
28.66000 30.227
28.67000 46.674
28.68000 27.531
28.69000 33.500
28.70000 36.364
28.71000 35.493
28.72000 46.553
28.73000 38.235
28.74000 27.355
28.75000 35.379
28.76000 30.402
28.77000 30.343
28.78000 37.641
28.79000 36.577
28.80000 35.615
28.81000 35.289
28.82000 36.402
28.83000 33.431
28.84000 32.205
28.85000 38.474
28.86000 37.387
28.87000 33.621
28.88000 34.373
28.89000 30.402
28.90000 44.365
28.91000 31.143
28.92000 45.377
28.93000 30.155
28.94000 32.655
28.95000 26.407
28.96000 32.660
28.97000 35.197
28.98000 27.505
28.99000 26.243
29.00000 22.161
29.01000 44.621
29.02000 31.369
29.03000 29.129
29.04000 32.365
29.05000 41.373
29.06000 45.632
29.07000 31.566
29.08000 34.481
29.09000 36.250
29.10000 42.668
29.11000 35.471
29.12000 20.322
29.13000 29.270
29.14000 28.565
29.15000 28.188
29.16000 35.593
29.17000 29.505
29.18000 37.247
29.19000 27.340
29.20000 47.639
29.21000 31.261
29.22000 25.582
29.23000 28.483
29.24000 25.494
29.25000 31.349
29.26000 31.558
29.27000 29.366
29.28000 40.592
29.29000 38.348
29.30000 42.822
29.31000 24.571
29.32000 35.537
29.33000 26.396
29.34000 35.450
29.35000 28.401
29.36000 29.527
29.37000 35.715
29.38000 38.562
29.39000 37.564
29.40000 33.570
29.41000 24.326
29.42000 29.169
29.43000 30.549
29.44000 28.301
29.45000 31.519
29.46000 27.211
29.47000 31.653
29.48000 29.562
29.49000 24.531
29.50000 33.570
29.51000 35.232
29.52000 27.309
29.53000 36.473
29.54000 35.312
29.55000 28.267
29.56000 31.498
29.57000 35.581
29.58000 29.739
29.59000 36.638
29.60000 27.240
29.61000 27.232
29.62000 22.397
29.63000 35.363
29.64000 26.347
29.65000 22.145
29.66000 24.314
29.67000 25.393
29.68000 31.380
29.69000 28.324
29.70000 25.303
29.71000 24.268
29.72000 32.504
29.73000 32.514
29.74000 34.342
29.75000 24.338
29.76000 28.561
29.77000 26.444
29.78000 30.476
29.79000 34.348
29.80000 26.369
29.81000 38.562
29.82000 35.554
29.83000 37.497
29.84000 26.357
29.85000 38.266
29.86000 32.458
29.87000 37.501
29.88000 29.413
29.89000 22.307
29.90000 28.244
29.91000 32.237
29.92000 30.169
29.93000 26.221
29.94000 25.379
29.95000 21.107
29.96000 20.235
29.97000 30.338
29.98000 30.516
29.99000 33.226
30.00000 28.351
30.01000 24.137
30.02000 17.201
30.03000 25.202
30.04000 27.584
30.05000 35.554
30.06000 29.489
30.07000 33.354
30.08000 25.303
30.09000 30.335
30.10000 24.343
30.11000 31.401
30.12000 15.193
30.13000 28.418
30.14000 33.348
30.15000 33.492
30.16000 22.161
30.17000 23.200
30.18000 25.268
30.19000 24.270
30.20000 30.456
30.21000 36.783
30.22000 31.443
30.23000 32.481
30.24000 21.243
30.25000 28.445
30.26000 23.284
30.27000 22.265
30.28000 28.447
30.29000 28.366
30.30000 24.349
30.31000 30.476
30.32000 24.276
30.33000 25.430
30.34000 25.243
30.35000 32.293
30.36000 36.471
30.37000 24.450
30.38000 31.221
30.39000 23.435
30.40000 20.400
30.41000 19.335
30.42000 27.438
30.43000 29.371
30.44000 23.191
30.45000 26.243
30.46000 33.481
30.47000 23.250
30.48000 18.270
30.49000 26.146
30.50000 28.315
30.51000 34.283
30.52000 24.472
30.53000 12.079
30.54000 23.491
30.55000 25.478
30.56000 34.526
30.57000 15.184
30.58000 27.481
30.59000 30.369
30.60000 29.219
30.61000 28.194
30.62000 19.062
30.63000 17.240
30.64000 17.212
30.65000 19.228
30.66000 22.146
30.67000 27.267
30.68000 32.572
30.69000 26.483
30.70000 19.062
30.71000 26.377
30.72000 30.332
30.73000 7.064
30.74000 26.456
30.75000 20.350
30.76000 22.461
30.77000 27.205
30.78000 17.331
30.79000 13.203
30.80000 31.358
30.81000 27.426
30.82000 30.472
30.83000 21.420
30.84000 17.105
30.85000 32.423
30.86000 33.370
30.87000 24.340
30.88000 25.624
30.89000 25.435
30.90000 23.417
30.91000 21.249
30.92000 28.383
30.93000 18.468
30.94000 26.197
30.95000 26.324
30.96000 23.463
30.97000 25.427
30.98000 24.230
30.99000 17.275
31.00000 25.346
31.01000 33.517
31.02000 25.367
31.03000 22.418
31.04000 25.261
31.05000 29.316
31.06000 31.603
31.07000 20.365
31.08000 30.508
31.09000 28.560
31.10000 28.413
31.11000 24.260
31.12000 25.440
31.13000 25.285
31.14000 17.148
31.15000 20.220
31.16000 31.320
31.17000 18.286
31.18000 24.425
31.19000 28.294
31.20000 21.306
31.21000 27.337
31.22000 21.252
31.23000 17.432
31.24000 19.319
31.25000 29.130
31.26000 19.100
31.27000 20.412
31.28000 28.255
31.29000 13.119
31.30000 22.230
31.31000 21.251
31.32000 12.166
31.33000 24.275
31.34000 24.399
31.35000 21.156
31.36000 16.203
31.37000 19.222
31.38000 19.299
31.39000 15.072
31.40000 24.058
31.41000 23.405
31.42000 16.196
31.43000 22.303
31.44000 15.051
31.45000 23.021
31.46000 21.076
31.47000 31.442
31.48000 13.284
31.49000 28.576
31.50000 24.354
31.51000 19.231
31.52000 29.160
31.53000 32.328
31.54000 19.222
31.55000 14.139
31.56000 18.274
31.57000 15.242
31.58000 22.250
31.59000 23.382
31.60000 30.624
31.61000 20.229
31.62000 16.081
31.63000 21.274
31.64000 20.192
31.65000 22.303
31.66000 26.372
31.67000 16.275
31.68000 32.420
31.69000 23.401
31.70000 25.265
31.71000 13.217
31.72000 19.309
31.73000 17.201
31.74000 30.309
31.75000 28.381
31.76000 21.179
31.77000 27.379
31.78000 30.317
31.79000 19.197
31.80000 33.253
31.81000 25.420
31.82000 19.371
31.83000 12.288
31.84000 21.380
31.85000 28.270
31.86000 19.528
31.87000 20.183
31.88000 17.337
31.89000 18.124
31.90000 15.191
31.91000 19.202
31.92000 18.124
31.93000 25.173
31.94000 25.356
31.95000 20.072
31.96000 18.353
31.97000 14.110
31.98000 28.300
31.99000 19.213
32.00000 15.036
32.01000 21.382
32.02000 16.100
32.03000 22.331
32.04000 23.301
32.05000 35.409
32.06000 19.097
32.07000 26.285
32.08000 25.244
32.09000 20.441
32.10000 18.214
32.11000 22.208
32.12000 30.368
32.13000 16.335
32.14000 14.303
32.15000 27.335
32.16000 29.411
32.17000 25.375
32.18000 24.135
32.19000 23.400
32.20000 25.368
32.21000 27.295
32.22000 23.293
32.23000 24.344
32.24000 24.262
32.25000 21.436
32.26000 25.239
32.27000 26.436
32.28000 34.355
32.29000 30.264
32.30000 31.227
32.31000 24.333
32.32000 26.160
32.33000 25.387
32.34000 22.217
32.35000 25.189
32.36000 34.605
32.37000 27.481
32.38000 21.311
32.39000 23.352
32.40000 26.241
32.41000 22.228
32.42000 23.272
32.43000 19.363
32.44000 26.514
32.45000 15.129
32.46000 23.403
32.47000 23.250
32.48000 27.243
32.49000 23.316
32.50000 17.136
32.51000 24.277
32.52000 14.039
32.53000 23.341
32.54000 22.199
32.55000 17.329
32.56000 25.322
32.57000 20.188
32.58000 19.242
32.59000 38.401
32.60000 22.236
32.61000 21.156
32.62000 25.472
32.63000 15.197
32.64000 24.388
32.65000 22.399
32.66000 23.469
32.67000 24.410
32.68000 25.328
32.69000 16.369
32.70000 13.225
32.71000 15.255
32.72000 17.123
32.73000 24.198
32.74000 20.128
32.75000 23.309
32.76000 20.217
32.77000 23.335
32.78000 14.121
32.79000 23.263
32.80000 23.381
32.81000 15.274
32.82000 21.315
32.83000 13.155
32.84000 16.218
32.85000 18.129
32.86000 13.131
32.87000 18.428
32.88000 14.400
32.89000 24.397
32.90000 18.172
32.91000 24.104
32.92000 14.015
32.93000 19.268
32.94000 14.170
32.95000 18.188
32.96000 21.103
32.97000 14.259
32.98000 24.201
32.99000 14.092
33.00000 16.268
33.01000 16.145
33.02000 16.177
33.03000 23.494
33.04000 11.183
33.05000 9.045
33.06000 20.196
33.07000 23.211
33.08000 22.233
33.09000 13.120
33.10000 17.191
33.11000 25.343
33.12000 11.165
33.13000 9.130
33.14000 15.204
33.15000 14.164
33.16000 13.229
33.17000 15.220
33.18000 11.141
33.19000 25.333
33.20000 22.363
33.21000 16.159
33.22000 19.115
33.23000 14.133
33.24000 12.137
33.25000 13.177
33.26000 16.066
33.27000 18.280
33.28000 21.297
33.29000 20.285
33.30000 17.222
33.31000 15.248
33.32000 16.061
33.33000 16.308
33.34000 20.205
33.35000 21.260
33.36000 15.215
33.37000 19.179
33.38000 19.339
33.39000 10.076
33.40000 14.141
33.41000 14.187
33.42000 12.231
33.43000 15.305
33.44000 21.157
33.45000 18.373
33.46000 12.045
33.47000 21.094
33.48000 12.140
33.49000 10.144
33.50000 19.201
33.51000 18.294
33.52000 12.130
33.53000 8.121
33.54000 19.395
33.55000 14.221
33.56000 16.340
33.57000 11.236
33.58000 15.150
33.59000 19.254
33.60000 18.114
33.61000 16.292
33.62000 17.253
33.63000 10.106
33.64000 13.154
33.65000 16.216
33.66000 14.095
33.67000 11.114
33.68000 10.101
33.69000 11.122
33.70000 12.187
33.71000 20.245
33.72000 9.053
33.73000 13.048
33.74000 13.163
33.75000 14.151
33.76000 14.148
33.77000 18.327
33.78000 12.033
33.79000 13.425
33.80000 10.115
33.81000 15.044
33.82000 12.169
33.83000 8.231
33.84000 23.568
33.85000 14.234
33.86000 13.331
33.87000 12.164
33.88000 20.309
33.89000 9.066
33.90000 12.107
33.91000 19.468
33.92000 16.143
33.93000 12.198
33.94000 16.113
33.95000 15.141
33.96000 23.281
33.97000 15.192
33.98000 18.232
33.99000 15.335
34.00000 21.225
34.01000 19.213
34.02000 11.077
34.03000 10.200
34.04000 16.310
34.05000 17.244
34.06000 18.285
34.07000 18.299
34.08000 14.294
34.09000 17.131
34.10000 6.017
34.11000 10.200
34.12000 15.146
34.13000 16.313
34.14000 15.220
34.15000 13.172
34.16000 13.250
34.17000 18.351
34.18000 21.437
34.19000 15.326
34.20000 14.297
34.21000 16.307
34.22000 18.484
34.23000 8.188
34.24000 15.275
34.25000 18.196
34.26000 14.163
34.27000 13.260
34.28000 10.081
34.29000 14.078
34.30000 15.229
34.31000 15.263
34.32000 12.063
34.33000 9.048
34.34000 10.094
34.35000 21.266
34.36000 20.189
34.37000 12.081
34.38000 13.120
34.39000 8.109
34.40000 7.155
34.41000 18.256
34.42000 13.207
34.43000 12.119
34.44000 18.188
34.45000 12.291
34.46000 16.268
34.47000 16.127
34.48000 14.074
34.49000 21.391
34.50000 14.333
34.51000 13.152
34.52000 17.308
34.53000 13.189
34.54000 17.246
34.55000 13.225
34.56000 17.345
34.57000 11.115
34.58000 4.044
34.59000 7.031
34.60000 7.956
34.61000 13.003
34.62000 16.254
34.63000 9.181
34.64000 10.115
34.65000 18.064
34.66000 11.164
34.67000 16.199
34.68000 18.349
34.69000 13.129
34.70000 16.172
34.71000 13.196
34.72000 17.159
34.73000 13.978
34.74000 19.221
34.75000 10.188
34.76000 10.330
34.77000 19.374
34.78000 14.104
34.79000 10.956
34.80000 12.186
34.81000 17.246
34.82000 11.156
34.83000 18.287
34.84000 12.102
34.85000 8.112
34.86000 15.034
34.87000 15.396
34.88000 10.081
34.89000 15.153
34.90000 17.291
34.91000 13.050
34.92000 12.211
34.93000 14.142
34.94000 16.298
34.95000 12.149
34.96000 19.307
34.97000 11.182
34.98000 15.186
34.99000 10.058
35.00000 19.185
35.01000 10.051
35.02000 11.167
35.03000 18.489
35.04000 19.180
35.05000 7.034
35.06000 19.252
35.07000 18.370
35.08000 11.136
35.09000 12.065
35.10000 22.206
35.11000 10.121
35.12000 18.299
35.13000 13.211
35.14000 21.430
35.15000 14.037
35.16000 15.247
35.17000 18.225
35.18000 13.170
35.19000 22.442
35.20000 17.080
35.21000 8.075
35.22000 16.018
35.23000 15.142
35.24000 13.106
35.25000 14.222
35.26000 6.083
35.27000 14.138
35.28000 15.145
35.29000 12.282
35.30000 14.125
35.31000 9.107
35.32000 13.016
35.33000 12.193
35.34000 16.376
35.35000 14.218
35.36000 12.049
35.37000 11.134
35.38000 5.089
35.39000 24.358
35.40000 13.287
35.41000 10.138
35.42000 6.089
35.43000 10.087
35.44000 17.349
35.45000 17.175
35.46000 17.292
35.47000 9.126
35.48000 17.210
35.49000 15.119
35.50000 19.172
35.51000 10.175
35.52000 10.296
35.53000 7.167
35.54000 11.125
35.55000 17.303
35.56000 14.114
35.57000 13.368
35.58000 9.123
35.59000 10.140
35.60000 13.207
35.61000 12.242
35.62000 8.019
35.63000 11.249
35.64000 11.200
35.65000 11.112
35.66000 16.125
35.67000 18.310
35.68000 7.103
35.69000 8.093
35.70000 13.224
35.71000 12.214
35.72000 15.190
35.73000 12.243
35.74000 11.117
35.75000 10.090
35.76000 6.088
35.77000 12.163
35.78000 13.243
35.79000 8.216
35.80000 13.043
35.81000 20.353
35.82000 8.968
35.83000 13.160
35.84000 9.117
35.85000 12.228
35.86000 13.054
35.87000 14.106
35.88000 15.090
35.89000 18.073
35.90000 15.205
35.91000 20.302
35.92000 12.428
35.93000 16.167
35.94000 10.136
35.95000 6.172
35.96000 13.008
35.97000 17.236
35.98000 13.122
35.99000 6.022
36.00000 14.227
36.01000 11.142
36.02000 18.215
36.03000 18.311
36.04000 16.233
36.05000 9.105
36.06000 13.132
36.07000 9.096
36.08000 11.039
36.09000 12.052
36.10000 14.182
36.11000 11.191
36.12000 13.075
36.13000 15.263
36.14000 7.201
36.15000 24.316
36.16000 19.202
36.17000 16.264
36.18000 9.109
36.19000 14.120
36.20000 20.119
36.21000 20.362
36.22000 11.116
36.23000 11.091
36.24000 21.558
36.25000 17.409
36.26000 17.190
36.27000 17.191
36.28000 11.167
36.29000 23.506
36.30000 10.261
36.31000 10.046
36.32000 9.166
36.33000 14.238
36.34000 19.237
36.35000 14.182
36.36000 12.244
36.37000 11.117
36.38000 11.124
36.39000 11.993
36.40000 16.287
36.41000 12.133
36.42000 10.139
36.43000 14.246
36.44000 19.330
36.45000 7.967
36.46000 23.188
36.47000 11.204
36.48000 15.177
36.49000 16.199
36.50000 16.149
36.51000 10.996
36.52000 14.271
36.53000 10.181
36.54000 12.191
36.55000 18.321
36.56000 7.020
36.57000 12.216
36.58000 13.130
36.59000 14.234
36.60000 18.319
36.61000 12.092
36.62000 15.214
36.63000 19.166
36.64000 21.205
36.65000 4.976
36.66000 10.132
36.67000 11.194
36.68000 14.255
36.69000 15.424
36.70000 15.415
36.71000 13.209
36.72000 14.155
36.73000 18.114
36.74000 18.300
36.75000 6.991
36.76000 18.285
36.77000 18.230
36.78000 19.306
36.79000 18.231
36.80000 14.251
36.81000 20.178
36.82000 15.243
36.83000 14.104
36.84000 18.217
36.85000 13.200
36.86000 16.262
36.87000 9.140
36.88000 11.271
36.89000 23.272
36.90000 19.161
36.91000 11.149
36.92000 10.231
36.93000 9.154
36.94000 18.128
36.95000 9.127
36.96000 16.251
36.97000 11.097
36.98000 18.175
36.99000 21.336
37.00000 19.322
37.01000 9.297
37.02000 19.263
37.03000 19.270
37.04000 15.088
37.05000 17.094
37.06000 8.055
37.07000 13.323
37.08000 11.161
37.09000 16.209
37.10000 22.325
37.11000 13.153
37.12000 18.246
37.13000 20.201
37.14000 14.202
37.15000 16.215
37.16000 21.196
37.17000 23.087
37.18000 13.098
37.19000 17.143
37.20000 11.193
37.21000 13.134
37.22000 11.179
37.23000 11.254
37.24000 10.110
37.25000 13.123
37.26000 6.124
37.27000 16.157
37.28000 19.078
37.29000 13.197
37.30000 16.119
37.31000 9.114
37.32000 18.165
37.33000 20.395
37.34000 17.098
37.35000 7.170
37.36000 10.105
37.37000 10.084
37.38000 10.080
37.39000 7.124
37.40000 10.154
37.41000 12.082
37.42000 15.173
37.43000 9.115
37.44000 13.071
37.45000 19.313
37.46000 12.156
37.47000 14.135
37.48000 9.221
37.49000 18.173
37.50000 17.188
37.51000 8.036
37.52000 18.175
37.53000 7.019
37.54000 13.154
37.55000 13.152
37.56000 15.227
37.57000 13.142
37.58000 15.229
37.59000 13.215
37.60000 11.193
37.61000 11.150
37.62000 18.145
37.63000 11.106
37.64000 23.139
37.65000 18.240
37.66000 12.119
37.67000 10.146
37.68000 13.189
37.69000 11.158
37.70000 12.125
37.71000 16.243
37.72000 11.022
37.73000 13.019
37.74000 19.158
37.75000 14.208
37.76000 14.243
37.77000 8.271
37.78000 22.203
37.79000 13.275
37.80000 11.165
37.81000 16.129
37.82000 12.204
37.83000 12.257
37.84000 9.112
37.85000 15.243
37.86000 11.276
37.87000 13.112
37.88000 14.271
37.89000 15.100
37.90000 17.112
37.91000 17.278
37.92000 15.126
37.93000 16.295
37.94000 16.284
37.95000 15.231
37.96000 14.226
37.97000 9.198
37.98000 17.183
37.99000 9.000
38.00000 21.324
38.01000 13.312
38.02000 14.204
38.03000 12.181
38.04000 14.133
38.05000 14.170
38.06000 15.360
38.07000 16.261
38.08000 13.985
38.09000 14.332
38.10000 8.101
38.11000 8.110
38.12000 22.225
38.13000 7.166
38.14000 20.178
38.15000 9.253
38.16000 14.058
38.17000 11.225
38.18000 14.167
38.19000 11.137
38.20000 13.218
38.21000 12.175
38.22000 15.253
38.23000 19.270
38.24000 10.129
38.25000 15.120
38.26000 7.084
38.27000 12.054
38.28000 10.058
38.29000 10.021
38.30000 14.312
38.31000 11.112
38.32000 9.241
38.33000 10.182
38.34000 10.194
38.35000 7.102
38.36000 12.190
38.37000 18.323
38.38000 11.997
38.39000 11.121
38.40000 12.045
38.41000 10.213
38.42000 17.054
38.43000 11.147
38.44000 12.390
38.45000 12.157
38.46000 20.261
38.47000 7.152
38.48000 10.053
38.49000 11.148
38.50000 9.108
38.51000 16.217
38.52000 13.195
38.53000 8.991
38.54000 14.309
38.55000 18.279
38.56000 14.189
38.57000 9.241
38.58000 11.280
38.59000 15.351
38.60000 17.198
38.61000 20.383
38.62000 14.277
38.63000 13.118
38.64000 6.139
38.65000 20.129
38.66000 18.263
38.67000 15.251
38.68000 19.367
38.69000 13.045
38.70000 12.175
38.71000 15.238
38.72000 9.222
38.73000 20.263
38.74000 21.379
38.75000 15.040
38.76000 10.059
38.77000 17.281
38.78000 12.260
38.79000 18.185
38.80000 19.253
38.81000 17.257
38.82000 14.082
38.83000 15.263
38.84000 13.114
38.85000 18.102
38.86000 14.160
38.87000 23.313
38.88000 12.226
38.89000 11.164
38.90000 8.085
38.91000 11.253
38.92000 13.152
38.93000 20.333
38.94000 14.322
38.95000 13.148
38.96000 18.318
38.97000 10.243
38.98000 8.115
38.99000 14.040
39.00000 20.328
39.01000 10.007
39.02000 13.172
39.03000 11.199
39.04000 14.208
39.05000 22.274
39.06000 16.239
39.07000 15.131
39.08000 20.368
39.09000 13.278
39.10000 16.323
39.11000 14.289
39.12000 17.227
39.13000 14.213
39.14000 15.196
39.15000 17.198
39.16000 14.070
39.17000 8.097
39.18000 12.155
39.19000 18.291
39.20000 7.122
39.21000 15.095
39.22000 22.234
39.23000 12.111
39.24000 17.165
39.25000 20.228
39.26000 16.276
39.27000 20.152
39.28000 9.096
39.29000 16.326
39.30000 16.279
39.31000 6.963
39.32000 14.208
39.33000 13.140
39.34000 17.258
39.35000 19.173
39.36000 16.290
39.37000 10.085
39.38000 13.125
39.39000 16.209
39.40000 14.054
39.41000 30.317
39.42000 19.176
39.43000 21.330
39.44000 11.105
39.45000 13.226
39.46000 18.314
39.47000 13.147
39.48000 15.189
39.49000 16.259
39.50000 15.130
39.51000 17.227
39.52000 17.156
39.53000 11.103
39.54000 21.335
39.55000 12.043
39.56000 10.042
39.57000 21.239
39.58000 21.255
39.59000 6.979
39.60000 14.167
39.61000 21.172
39.62000 21.367
39.63000 15.276
39.64000 17.113
39.65000 7.127
39.66000 17.244
39.67000 12.196
39.68000 11.301
39.69000 19.305
39.70000 13.082
39.71000 5.112
39.72000 20.621
39.73000 23.244
39.74000 14.221
39.75000 18.244
39.76000 11.095
39.77000 14.053
39.78000 24.280
39.79000 21.162
39.80000 14.096
39.81000 15.184
39.82000 12.184
39.83000 14.125
39.84000 12.184
39.85000 22.215
39.86000 14.176
39.87000 17.401
39.88000 13.270
39.89000 20.189
39.90000 12.257
39.91000 19.313
39.92000 20.301
39.93000 20.285
39.94000 18.029
39.95000 14.244
39.96000 14.066
39.97000 19.276
39.98000 12.183
39.99000 14.196
40.00000 14.378
40.01000 14.273
40.02000 19.248
40.03000 20.259
40.04000 16.137
40.05000 11.009
40.06000 10.225
40.07000 23.115
40.08000 23.368
40.09000 12.197
40.10000 19.086
40.11000 21.169
40.12000 11.229
40.13000 18.250
40.14000 15.203
40.15000 17.237
40.16000 19.234
40.17000 11.188
40.18000 18.270
40.19000 18.326
40.20000 13.208
40.21000 12.208
40.22000 16.163
40.23000 16.441
40.24000 22.318
40.25000 20.369
40.26000 14.249
40.27000 16.192
40.28000 17.239
40.29000 11.231
40.30000 20.363
40.31000 16.335
40.32000 13.110
40.33000 12.081
40.34000 21.177
40.35000 16.054
40.36000 12.002
40.37000 14.185
40.38000 9.091
40.39000 14.062
40.40000 19.283
40.41000 11.267
40.42000 17.251
40.43000 16.126
40.44000 14.260
40.45000 20.255
40.46000 22.508
40.47000 12.112
40.48000 17.251
40.49000 13.126
40.50000 11.093
40.51000 10.083
40.52000 9.069
40.53000 13.089
40.54000 19.449
40.55000 11.153
40.56000 24.225
40.57000 9.197
40.58000 12.185
40.59000 19.347
40.60000 7.117
40.61000 17.144
40.62000 12.280
40.63000 19.162
40.64000 21.246
40.65000 9.110
40.66000 21.142
40.67000 16.251
40.68000 22.158
40.69000 16.218
40.70000 11.288
40.71000 20.085
40.72000 13.027
40.73000 17.353
40.74000 26.462
40.75000 10.157
40.76000 17.359
40.77000 15.345
40.78000 13.097
40.79000 21.386
40.80000 12.423
40.81000 24.137
40.82000 21.294
40.83000 19.412
40.84000 21.173
40.85000 14.208
40.86000 14.163
40.87000 12.144
40.88000 18.268
40.89000 12.200
40.90000 14.231
40.91000 19.256
40.92000 18.198
40.93000 13.056
40.94000 12.084
40.95000 16.167
40.96000 21.223
40.97000 13.200
40.98000 14.101
40.99000 20.481
41.00000 10.095
41.01000 18.156
41.02000 11.185
41.03000 11.089
41.04000 17.240
41.05000 15.072
41.06000 11.047
41.07000 19.372
41.08000 15.351
41.09000 15.123
41.10000 16.328
41.11000 22.197
41.12000 13.182
41.13000 12.144
41.14000 14.133
41.15000 13.132
41.16000 19.276
41.17000 21.336
41.18000 11.050
41.19000 17.376
41.20000 13.247
41.21000 18.290
41.22000 10.202
41.23000 21.220
41.24000 14.075
41.25000 20.251
41.26000 16.199
41.27000 9.206
41.28000 6.053
41.29000 14.096
41.30000 16.150
41.31000 10.176
41.32000 17.421
41.33000 18.096
41.34000 21.318
41.35000 8.000
41.36000 10.047
41.37000 19.279
41.38000 13.181
41.39000 14.387
41.40000 15.327
41.41000 14.373
41.42000 12.219
41.43000 22.396
41.44000 22.232
41.45000 16.329
41.46000 9.261
41.47000 13.289
41.48000 13.169
41.49000 16.140
41.50000 19.190
41.51000 19.363
41.52000 15.196
41.53000 17.308
41.54000 14.274
41.55000 11.082
41.56000 9.033
41.57000 17.268
41.58000 20.190
41.59000 9.139
41.60000 13.317
41.61000 12.305
41.62000 10.121
41.63000 19.202
41.64000 15.130
41.65000 18.203
41.66000 26.404
41.67000 10.137
41.68000 11.207
41.69000 13.163
41.70000 13.163
41.71000 12.182
41.72000 12.154
41.73000 19.212
41.74000 20.327
41.75000 14.203
41.76000 12.076
41.77000 12.123
41.78000 12.257
41.79000 9.129
41.80000 19.216
41.81000 21.249
41.82000 13.086
41.83000 15.056
41.84000 14.195
41.85000 11.054
41.86000 16.190
41.87000 14.053
41.88000 18.412
41.89000 12.073
41.90000 14.274
41.91000 11.274
41.92000 16.218
41.93000 14.101
41.94000 15.182
41.95000 17.208
41.96000 18.924
41.97000 13.207
41.98000 10.093
41.99000 14.129
42.00000 15.222
42.01000 6.133
42.02000 14.246
42.03000 6.119
42.04000 15.160
42.05000 8.137
42.06000 26.479
42.07000 17.335
42.08000 14.124
42.09000 11.064
42.10000 8.110
42.11000 12.089
42.12000 24.378
42.13000 19.251
42.14000 11.085
42.15000 19.239
42.16000 16.181
42.17000 21.475
42.18000 15.063
42.19000 21.327
42.20000 13.099
42.21000 12.212
42.22000 12.161
42.23000 14.150
42.24000 10.173
42.25000 11.145
42.26000 20.390
42.27000 16.261
42.28000 14.950
42.29000 14.105
42.30000 22.241
42.31000 18.374
42.32000 18.348
42.33000 14.073
42.34000 9.149
42.35000 12.108
42.36000 13.137
42.37000 13.207
42.38000 14.080
42.39000 20.334
42.40000 15.210
42.41000 14.188
42.42000 10.128
42.43000 22.169
42.44000 16.296
42.45000 13.186
42.46000 19.275
42.47000 15.178
42.48000 16.221
42.49000 9.054
42.50000 20.189
42.51000 15.246
42.52000 14.276
42.53000 11.008
42.54000 10.181
42.55000 12.198
42.56000 24.542
42.57000 15.234
42.58000 19.363
42.59000 18.239
42.60000 14.239
42.61000 8.212
42.62000 15.255
42.63000 18.324
42.64000 19.154
42.65000 16.291
42.66000 17.269
42.67000 13.136
42.68000 13.163
42.69000 15.231
42.70000 24.344
42.71000 20.335
42.72000 10.046
42.73000 9.136
42.74000 15.340
42.75000 10.087
42.76000 17.186
42.77000 19.350
42.78000 11.225
42.79000 14.211
42.80000 20.247
42.81000 12.145
42.82000 17.163
42.83000 14.316
42.84000 22.339
42.85000 17.057
42.86000 21.264
42.87000 12.196
42.88000 12.179
42.89000 11.167
42.90000 15.241
42.91000 15.351
42.92000 12.226
42.93000 16.301
42.94000 13.111
42.95000 13.000
42.96000 10.239
42.97000 14.062
42.98000 17.204
42.99000 7.102
43.00000 16.288
43.01000 20.412
43.02000 13.054
43.03000 16.113
43.04000 12.045
43.05000 10.058
43.06000 19.229
43.07000 15.175
43.08000 15.182
43.09000 16.259
43.10000 11.292
43.11000 18.298
43.12000 12.206
43.13000 13.266
43.14000 19.240
43.15000 21.218
43.16000 20.205
43.17000 14.211
43.18000 13.203
43.19000 15.424
43.20000 10.161
43.21000 26.364
43.22000 18.232
43.23000 14.313
43.24000 13.138
43.25000 13.298
43.26000 18.364
43.27000 14.079
43.28000 20.400
43.29000 11.031
43.30000 20.326
43.31000 11.024
43.32000 18.440
43.33000 13.331
43.34000 12.120
43.35000 25.252
43.36000 17.306
43.37000 14.267
43.38000 15.227
43.39000 19.145
43.40000 14.226
43.41000 14.271
43.42000 17.074
43.43000 15.421
43.44000 12.305
43.45000 16.306
43.46000 14.110
43.47000 12.176
43.48000 20.209
43.49000 13.147
43.50000 12.144
43.51000 13.235
43.52000 18.220
43.53000 12.246
43.54000 22.204
43.55000 15.268
43.56000 13.076
43.57000 15.339
43.58000 16.232
43.59000 16.027
43.60000 18.227
43.61000 9.136
43.62000 9.059
43.63000 17.325
43.64000 20.190
43.65000 12.152
43.66000 12.127
43.67000 11.046
43.68000 17.017
43.69000 8.201
43.70000 18.156
43.71000 16.189
43.72000 20.279
43.73000 15.118
43.74000 13.134
43.75000 17.292
43.76000 16.032
43.77000 12.253
43.78000 20.120
43.79000 16.292
43.80000 15.315
43.81000 19.252
43.82000 14.172
43.83000 11.018
43.84000 19.150
43.85000 16.127
43.86000 13.240
43.87000 16.106
43.88000 13.077
43.89000 13.228
43.90000 7.073
43.91000 15.147
43.92000 11.091
43.93000 18.251
43.94000 12.181
43.95000 9.988
43.96000 12.323
43.97000 17.272
43.98000 19.068
43.99000 10.188
44.00000 20.302
44.01000 12.062
44.02000 16.171
44.03000 12.201
44.04000 15.242
44.05000 15.216
44.06000 12.183
44.07000 18.211
44.08000 16.289
44.09000 8.039
44.10000 11.276
44.11000 17.244
44.12000 18.138
44.13000 17.136
44.14000 13.164
44.15000 9.092
44.16000 14.075
44.17000 13.396
44.18000 16.280
44.19000 22.341
44.20000 20.156
44.21000 20.235
44.22000 9.077
44.23000 21.193
44.24000 11.205
44.25000 12.055
44.26000 16.162
44.27000 13.072
44.28000 11.374
44.29000 19.235
44.30000 17.259
44.31000 8.145
44.32000 21.347
44.33000 11.160
44.34000 23.228
44.35000 11.051
44.36000 12.083
44.37000 16.209
44.38000 12.244
44.39000 17.230
44.40000 14.217
44.41000 12.082
44.42000 10.098
44.43000 16.136
44.44000 21.288
44.45000 13.152
44.46000 16.161
44.47000 13.120
44.48000 12.104
44.49000 16.224
44.50000 18.396
44.51000 8.046
44.52000 13.371
44.53000 11.168
44.54000 14.318
44.55000 10.097
44.56000 12.074
44.57000 12.238
44.58000 12.107
44.59000 14.188
44.60000 16.347
44.61000 10.103
44.62000 20.269
44.63000 21.357
44.64000 15.292
44.65000 20.383
44.66000 14.111
44.67000 10.311
44.68000 9.162
44.69000 12.167
44.70000 12.113
44.71000 22.370
44.72000 15.163
44.73000 9.120
44.74000 15.179
44.75000 19.483
44.76000 17.317
44.77000 13.305
44.78000 9.062
44.79000 11.339
44.80000 16.281
44.81000 14.044
44.82000 16.092
44.83000 11.113
44.84000 9.048
44.85000 16.300
44.86000 13.064
44.87000 20.301
44.88000 14.131
44.89000 11.068
44.90000 16.215
44.91000 13.311
44.92000 14.197
44.93000 10.997
44.94000 18.187
44.95000 16.228
44.96000 10.188
44.97000 15.044
44.98000 16.182
44.99000 13.056
45.00000 12.146
45.01000 15.190
45.02000 14.310
45.03000 9.219
45.04000 18.208
45.05000 12.086
45.06000 15.231
45.07000 17.158
45.08000 10.190
45.09000 14.088
45.10000 14.128
45.11000 18.331
45.12000 13.118
45.13000 22.389
45.14000 16.235
45.15000 16.162
45.16000 16.157
45.17000 14.217
45.18000 15.176
45.19000 11.194
45.20000 9.104
45.21000 20.269
45.22000 8.052
45.23000 19.290
45.24000 18.172
45.25000 15.302
45.26000 16.010
45.27000 17.232
45.28000 16.186
45.29000 14.188
45.30000 9.055
45.31000 18.211
45.32000 8.184
45.33000 12.179
45.34000 10.112
45.35000 24.285
45.36000 20.079
45.37000 10.175
45.38000 17.398
45.39000 12.148
45.40000 16.162
45.41000 17.300
45.42000 13.238
45.43000 21.310
45.44000 15.258
45.45000 13.150
45.46000 18.238
45.47000 13.273
45.48000 14.227
45.49000 17.148
45.50000 11.145
45.51000 20.170
45.52000 17.269
45.53000 7.153
45.54000 18.207
45.55000 19.082
45.56000 12.238
45.57000 19.329
45.58000 15.298
45.59000 14.235
45.60000 13.275
45.61000 17.406
45.62000 17.171
45.63000 11.149
45.64000 11.948
45.65000 15.267
45.66000 13.036
45.67000 18.187
45.68000 13.194
45.69000 13.204
45.70000 17.209
45.71000 15.133
45.72000 12.310
45.73000 16.346
45.74000 18.314
45.75000 14.243
45.76000 16.165
45.77000 18.139
45.78000 14.180
45.79000 16.147
45.80000 14.178
45.81000 18.337
45.82000 9.001
45.83000 13.058
45.84000 15.170
45.85000 11.102
45.86000 14.307
45.87000 15.076
45.88000 7.031
45.89000 16.341
45.90000 14.315
45.91000 18.286
45.92000 18.357
45.93000 17.126
45.94000 15.263
45.95000 19.249
45.96000 14.223
45.97000 21.292
45.98000 4.069
45.99000 17.263
46.00000 10.129
46.01000 11.165
46.02000 17.116
46.03000 18.114
46.04000 13.967
46.05000 14.161
46.06000 15.243
46.07000 16.252
46.08000 15.069
46.09000 9.032
46.10000 21.265
46.11000 16.196
46.12000 15.055
46.13000 21.244
46.14000 19.252
46.15000 13.184
46.16000 13.050
46.17000 16.101
46.18000 28.304
46.19000 16.177
46.20000 19.184
46.21000 13.188
46.22000 15.124
46.23000 12.241
46.24000 16.120
46.25000 14.176
46.26000 15.137
46.27000 15.231
46.28000 11.036
46.29000 18.219
46.30000 21.310
46.31000 17.133
46.32000 18.311
46.33000 24.235
46.34000 16.248
46.35000 12.234
46.36000 15.180
46.37000 11.128
46.38000 9.159
46.39000 15.300
46.40000 10.029
46.41000 19.224
46.42000 16.299
46.43000 11.105
46.44000 15.056
46.45000 15.179
46.46000 14.361
46.47000 21.217
46.48000 16.485
46.49000 17.382
46.50000 17.230
46.51000 15.270
46.52000 17.326
46.53000 12.915
46.54000 19.333
46.55000 11.247
46.56000 15.261
46.57000 17.403
46.58000 25.351
46.59000 21.240
46.60000 17.230
46.61000 12.137
46.62000 17.297
46.63000 11.127
46.64000 15.196
46.65000 14.326
46.66000 16.216
46.67000 19.478
46.68000 16.150
46.69000 16.147
46.70000 17.162
46.71000 18.209
46.72000 14.101
46.73000 12.280
46.74000 20.371
46.75000 12.091
46.76000 12.047
46.77000 12.210
46.78000 17.377
46.79000 20.258
46.80000 15.172
46.81000 16.189
46.82000 16.247
46.83000 6.038
46.84000 17.310
46.85000 14.199
46.86000 23.348
46.87000 17.159
46.88000 21.190
46.89000 19.286
46.90000 17.232
46.91000 19.151
46.92000 18.312
46.93000 16.196
46.94000 18.331
46.95000 20.996
46.96000 20.097
46.97000 20.046
46.98000 16.266
46.99000 16.186
47.00000 17.180
47.01000 15.288
47.02000 15.220
47.03000 11.155
47.04000 16.253
47.05000 18.169
47.06000 10.074
47.07000 11.204
47.08000 18.074
47.09000 16.252
47.10000 11.089
47.11000 12.225
47.12000 10.070
47.13000 20.139
47.14000 16.192
47.15000 24.193
47.16000 13.224
47.17000 11.090
47.18000 17.138
47.19000 9.062
47.20000 14.261
47.21000 13.199
47.22000 12.286
47.23000 18.232
47.24000 8.034
47.25000 18.477
47.26000 15.288
47.27000 14.259
47.28000 13.328
47.29000 14.189
47.30000 12.277
47.31000 10.020
47.32000 10.294
47.33000 14.113
47.34000 14.093
47.35000 5.104
47.36000 11.081
47.37000 13.060
47.38000 22.326
47.39000 9.114
47.40000 11.122
47.41000 11.246
47.42000 12.128
47.43000 11.185
47.44000 18.271
47.45000 15.188
47.46000 13.145
47.47000 9.091
47.48000 16.101
47.49000 13.169
47.50000 11.179
47.51000 14.129
47.52000 15.321
47.53000 14.208
47.54000 16.285
47.55000 18.192
47.56000 12.274
47.57000 10.271
47.58000 17.124
47.59000 14.320
47.60000 10.041
47.61000 14.144
47.62000 8.046
47.63000 16.211
47.64000 10.074
47.65000 16.379
47.66000 10.136
47.67000 22.367
47.68000 13.077
47.69000 18.147
47.70000 14.171
47.71000 22.271
47.72000 13.199
47.73000 17.276
47.74000 11.981
47.75000 10.134
47.76000 26.388
47.77000 9.193
47.78000 15.361
47.79000 13.054
47.80000 13.177
47.81000 14.228
47.82000 14.135
47.83000 13.432
47.84000 10.041
47.85000 16.213
47.86000 14.291
47.87000 12.079
47.88000 18.185
47.89000 15.128
47.90000 9.138
47.91000 16.183
47.92000 19.317
47.93000 8.114
47.94000 12.220
47.95000 11.170
47.96000 16.278
47.97000 9.076
47.98000 14.042
47.99000 10.161
48.00000 10.136
48.01000 13.415
48.02000 13.263
48.03000 8.065
48.04000 12.236
48.05000 12.122
48.06000 13.275
48.07000 7.099
48.08000 8.106
48.09000 8.158
48.10000 18.073
48.11000 9.159
48.12000 18.239
48.13000 15.268
48.14000 14.070
48.15000 19.058
48.16000 6.118
48.17000 11.178
48.18000 10.088
48.19000 13.155
48.20000 18.332
48.21000 11.028
48.22000 14.247
48.23000 19.325
48.24000 14.168
48.25000 7.082
48.26000 5.982
48.27000 11.162
48.28000 12.038
48.29000 18.166
48.30000 20.301
48.31000 10.086
48.32000 5.027
48.33000 12.151
48.34000 14.290
48.35000 11.143
48.36000 9.085
48.37000 10.055
48.38000 12.207
48.39000 11.125
48.40000 13.125
48.41000 14.153
48.42000 21.017
48.43000 12.123
48.44000 11.096
48.45000 19.278
48.46000 23.135
48.47000 12.224
48.48000 12.201
48.49000 15.120
48.50000 17.096
48.51000 10.035
48.52000 11.114
48.53000 14.248
48.54000 13.272
48.55000 17.166
48.56000 12.174
48.57000 10.974
48.58000 4.080
48.59000 13.211
48.60000 21.370
48.61000 16.098
48.62000 15.058
48.63000 17.279
48.64000 16.256
48.65000 11.295
48.66000 15.214
48.67000 16.214
48.68000 12.078
48.69000 17.292
48.70000 12.162
48.71000 18.204
48.72000 16.185
48.73000 12.284
48.74000 15.174
48.75000 16.158
48.76000 21.242
48.77000 15.193
48.78000 11.088
48.79000 12.121
48.80000 9.056
48.81000 14.222
48.82000 11.246
48.83000 12.191
48.84000 17.441
48.85000 9.104
48.86000 15.261
48.87000 17.272
48.88000 24.516
48.89000 16.186
48.90000 12.248
48.91000 14.025
48.92000 12.073
48.93000 18.227
48.94000 15.152
48.95000 9.140
48.96000 9.085
48.97000 14.204
48.98000 13.208
48.99000 10.102
49.00000 17.196
49.01000 12.131
49.02000 12.204
49.03000 9.127
49.04000 13.219
49.05000 8.033
49.06000 15.148
49.07000 17.198
49.08000 20.003
49.09000 10.168
49.10000 19.279
49.11000 18.148
49.12000 20.318
49.13000 9.058
49.14000 14.115
49.15000 19.239
49.16000 8.077
49.17000 15.227
49.18000 8.134
49.19000 7.091
49.20000 16.108
49.21000 10.216
49.22000 13.040
49.23000 19.230
49.24000 9.033
49.25000 12.133
49.26000 13.026
49.27000 14.239
49.28000 18.221
49.29000 16.130
49.30000 22.510
49.31000 5.109
49.32000 12.154
49.33000 4.087
49.34000 9.127
49.35000 12.103
49.36000 19.162
49.37000 7.140
49.38000 13.374
49.39000 10.267
49.40000 10.060
49.41000 19.080
49.42000 16.106
49.43000 12.182
49.44000 13.133
49.45000 10.196
49.46000 15.110
49.47000 10.129
49.48000 15.136
49.49000 11.955
49.50000 12.173
49.51000 9.210
49.52000 12.089
49.53000 8.147
49.54000 16.076
49.55000 12.159
49.56000 15.060
49.57000 15.188
49.58000 13.336
49.59000 16.340
49.60000 14.215
49.61000 23.377
49.62000 7.129
49.63000 15.054
49.64000 10.124
49.65000 16.109
49.66000 11.989
49.67000 15.324
49.68000 10.131
49.69000 8.299
49.70000 16.087
49.71000 17.108
49.72000 9.194
49.73000 15.208
49.74000 8.081
49.75000 13.298
49.76000 16.177
49.77000 17.164
49.78000 12.165
49.79000 7.075
49.80000 12.091
49.81000 14.032
49.82000 15.297
49.83000 12.199
49.84000 9.140
49.85000 12.168
49.86000 17.212
49.87000 13.116
49.88000 7.044
49.89000 15.203
49.90000 11.028
49.91000 15.258
49.92000 16.247
49.93000 16.237
49.94000 15.131
49.95000 13.175
49.96000 11.076
49.97000 17.222
49.98000 11.158
49.99000 16.194
50.00000 13.151
50.01000 15.429
50.02000 15.329
50.03000 23.322
50.04000 21.339
50.05000 22.283
50.06000 15.943
50.07000 10.162
50.08000 14.284
50.09000 15.049
50.10000 14.228
50.11000 7.043
50.12000 17.188
50.13000 15.122
50.14000 12.294
50.15000 11.201
50.16000 10.253
50.17000 15.183
50.18000 10.153
50.19000 13.267
50.20000 19.257
50.21000 23.395
50.22000 13.146
50.23000 9.196
50.24000 11.153
50.25000 14.170
50.26000 10.175
50.27000 13.147
50.28000 12.250
50.29000 14.226
50.30000 21.179
50.31000 9.229
50.32000 16.362
50.33000 10.149
50.34000 15.252
50.35000 17.295
50.36000 11.052
50.37000 10.090
50.38000 14.051
50.39000 11.077
50.40000 9.153
50.41000 5.046
50.42000 12.094
50.43000 11.120
50.44000 14.212
50.45000 14.196
50.46000 11.201
50.47000 10.116
50.48000 16.262
50.49000 10.138
50.50000 14.259
50.51000 13.265
50.52000 17.183
50.53000 11.078
50.54000 18.307
50.55000 11.082
50.56000 13.180
50.57000 11.014
50.58000 12.133
50.59000 13.149
50.60000 10.097
50.61000 12.216
50.62000 11.062
50.63000 10.225
50.64000 17.270
50.65000 17.208
50.66000 11.087
50.67000 15.173
50.68000 10.129
50.69000 19.256
50.70000 12.307
50.71000 8.032
50.72000 12.216
50.73000 17.277
50.74000 10.028
50.75000 18.152
50.76000 14.095
50.77000 12.168
50.78000 8.121
50.79000 15.254
50.80000 10.181
50.81000 13.181
50.82000 14.071
50.83000 11.091
50.84000 9.055
50.85000 14.313
50.86000 11.135
50.87000 14.142
50.88000 9.285
50.89000 16.280
50.90000 15.291
50.91000 12.138
50.92000 10.112
50.93000 13.164
50.94000 9.076
50.95000 14.320
50.96000 8.182
50.97000 17.116
50.98000 9.121
50.99000 7.078
51.00000 20.287
51.01000 15.052
51.02000 13.158
51.03000 9.083
51.04000 12.202
51.05000 13.168
51.06000 20.346
51.07000 4.009
51.08000 14.206
51.09000 15.063
51.10000 10.195
51.11000 14.152
51.12000 17.161
51.13000 4.007
51.14000 9.189
51.15000 10.133
51.16000 10.094
51.17000 15.188
51.18000 13.128
51.19000 13.201
51.20000 11.162
51.21000 10.079
51.22000 15.190
51.23000 13.119
51.24000 16.086
51.25000 16.122
51.26000 13.135
51.27000 13.004
51.28000 11.138
51.29000 10.175
51.30000 13.299
51.31000 17.254
51.32000 12.110
51.33000 11.102
51.34000 15.081
51.35000 12.136
51.36000 21.410
51.37000 14.408
51.38000 13.129
51.39000 11.195
51.40000 12.020
51.41000 14.091
51.42000 18.273
51.43000 11.170
51.44000 13.187
51.45000 14.156
51.46000 12.082
51.47000 14.132
51.48000 8.122
51.49000 13.178
51.50000 14.228
51.51000 14.132
51.52000 13.195
51.53000 14.239
51.54000 12.154
51.55000 11.156
51.56000 8.047
51.57000 15.211
51.58000 13.151
51.59000 7.004
51.60000 16.178
51.61000 13.031
51.62000 13.981
51.63000 15.087
51.64000 9.061
51.65000 13.073
51.66000 9.111
51.67000 11.259
51.68000 12.150
51.69000 12.078
51.70000 10.100
51.71000 18.135
51.72000 13.130
51.73000 12.198
51.74000 16.258
51.75000 13.211
51.76000 15.269
51.77000 7.152
51.78000 14.202
51.79000 13.044
51.80000 11.102
51.81000 10.039
51.82000 11.161
51.83000 20.413
51.84000 14.289
51.85000 12.198
51.86000 12.973
51.87000 7.967
51.88000 20.249
51.89000 10.047
51.90000 6.045
51.91000 5.133
51.92000 10.205
51.93000 10.035
51.94000 11.204
51.95000 14.149
51.96000 13.320
51.97000 13.356
51.98000 9.330
51.99000 6.198
52.00000 8.133
52.01000 9.042
52.02000 19.201
52.03000 13.124
52.04000 12.081
52.05000 13.303
52.06000 14.285
52.07000 10.099
52.08000 18.412
52.09000 10.052
52.10000 11.983
52.11000 17.115
52.12000 16.124
52.13000 17.145
52.14000 13.197
52.15000 13.130
52.16000 6.027
52.17000 9.010
52.18000 12.386
52.19000 11.240
52.20000 8.150
52.21000 10.148
52.22000 9.157
52.23000 13.156
52.24000 9.147
52.25000 9.045
52.26000 8.020
52.27000 4.970
52.28000 9.227
52.29000 15.151
52.30000 9.998
52.31000 9.169
52.32000 6.127
52.33000 12.126
52.34000 14.341
52.35000 16.148
52.36000 13.258
52.37000 15.094
52.38000 16.128
52.39000 16.141
52.40000 17.204
52.41000 17.097
52.42000 18.261
52.43000 13.211
52.44000 11.141
52.45000 12.178
52.46000 7.217
52.47000 16.291
52.48000 9.046
52.49000 16.304
52.50000 9.076
52.51000 15.065
52.52000 16.203
52.53000 10.154
52.54000 9.070
52.55000 7.975
52.56000 8.147
52.57000 12.229
52.58000 10.157
52.59000 15.089
52.60000 9.268
52.61000 11.108
52.62000 12.987
52.63000 9.179
52.64000 11.139
52.65000 7.051
52.66000 18.413
52.67000 12.155
52.68000 7.068
52.69000 7.997
52.70000 12.136
52.71000 10.093
52.72000 12.111
52.73000 17.100
52.74000 10.138
52.75000 16.111
52.76000 13.283
52.77000 13.284
52.78000 19.176
52.79000 8.075
52.80000 7.091
52.81000 9.102
52.82000 9.059
52.83000 9.249
52.84000 15.129
52.85000 20.273
52.86000 20.294
52.87000 15.300
52.88000 15.241
52.89000 10.140
52.90000 10.010
52.91000 8.206
52.92000 10.116
52.93000 16.112
52.94000 12.091
52.95000 13.261
52.96000 6.033
52.97000 11.098
52.98000 11.148
52.99000 12.078
53.00000 7.055
53.01000 13.243
53.02000 13.111
53.03000 16.256
53.04000 16.262
53.05000 10.055
53.06000 12.166
53.07000 6.027
53.08000 14.249
53.09000 10.229
53.10000 13.127
53.11000 9.012
53.12000 18.390
53.13000 8.977
53.14000 5.088
53.15000 13.225
53.16000 13.102
53.17000 10.196
53.18000 7.102
53.19000 9.128
53.20000 10.324
53.21000 6.107
53.22000 12.228
53.23000 19.337
53.24000 10.143
53.25000 9.976
53.26000 10.057
53.27000 12.023
53.28000 16.079
53.29000 12.188
53.30000 13.243
53.31000 11.069
53.32000 7.965
53.33000 14.330
53.34000 13.184
53.35000 10.142
53.36000 12.088
53.37000 11.097
53.38000 17.183
53.39000 10.190
53.40000 8.288
53.41000 11.094
53.42000 7.152
53.43000 13.193
53.44000 16.293
53.45000 17.119
53.46000 12.193
53.47000 9.105
53.48000 11.349
53.49000 3.005
53.50000 9.110
53.51000 18.185
53.52000 8.262
53.53000 12.066
53.54000 9.116
53.55000 8.073
53.56000 10.019
53.57000 15.152
53.58000 11.091
53.59000 12.181
53.60000 15.088
53.61000 9.237
53.62000 6.966
53.63000 13.085
53.64000 6.958
53.65000 10.180
53.66000 12.167
53.67000 5.055
53.68000 18.071
53.69000 12.163
53.70000 17.149
53.71000 9.114
53.72000 13.040
53.73000 14.053
53.74000 12.151
53.75000 13.054
53.76000 3.146
53.77000 7.173
53.78000 16.158
53.79000 11.111
53.80000 5.086
53.81000 4.009
53.82000 7.083
53.83000 11.203
53.84000 15.247
53.85000 8.145
53.86000 11.079
53.87000 8.103
53.88000 15.111
53.89000 11.179
53.90000 9.187
53.91000 9.176
53.92000 13.179
53.93000 8.066
53.94000 9.061
53.95000 15.064
53.96000 7.106
53.97000 13.043
53.98000 11.137
53.99000 10.055
54.00000 15.221
54.01000 14.220
54.02000 11.031
54.03000 9.074
54.04000 9.147
54.05000 10.051
54.06000 7.042
54.07000 9.101
54.08000 9.185
54.09000 8.087
54.10000 9.127
54.11000 8.019
54.12000 14.280
54.13000 12.208
54.14000 12.278
54.15000 11.133
54.16000 9.136
54.17000 9.016
54.18000 20.089
54.19000 14.140
54.20000 9.025
54.21000 5.077
54.22000 10.041
54.23000 8.194
54.24000 13.176
54.25000 7.048
54.26000 11.203
54.27000 11.126
54.28000 13.166
54.29000 12.291
54.30000 9.112
54.31000 10.125
54.32000 11.180
54.33000 13.132
54.34000 23.324
54.35000 13.096
54.36000 13.144
54.37000 11.154
54.38000 10.179
54.39000 18.272
54.40000 8.135
54.41000 12.154
54.42000 11.060
54.43000 7.009
54.44000 19.208
54.45000 10.090
54.46000 8.172
54.47000 4.063
54.48000 10.056
54.49000 13.192
54.50000 4.040
54.51000 12.143
54.52000 10.114
54.53000 7.960
54.54000 12.208
54.55000 9.154
54.56000 11.131
54.57000 6.133
54.58000 10.084
54.59000 9.142
54.60000 11.213
54.61000 8.077
54.62000 12.079
54.63000 8.181
54.64000 10.122
54.65000 20.289
54.66000 11.969
54.67000 14.190
54.68000 10.155
54.69000 13.069
54.70000 11.190
54.71000 16.339
54.72000 8.078
54.73000 7.141
54.74000 10.222
54.75000 9.987
54.76000 9.188
54.77000 19.240
54.78000 11.287
54.79000 13.181
54.80000 11.102
54.81000 9.116
54.82000 12.287
54.83000 15.181
54.84000 15.019
54.85000 15.163
54.86000 10.123
54.87000 7.055
54.88000 4.055
54.89000 7.055
54.90000 6.090
54.91000 5.029
54.92000 10.127
54.93000 10.132
54.94000 5.068
54.95000 13.102
54.96000 10.078
54.97000 9.063
54.98000 12.151
54.99000 8.983
55.00000 5.038
55.01000 21.189
55.02000 11.102
55.03000 7.217
55.04000 8.168
55.05000 15.200
55.06000 11.117
55.07000 15.321
55.08000 12.125
55.09000 10.086
55.10000 17.281
55.11000 7.070
55.12000 7.131
55.13000 8.062
55.14000 8.199
55.15000 18.233
55.16000 6.126
55.17000 17.208
55.18000 5.995
55.19000 13.303
55.20000 13.173
55.21000 10.101
55.22000 15.157
55.23000 13.190
55.24000 9.075
55.25000 11.114
55.26000 10.130
55.27000 13.197
55.28000 7.100
55.29000 13.344
55.30000 13.144
55.31000 7.130
55.32000 8.127
55.33000 13.157
55.34000 10.103
55.35000 5.105
55.36000 11.055
55.37000 5.046
55.38000 11.118
55.39000 7.015
55.40000 18.103
55.41000 9.165
55.42000 15.089
55.43000 9.225
55.44000 6.061
55.45000 12.275
55.46000 9.054
55.47000 11.190
55.48000 7.007
55.49000 10.115
55.50000 9.983
55.51000 20.230
55.52000 8.189
55.53000 16.309
55.54000 11.112
55.55000 16.235
55.56000 13.179
55.57000 14.267
55.58000 10.062
55.59000 14.155
55.60000 7.054
55.61000 8.141
55.62000 10.151
55.63000 7.026
55.64000 12.193
55.65000 10.143
55.66000 10.278
55.67000 14.239
55.68000 14.107
55.69000 10.095
55.70000 8.086
55.71000 8.128
55.72000 12.016
55.73000 8.139
55.74000 12.103
55.75000 9.249
55.76000 9.156
55.77000 7.124
55.78000 6.174
55.79000 14.160
55.80000 13.126
55.81000 15.185
55.82000 12.109
55.83000 11.160
55.84000 7.130
55.85000 13.189
55.86000 10.233
55.87000 9.048
55.88000 10.097
55.89000 7.064
55.90000 8.122
55.91000 10.139
55.92000 11.038
55.93000 16.324
55.94000 11.221
55.95000 7.145
55.96000 5.988
55.97000 10.164
55.98000 10.150
55.99000 10.296
56.00000 10.144
56.01000 9.122
56.02000 11.007
56.03000 11.109
56.04000 7.098
56.05000 11.096
56.06000 7.163
56.07000 10.014
56.08000 6.036
56.09000 8.133
56.10000 12.103
56.11000 15.073
56.12000 5.173
56.13000 12.169
56.14000 7.124
56.15000 8.069
56.16000 13.102
56.17000 14.378
56.18000 6.079
56.19000 5.092
56.20000 7.152
56.21000 9.201
56.22000 9.206
56.23000 8.113
56.24000 12.229
56.25000 10.079
56.26000 6.097
56.27000 11.050
56.28000 12.140
56.29000 12.219
56.30000 20.249
56.31000 10.102
56.32000 11.130
56.33000 10.182
56.34000 12.097
56.35000 14.311
56.36000 10.192
56.37000 10.270
56.38000 8.234
56.39000 10.175
56.40000 6.046
56.41000 5.156
56.42000 9.131
56.43000 16.200
56.44000 5.988
56.45000 7.067
56.46000 14.074
56.47000 6.016
56.48000 17.212
56.49000 15.319
56.50000 6.092
56.51000 17.132
56.52000 9.187
56.53000 11.143
56.54000 8.023
56.55000 8.115
56.56000 9.067
56.57000 19.170
56.58000 17.067
56.59000 6.234
56.60000 6.105
56.61000 15.169
56.62000 13.019
56.63000 12.042
56.64000 12.172
56.65000 12.138
56.66000 8.993
56.67000 8.268
56.68000 9.101
56.69000 12.378
56.70000 7.209
56.71000 10.103
56.72000 11.165
56.73000 14.144
56.74000 12.232
56.75000 11.190
56.76000 9.119
56.77000 8.068
56.78000 15.228
56.79000 12.288
56.80000 9.190
56.81000 9.005
56.82000 11.269
56.83000 7.114
56.84000 4.109
56.85000 10.203
56.86000 8.126
56.87000 9.060
56.88000 14.212
56.89000 9.138
56.90000 10.144
56.91000 9.189
56.92000 6.044
56.93000 5.075
56.94000 7.072
56.95000 9.980
56.96000 12.227
56.97000 18.033
56.98000 4.048
56.99000 9.124
57.00000 12.171
57.01000 9.148
57.02000 8.062
57.03000 7.058
57.04000 8.061
57.05000 12.319
57.06000 11.101
57.07000 17.339
57.08000 13.214
57.09000 9.095
57.10000 8.091
57.11000 11.153
57.12000 16.335
57.13000 9.112
57.14000 11.094
57.15000 7.144
57.16000 12.008
57.17000 9.276
57.18000 12.188
57.19000 8.119
57.20000 6.012
57.21000 11.203
57.22000 12.119
57.23000 11.136
57.24000 16.252
57.25000 14.031
57.26000 7.023
57.27000 11.192
57.28000 10.115
57.29000 7.146
57.30000 6.038
57.31000 11.198
57.32000 13.213
57.33000 11.138
57.34000 15.026
57.35000 13.203
57.36000 14.139
57.37000 9.145
57.38000 7.022
57.39000 8.040
57.40000 16.324
57.41000 5.994
57.42000 12.100
57.43000 13.136
57.44000 4.075
57.45000 8.126
57.46000 13.067
57.47000 10.201
57.48000 8.042
57.49000 15.087
57.50000 13.269
57.51000 12.107
57.52000 10.165
57.53000 15.169
57.54000 7.049
57.55000 9.102
57.56000 5.011
57.57000 17.251
57.58000 15.127
57.59000 12.196
57.60000 10.455
57.61000 7.068
57.62000 11.295
57.63000 4.965
57.64000 18.262
57.65000 9.027
57.66000 13.145
57.67000 12.315
57.68000 11.154
57.69000 13.335
57.70000 10.099
57.71000 12.229
57.72000 11.130
57.73000 11.001
57.74000 9.047
57.75000 11.251
57.76000 12.163
57.77000 12.077
57.78000 8.086
57.79000 12.079
57.80000 12.135
57.81000 9.128
57.82000 13.183
57.83000 6.140
57.84000 6.993
57.85000 7.047
57.86000 14.165
57.87000 10.006
57.88000 15.140
57.89000 25.388
57.90000 5.058
57.91000 13.172
57.92000 5.165
57.93000 12.179
57.94000 9.189
57.95000 7.102
57.96000 8.181
57.97000 9.197
57.98000 18.200
57.99000 4.047
58.00000 12.000
58.01000 16.063
58.02000 9.255
58.03000 13.217
58.04000 6.117
58.05000 11.146
58.06000 10.109
58.07000 7.181
58.08000 6.147
58.09000 11.177
58.10000 15.263
58.11000 14.256
58.12000 10.202
58.13000 8.059
58.14000 10.046
58.15000 12.120
58.16000 7.010
58.17000 8.031
58.18000 12.174
58.19000 10.119
58.20000 15.196
58.21000 9.976
58.22000 9.191
58.23000 15.199
58.24000 13.055
58.25000 8.082
58.26000 6.989
58.27000 16.074
58.28000 11.014
58.29000 9.173
58.30000 10.061
58.31000 12.020
58.32000 9.197
58.33000 4.115
58.34000 7.076
58.35000 11.218
58.36000 6.009
58.37000 6.057
58.38000 12.217
58.39000 5.001
58.40000 4.042
58.41000 15.131
58.42000 6.041
58.43000 8.102
58.44000 7.024
58.45000 13.174
58.46000 13.081
58.47000 9.055
58.48000 2.995
58.49000 11.160
58.50000 9.030
58.51000 10.027
58.52000 10.104
58.53000 15.256
58.54000 11.192
58.55000 10.165
58.56000 9.018
58.57000 12.160
58.58000 8.217
58.59000 11.264
58.60000 10.201
58.61000 3.132
58.62000 9.089
58.63000 8.046
58.64000 8.121
58.65000 12.089
58.66000 14.206
58.67000 9.026
58.68000 7.096
58.69000 3.035
58.70000 3.958
58.71000 12.090
58.72000 10.085
58.73000 9.165
58.74000 10.136
58.75000 12.186
58.76000 9.223
58.77000 11.211
58.78000 8.041
58.79000 10.033
58.80000 7.156
58.81000 8.242
58.82000 10.071
58.83000 6.005
58.84000 9.135
58.85000 4.004
58.86000 11.183
58.87000 4.023
58.88000 8.022
58.89000 10.082
58.90000 8.094
58.91000 8.078
58.92000 7.100
58.93000 14.127
58.94000 3.994
58.95000 6.053
58.96000 7.154
58.97000 7.147
58.98000 3.070
58.99000 7.045
59.00000 10.077
59.01000 12.142
59.02000 5.128
59.03000 6.025
59.04000 14.184
59.05000 6.024
59.06000 14.166
59.07000 11.251
59.08000 7.061
59.09000 5.009
59.10000 4.993
59.11000 11.121
59.12000 4.006
59.13000 9.313
59.14000 11.167
59.15000 8.064
59.16000 11.124
59.17000 7.050
59.18000 9.109
59.19000 6.081
59.20000 7.055
59.21000 6.201
59.22000 10.212
59.23000 8.910
59.24000 8.119
59.25000 10.076
59.26000 5.059
59.27000 9.188
59.28000 10.045
59.29000 10.174
59.30000 12.050
59.31000 8.108
59.32000 15.016
59.33000 11.986
59.34000 9.283
59.35000 4.062
59.36000 11.217
59.37000 10.153
59.38000 5.096
59.39000 8.250
59.40000 7.136
59.41000 9.137
59.42000 12.135
59.43000 10.190
59.44000 8.180
59.45000 12.178
59.46000 7.064
59.47000 14.214
59.48000 8.064
59.49000 8.141
59.50000 11.028
59.51000 7.133
59.52000 5.956
59.53000 14.410
59.54000 4.051
59.55000 10.129
59.56000 12.132
59.57000 9.167
59.58000 4.149
59.59000 11.968
59.60000 8.084
59.61000 7.083
59.62000 9.118
59.63000 2.050
59.64000 11.260
59.65000 7.948
59.66000 7.130
59.67000 10.075
59.68000 15.147
59.69000 11.095
59.70000 6.060
59.71000 4.034
59.72000 8.044
59.73000 8.127
59.74000 10.025
59.75000 7.136
59.76000 6.950
59.77000 13.102
59.78000 11.125
59.79000 17.145
59.80000 9.080
59.81000 11.236
59.82000 7.128
59.83000 14.099
59.84000 5.068
59.85000 7.170
59.86000 3.092
59.87000 11.214
59.88000 6.160
59.89000 11.977
59.90000 6.967
59.91000 5.143
59.92000 8.075
59.93000 8.168
59.94000 12.233
59.95000 11.182
59.96000 9.130
59.97000 7.099
59.98000 9.041
59.99000 10.166
60.00000 5.055
60.01000 12.167
60.02000 6.078
60.03000 9.095
60.04000 3.006
60.05000 8.066
60.06000 11.092
60.07000 9.095
60.08000 14.153
60.09000 7.060
60.10000 11.113
60.11000 7.139
60.12000 10.186
60.13000 9.084
60.14000 10.113
60.15000 12.247
60.16000 5.071
60.17000 10.088
60.18000 5.032
60.19000 11.184
60.20000 4.919
60.21000 7.058
60.22000 8.156
60.23000 9.014
60.24000 5.168
60.25000 12.002
60.26000 8.185
60.27000 3.040
60.28000 8.087
60.29000 8.219
60.30000 9.218
60.31000 9.240
60.32000 10.189
60.33000 9.038
60.34000 5.060
60.35000 4.126
60.36000 11.063
60.37000 12.104
60.38000 12.227
60.39000 8.106
60.40000 9.075
60.41000 6.052
60.42000 10.030
60.43000 9.128
60.44000 9.200
60.45000 9.213
60.46000 8.042
60.47000 9.106
60.48000 13.078
60.49000 6.094
60.50000 8.263
60.51000 7.084
60.52000 10.056
60.53000 11.127
60.54000 11.040
60.55000 11.023
60.56000 6.181
60.57000 12.177
60.58000 10.159
60.59000 9.123
60.60000 11.128
60.61000 6.993
60.62000 12.214
60.63000 8.098
60.64000 5.012
60.65000 7.022
60.66000 4.074
60.67000 11.001
60.68000 9.158
60.69000 4.131
60.70000 5.027
60.71000 11.197
60.72000 6.071
60.73000 10.974
60.74000 7.124
60.75000 13.199
60.76000 6.159
60.77000 12.050
60.78000 9.291
60.79000 10.206
60.80000 4.065
60.81000 9.130
60.82000 7.171
60.83000 6.153
60.84000 8.036
60.85000 10.201
60.86000 9.139
60.87000 10.166
60.88000 7.121
60.89000 5.209
60.90000 11.186
60.91000 9.098
60.92000 9.064
60.93000 15.092
60.94000 9.125
60.95000 10.212
60.96000 8.087
60.97000 5.998
60.98000 8.144
60.99000 12.298
61.00000 10.095
61.01000 10.224
61.02000 6.043
61.03000 7.010
61.04000 10.076
61.05000 9.017
61.06000 5.086
61.07000 5.069
61.08000 8.168
61.09000 6.030
61.10000 10.095
61.11000 13.276
61.12000 4.153
61.13000 6.110
61.14000 7.134
61.15000 6.090
61.16000 2.997
61.17000 6.075
61.18000 6.055
61.19000 6.113
61.20000 6.095
61.21000 7.133
61.22000 9.989
61.23000 7.941
61.24000 5.106
61.25000 8.145
61.26000 8.065
61.27000 8.176
61.28000 9.104
61.29000 5.021
61.30000 8.101
61.31000 7.290
61.32000 4.955
61.33000 5.130
61.34000 7.061
61.35000 10.093
61.36000 7.052
61.37000 8.145
61.38000 12.182
61.39000 5.973
61.40000 8.245
61.41000 8.138
61.42000 8.015
61.43000 10.113
61.44000 11.188
61.45000 5.055
61.46000 7.020
61.47000 14.131
61.48000 1.009
61.49000 10.162
61.50000 3.084
61.51000 7.064
61.52000 8.160
61.53000 2.034
61.54000 7.142
61.55000 10.061
61.56000 14.320
61.57000 3.054
61.58000 11.042
61.59000 4.011
61.60000 8.121
61.61000 9.127
61.62000 7.051
61.63000 8.089
61.64000 8.036
61.65000 5.150
61.66000 10.120
61.67000 12.185
61.68000 7.990
61.69000 6.099
61.70000 7.024
61.71000 10.268
61.72000 8.116
61.73000 7.987
61.74000 12.126
61.75000 13.244
61.76000 7.106
61.77000 9.179
61.78000 4.952
61.79000 5.148
61.80000 4.163
61.81000 6.012
61.82000 8.303
61.83000 10.021
61.84000 6.053
61.85000 10.142
61.86000 7.058
61.87000 6.039
61.88000 8.072
61.89000 9.151
61.90000 10.072
61.91000 8.272
61.92000 10.124
61.93000 6.122
61.94000 6.135
61.95000 9.199
61.96000 11.139
61.97000 9.223
61.98000 3.080
61.99000 10.104
62.00000 5.987
62.01000 7.226
62.02000 9.187
62.03000 8.110
62.04000 9.143
62.05000 8.063
62.06000 13.106
62.07000 7.074
62.08000 9.103
62.09000 4.136
62.10000 15.346
62.11000 6.123
62.12000 6.996
62.13000 7.008
62.14000 7.149
62.15000 4.184
62.16000 14.231
62.17000 6.164
62.18000 5.033
62.19000 12.315
62.20000 12.148
62.21000 4.059
62.22000 7.996
62.23000 6.028
62.24000 7.007
62.25000 8.179
62.26000 5.153
62.27000 3.019
62.28000 11.118
62.29000 10.149
62.30000 8.105
62.31000 5.032
62.32000 7.212
62.33000 6.012
62.34000 12.076
62.35000 7.969
62.36000 7.093
62.37000 12.030
62.38000 4.036
62.39000 10.192
62.40000 9.032
62.41000 4.060
62.42000 4.132
62.43000 5.027
62.44000 6.163
62.45000 11.123
62.46000 7.177
62.47000 5.028
62.48000 6.036
62.49000 10.075
62.50000 4.049
62.51000 10.127
62.52000 8.074
62.53000 6.953
62.54000 9.051
62.55000 4.149
62.56000 9.155
62.57000 12.024
62.58000 7.203
62.59000 7.156
62.60000 8.060
62.61000 11.061
62.62000 8.992
62.63000 10.197
62.64000 5.027
62.65000 7.067
62.66000 8.045
62.67000 12.122
62.68000 5.077
62.69000 10.205
62.70000 6.014
62.71000 15.220
62.72000 13.147
62.73000 10.055
62.74000 15.160
62.75000 5.024
62.76000 7.108
62.77000 14.074
62.78000 7.076
62.79000 6.061
62.80000 9.111
62.81000 10.065
62.82000 9.108
62.83000 9.095
62.84000 9.289
62.85000 10.188
62.86000 9.061
62.87000 4.981
62.88000 9.107
62.89000 6.199
62.90000 9.140
62.91000 7.133
62.92000 8.142
62.93000 5.105
62.94000 10.064
62.95000 4.107
62.96000 9.159
62.97000 8.116
62.98000 3.030
62.99000 10.165
63.00000 7.152
63.01000 9.244
63.02000 11.227
63.03000 5.063
63.04000 5.981
63.05000 8.106
63.06000 6.108
63.07000 5.948
63.08000 6.078
63.09000 7.239
63.10000 8.063
63.11000 4.032
63.12000 7.102
63.13000 6.976
63.14000 7.098
63.15000 6.022
63.16000 6.090
63.17000 9.107
63.18000 9.128
63.19000 7.083
63.20000 6.048
63.21000 7.141
63.22000 4.054
63.23000 9.102
63.24000 6.979
63.25000 5.015
63.26000 3.077
63.27000 11.102
63.28000 7.060
63.29000 4.049
63.30000 12.266
63.31000 3.099
63.32000 11.194
63.33000 8.095
63.34000 6.128
63.35000 5.053
63.36000 11.060
63.37000 5.161
63.38000 4.134
63.39000 6.059
63.40000 4.001
63.41000 6.162
63.42000 11.166
63.43000 7.067
63.44000 4.966
63.45000 8.992
63.46000 6.168
63.47000 9.173
63.48000 7.924
63.49000 3.028
63.50000 7.019
63.51000 9.068
63.52000 4.048
63.53000 12.166
63.54000 4.054
63.55000 6.144
63.56000 8.081
63.57000 4.085
63.58000 8.042
63.59000 6.002
63.60000 8.169
63.61000 6.130
63.62000 9.065
63.63000 6.960
63.64000 10.136
63.65000 8.196
63.66000 4.041
63.67000 9.137
63.68000 13.059
63.69000 6.086
63.70000 8.027
63.71000 10.148
63.72000 2.040
63.73000 3.055
63.74000 7.116
63.75000 11.097
63.76000 6.056
63.77000 6.043
63.78000 6.984
63.79000 7.134
63.80000 8.099
63.81000 3.026
63.82000 10.207
63.83000 6.072
63.84000 12.303
63.85000 6.125
63.86000 7.078
63.87000 5.104
63.88000 9.277
63.89000 8.028
63.90000 11.163
63.91000 10.180
63.92000 7.113
63.93000 9.036
63.94000 3.099
63.95000 8.120
63.96000 7.089
63.97000 9.015
63.98000 5.067
63.99000 10.074
64.00000 6.154
64.01000 7.125
64.02000 12.282
64.03000 10.090
64.04000 6.185
64.05000 8.125
64.06000 6.024
64.07000 8.148
64.08000 5.057
64.09000 12.166
64.10000 7.216
64.11000 7.994
64.12000 2.992
64.13000 2.063
64.14000 9.120
64.15000 7.142
64.16000 8.071
64.17000 10.068
64.18000 6.056
64.19000 9.140
64.20000 3.006
64.21000 3.092
64.22000 6.045
64.23000 3.094
64.24000 4.095
64.25000 5.053
64.26000 8.097
64.27000 6.968
64.28000 14.146
64.29000 3.087
64.30000 10.039
64.31000 8.163
64.32000 10.223
64.33000 7.130
64.34000 8.040
64.35000 6.001
64.36000 8.127
64.37000 7.237
64.38000 5.044
64.39000 3.059
64.40000 7.141
64.41000 8.115
64.42000 6.098
64.43000 6.023
64.44000 7.079
64.45000 4.170
64.46000 6.082
64.47000 10.050
64.48000 10.015
64.49000 10.169
64.50000 6.124
64.51000 7.256
64.52000 4.010
64.53000 14.050
64.54000 4.998
64.55000 5.134
64.56000 10.063
64.57000 9.046
64.58000 10.137
64.59000 3.060
64.60000 6.066
64.61000 8.107
64.62000 9.136
64.63000 5.112
64.64000 16.030
64.65000 4.076
64.66000 4.024
64.67000 7.084
64.68000 8.140
64.69000 10.197
64.70000 10.303
64.71000 10.192
64.72000 7.168
64.73000 7.082
64.74000 14.048
64.75000 4.068
64.76000 5.087
64.77000 7.077
64.78000 7.090
64.79000 8.208
64.80000 6.161
64.81000 5.120
64.82000 5.017
64.83000 6.153
64.84000 5.008
64.85000 3.065
64.86000 8.165
64.87000 5.091
64.88000 14.273
64.89000 8.000
64.90000 7.122
64.91000 9.082
64.92000 7.012
64.93000 7.277
64.94000 9.006
64.95000 5.049
64.96000 8.077
64.97000 5.056
64.98000 5.047
64.99000 10.123
65.00000 6.118
