20.00000 13.187
20.01000 5.034
20.02000 16.226
20.03000 18.149
20.04000 11.169
20.05000 17.144
20.06000 20.340
20.07000 16.025
20.08000 21.324
20.09000 18.249
20.10000 23.216
20.11000 22.234
20.12000 11.223
20.13000 12.013
20.14000 20.339
20.15000 12.392
20.16000 25.506
20.17000 20.365
20.18000 24.445
20.19000 13.191
20.20000 15.334
20.21000 16.115
20.22000 24.286
20.23000 14.170
20.24000 19.334
20.25000 17.104
20.26000 16.116
20.27000 25.224
20.28000 20.006
20.29000 14.132
20.30000 18.303
20.31000 15.081
20.32000 25.304
20.33000 18.045
20.34000 15.058
20.35000 27.439
20.36000 22.087
20.37000 23.284
20.38000 13.074
20.39000 14.248
20.40000 18.172
20.41000 15.022
20.42000 23.339
20.43000 22.240
20.44000 20.329
20.45000 14.185
20.46000 16.225
20.47000 15.232
20.48000 23.233
20.49000 19.223
20.50000 15.208
20.51000 16.196
20.52000 14.219
20.53000 14.984
20.54000 14.116
20.55000 16.036
20.56000 14.290
20.57000 18.185
20.58000 16.226
20.59000 10.173
20.60000 20.226
20.61000 18.093
20.62000 16.248
20.63000 15.224
20.64000 19.342
20.65000 18.170
20.66000 19.309
20.67000 20.304
20.68000 13.217
20.69000 13.244
20.70000 15.161
20.71000 19.267
20.72000 15.186
20.73000 13.185
20.74000 8.161
20.75000 18.288
20.76000 16.265
20.77000 17.297
20.78000 21.346
20.79000 24.260
20.80000 17.450
20.81000 21.300
20.82000 12.332
20.83000 20.241
20.84000 24.271
20.85000 17.129
20.86000 17.207
20.87000 21.293
20.88000 14.218
20.89000 15.163
20.90000 27.478
20.91000 12.210
20.92000 15.042
20.93000 16.291
20.94000 26.450
20.95000 17.207
20.96000 14.266
20.97000 20.355
20.98000 19.273
20.99000 15.284
21.00000 14.098
21.01000 18.232
21.02000 21.261
21.03000 19.269
21.04000 16.140
21.05000 14.053
21.06000 20.230
21.07000 16.227
21.08000 20.303
21.09000 21.314
21.10000 15.295
21.11000 16.358
21.12000 24.252
21.13000 6.025
21.14000 8.963
21.15000 17.145
21.16000 14.106
21.17000 17.157
21.18000 11.139
21.19000 16.298
21.20000 18.184
21.21000 16.274
21.22000 15.074
21.23000 14.143
21.24000 24.206
21.25000 16.310
21.26000 14.127
21.27000 11.212
21.28000 19.176
21.29000 22.065
21.30000 14.173
21.31000 17.302
21.32000 26.390
21.33000 19.120
21.34000 11.191
21.35000 16.098
21.36000 18.013
21.37000 15.207
21.38000 19.458
21.39000 23.125
21.40000 12.995
21.41000 19.073
21.42000 16.324
21.43000 20.192
21.44000 15.123
21.45000 14.167
21.46000 24.375
21.47000 16.244
21.48000 16.273
21.49000 16.247
21.50000 14.207
21.51000 23.367
21.52000 10.089
21.53000 19.177
21.54000 16.251
21.55000 22.152
21.56000 24.461
21.57000 21.144
21.58000 29.352
21.59000 15.331
21.60000 22.282
21.61000 18.209
21.62000 25.314
21.63000 17.163
21.64000 20.182
21.65000 16.143
21.66000 21.473
21.67000 18.268
21.68000 13.213
21.69000 20.240
21.70000 23.430
21.71000 17.086
21.72000 14.094
21.73000 21.130
21.74000 18.211
21.75000 16.288
21.76000 26.187
21.77000 19.206
21.78000 22.193
21.79000 20.233
21.80000 24.365
21.81000 22.151
21.82000 27.154
21.83000 13.217
21.84000 15.142
21.85000 16.090
21.86000 21.266
21.87000 23.322
21.88000 20.266
21.89000 18.273
21.90000 15.231
21.91000 21.190
21.92000 16.199
21.93000 21.266
21.94000 15.130
21.95000 18.158
21.96000 24.235
21.97000 21.403
21.98000 27.357
21.99000 22.560
22.00000 31.441
22.01000 20.332
22.02000 13.183
22.03000 19.339
22.04000 20.378
22.05000 17.164
22.06000 16.304
22.07000 17.316
22.08000 19.253
22.09000 31.655
22.10000 19.257
22.11000 17.228
22.12000 18.267
22.13000 14.179
22.14000 29.202
22.15000 11.178
22.16000 19.109
22.17000 21.328
22.18000 20.304
22.19000 10.281
22.20000 20.175
22.21000 13.045
22.22000 25.235
22.23000 16.404
22.24000 24.262
22.25000 27.429
22.26000 20.108
22.27000 21.183
22.28000 20.261
22.29000 19.323
22.30000 12.096
22.31000 22.213
22.32000 21.299
22.33000 19.119
22.34000 19.169
22.35000 16.260
22.36000 24.162
22.37000 21.386
22.38000 20.165
22.39000 15.246
22.40000 30.502
22.41000 13.117
22.42000 24.353
22.43000 19.200
22.44000 20.217
22.45000 25.305
22.46000 21.335
22.47000 11.256
22.48000 15.115
22.49000 21.354
22.50000 18.154
22.51000 22.324
22.52000 16.298
22.53000 19.453
22.54000 27.130
22.55000 21.296
22.56000 19.195
22.57000 20.191
22.58000 27.158
22.59000 24.247
22.60000 22.162
22.61000 30.253
22.62000 18.242
22.63000 20.239
22.64000 22.500
22.65000 16.359
22.66000 17.234
22.67000 28.513
22.68000 20.156
22.69000 27.354
22.70000 18.144
22.71000 19.222
22.72000 28.393
22.73000 27.206
22.74000 15.265
22.75000 22.348
22.76000 21.306
22.77000 21.417
22.78000 17.173
22.79000 13.186
22.80000 17.395
22.81000 19.252
22.82000 23.273
22.83000 24.226
22.84000 12.133
22.85000 28.605
22.86000 17.178
22.87000 23.515
22.88000 28.405
22.89000 22.173
22.90000 18.126
22.91000 22.045
22.92000 17.194
22.93000 25.209
22.94000 26.147
22.95000 16.312
22.96000 22.277
22.97000 23.290
22.98000 19.130
22.99000 20.345
23.00000 20.210
23.01000 23.377
23.02000 25.521
23.03000 16.243
23.04000 18.196
23.05000 17.169
23.06000 18.336
23.07000 14.082
23.08000 27.387
23.09000 18.246
23.10000 30.316
23.11000 19.326
23.12000 24.197
23.13000 26.409
23.14000 19.283
23.15000 21.224
23.16000 24.408
23.17000 21.315
23.18000 20.200
23.19000 19.085
23.20000 24.386
23.21000 12.134
23.22000 17.302
23.23000 24.406
23.24000 12.111
23.25000 18.118
23.26000 18.288
23.27000 18.261
23.28000 24.385
23.29000 21.183
23.30000 25.327
23.31000 29.252
23.32000 29.301
23.33000 22.183
23.34000 21.230
23.35000 22.345
23.36000 18.064
23.37000 19.207
23.38000 15.032
23.39000 21.166
23.40000 17.081
23.41000 19.355
23.42000 20.253
23.43000 19.292
23.44000 28.218
23.45000 24.325
23.46000 14.207
23.47000 22.495
23.48000 32.548
23.49000 29.372
23.50000 20.270
23.51000 13.110
23.52000 20.240
23.53000 16.170
23.54000 20.577
23.55000 20.312
23.56000 24.044
23.57000 25.337
23.58000 19.125
23.59000 24.359
23.60000 17.323
23.61000 28.191
23.62000 20.478
23.63000 21.267
23.64000 19.199
23.65000 21.282
23.66000 22.215
23.67000 22.498
23.68000 22.347
23.69000 20.407
23.70000 20.393
23.71000 19.182
23.72000 27.460
23.73000 30.300
23.74000 21.202
23.75000 31.346
23.76000 30.565
23.77000 21.204
23.78000 24.326
23.79000 32.480
23.80000 25.393
23.81000 26.391
23.82000 29.710
23.83000 23.415
23.84000 35.536
23.85000 25.182
23.86000 19.239
23.87000 26.223
23.88000 30.531
23.89000 18.188
23.90000 21.458
23.91000 27.288
23.92000 29.499
23.93000 23.193
23.94000 29.189
23.95000 17.100
23.96000 26.304
23.97000 22.507
23.98000 19.400
23.99000 23.283
24.00000 23.407
24.01000 27.378
24.02000 24.269
24.03000 15.148
24.04000 25.430
24.05000 24.319
24.06000 24.202
24.07000 31.325
24.08000 24.243
24.09000 20.270
24.10000 28.283
24.11000 21.435
24.12000 20.316
24.13000 19.245
24.14000 22.263
24.15000 30.612
24.16000 26.267
24.17000 28.388
24.18000 17.044
24.19000 25.950
24.20000 21.276
24.21000 27.259
24.22000 29.256
24.23000 18.296
24.24000 25.331
24.25000 20.275
24.26000 21.283
24.27000 15.185
24.28000 29.442
24.29000 20.196
24.30000 17.262
24.31000 30.257
24.32000 24.232
24.33000 19.263
24.34000 24.191
24.35000 28.130
24.36000 26.491
24.37000 19.393
24.38000 23.423
24.39000 24.379
24.40000 19.160
24.41000 28.702
24.42000 24.464
24.43000 25.328
24.44000 26.351
24.45000 28.612
24.46000 24.187
24.47000 34.211
24.48000 30.329
24.49000 22.198
24.50000 27.687
24.51000 21.302
24.52000 30.125
24.53000 23.400
24.54000 27.236
24.55000 25.263
24.56000 18.223
24.57000 28.374
24.58000 17.256
24.59000 24.337
24.60000 18.303
24.61000 31.263
24.62000 16.192
24.63000 20.131
24.64000 21.254
24.65000 32.554
24.66000 34.571
24.67000 24.403
24.68000 25.302
24.69000 30.461
24.70000 28.176
24.71000 23.293
24.72000 26.511
24.73000 27.212
24.74000 27.219
24.75000 26.289
24.76000 26.243
24.77000 23.347
24.78000 22.158
24.79000 36.496
24.80000 22.260
24.81000 29.554
24.82000 16.181
24.83000 23.219
24.84000 28.484
24.85000 25.321
24.86000 34.566
24.87000 26.113
24.88000 32.416
24.89000 21.403
24.90000 28.312
24.91000 36.535
24.92000 22.176
24.93000 25.139
24.94000 26.352
24.95000 23.303
24.96000 24.104
24.97000 36.657
24.98000 23.172
24.99000 28.143
25.00000 26.200
25.01000 30.323
25.02000 30.264
25.03000 32.359
25.04000 29.387
25.05000 35.504
25.06000 25.272
25.07000 19.330
25.08000 24.462
25.09000 24.643
25.10000 18.132
25.11000 38.418
25.12000 27.216
25.13000 25.366
25.14000 25.107
25.15000 22.077
25.16000 22.388
25.17000 30.427
25.18000 27.442
25.19000 22.436
25.20000 23.287
25.21000 20.197
25.22000 22.336
25.23000 27.612
25.24000 28.495
25.25000 28.209
25.26000 26.393
25.27000 25.333
25.28000 33.173
25.29000 33.241
25.30000 24.457
25.31000 36.440
25.32000 22.189
25.33000 35.600
25.34000 36.356
25.35000 26.411
25.36000 25.074
25.37000 22.303
25.38000 31.468
25.39000 31.196
25.40000 21.397
25.41000 24.205
25.42000 32.436
25.43000 28.367
25.44000 27.355
25.45000 30.217
25.46000 31.602
25.47000 23.510
25.48000 25.282
25.49000 32.446
25.50000 25.284
25.51000 23.383
25.52000 24.167
25.53000 25.253
25.54000 35.363
25.55000 29.435
25.56000 30.106
25.57000 30.433
25.58000 32.415
25.59000 33.527
25.60000 26.116
25.61000 29.330
25.62000 29.434
25.63000 30.409
25.64000 23.235
25.65000 25.331
25.66000 31.621
25.67000 47.289
25.68000 39.308
25.69000 26.303
25.70000 39.765
25.71000 40.370
25.72000 39.246
25.73000 26.171
25.74000 35.412
25.75000 26.185
25.76000 28.492
25.77000 31.455
25.78000 29.403
25.79000 27.493
25.80000 33.310
25.81000 36.502
25.82000 35.477
25.83000 31.134
25.84000 25.245
25.85000 28.514
25.86000 33.292
25.87000 44.309
25.88000 27.018
25.89000 31.500
25.90000 28.339
25.91000 29.221
25.92000 23.415
25.93000 23.265
25.94000 26.331
25.95000 27.343
25.96000 33.230
25.97000 32.413
25.98000 34.477
25.99000 23.424
26.00000 21.272
26.01000 30.621
26.02000 42.182
26.03000 33.368
26.04000 35.454
26.05000 30.262
26.06000 32.292
26.07000 28.517
26.08000 27.107
26.09000 33.419
26.10000 35.149
26.11000 38.737
26.12000 32.644
26.13000 32.397
26.14000 31.630
26.15000 37.629
26.16000 43.580
26.17000 23.420
26.18000 23.250
26.19000 29.459
26.20000 40.711
26.21000 32.291
26.22000 33.429
26.23000 27.320
26.24000 45.691
26.25000 23.304
26.26000 37.398
26.27000 34.480
26.28000 33.550
26.29000 32.429
26.30000 28.371
26.31000 36.387
26.32000 34.181
26.33000 36.371
26.34000 23.226
26.35000 32.378
26.36000 33.284
26.37000 31.413
26.38000 31.187
26.39000 42.604
26.40000 39.158
26.41000 28.338
26.42000 35.535
26.43000 36.349
26.44000 34.355
26.45000 31.202
26.46000 23.079
26.47000 28.551
26.48000 35.275
26.49000 33.413
26.50000 29.397
26.51000 43.702
26.52000 37.452
26.53000 28.509
26.54000 42.217
26.55000 36.595
26.56000 34.193
26.57000 41.581
26.58000 39.589
26.59000 26.556
26.60000 41.517
26.61000 24.512
26.62000 29.186
26.63000 28.409
26.64000 38.808
26.65000 37.636
26.66000 22.239
26.67000 34.322
26.68000 38.489
26.69000 35.490
26.70000 35.434
26.71000 28.435
26.72000 28.427
26.73000 53.672
26.74000 32.759
26.75000 33.299
26.76000 36.680
26.77000 37.400
26.78000 41.707
26.79000 33.477
26.80000 36.783
26.81000 28.174
26.82000 37.503
26.83000 38.497
26.84000 36.043
26.85000 28.371
26.86000 41.671
26.87000 43.638
26.88000 30.418
26.89000 41.534
26.90000 30.501
26.91000 41.805
26.92000 42.685
26.93000 35.282
26.94000 39.698
26.95000 46.836
26.96000 42.453
26.97000 30.435
26.98000 32.382
26.99000 38.214
27.00000 39.776
27.01000 25.469
27.02000 32.390
27.03000 37.558
27.04000 31.372
27.05000 36.743
27.06000 45.420
27.07000 33.331
27.08000 37.597
27.09000 33.281
27.10000 38.515
27.11000 33.272
27.12000 22.471
27.13000 44.902
27.14000 32.722
27.15000 40.579
27.16000 42.439
27.17000 27.435
27.18000 28.571
27.19000 37.245
27.20000 34.407
27.21000 33.352
27.22000 41.575
27.23000 28.365
27.24000 43.661
27.25000 26.521
27.26000 29.413
27.27000 33.340
27.28000 24.256
27.29000 33.388
27.30000 45.835
27.31000 36.375
27.32000 46.631
27.33000 26.110
27.34000 44.498
27.35000 39.554
27.36000 22.207
27.37000 38.589
27.38000 34.573
27.39000 47.794
27.40000 35.524
27.41000 45.405
27.42000 40.234
27.43000 27.497
27.44000 25.364
27.45000 37.628
27.46000 35.378
27.47000 39.614
27.48000 31.295
27.49000 35.423
27.50000 46.529
27.51000 36.833
27.52000 37.657
27.53000 30.502
27.54000 36.344
27.55000 34.551
27.56000 41.726
27.57000 28.388
27.58000 31.383
27.59000 32.410
27.60000 27.420
27.61000 34.574
27.62000 38.591
27.63000 30.341
27.64000 36.505
27.65000 40.554
27.66000 31.338
27.67000 30.510
27.68000 29.236
27.69000 33.439
27.70000 36.335
27.71000 31.302
27.72000 38.578
27.73000 41.291
27.74000 28.392
27.75000 28.243
27.76000 40.476
27.77000 49.266
27.78000 39.384
27.79000 43.459
27.80000 36.665
27.81000 33.322
27.82000 29.394
27.83000 34.389
27.84000 25.205
27.85000 38.289
27.86000 40.431
27.87000 28.387
27.88000 43.649
27.89000 24.090
27.90000 42.439
27.91000 32.692
27.92000 34.427
27.93000 33.433
27.94000 31.347
27.95000 27.379
27.96000 41.525
27.97000 43.733
27.98000 25.196
27.99000 30.480
28.00000 37.622
28.01000 20.371
28.02000 19.302
28.03000 40.459
28.04000 39.451
28.05000 27.369
28.06000 39.418
28.07000 29.494
28.08000 32.611
28.09000 31.381
28.10000 30.380
28.11000 27.242
28.12000 51.611
28.13000 42.496
28.14000 31.571
28.15000 31.295
28.16000 44.375
28.17000 39.179
28.18000 34.669
28.19000 31.410
28.20000 35.456
28.21000 30.261
28.22000 24.382
28.23000 36.628
28.24000 38.246
28.25000 32.306
28.26000 31.392
28.27000 34.257
28.28000 35.445
28.29000 34.470
28.30000 29.380
28.31000 34.586
28.32000 29.301
28.33000 39.359
28.34000 31.357
28.35000 35.447
28.36000 30.499
28.37000 39.520
28.38000 42.388
28.39000 29.373
28.40000 21.365
28.41000 36.361
28.42000 30.379
28.43000 37.443
28.44000 28.286
28.45000 43.756
28.46000 30.335
28.47000 44.508
28.48000 49.643
28.49000 34.388
28.50000 30.378
28.51000 30.312
28.52000 24.178
28.53000 40.588
28.54000 33.326
28.55000 28.295
28.56000 27.354
28.57000 31.409
28.58000 34.710
28.59000 22.491
28.60000 35.209
28.61000 40.685
28.62000 39.674
28.63000 33.632
28.64000 39.360
28.65000 49.656
28.66000 31.400
28.67000 29.332
28.68000 30.367
28.69000 34.632
28.70000 42.687
28.71000 37.327
28.72000 26.157
28.73000 30.312
28.74000 26.268
28.75000 32.394
28.76000 37.544
28.77000 27.417
28.78000 26.292
28.79000 46.624
28.80000 30.685
28.81000 33.323
28.82000 41.437
28.83000 22.440
28.84000 38.497
28.85000 44.595
28.86000 32.491
28.87000 32.442
28.88000 31.252
28.89000 26.237
28.90000 31.404
28.91000 27.259
28.92000 35.497
28.93000 25.123
28.94000 27.231
28.95000 28.465
28.96000 34.546
28.97000 21.253
28.98000 27.312
28.99000 33.090
29.00000 38.305
29.01000 30.322
29.02000 31.367
29.03000 30.415
29.04000 29.449
29.05000 19.322
29.06000 34.613
29.07000 30.413
29.08000 27.175
29.09000 28.200
29.10000 31.392
29.11000 24.254
29.12000 38.507
29.13000 34.039
29.14000 27.970
29.15000 32.483
29.16000 29.361
29.17000 28.325
29.18000 33.486
29.19000 35.566
29.20000 38.540
29.21000 40.569
29.22000 34.350
29.23000 28.454
29.24000 30.391
29.25000 36.317
29.26000 26.447
29.27000 21.345
29.28000 34.561
29.29000 35.458
29.30000 31.216
29.31000 24.280
29.32000 32.353
29.33000 33.448
29.34000 33.512
29.35000 23.517
29.36000 36.238
29.37000 24.474
29.38000 34.526
29.39000 26.363
29.40000 28.240
29.41000 19.202
29.42000 30.348
29.43000 21.157
29.44000 28.277
29.45000 30.249
29.46000 27.186
29.47000 26.317
29.48000 29.221
29.49000 31.461
29.50000 37.764
29.51000 32.312
29.52000 28.405
29.53000 36.146
29.54000 23.283
29.55000 38.524
29.56000 28.333
29.57000 35.360
29.58000 33.600
29.59000 30.335
29.60000 26.366
29.61000 30.391
29.62000 25.240
29.63000 32.284
29.64000 24.203
29.65000 21.489
29.66000 29.396
29.67000 19.242
29.68000 26.384
29.69000 30.177
29.70000 27.289
29.71000 23.307
29.72000 30.403
29.73000 30.377
29.74000 27.339
29.75000 20.038
29.76000 28.299
29.77000 27.610
29.78000 26.411
29.79000 28.450
29.80000 27.526
29.81000 25.407
29.82000 30.506
29.83000 25.277
29.84000 27.408
29.85000 27.355
29.86000 36.651
29.87000 34.430
29.88000 33.560
29.89000 18.412
29.90000 26.560
29.91000 31.482
29.92000 21.367
29.93000 26.378
29.94000 27.129
29.95000 28.509
29.96000 17.101
29.97000 18.288
29.98000 26.550
29.99000 26.376
30.00000 23.189
30.01000 29.492
30.02000 26.399
30.03000 28.462
30.04000 29.339
30.05000 31.187
30.06000 22.334
30.07000 24.238
30.08000 24.473
30.09000 29.326
30.10000 20.119
30.11000 27.460
30.12000 24.373
30.13000 29.423
30.14000 31.460
30.15000 23.479
30.16000 14.115
30.17000 20.375
30.18000 38.356
30.19000 32.433
30.20000 30.444
30.21000 20.070
30.22000 18.256
30.23000 18.178
30.24000 29.366
30.25000 18.321
30.26000 15.184
30.27000 20.069
30.28000 18.271
30.29000 17.159
30.30000 28.714
30.31000 20.384
30.32000 20.432
30.33000 35.311
30.34000 28.542
30.35000 23.359
30.36000 29.385
30.37000 15.066
30.38000 36.405
30.39000 21.004
30.40000 35.645
30.41000 25.364
30.42000 31.488
30.43000 30.493
30.44000 24.224
30.45000 25.296
30.46000 25.564
30.47000 26.967
30.48000 21.393
30.49000 31.257
30.50000 26.364
30.51000 22.935
30.52000 24.484
30.53000 28.393
30.54000 25.267
30.55000 26.375
30.56000 20.259
30.57000 23.180
30.58000 22.357
30.59000 20.228
30.60000 25.575
30.61000 13.045
30.62000 19.275
30.63000 21.285
30.64000 20.070
30.65000 32.290
30.66000 25.348
30.67000 27.198
30.68000 20.238
30.69000 24.217
30.70000 20.410
30.71000 24.284
30.72000 25.427
30.73000 16.210
30.74000 19.370
30.75000 17.029
30.76000 20.213
30.77000 34.244
30.78000 20.251
30.79000 27.362
30.80000 25.217
30.81000 24.235
30.82000 24.560
30.83000 23.414
30.84000 27.286
30.85000 32.396
30.86000 23.274
30.87000 23.360
30.88000 14.057
30.89000 16.356
30.90000 23.210
30.91000 21.015
30.92000 31.648
30.93000 15.390
30.94000 28.329
30.95000 19.321
30.96000 13.215
30.97000 22.221
30.98000 21.216
30.99000 26.422
31.00000 27.484
31.01000 22.310
31.02000 22.194
31.03000 16.300
31.04000 21.408
31.05000 24.296
31.06000 22.412
31.07000 26.307
31.08000 28.291
31.09000 24.372
31.10000 15.148
31.11000 18.154
31.12000 19.236
31.13000 28.324
31.14000 15.194
31.15000 24.221
31.16000 18.151
31.17000 26.257
31.18000 18.142
31.19000 20.231
31.20000 21.596
31.21000 25.437
31.22000 32.291
31.23000 27.328
31.24000 15.341
31.25000 10.143
31.26000 20.287
31.27000 23.262
31.28000 17.274
31.29000 20.340
31.30000 26.285
31.31000 19.283
31.32000 27.389
31.33000 19.237
31.34000 26.505
31.35000 18.182
31.36000 20.214
31.37000 22.335
31.38000 26.329
31.39000 27.328
31.40000 21.228
31.41000 15.123
31.42000 20.142
31.43000 25.412
31.44000 22.379
31.45000 23.474
31.46000 13.176
31.47000 24.380
31.48000 18.149
31.49000 15.244
31.50000 14.225
31.51000 13.239
31.52000 23.477
31.53000 23.318
31.54000 25.472
31.55000 19.023
31.56000 20.193
31.57000 17.275
31.58000 22.226
31.59000 29.454
31.60000 21.997
31.61000 18.384
31.62000 18.246
31.63000 22.318
31.64000 19.342
31.65000 14.217
31.66000 12.994
31.67000 19.069
31.68000 22.073
31.69000 27.230
31.70000 23.405
31.71000 18.263
31.72000 20.200
31.73000 23.323
31.74000 17.121
31.75000 14.304
31.76000 19.207
31.77000 18.138
31.78000 24.463
31.79000 21.360
31.80000 12.203
31.81000 15.181
31.82000 20.349
31.83000 18.222
31.84000 26.067
31.85000 21.213
31.86000 11.195
31.87000 30.236
31.88000 21.984
31.89000 22.344
31.90000 19.206
31.91000 15.162
31.92000 23.522
31.93000 20.287
31.94000 23.170
31.95000 20.990
31.96000 13.307
31.97000 15.089
31.98000 21.406
31.99000 19.277
32.00000 25.348
32.01000 16.983
32.02000 20.347
32.03000 15.151
32.04000 22.535
32.05000 19.251
32.06000 23.287
32.07000 21.371
32.08000 31.485
32.09000 22.141
32.10000 19.360
32.11000 27.365
32.12000 26.114
32.13000 27.141
32.14000 25.427
32.15000 29.413
32.16000 29.374
32.17000 21.010
32.18000 19.080
32.19000 23.128
32.20000 39.370
32.21000 16.145
32.22000 20.263
32.23000 30.397
32.24000 19.218
32.25000 30.233
32.26000 24.249
32.27000 19.140
32.28000 31.350
32.29000 23.139
32.30000 33.335
32.31000 24.504
32.32000 19.443
32.33000 14.104
32.34000 28.416
32.35000 27.085
32.36000 21.276
32.37000 29.695
32.38000 23.253
32.39000 26.180
32.40000 25.513
32.41000 19.143
32.42000 27.163
32.43000 26.401
32.44000 18.223
32.45000 28.167
32.46000 36.719
32.47000 27.513
32.48000 25.129
32.49000 27.450
32.50000 23.489
32.51000 35.352
32.52000 24.386
32.53000 18.149
32.54000 32.308
32.55000 20.161
32.56000 18.266
32.57000 18.302
32.58000 16.162
32.59000 14.208
32.60000 22.179
32.61000 16.174
32.62000 18.340
32.63000 20.314
32.64000 23.519
32.65000 23.329
32.66000 24.198
32.67000 21.081
32.68000 21.435
32.69000 23.166
32.70000 18.402
32.71000 22.109
32.72000 20.150
32.73000 24.179
32.74000 26.401
32.75000 18.093
32.76000 17.468
32.77000 18.986
32.78000 18.102
32.79000 16.325
32.80000 15.143
32.81000 18.204
32.82000 21.221
32.83000 12.261
32.84000 21.239
32.85000 16.191
32.86000 26.338
32.87000 17.351
32.88000 22.338
32.89000 15.166
32.90000 15.137
32.91000 17.138
32.92000 22.236
32.93000 17.217
32.94000 21.255
32.95000 21.214
32.96000 16.181
32.97000 16.216
32.98000 14.114
32.99000 16.239
33.00000 19.300
33.01000 16.218
33.02000 18.284
33.03000 12.244
33.04000 20.133
33.05000 13.042
33.06000 19.178
33.07000 16.190
33.08000 18.274
33.09000 18.192
33.10000 15.391
33.11000 17.275
33.12000 13.160
33.13000 22.954
33.14000 19.118
33.15000 11.010
33.16000 8.102
33.17000 17.222
33.18000 12.141
33.19000 19.300
33.20000 16.956
33.21000 15.159
33.22000 16.099
33.23000 9.222
33.24000 11.143
33.25000 17.190
33.26000 12.230
33.27000 14.130
33.28000 20.160
33.29000 19.070
33.30000 14.172
33.31000 15.139
33.32000 14.194
33.33000 15.223
33.34000 13.199
33.35000 15.234
33.36000 15.183
33.37000 11.182
33.38000 11.224
33.39000 22.302
33.40000 11.963
33.41000 16.089
33.42000 14.170
33.43000 17.052
33.44000 21.223
33.45000 16.194
33.46000 13.101
33.47000 21.225
33.48000 15.170
33.49000 21.217
33.50000 16.145
33.51000 15.243
33.52000 9.160
33.53000 16.063
33.54000 16.110
33.55000 5.066
33.56000 15.269
33.57000 18.170
33.58000 9.176
33.59000 17.199
33.60000 16.117
33.61000 18.132
33.62000 9.069
33.63000 14.286
33.64000 14.065
33.65000 15.188
33.66000 22.158
33.67000 12.067
33.68000 20.106
33.69000 19.229
33.70000 15.432
33.71000 13.274
33.72000 25.218
33.73000 13.085
33.74000 12.091
33.75000 19.427
33.76000 16.135
33.77000 9.101
33.78000 17.337
33.79000 11.999
33.80000 18.256
33.81000 14.184
33.82000 14.196
33.83000 10.128
33.84000 12.244
33.85000 14.110
33.86000 15.170
33.87000 5.062
33.88000 14.275
33.89000 13.195
33.90000 11.196
33.91000 20.432
33.92000 14.059
33.93000 16.202
33.94000 13.166
33.95000 11.275
33.96000 11.137
33.97000 15.163
33.98000 9.091
33.99000 10.129
34.00000 12.123
34.01000 17.099
34.02000 17.105
34.03000 15.209
34.04000 16.301
34.05000 16.242
34.06000 19.252
34.07000 19.140
34.08000 19.411
34.09000 17.159
34.10000 10.163
34.11000 17.101
34.12000 15.198
34.13000 15.342
34.14000 9.148
34.15000 14.143
34.16000 15.092
34.17000 16.311
34.18000 21.465
34.19000 10.132
34.20000 16.230
34.21000 12.229
34.22000 13.162
34.23000 12.369
34.24000 11.229
34.25000 12.062
34.26000 12.168
34.27000 12.100
34.28000 10.033
34.29000 17.284
34.30000 17.314
34.31000 16.291
34.32000 12.104
34.33000 12.092
34.34000 12.149
34.35000 14.192
34.36000 13.152
34.37000 15.220
34.38000 18.312
34.39000 21.269
34.40000 17.133
34.41000 8.108
34.42000 16.235
34.43000 17.140
34.44000 15.113
34.45000 16.071
34.46000 12.100
34.47000 12.207
34.48000 17.993
34.49000 14.163
34.50000 17.228
34.51000 16.235
34.52000 15.211
34.53000 18.330
34.54000 11.204
34.55000 16.263
34.56000 15.069
34.57000 12.129
34.58000 12.040
34.59000 11.126
34.60000 10.280
34.61000 13.162
34.62000 8.979
34.63000 14.188
34.64000 12.154
34.65000 8.059
34.66000 14.144
34.67000 10.166
34.68000 15.407
34.69000 9.101
34.70000 6.040
34.71000 10.209
34.72000 12.054
34.73000 13.280
34.74000 11.135
34.75000 12.405
34.76000 9.090
34.77000 14.178
34.78000 22.232
34.79000 7.918
34.80000 14.154
34.81000 16.251
34.82000 12.079
34.83000 14.202
34.84000 20.310
34.85000 9.125
34.86000 6.041
34.87000 8.180
34.88000 12.186
34.89000 11.121
34.90000 18.154
34.91000 13.125
34.92000 19.198
34.93000 18.152
34.94000 7.128
34.95000 11.217
34.96000 15.140
34.97000 16.401
34.98000 13.176
34.99000 18.244
35.00000 15.190
35.01000 4.025
35.02000 6.069
35.03000 10.107
35.04000 8.101
35.05000 11.254
35.06000 15.224
35.07000 13.094
35.08000 20.130
35.09000 15.091
35.10000 17.092
35.11000 10.055
35.12000 6.982
35.13000 11.134
35.14000 13.078
35.15000 18.166
35.16000 9.036
35.17000 9.061
35.18000 10.071
35.19000 10.071
35.20000 9.131
35.21000 16.213
35.22000 14.261
35.23000 7.078
35.24000 10.285
35.25000 6.065
35.26000 11.159
35.27000 19.128
35.28000 14.282
35.29000 9.118
35.30000 16.218
35.31000 9.102
35.32000 20.170
35.33000 17.171
35.34000 15.085
35.35000 11.247
35.36000 18.294
35.37000 23.449
35.38000 11.136
35.39000 17.087
35.40000 12.262
35.41000 7.113
35.42000 14.161
35.43000 14.211
35.44000 15.350
35.45000 19.449
35.46000 12.096
35.47000 14.071
35.48000 13.145
35.49000 8.039
35.50000 10.131
35.51000 8.150
35.52000 11.126
35.53000 14.104
35.54000 21.119
35.55000 15.115
35.56000 7.061
35.57000 14.097
35.58000 13.238
35.59000 6.983
35.60000 12.237
35.61000 9.121
35.62000 18.342
35.63000 8.122
35.64000 12.045
35.65000 11.136
35.66000 10.183
35.67000 8.149
35.68000 19.354
35.69000 12.947
35.70000 17.281
35.71000 9.035
35.72000 16.271
35.73000 15.103
35.74000 15.201
35.75000 16.446
35.76000 7.027
35.77000 15.281
35.78000 12.053
35.79000 15.260
35.80000 15.029
35.81000 10.057
35.82000 15.189
35.83000 10.160
35.84000 12.181
35.85000 10.122
35.86000 17.015
35.87000 13.034
35.88000 9.996
35.89000 13.036
35.90000 8.030
35.91000 14.176
35.92000 12.170
35.93000 9.144
35.94000 9.156
35.95000 10.166
35.96000 13.150
35.97000 9.199
35.98000 20.208
35.99000 10.002
36.00000 14.263
36.01000 11.946
36.02000 13.101
36.03000 14.061
36.04000 12.216
36.05000 16.246
36.06000 16.263
36.07000 17.289
36.08000 17.180
36.09000 14.330
36.10000 10.136
36.11000 13.050
36.12000 12.155
36.13000 16.150
36.14000 5.074
36.15000 18.100
36.16000 9.169
36.17000 18.100
36.18000 12.126
36.19000 13.126
36.20000 13.138
36.21000 12.135
36.22000 17.167
36.23000 11.148
36.24000 14.395
36.25000 11.090
36.26000 9.086
36.27000 10.225
36.28000 12.123
36.29000 11.095
36.30000 14.190
36.31000 11.140
36.32000 7.073
36.33000 6.095
36.34000 14.226
36.35000 19.235
36.36000 23.357
36.37000 9.133
36.38000 14.034
36.39000 12.078
36.40000 8.140
36.41000 16.185
36.42000 17.155
36.43000 16.225
36.44000 15.125
36.45000 11.223
36.46000 11.112
36.47000 14.090
36.48000 12.331
36.49000 15.312
36.50000 19.237
36.51000 13.204
36.52000 19.570
36.53000 12.047
36.54000 9.076
36.55000 18.252
36.56000 13.135
36.57000 12.146
36.58000 17.495
36.59000 14.178
36.60000 23.317
36.61000 14.044
36.62000 8.986
36.63000 15.158
36.64000 15.394
36.65000 6.137
36.66000 18.291
36.67000 21.256
36.68000 14.353
36.69000 14.172
36.70000 13.104
36.71000 12.165
36.72000 13.226
36.73000 11.297
36.74000 12.283
36.75000 15.133
36.76000 15.274
36.77000 14.067
36.78000 10.139
36.79000 19.320
36.80000 15.163
36.81000 14.076
36.82000 12.165
36.83000 12.269
36.84000 19.227
36.85000 12.182
36.86000 16.195
36.87000 9.169
36.88000 19.169
36.89000 15.326
36.90000 15.201
36.91000 16.252
36.92000 16.287
36.93000 21.292
36.94000 10.293
36.95000 16.223
36.96000 11.185
36.97000 15.146
36.98000 9.107
36.99000 10.085
37.00000 15.125
37.01000 14.080
37.02000 13.242
37.03000 17.212
37.04000 8.010
37.05000 13.170
37.06000 9.175
37.07000 15.369
37.08000 14.208
37.09000 13.293
37.10000 17.243
37.11000 10.982
37.12000 20.294
37.13000 13.127
37.14000 15.208
37.15000 14.945
37.16000 14.167
37.17000 14.221
37.18000 14.191
37.19000 10.150
37.20000 15.255
37.21000 13.213
37.22000 17.241
37.23000 15.192
37.24000 17.100
37.25000 15.257
37.26000 12.133
37.27000 10.162
37.28000 10.247
37.29000 14.154
37.30000 9.207
37.31000 12.967
37.32000 21.164
37.33000 10.074
37.34000 18.223
37.35000 11.274
37.36000 12.253
37.37000 15.092
37.38000 14.165
37.39000 11.063
37.40000 19.187
37.41000 17.143
37.42000 17.223
37.43000 8.002
37.44000 9.104
37.45000 9.047
37.46000 12.139
37.47000 16.157
37.48000 14.214
37.49000 10.247
37.50000 13.313
37.51000 12.161
37.52000 11.156
37.53000 14.162
37.54000 15.298
37.55000 18.254
37.56000 15.096
37.57000 17.432
37.58000 9.030
37.59000 19.322
37.60000 12.014
37.61000 10.134
37.62000 15.261
37.63000 18.365
37.64000 10.205
37.65000 16.218
37.66000 15.019
37.67000 18.278
37.68000 9.022
37.69000 13.239
37.70000 13.051
37.71000 18.242
37.72000 13.221
37.73000 10.169
37.74000 16.392
37.75000 10.142
37.76000 17.208
37.77000 13.176
37.78000 17.240
37.79000 9.234
37.80000 18.145
37.81000 17.300
37.82000 15.031
37.83000 9.998
37.84000 10.191
37.85000 12.203
37.86000 20.405
37.87000 13.148
37.88000 14.084
37.89000 13.159
37.90000 10.054
37.91000 13.168
37.92000 12.105
37.93000 10.085
37.94000 11.169
37.95000 11.213
37.96000 15.205
37.97000 16.298
37.98000 6.168
37.99000 8.052
38.00000 16.038
38.01000 17.212
38.02000 13.107
38.03000 13.066
38.04000 14.099
38.05000 9.177
38.06000 26.433
38.07000 14.973
38.08000 10.132
38.09000 20.379
38.10000 16.218
38.11000 19.407
38.12000 21.215
38.13000 22.169
38.14000 14.146
38.15000 12.068
38.16000 10.133
38.17000 12.230
38.18000 15.459
38.19000 12.151
38.20000 14.204
38.21000 11.001
38.22000 15.128
38.23000 11.219
38.24000 12.158
38.25000 12.195
38.26000 14.189
38.27000 15.107
38.28000 19.245
38.29000 13.192
38.30000 18.366
38.31000 18.201
38.32000 9.152
38.33000 13.081
38.34000 14.050
38.35000 18.290
38.36000 11.220
38.37000 16.200
38.38000 12.058
38.39000 17.221
38.40000 14.197
38.41000 8.090
38.42000 10.063
38.43000 15.056
38.44000 12.079
38.45000 15.073
38.46000 15.103
38.47000 15.182
38.48000 12.186
38.49000 13.029
38.50000 24.121
38.51000 16.199
38.52000 5.073
38.53000 18.084
38.54000 14.112
38.55000 20.526
38.56000 14.012
38.57000 10.217
38.58000 12.097
38.59000 20.146
38.60000 14.137
38.61000 5.070
38.62000 13.208
38.63000 10.139
38.64000 12.218
38.65000 11.258
38.66000 21.126
38.67000 12.183
38.68000 20.289
38.69000 12.125
38.70000 11.197
38.71000 18.308
38.72000 12.142
38.73000 9.204
38.74000 12.169
38.75000 17.260
38.76000 15.189
38.77000 17.274
38.78000 6.110
38.79000 12.245
38.80000 14.220
38.81000 18.376
38.82000 11.094
38.83000 14.240
38.84000 14.206
38.85000 7.899
38.86000 12.089
38.87000 14.181
38.88000 12.293
38.89000 16.246
38.90000 14.138
38.91000 14.165
38.92000 18.414
38.93000 11.113
38.94000 12.275
38.95000 20.156
38.96000 13.113
38.97000 13.149
38.98000 10.039
38.99000 19.362
39.00000 12.076
39.01000 14.030
39.02000 20.144
39.03000 25.193
39.04000 11.318
39.05000 12.171
39.06000 12.249
39.07000 19.159
39.08000 9.245
39.09000 10.093
39.10000 15.127
39.11000 9.189
39.12000 13.158
39.13000 16.335
39.14000 15.042
39.15000 15.278
39.16000 22.153
39.17000 6.065
39.18000 19.226
39.19000 13.233
39.20000 11.047
39.21000 17.143
39.22000 19.474
39.23000 15.242
39.24000 12.036
39.25000 15.088
39.26000 12.197
39.27000 17.235
39.28000 9.116
39.29000 6.217
39.30000 15.354
39.31000 15.185
39.32000 15.120
39.33000 16.126
39.34000 13.233
39.35000 22.471
39.36000 17.234
39.37000 13.110
39.38000 15.334
39.39000 9.086
39.40000 19.224
39.41000 12.139
39.42000 14.117
39.43000 21.210
39.44000 20.201
39.45000 18.313
39.46000 5.002
39.47000 24.506
39.48000 17.303
39.49000 18.250
39.50000 21.126
39.51000 16.240
39.52000 17.156
39.53000 13.240
39.54000 17.243
39.55000 15.417
39.56000 14.231
39.57000 9.144
39.58000 15.198
39.59000 17.260
39.60000 14.208
39.61000 11.127
39.62000 20.275
39.63000 9.169
39.64000 21.199
39.65000 17.134
39.66000 8.128
39.67000 19.137
39.68000 20.043
39.69000 17.128
39.70000 15.298
39.71000 12.075
39.72000 20.237
39.73000 20.346
39.74000 8.987
39.75000 22.540
39.76000 17.202
39.77000 22.366
39.78000 20.471
39.79000 16.120
39.80000 13.014
39.81000 13.080
39.82000 21.359
39.83000 10.102
39.84000 19.320
39.85000 22.466
39.86000 18.194
39.87000 18.074
39.88000 11.209
39.89000 11.123
39.90000 15.391
39.91000 13.120
39.92000 16.257
39.93000 12.156
39.94000 14.092
39.95000 15.165
39.96000 16.363
39.97000 13.031
39.98000 14.225
39.99000 4.954
40.00000 14.995
40.01000 19.363
40.02000 12.249
40.03000 10.095
40.04000 20.184
40.05000 19.222
40.06000 15.297
40.07000 19.200
40.08000 11.089
40.09000 15.297
40.10000 11.217
40.11000 19.453
40.12000 20.424
40.13000 15.369
40.14000 15.313
40.15000 22.322
40.16000 23.117
40.17000 15.135
40.18000 7.135
40.19000 14.090
40.20000 21.192
40.21000 20.238
40.22000 15.198
40.23000 17.266
40.24000 20.054
40.25000 21.207
40.26000 16.249
40.27000 11.255
40.28000 15.201
40.29000 12.235
40.30000 21.433
40.31000 13.059
40.32000 16.195
40.33000 13.134
40.34000 11.154
40.35000 12.185
40.36000 11.094
40.37000 21.297
40.38000 7.993
40.39000 20.279
40.40000 12.159
40.41000 3.999
40.42000 13.191
40.43000 14.361
40.44000 17.230
40.45000 12.154
40.46000 12.242
40.47000 11.218
40.48000 15.276
40.49000 14.264
40.50000 8.043
40.51000 13.191
40.52000 19.245
40.53000 17.225
40.54000 15.002
40.55000 13.088
40.56000 15.221
40.57000 22.091
40.58000 8.094
40.59000 19.130
40.60000 15.203
40.61000 13.124
40.62000 14.225
40.63000 15.224
40.64000 15.133
40.65000 15.189
40.66000 13.329
40.67000 17.261
40.68000 15.253
40.69000 12.162
40.70000 12.068
40.71000 20.207
40.72000 16.115
40.73000 13.277
40.74000 17.159
40.75000 11.024
40.76000 19.135
40.77000 25.230
40.78000 17.331
40.79000 12.002
40.80000 9.174
40.81000 15.158
40.82000 8.062
40.83000 13.215
40.84000 7.203
40.85000 19.319
40.86000 11.154
40.87000 25.265
40.88000 17.318
40.89000 18.373
40.90000 10.112
40.91000 20.336
40.92000 14.117
40.93000 18.052
40.94000 15.273
40.95000 10.024
40.96000 8.011
40.97000 17.304
40.98000 14.232
40.99000 11.235
41.00000 12.072
41.01000 13.061
41.02000 15.126
41.03000 17.160
41.04000 16.252
41.05000 12.985
41.06000 11.167
41.07000 12.066
41.08000 18.357
41.09000 17.119
41.10000 15.181
41.11000 13.169
41.12000 9.193
41.13000 12.163
41.14000 14.219
41.15000 12.154
41.16000 11.296
41.17000 11.235
41.18000 14.184
41.19000 10.128
41.20000 6.182
41.21000 14.295
41.22000 21.367
41.23000 15.144
41.24000 6.069
41.25000 15.140
41.26000 18.223
41.27000 16.117
41.28000 10.147
41.29000 16.159
41.30000 12.103
41.31000 17.166
41.32000 14.226
41.33000 14.240
41.34000 8.997
41.35000 19.330
41.36000 15.442
41.37000 11.145
41.38000 21.233
41.39000 22.326
41.40000 16.105
41.41000 12.066
41.42000 17.518
41.43000 12.092
41.44000 10.150
41.45000 19.156
41.46000 10.249
41.47000 13.236
41.48000 14.102
41.49000 15.272
41.50000 16.279
41.51000 7.141
41.52000 13.159
41.53000 19.048
41.54000 24.180
41.55000 6.061
41.56000 15.168
41.57000 14.259
41.58000 10.048
41.59000 21.165
41.60000 12.116
41.61000 15.037
41.62000 15.185
41.63000 11.139
41.64000 13.296
41.65000 11.088
41.66000 16.194
41.67000 10.111
41.68000 16.096
41.69000 10.034
41.70000 11.069
41.71000 19.112
41.72000 11.024
41.73000 18.390
41.74000 24.388
41.75000 16.171
41.76000 8.064
41.77000 13.109
41.78000 17.119
41.79000 15.110
41.80000 15.191
41.81000 17.108
41.82000 17.094
41.83000 16.133
41.84000 15.184
41.85000 13.161
41.86000 19.344
41.87000 21.307
41.88000 9.226
41.89000 11.171
41.90000 11.243
41.91000 20.252
41.92000 21.496
41.93000 21.251
41.94000 9.127
41.95000 11.128
41.96000 14.257
41.97000 14.078
41.98000 14.309
41.99000 21.352
42.00000 18.088
42.01000 16.383
42.02000 16.191
42.03000 4.988
42.04000 17.335
42.05000 7.959
42.06000 23.158
42.07000 17.112
42.08000 13.030
42.09000 15.224
42.10000 14.216
42.11000 12.269
42.12000 9.134
42.13000 13.137
42.14000 17.404
42.15000 14.200
42.16000 13.215
42.17000 12.206
42.18000 18.184
42.19000 9.069
42.20000 15.245
42.21000 13.187
42.22000 13.205
42.23000 17.414
42.24000 17.113
42.25000 14.193
42.26000 10.061
42.27000 14.071
42.28000 11.159
42.29000 11.009
42.30000 12.129
42.31000 15.128
42.32000 10.073
42.33000 21.597
42.34000 7.085
42.35000 14.259
42.36000 11.013
42.37000 14.305
42.38000 12.150
42.39000 14.112
42.40000 21.338
42.41000 10.217
42.42000 13.205
42.43000 12.231
42.44000 14.335
42.45000 13.165
42.46000 15.286
42.47000 12.112
42.48000 14.138
42.49000 16.202
42.50000 10.280
42.51000 12.128
42.52000 15.265
42.53000 15.241
42.54000 18.272
42.55000 16.152
42.56000 15.242
42.57000 11.045
42.58000 14.266
42.59000 10.074
42.60000 14.152
42.61000 12.067
42.62000 14.081
42.63000 16.173
42.64000 10.041
42.65000 11.091
42.66000 14.182
42.67000 13.147
42.68000 23.317
42.69000 15.131
42.70000 19.196
42.71000 17.180
42.72000 8.043
42.73000 5.047
42.74000 27.311
42.75000 14.163
42.76000 22.282
42.77000 12.893
42.78000 11.150
42.79000 13.158
42.80000 14.238
42.81000 16.348
42.82000 13.328
42.83000 17.236
42.84000 9.044
42.85000 9.144
42.86000 11.183
42.87000 15.261
42.88000 9.111
42.89000 13.168
42.90000 15.270
42.91000 8.218
42.92000 12.139
42.93000 18.157
42.94000 23.971
42.95000 11.043
42.96000 16.245
42.97000 20.237
42.98000 14.236
42.99000 21.358
43.00000 15.084
43.01000 15.252
43.02000 14.116
43.03000 6.071
43.04000 12.017
43.05000 17.090
43.06000 14.272
43.07000 19.232
43.08000 18.257
43.09000 19.105
43.10000 18.188
43.11000 14.236
43.12000 10.136
43.13000 14.164
43.14000 12.256
43.15000 10.080
43.16000 18.216
43.17000 15.069
43.18000 16.120
43.19000 6.145
43.20000 9.147
43.21000 14.214
43.22000 16.302
43.23000 5.070
43.24000 12.128
43.25000 13.150
43.26000 13.268
43.27000 12.104
43.28000 15.106
43.29000 4.033
43.30000 15.143
43.31000 14.170
43.32000 12.167
43.33000 16.378
43.34000 10.102
43.35000 10.012
43.36000 11.246
43.37000 20.366
43.38000 15.244
43.39000 13.957
43.40000 12.254
43.41000 14.391
43.42000 19.434
43.43000 14.307
43.44000 22.366
43.45000 13.221
43.46000 10.009
43.47000 12.080
43.48000 10.153
43.49000 16.151
43.50000 15.298
43.51000 12.226
43.52000 20.526
43.53000 23.426
43.54000 18.043
43.55000 9.159
43.56000 13.150
43.57000 12.076
43.58000 9.131
43.59000 13.369
43.60000 27.205
43.61000 16.217
43.62000 9.025
43.63000 15.202
43.64000 9.998
43.65000 13.110
43.66000 15.126
43.67000 20.238
43.68000 15.090
43.69000 15.268
43.70000 16.315
43.71000 14.143
43.72000 16.324
43.73000 16.083
43.74000 15.231
43.75000 20.038
43.76000 18.269
43.77000 9.094
43.78000 17.261
43.79000 10.136
43.80000 12.103
43.81000 19.417
43.82000 14.201
43.83000 21.186
43.84000 15.223
43.85000 15.315
43.86000 13.138
43.87000 12.035
43.88000 14.221
43.89000 6.089
43.90000 15.226
43.91000 13.142
43.92000 16.275
43.93000 11.113
43.94000 16.205
43.95000 12.166
43.96000 9.106
43.97000 16.123
43.98000 12.195
43.99000 7.158
44.00000 20.562
44.01000 16.162
44.02000 21.189
44.03000 17.231
44.04000 22.339
44.05000 15.334
44.06000 11.155
44.07000 16.086
44.08000 17.322
44.09000 11.117
44.10000 13.186
44.11000 19.403
44.12000 15.069
44.13000 14.149
44.14000 12.144
44.15000 14.239
44.16000 15.114
44.17000 9.065
44.18000 7.154
44.19000 15.076
44.20000 14.162
44.21000 18.318
44.22000 14.237
44.23000 11.193
44.24000 18.281
44.25000 17.159
44.26000 9.053
44.27000 17.227
44.28000 14.166
44.29000 18.166
44.30000 10.946
44.31000 12.168
44.32000 16.347
44.33000 20.339
44.34000 19.035
44.35000 18.318
44.36000 11.076
44.37000 13.178
44.38000 17.272
44.39000 13.235
44.40000 11.054
44.41000 18.197
44.42000 11.048
44.43000 15.264
44.44000 13.063
44.45000 13.309
44.46000 11.090
44.47000 14.201
44.48000 14.130
44.49000 11.173
44.50000 13.188
44.51000 19.147
44.52000 15.108
44.53000 15.172
44.54000 13.097
44.55000 13.145
44.56000 8.093
44.57000 13.112
44.58000 9.043
44.59000 9.085
44.60000 14.068
44.61000 16.268
44.62000 10.207
44.63000 15.100
44.64000 13.113
44.65000 17.991
44.66000 18.165
44.67000 10.363
44.68000 11.194
44.69000 10.981
44.70000 21.411
44.71000 13.087
44.72000 14.130
44.73000 10.031
44.74000 14.228
44.75000 13.070
44.76000 11.054
44.77000 9.034
44.78000 17.333
44.79000 7.957
44.80000 21.061
44.81000 16.296
44.82000 20.508
44.83000 12.140
44.84000 14.074
44.85000 13.073
44.86000 17.120
44.87000 8.104
44.88000 13.193
44.89000 15.141
44.90000 11.217
44.91000 16.029
44.92000 14.032
44.93000 11.196
44.94000 10.216
44.95000 12.116
44.96000 14.101
44.97000 24.234
44.98000 16.324
44.99000 16.332
45.00000 10.226
45.01000 11.313
45.02000 11.132
45.03000 21.195
45.04000 13.160
45.05000 13.198
45.06000 17.231
45.07000 19.133
45.08000 18.230
45.09000 17.382
45.10000 11.079
45.11000 14.236
45.12000 13.081
45.13000 21.250
45.14000 8.165
45.15000 9.209
45.16000 6.088
45.17000 11.093
45.18000 13.056
45.19000 12.190
45.20000 13.209
45.21000 18.428
45.22000 17.094
45.23000 11.089
45.24000 11.067
45.25000 18.174
45.26000 14.076
45.27000 13.404
45.28000 12.130
45.29000 14.064
45.30000 15.105
45.31000 12.104
45.32000 9.355
45.33000 12.134
45.34000 18.117
45.35000 12.193
45.36000 14.050
45.37000 11.160
45.38000 10.076
45.39000 16.209
45.40000 8.150
45.41000 18.145
45.42000 18.367
45.43000 16.233
45.44000 8.067
45.45000 9.075
45.46000 12.225
45.47000 14.238
45.48000 24.448
45.49000 8.033
45.50000 18.238
45.51000 10.051
45.52000 15.282
45.53000 15.087
45.54000 12.227
45.55000 18.280
45.56000 17.071
45.57000 14.182
45.58000 17.101
45.59000 18.292
45.60000 8.987
45.61000 17.335
45.62000 12.133
45.63000 7.116
45.64000 10.085
45.65000 16.228
45.66000 17.093
45.67000 12.187
45.68000 14.167
45.69000 8.252
45.70000 13.190
45.71000 15.221
45.72000 18.222
45.73000 16.222
45.74000 22.213
45.75000 15.176
45.76000 11.037
45.77000 10.177
45.78000 17.411
45.79000 12.181
45.80000 11.185
45.81000 18.387
45.82000 14.059
45.83000 9.078
45.84000 13.283
45.85000 13.406
45.86000 8.078
45.87000 17.274
45.88000 9.108
45.89000 15.193
45.90000 8.167
45.91000 15.213
45.92000 21.392
45.93000 9.006
45.94000 20.377
45.95000 10.191
45.96000 16.169
45.97000 16.140
45.98000 10.333
45.99000 16.237
46.00000 17.152
46.01000 21.240
46.02000 15.282
46.03000 17.266
46.04000 15.285
46.05000 16.150
46.06000 21.296
46.07000 16.258
46.08000 10.188
46.09000 23.269
46.10000 12.095
46.11000 25.348
46.12000 14.156
46.13000 20.290
46.14000 16.076
46.15000 12.169
46.16000 11.071
46.17000 12.114
46.18000 15.228
46.19000 17.291
46.20000 20.278
46.21000 15.212
46.22000 17.141
46.23000 12.162
46.24000 17.123
46.25000 16.141
46.26000 14.164
46.27000 14.164
46.28000 21.263
46.29000 19.237
46.30000 16.262
46.31000 16.199
46.32000 18.278
46.33000 14.379
46.34000 18.265
46.35000 18.194
46.36000 15.267
46.37000 15.195
46.38000 16.296
46.39000 12.094
46.40000 24.286
46.41000 16.181
46.42000 19.345
46.43000 21.435
46.44000 16.203
46.45000 13.310
46.46000 19.207
46.47000 14.131
46.48000 16.144
46.49000 18.287
46.50000 15.143
46.51000 20.202
46.52000 17.267
46.53000 13.105
46.54000 16.455
46.55000 15.001
46.56000 17.325
46.57000 20.010
46.58000 15.178
46.59000 10.008
46.60000 12.064
46.61000 19.085
46.62000 7.914
46.63000 15.228
46.64000 15.186
46.65000 24.118
46.66000 23.260
46.67000 16.306
46.68000 15.149
46.69000 18.274
46.70000 9.106
46.71000 20.140
46.72000 11.183
46.73000 12.218
46.74000 14.204
46.75000 12.035
46.76000 19.280
46.77000 11.092
46.78000 14.146
46.79000 14.145
46.80000 13.185
46.81000 20.413
46.82000 15.289
46.83000 14.159
46.84000 18.212
46.85000 21.408
46.86000 12.140
46.87000 9.249
46.88000 16.267
46.89000 13.166
46.90000 13.245
46.91000 20.169
46.92000 16.237
46.93000 14.039
46.94000 10.117
46.95000 16.264
46.96000 11.104
46.97000 14.074
46.98000 8.067
46.99000 17.198
47.00000 14.280
47.01000 8.107
47.02000 18.261
47.03000 17.186
47.04000 15.221
47.05000 14.180
47.06000 14.125
47.07000 6.140
47.08000 13.082
47.09000 11.171
47.10000 14.168
47.11000 11.175
47.12000 10.096
47.13000 8.146
47.14000 8.132
47.15000 16.243
47.16000 14.230
47.17000 7.037
47.18000 11.059
47.19000 8.020
47.20000 9.254
47.21000 17.177
47.22000 13.959
47.23000 21.273
47.24000 5.069
47.25000 16.106
47.26000 11.133
47.27000 10.096
47.28000 19.194
47.29000 18.282
47.30000 14.271
47.31000 11.073
47.32000 11.088
47.33000 16.245
47.34000 11.235
47.35000 18.347
47.36000 18.147
47.37000 12.052
47.38000 17.287
47.39000 16.338
47.40000 18.170
47.41000 5.041
47.42000 15.171
47.43000 15.114
47.44000 14.065
47.45000 11.201
47.46000 11.061
47.47000 20.395
47.48000 12.142
47.49000 18.167
47.50000 14.272
47.51000 9.032
47.52000 10.035
47.53000 17.096
47.54000 8.003
47.55000 16.070
47.56000 11.047
47.57000 15.067
47.58000 15.143
47.59000 15.271
47.60000 16.182
47.61000 10.289
47.62000 15.209
47.63000 14.136
47.64000 15.091
47.65000 13.072
47.66000 6.100
47.67000 13.331
47.68000 15.112
47.69000 5.088
47.70000 18.090
47.71000 9.077
47.72000 20.433
47.73000 18.089
47.74000 17.175
47.75000 15.131
47.76000 13.145
47.77000 10.109
47.78000 16.196
47.79000 6.002
47.80000 13.053
47.81000 18.273
47.82000 10.124
47.83000 14.059
47.84000 16.141
47.85000 11.247
47.86000 14.207
47.87000 6.123
47.88000 7.023
47.89000 6.033
47.90000 11.016
47.91000 19.247
47.92000 11.045
47.93000 13.305
47.94000 6.980
47.95000 13.202
47.96000 9.083
47.97000 18.259
47.98000 12.107
47.99000 12.203
48.00000 12.034
48.01000 23.394
48.02000 13.114
48.03000 12.058
48.04000 13.152
48.05000 22.328
48.06000 4.060
48.07000 6.186
48.08000 18.186
48.09000 11.343
48.10000 9.119
48.11000 9.114
48.12000 11.027
48.13000 11.230
48.14000 11.268
48.15000 16.118
48.16000 12.154
48.17000 17.108
48.18000 17.348
48.19000 16.193
48.20000 14.136
48.21000 14.003
48.22000 10.112
48.23000 13.116
48.24000 8.088
48.25000 13.225
48.26000 14.217
48.27000 12.115
48.28000 15.075
48.29000 14.166
48.30000 6.111
48.31000 16.266
48.32000 10.183
48.33000 14.197
48.34000 18.172
48.35000 6.132
48.36000 9.037
48.37000 11.194
48.38000 16.258
48.39000 18.207
48.40000 12.153
48.41000 8.032
48.42000 12.156
48.43000 13.262
48.44000 11.212
48.45000 12.212
48.46000 10.157
48.47000 12.153
48.48000 8.243
48.49000 15.153
48.50000 10.359
48.51000 5.968
48.52000 10.166
48.53000 12.185
48.54000 13.180
48.55000 4.074
48.56000 14.106
48.57000 8.069
48.58000 17.308
48.59000 13.013
48.60000 9.302
48.61000 10.078
48.62000 14.138
48.63000 17.212
48.64000 10.194
48.65000 17.185
48.66000 10.238
48.67000 16.326
48.68000 15.256
48.69000 13.249
48.70000 16.064
48.71000 13.203
48.72000 14.186
48.73000 13.118
48.74000 12.115
48.75000 10.174
48.76000 15.239
48.77000 13.040
48.78000 12.101
48.79000 16.291
48.80000 15.084
48.81000 14.150
48.82000 17.188
48.83000 14.235
48.84000 10.068
48.85000 14.199
48.86000 17.239
48.87000 13.105
48.88000 13.159
48.89000 7.126
48.90000 12.222
48.91000 16.272
48.92000 8.058
48.93000 11.998
48.94000 15.257
48.95000 8.174
48.96000 14.201
48.97000 22.185
48.98000 14.087
48.99000 13.131
49.00000 17.121
49.01000 11.051
49.02000 11.052
49.03000 18.328
49.04000 10.070
49.05000 12.282
49.06000 17.337
49.07000 10.112
49.08000 9.154
49.09000 14.303
49.10000 12.257
49.11000 9.036
49.12000 12.214
49.13000 13.192
49.14000 16.286
49.15000 11.303
49.16000 14.055
49.17000 11.102
49.18000 14.169
49.19000 13.286
49.20000 19.112
49.21000 7.070
49.22000 12.171
49.23000 10.131
49.24000 12.208
49.25000 11.013
49.26000 10.067
49.27000 16.117
49.28000 14.319
49.29000 9.245
49.30000 8.140
49.31000 12.128
49.32000 12.073
49.33000 12.193
49.34000 9.007
49.35000 10.151
49.36000 18.051
49.37000 6.988
49.38000 8.140
49.39000 16.156
49.40000 10.259
49.41000 19.230
49.42000 15.447
49.43000 11.240
49.44000 13.112
49.45000 13.091
49.46000 14.106
49.47000 16.063
49.48000 13.004
49.49000 8.003
49.50000 14.148
49.51000 15.102
49.52000 10.177
49.53000 10.989
49.54000 13.168
49.55000 11.282
49.56000 8.081
49.57000 10.272
49.58000 11.255
49.59000 13.075
49.60000 8.055
49.61000 11.192
49.62000 10.202
49.63000 5.011
49.64000 18.481
49.65000 17.208
49.66000 6.963
49.67000 8.997
49.68000 20.288
49.69000 10.989
49.70000 11.018
49.71000 12.021
49.72000 15.203
49.73000 13.128
49.74000 6.057
49.75000 14.332
49.76000 9.124
49.77000 8.182
49.78000 16.088
49.79000 13.279
49.80000 13.172
49.81000 16.290
49.82000 18.331
49.83000 13.249
49.84000 14.190
49.85000 18.257
49.86000 10.105
49.87000 11.123
49.88000 14.114
49.89000 12.236
49.90000 9.134
49.91000 15.146
49.92000 21.126
49.93000 17.106
49.94000 13.126
49.95000 11.121
49.96000 7.212
49.97000 9.143
49.98000 14.317
49.99000 6.958
50.00000 10.196
50.01000 9.193
50.02000 11.140
50.03000 9.080
50.04000 16.435
50.05000 17.291
50.06000 15.353
50.07000 10.098
50.08000 10.121
50.09000 10.159
50.10000 9.146
50.11000 19.477
50.12000 10.221
50.13000 12.210
50.14000 11.135
50.15000 11.112
50.16000 18.330
50.17000 13.221
50.18000 10.082
50.19000 13.193
50.20000 14.125
50.21000 23.329
50.22000 13.390
50.23000 16.483
50.24000 15.190
50.25000 14.330
50.26000 8.133
50.27000 19.236
50.28000 10.078
50.29000 11.118
50.30000 13.125
50.31000 13.051
50.32000 9.088
50.33000 10.171
50.34000 11.215
50.35000 15.283
50.36000 8.129
50.37000 9.189
50.38000 16.218
50.39000 9.128
50.40000 18.241
50.41000 12.033
50.42000 10.093
50.43000 19.209
50.44000 13.064
50.45000 8.124
50.46000 16.303
50.47000 8.140
50.48000 13.215
50.49000 11.292
50.50000 9.111
50.51000 10.075
50.52000 11.226
50.53000 7.140
50.54000 23.145
50.55000 10.063
50.56000 14.202
50.57000 10.129
50.58000 10.154
50.59000 11.071
50.60000 14.202
50.61000 14.147
50.62000 13.041
50.63000 18.058
50.64000 15.183
50.65000 12.092
50.66000 13.257
50.67000 11.071
50.68000 7.076
50.69000 11.216
50.70000 13.235
50.71000 11.154
50.72000 12.276
50.73000 20.293
50.74000 12.334
50.75000 12.299
50.76000 6.981
50.77000 13.236
50.78000 12.117
50.79000 5.079
50.80000 15.195
50.81000 11.012
50.82000 21.435
50.83000 15.110
50.84000 13.013
50.85000 24.419
50.86000 15.038
50.87000 11.050
50.88000 11.186
50.89000 19.389
50.90000 17.210
50.91000 18.337
50.92000 14.176
50.93000 13.189
50.94000 8.134
50.95000 12.177
50.96000 21.333
50.97000 21.402
50.98000 11.161
50.99000 6.028
51.00000 10.149
51.01000 10.158
51.02000 9.173
51.03000 9.181
51.04000 17.277
51.05000 15.283
51.06000 17.268
51.07000 15.261
51.08000 16.222
51.09000 14.176
51.10000 12.093
51.11000 16.204
51.12000 11.203
51.13000 13.193
51.14000 13.056
51.15000 11.237
51.16000 8.069
51.17000 13.133
51.18000 12.016
51.19000 15.269
51.20000 12.129
51.21000 14.219
51.22000 8.043
51.23000 11.123
51.24000 16.289
51.25000 8.022
51.26000 13.293
51.27000 10.035
51.28000 10.177
51.29000 14.172
51.30000 8.150
51.31000 15.125
51.32000 7.082
51.33000 12.320
51.34000 11.145
51.35000 10.237
51.36000 8.108
51.37000 16.223
51.38000 14.157
51.39000 10.058
51.40000 14.202
51.41000 11.102
51.42000 8.095
51.43000 16.302
51.44000 11.074
51.45000 16.144
51.46000 19.277
51.47000 14.201
51.48000 16.237
51.49000 12.006
51.50000 18.295
51.51000 11.207
51.52000 12.215
51.53000 12.292
51.54000 15.199
51.55000 11.230
51.56000 12.241
51.57000 11.069
51.58000 6.083
51.59000 16.204
51.60000 10.164
51.61000 18.383
51.62000 11.148
51.63000 11.145
51.64000 11.127
51.65000 18.297
51.66000 9.151
51.67000 16.213
51.68000 10.152
51.69000 15.231
51.70000 8.156
51.71000 8.078
51.72000 12.094
51.73000 8.170
51.74000 14.125
51.75000 12.151
51.76000 18.287
51.77000 13.107
51.78000 6.095
51.79000 15.325
51.80000 13.163
51.81000 14.128
51.82000 9.248
51.83000 15.129
51.84000 9.171
51.85000 12.134
51.86000 11.136
51.87000 5.013
51.88000 17.214
51.89000 13.009
51.90000 12.244
51.91000 6.180
51.92000 14.994
51.93000 10.063
51.94000 10.146
51.95000 15.194
51.96000 14.303
51.97000 9.135
51.98000 9.069
51.99000 13.123
52.00000 10.098
52.01000 14.120
52.02000 9.164
52.03000 11.043
52.04000 12.151
52.05000 11.122
52.06000 11.172
52.07000 11.149
52.08000 3.985
52.09000 10.122
52.10000 17.137
52.11000 15.181
52.12000 16.298
52.13000 11.101
52.14000 10.122
52.15000 10.165
52.16000 15.180
52.17000 15.072
52.18000 9.089
52.19000 11.141
52.20000 9.203
52.21000 18.265
52.22000 10.131
52.23000 12.119
52.24000 14.057
52.25000 12.030
52.26000 14.235
52.27000 12.252
52.28000 18.120
52.29000 10.087
52.30000 14.469
52.31000 14.105
52.32000 5.067
52.33000 10.213
52.34000 13.171
52.35000 9.114
52.36000 11.161
52.37000 12.117
52.38000 18.330
52.39000 9.037
52.40000 16.066
52.41000 14.314
52.42000 12.097
52.43000 10.207
52.44000 15.197
52.45000 9.135
52.46000 11.186
52.47000 13.152
52.48000 14.219
52.49000 10.063
52.50000 11.202
52.51000 11.172
52.52000 10.116
52.53000 15.257
52.54000 12.114
52.55000 10.107
52.56000 10.116
52.57000 11.003
52.58000 12.164
52.59000 10.143
52.60000 8.077
52.61000 13.296
52.62000 11.068
52.63000 9.039
52.64000 11.251
52.65000 12.167
52.66000 11.148
52.67000 8.142
52.68000 10.149
52.69000 5.057
52.70000 8.135
52.71000 14.116
52.72000 12.154
52.73000 7.145
52.74000 12.245
52.75000 10.232
52.76000 10.128
52.77000 14.278
52.78000 8.076
52.79000 10.043
52.80000 13.169
52.81000 4.008
52.82000 11.185
52.83000 12.177
52.84000 13.201
52.85000 9.031
52.86000 12.227
52.87000 7.020
52.88000 15.263
52.89000 14.182
52.90000 7.088
52.91000 13.172
52.92000 6.044
52.93000 8.082
52.94000 10.143
52.95000 13.170
52.96000 10.173
52.97000 11.101
52.98000 12.076
52.99000 11.205
53.00000 10.159
53.01000 12.075
53.02000 14.212
53.03000 13.327
53.04000 10.164
53.05000 17.401
53.06000 12.165
53.07000 8.057
53.08000 12.172
53.09000 13.206
53.10000 10.140
53.11000 11.264
53.12000 5.056
53.13000 15.290
53.14000 9.046
53.15000 8.179
53.16000 7.097
53.17000 9.039
53.18000 14.316
53.19000 12.045
53.20000 11.234
53.21000 7.130
53.22000 11.166
53.23000 13.070
53.24000 11.968
53.25000 9.213
53.26000 10.173
53.27000 9.206
53.28000 11.001
53.29000 9.245
53.30000 18.220
53.31000 7.104
53.32000 8.139
53.33000 19.181
53.34000 12.204
53.35000 13.169
53.36000 15.180
53.37000 10.161
53.38000 10.031
53.39000 13.110
53.40000 17.180
53.41000 16.270
53.42000 5.021
53.43000 8.156
53.44000 9.123
53.45000 14.236
53.46000 11.121
53.47000 13.212
53.48000 11.097
53.49000 6.097
53.50000 11.192
53.51000 9.087
53.52000 13.076
53.53000 7.123
53.54000 11.395
53.55000 14.264
53.56000 10.091
53.57000 16.225
53.58000 22.393
53.59000 5.023
53.60000 11.088
53.61000 9.095
53.62000 15.232
53.63000 13.168
53.64000 10.070
53.65000 15.028
53.66000 15.172
53.67000 10.105
53.68000 13.350
53.69000 13.109
53.70000 9.177
53.71000 7.032
53.72000 14.338
53.73000 5.039
53.74000 8.056
53.75000 9.061
53.76000 11.193
53.77000 14.188
53.78000 19.104
53.79000 16.148
53.80000 14.130
53.81000 12.051
53.82000 16.209
53.83000 9.083
53.84000 12.103
53.85000 13.061
53.86000 15.144
53.87000 10.182
53.88000 13.246
53.89000 16.276
53.90000 9.087
53.91000 11.079
53.92000 7.193
53.93000 11.062
53.94000 7.098
53.95000 12.992
53.96000 11.192
53.97000 11.190
53.98000 7.077
53.99000 6.060
54.00000 16.138
54.01000 14.283
54.02000 19.105
54.03000 16.308
54.04000 8.136
54.05000 12.009
54.06000 8.970
54.07000 17.231
54.08000 9.162
54.09000 12.149
54.10000 7.202
54.11000 10.075
54.12000 11.109
54.13000 9.129
54.14000 12.195
54.15000 16.177
54.16000 6.030
54.17000 5.074
54.18000 13.204
54.19000 13.187
54.20000 7.210
54.21000 6.061
54.22000 8.144
54.23000 12.283
54.24000 12.192
54.25000 11.147
54.26000 9.146
54.27000 6.961
54.28000 10.105
54.29000 12.381
54.30000 12.228
54.31000 8.096
54.32000 8.130
54.33000 11.338
54.34000 10.070
54.35000 15.231
54.36000 6.136
54.37000 19.269
54.38000 12.262
54.39000 5.047
54.40000 13.063
54.41000 8.058
54.42000 9.074
54.43000 14.351
54.44000 8.050
54.45000 10.164
54.46000 11.116
54.47000 8.014
54.48000 10.221
54.49000 8.987
54.50000 12.106
54.51000 18.139
54.52000 7.057
54.53000 13.224
54.54000 8.151
54.55000 14.072
54.56000 10.124
54.57000 15.049
54.58000 11.135
54.59000 14.960
54.60000 9.182
54.61000 13.243
54.62000 7.059
54.63000 5.937
54.64000 6.068
54.65000 10.247
54.66000 15.124
54.67000 10.067
54.68000 14.159
54.69000 13.051
54.70000 16.152
54.71000 14.149
54.72000 11.971
54.73000 12.255
54.74000 9.072
54.75000 8.034
54.76000 12.098
54.77000 7.940
54.78000 6.999
54.79000 12.162
54.80000 11.131
54.81000 9.068
54.82000 13.029
54.83000 13.200
54.84000 12.226
54.85000 11.063
54.86000 8.027
54.87000 14.101
54.88000 7.035
54.89000 11.099
54.90000 6.148
54.91000 5.112
54.92000 13.115
54.93000 12.156
54.94000 12.185
54.95000 10.194
54.96000 7.958
54.97000 12.179
54.98000 7.049
54.99000 3.124
55.00000 12.236
55.01000 6.111
55.02000 7.057
55.03000 8.117
55.04000 12.083
55.05000 15.216
55.06000 15.205
55.07000 13.152
55.08000 16.285
55.09000 6.055
55.10000 6.986
55.11000 10.148
55.12000 9.081
55.13000 13.165
55.14000 12.260
55.15000 15.282
55.16000 10.150
55.17000 8.118
55.18000 12.282
55.19000 12.080
55.20000 6.128
55.21000 9.170
55.22000 7.108
55.23000 13.162
55.24000 11.076
55.25000 10.115
55.26000 18.434
55.27000 13.168
55.28000 5.054
55.29000 8.106
55.30000 11.085
55.31000 11.152
55.32000 14.361
55.33000 13.146
55.34000 9.117
55.35000 12.256
55.36000 12.154
55.37000 8.026
55.38000 11.172
55.39000 10.131
55.40000 8.045
55.41000 14.143
55.42000 10.065
55.43000 13.165
55.44000 13.201
55.45000 6.127
55.46000 8.218
55.47000 11.031
55.48000 9.217
55.49000 13.173
55.50000 14.041
55.51000 12.032
55.52000 11.936
55.53000 17.198
55.54000 10.085
55.55000 6.971
55.56000 10.150
55.57000 14.177
55.58000 14.147
55.59000 12.200
55.60000 6.055
55.61000 5.157
55.62000 8.170
55.63000 9.147
55.64000 11.118
55.65000 12.047
55.66000 10.196
55.67000 14.292
55.68000 13.258
55.69000 12.113
55.70000 11.058
55.71000 6.116
55.72000 10.100
55.73000 9.179
55.74000 17.135
55.75000 13.184
55.76000 12.016
55.77000 13.202
55.78000 4.947
55.79000 15.110
55.80000 13.110
55.81000 9.108
55.82000 10.213
55.83000 3.062
55.84000 11.072
55.85000 8.282
55.86000 14.097
55.87000 12.320
55.88000 5.162
55.89000 11.005
55.90000 10.139
55.91000 16.086
55.92000 8.016
55.93000 14.257
55.94000 13.382
55.95000 12.195
55.96000 11.144
55.97000 10.097
55.98000 8.072
55.99000 8.161
56.00000 6.119
56.01000 7.075
56.02000 17.085
56.03000 7.126
56.04000 18.175
56.05000 9.024
56.06000 7.076
56.07000 7.117
56.08000 9.124
56.09000 5.012
56.10000 15.202
56.11000 13.181
56.12000 11.247
56.13000 11.026
56.14000 12.154
56.15000 7.174
56.16000 12.101
56.17000 14.168
56.18000 13.210
56.19000 9.270
56.20000 10.243
56.21000 11.191
56.22000 8.006
56.23000 9.112
56.24000 9.126
56.25000 10.177
56.26000 10.250
56.27000 12.381
56.28000 6.047
56.29000 6.133
56.30000 12.115
56.31000 13.981
56.32000 9.257
56.33000 11.056
56.34000 14.123
56.35000 7.060
56.36000 13.191
56.37000 11.169
56.38000 8.073
56.39000 7.179
56.40000 13.365
56.41000 11.039
56.42000 11.061
56.43000 17.125
56.44000 15.155
56.45000 10.182
56.46000 10.195
56.47000 15.387
56.48000 11.107
56.49000 8.002
56.50000 8.060
56.51000 12.008
56.52000 10.030
56.53000 3.082
56.54000 19.338
56.55000 9.113
56.56000 5.053
56.57000 7.984
56.58000 8.036
56.59000 14.107
56.60000 8.222
56.61000 10.370
56.62000 6.998
56.63000 8.166
56.64000 5.087
56.65000 10.139
56.66000 6.131
56.67000 6.948
56.68000 9.067
56.69000 13.315
56.70000 11.154
56.71000 12.144
56.72000 12.213
56.73000 5.044
56.74000 11.040
56.75000 4.003
56.76000 7.112
56.77000 8.091
56.78000 7.109
56.79000 12.202
56.80000 10.144
56.81000 12.156
56.82000 18.228
56.83000 8.060
56.84000 7.192
56.85000 15.187
56.86000 12.158
56.87000 8.033
56.88000 6.026
56.89000 3.998
56.90000 11.064
56.91000 6.021
56.92000 6.041
56.93000 11.139
56.94000 12.242
56.95000 14.018
56.96000 7.124
56.97000 10.141
56.98000 11.157
56.99000 10.165
57.00000 8.027
57.01000 12.155
57.02000 13.102
57.03000 7.167
57.04000 11.236
57.05000 11.115
57.06000 8.104
57.07000 10.126
57.08000 10.009
57.09000 4.057
57.10000 9.185
57.11000 10.226
57.12000 7.146
57.13000 13.067
57.14000 10.088
57.15000 8.160
57.16000 13.279
57.17000 4.021
57.18000 15.133
57.19000 10.029
57.20000 11.153
57.21000 7.092
57.22000 9.252
57.23000 8.229
57.24000 5.056
57.25000 14.153
57.26000 18.274
57.27000 10.139
57.28000 6.968
57.29000 8.096
57.30000 14.195
57.31000 14.233
57.32000 12.138
57.33000 10.239
57.34000 7.145
57.35000 15.342
57.36000 8.128
57.37000 16.072
57.38000 14.087
57.39000 12.156
57.40000 11.070
57.41000 10.147
57.42000 15.164
57.43000 18.179
57.44000 6.131
57.45000 6.974
57.46000 12.233
57.47000 9.048
57.48000 13.121
57.49000 15.170
57.50000 7.144
57.51000 18.312
57.52000 9.213
57.53000 15.202
57.54000 8.256
57.55000 14.210
57.56000 9.143
57.57000 8.049
57.58000 13.146
57.59000 16.096
57.60000 6.123
57.61000 11.049
57.62000 6.977
57.63000 8.109
57.64000 12.090
57.65000 15.196
57.66000 14.235
57.67000 14.086
57.68000 17.298
57.69000 10.933
57.70000 8.154
57.71000 14.228
57.72000 9.079
57.73000 4.016
57.74000 7.156
57.75000 11.108
57.76000 12.114
57.77000 14.117
57.78000 7.092
57.79000 11.149
57.80000 10.133
57.81000 13.085
57.82000 15.269
57.83000 10.191
57.84000 13.239
57.85000 13.136
57.86000 8.091
57.87000 11.075
57.88000 14.146
57.89000 6.089
57.90000 9.051
57.91000 7.092
57.92000 9.151
57.93000 10.231
57.94000 10.123
57.95000 11.162
57.96000 10.278
57.97000 14.205
57.98000 10.016
57.99000 15.254
58.00000 11.103
58.01000 6.059
58.02000 13.282
58.03000 10.056
58.04000 14.221
58.05000 11.318
58.06000 6.132
58.07000 11.047
58.08000 15.111
58.09000 10.042
58.10000 16.245
58.11000 8.171
58.12000 13.079
58.13000 10.204
58.14000 8.048
58.15000 10.064
58.16000 8.179
58.17000 11.185
58.18000 10.116
58.19000 10.093
58.20000 6.074
58.21000 9.268
58.22000 14.141
58.23000 2.016
58.24000 10.158
58.25000 10.319
58.26000 17.273
58.27000 6.079
58.28000 4.107
58.29000 10.999
58.30000 11.118
58.31000 9.196
58.32000 13.211
58.33000 6.114
58.34000 9.044
58.35000 10.024
58.36000 9.133
58.37000 6.060
58.38000 9.056
58.39000 7.062
58.40000 10.224
58.41000 4.993
58.42000 13.091
58.43000 9.057
58.44000 12.131
58.45000 8.147
58.46000 15.216
58.47000 12.097
58.48000 14.238
58.49000 9.048
58.50000 10.251
58.51000 5.032
58.52000 7.116
58.53000 16.297
58.54000 7.038
58.55000 8.985
58.56000 18.206
58.57000 13.117
58.58000 4.993
58.59000 12.094
58.60000 13.957
58.61000 13.160
58.62000 3.999
58.63000 2.049
58.64000 11.203
58.65000 7.109
58.66000 9.076
58.67000 16.176
58.68000 11.229
58.69000 10.187
58.70000 7.084
58.71000 7.197
58.72000 5.073
58.73000 12.145
58.74000 11.330
58.75000 10.138
58.76000 12.233
58.77000 10.063
58.78000 17.358
58.79000 8.055
58.80000 12.098
58.81000 10.032
58.82000 7.048
58.83000 10.177
58.84000 11.078
58.85000 7.094
58.86000 11.281
58.87000 10.111
58.88000 6.092
58.89000 8.080
58.90000 9.024
58.91000 10.124
58.92000 9.177
58.93000 13.267
58.94000 9.174
58.95000 3.086
58.96000 9.187
58.97000 11.021
58.98000 14.311
58.99000 5.028
59.00000 6.096
59.01000 10.997
59.02000 9.116
59.03000 8.071
59.04000 5.003
59.05000 5.040
59.06000 11.131
59.07000 9.063
59.08000 6.178
59.09000 12.218
59.10000 7.055
59.11000 7.216
59.12000 7.029
59.13000 11.134
59.14000 5.012
59.15000 5.998
59.16000 7.054
59.17000 7.147
59.18000 10.097
59.19000 7.089
59.20000 7.095
59.21000 9.163
59.22000 4.039
59.23000 13.116
59.24000 6.066
59.25000 11.102
59.26000 0.992
59.27000 5.105
59.28000 6.046
59.29000 7.169
59.30000 10.126
59.31000 8.099
59.32000 7.077
59.33000 7.143
59.34000 12.972
59.35000 9.031
59.36000 9.131
59.37000 10.171
59.38000 13.228
59.39000 10.252
59.40000 10.087
59.41000 11.167
59.42000 4.047
59.43000 5.084
59.44000 4.045
59.45000 13.131
59.46000 10.011
59.47000 13.190
59.48000 6.096
59.49000 11.095
59.50000 7.948
59.51000 7.206
59.52000 10.054
59.53000 8.077
59.54000 14.965
59.55000 11.226
59.56000 8.198
59.57000 6.174
59.58000 10.160
59.59000 9.090
59.60000 6.002
59.61000 10.146
59.62000 14.231
59.63000 5.126
59.64000 16.154
59.65000 6.088
59.66000 6.927
59.67000 14.146
59.68000 5.224
59.69000 6.090
59.70000 7.984
59.71000 6.049
59.72000 9.990
59.73000 8.070
59.74000 10.235
59.75000 11.198
59.76000 8.092
59.77000 8.186
59.78000 9.063
59.79000 7.109
59.80000 8.081
59.81000 6.020
59.82000 6.105
59.83000 10.201
59.84000 4.011
59.85000 9.141
59.86000 3.050
59.87000 12.208
59.88000 19.263
59.89000 7.110
59.90000 3.948
59.91000 8.175
59.92000 8.046
59.93000 13.245
59.94000 7.072
59.95000 12.073
59.96000 8.124
59.97000 7.122
59.98000 13.268
59.99000 6.100
60.00000 8.021
60.01000 14.115
60.02000 16.122
60.03000 8.064
60.04000 3.201
60.05000 5.069
60.06000 9.147
60.07000 5.043
60.08000 9.164
60.09000 8.075
60.10000 7.048
60.11000 11.170
60.12000 11.199
60.13000 12.144
60.14000 5.132
60.15000 10.064
60.16000 10.237
60.17000 11.135
60.18000 10.055
60.19000 5.985
60.20000 10.084
60.21000 8.020
60.22000 9.240
60.23000 5.047
60.24000 4.972
60.25000 15.352
60.26000 1.009
60.27000 11.221
60.28000 12.160
60.29000 12.086
60.30000 10.091
60.31000 8.218
60.32000 11.276
60.33000 9.031
60.34000 7.048
60.35000 5.107
60.36000 8.014
60.37000 7.999
60.38000 9.025
60.39000 4.104
60.40000 9.065
60.41000 6.071
60.42000 11.251
60.43000 10.102
60.44000 12.012
60.45000 5.065
60.46000 11.156
60.47000 7.118
60.48000 5.005
60.49000 3.031
60.50000 7.081
60.51000 6.107
60.52000 11.174
60.53000 11.196
60.54000 14.162
60.55000 8.165
60.56000 10.282
60.57000 11.041
60.58000 6.047
60.59000 11.159
60.60000 6.101
60.61000 8.045
60.62000 3.046
60.63000 5.169
60.64000 6.961
60.65000 5.113
60.66000 7.098
60.67000 11.074
60.68000 10.187
60.69000 9.172
60.70000 8.078
60.71000 9.218
60.72000 9.050
60.73000 9.141
60.74000 10.359
60.75000 7.100
60.76000 8.919
60.77000 10.116
60.78000 4.004
60.79000 9.097
60.80000 10.268
60.81000 6.071
60.82000 9.201
60.83000 10.186
60.84000 6.039
60.85000 15.368
60.86000 7.110
60.87000 8.209
60.88000 9.145
60.89000 4.068
60.90000 12.117
60.91000 8.127
60.92000 9.232
60.93000 8.106
60.94000 3.103
60.95000 16.293
60.96000 9.130
60.97000 13.340
60.98000 6.034
60.99000 12.021
61.00000 11.151
61.01000 7.075
61.02000 6.054
61.03000 5.938
61.04000 12.253
61.05000 10.076
61.06000 8.019
61.07000 8.037
61.08000 13.279
61.09000 7.179
61.10000 12.074
61.11000 10.132
61.12000 5.986
61.13000 4.111
61.14000 4.032
61.15000 7.080
61.16000 7.044
61.17000 12.045
61.18000 9.088
61.19000 5.189
61.20000 9.176
61.21000 5.991
61.22000 9.127
61.23000 8.084
61.24000 9.954
61.25000 4.078
61.26000 4.070
61.27000 8.002
61.28000 8.053
61.29000 14.142
61.30000 9.031
61.31000 7.033
61.32000 7.152
61.33000 9.256
61.34000 3.976
61.35000 7.177
61.36000 4.028
61.37000 9.168
61.38000 10.044
61.39000 8.253
61.40000 3.037
61.41000 6.086
61.42000 5.061
61.43000 4.121
61.44000 8.074
61.45000 6.984
61.46000 10.013
61.47000 5.066
61.48000 12.219
61.49000 6.114
61.50000 12.390
61.51000 11.161
61.52000 6.057
61.53000 5.036
61.54000 11.052
61.55000 5.035
61.56000 6.038
61.57000 8.196
61.58000 9.147
61.59000 7.093
61.60000 14.077
61.61000 6.157
61.62000 13.083
61.63000 8.057
61.64000 10.095
61.65000 7.054
61.66000 8.139
61.67000 8.039
61.68000 4.057
61.69000 9.036
61.70000 8.043
61.71000 7.114
61.72000 7.032
61.73000 11.150
61.74000 10.142
61.75000 10.975
61.76000 11.240
61.77000 4.007
61.78000 12.217
61.79000 4.023
61.80000 6.145
61.81000 11.243
61.82000 4.009
61.83000 5.082
61.84000 11.107
61.85000 5.054
61.86000 9.965
61.87000 7.092
61.88000 7.106
61.89000 9.121
61.90000 7.092
61.91000 9.038
61.92000 6.110
61.93000 7.162
61.94000 6.117
61.95000 8.148
61.96000 12.157
61.97000 8.962
61.98000 8.081
61.99000 6.113
62.00000 10.184
62.01000 7.974
62.02000 5.080
62.03000 9.109
62.04000 4.026
62.05000 7.036
62.06000 9.007
62.07000 6.068
62.08000 6.000
62.09000 9.176
62.10000 7.114
62.11000 7.042
62.12000 8.066
62.13000 7.161
62.14000 8.167
62.15000 8.100
62.16000 14.204
62.17000 10.070
62.18000 12.181
62.19000 6.261
62.20000 6.138
62.21000 7.087
62.22000 9.199
62.23000 10.272
62.24000 10.206
62.25000 8.055
62.26000 6.065
62.27000 10.113
62.28000 11.175
62.29000 10.192
62.30000 6.108
62.31000 8.153
62.32000 6.054
62.33000 8.124
62.34000 6.038
62.35000 11.240
62.36000 9.129
62.37000 8.147
62.38000 10.081
62.39000 3.142
62.40000 8.059
62.41000 6.109
62.42000 12.249
62.43000 2.001
62.44000 6.105
62.45000 4.132
62.46000 4.068
62.47000 9.133
62.48000 11.019
62.49000 6.130
62.50000 5.076
62.51000 7.151
62.52000 9.216
62.53000 9.103
62.54000 11.156
62.55000 6.152
62.56000 6.028
62.57000 9.053
62.58000 9.244
62.59000 11.134
62.60000 10.096
62.61000 9.092
62.62000 9.122
62.63000 6.139
62.64000 4.114
62.65000 11.156
62.66000 11.188
62.67000 6.020
62.68000 6.068
62.69000 9.129
62.70000 8.079
62.71000 3.997
62.72000 5.976
62.73000 7.141
62.74000 4.051
62.75000 4.979
62.76000 6.113
62.77000 6.043
62.78000 8.193
62.79000 3.056
62.80000 9.130
62.81000 6.171
62.82000 5.180
62.83000 7.074
62.84000 6.034
62.85000 5.058
62.86000 5.052
62.87000 3.043
62.88000 5.061
62.89000 6.109
62.90000 6.174
62.91000 8.080
62.92000 8.045
62.93000 7.117
62.94000 8.076
62.95000 14.116
62.96000 12.036
62.97000 6.122
62.98000 6.026
62.99000 4.139
63.00000 6.124
63.01000 10.061
63.02000 8.158
63.03000 16.151
63.04000 9.129
63.05000 3.054
63.06000 9.112
63.07000 9.056
63.08000 7.210
63.09000 8.016
63.10000 7.030
63.11000 8.178
63.12000 7.070
63.13000 9.159
63.14000 3.042
63.15000 12.058
63.16000 11.109
63.17000 9.200
63.18000 9.043
63.19000 4.005
63.20000 5.025
63.21000 10.086
63.22000 7.084
63.23000 12.010
63.24000 7.105
63.25000 9.026
63.26000 11.100
63.27000 7.114
63.28000 7.148
63.29000 8.190
63.30000 3.049
63.31000 3.981
63.32000 11.109
63.33000 11.111
63.34000 4.023
63.35000 10.258
63.36000 1.997
63.37000 9.149
63.38000 7.187
63.39000 8.117
63.40000 13.132
63.41000 3.077
63.42000 8.097
63.43000 10.285
63.44000 6.014
63.45000 11.085
63.46000 6.021
63.47000 8.154
63.48000 8.082
63.49000 9.099
63.50000 10.026
63.51000 4.058
63.52000 6.028
63.53000 7.111
63.54000 7.109
63.55000 11.182
63.56000 8.223
63.57000 12.228
63.58000 7.112
63.59000 6.041
63.60000 7.271
63.61000 7.135
63.62000 2.050
63.63000 9.065
63.64000 11.262
63.65000 3.064
63.66000 7.021
63.67000 4.061
63.68000 5.000
63.69000 6.129
63.70000 13.148
63.71000 10.150
63.72000 3.026
63.73000 7.125
63.74000 8.076
63.75000 12.084
63.76000 10.062
63.77000 5.035
63.78000 6.102
63.79000 8.095
63.80000 12.025
63.81000 9.038
63.82000 14.083
63.83000 15.210
63.84000 10.074
63.85000 7.940
63.86000 14.093
63.87000 13.942
63.88000 9.060
63.89000 12.057
63.90000 6.179
63.91000 7.046
63.92000 9.135
63.93000 8.104
63.94000 5.017
63.95000 9.147
63.96000 5.980
63.97000 11.154
63.98000 7.077
63.99000 4.015
64.00000 2.043
64.01000 6.114
64.02000 6.144
64.03000 9.138
64.04000 4.016
64.05000 11.120
64.06000 7.056
64.07000 10.115
64.08000 8.061
64.09000 9.200
64.10000 4.060
64.11000 5.028
64.12000 10.188
64.13000 4.050
64.14000 7.984
64.15000 7.097
64.16000 11.209
64.17000 6.136
64.18000 2.960
64.19000 7.906
64.20000 12.129
64.21000 10.110
64.22000 4.089
64.23000 14.231
64.24000 11.194
64.25000 8.224
64.26000 11.036
64.27000 11.187
64.28000 9.107
64.29000 5.057
64.30000 6.100
64.31000 9.211
64.32000 5.124
64.33000 7.247
64.34000 6.976
64.35000 9.034
64.36000 8.020
64.37000 11.050
64.38000 7.069
64.39000 4.128
64.40000 5.076
64.41000 10.158
64.42000 2.977
64.43000 3.998
64.44000 6.048
64.45000 13.201
64.46000 3.045
64.47000 7.009
64.48000 6.002
64.49000 7.109
64.50000 7.195
64.51000 8.096
64.52000 10.180
64.53000 9.109
64.54000 3.049
64.55000 6.921
64.56000 3.033
64.57000 7.141
64.58000 8.214
64.59000 10.185
64.60000 10.130
64.61000 6.154
64.62000 5.120
64.63000 7.139
64.64000 10.058
64.65000 11.209
64.66000 9.998
64.67000 11.215
64.68000 8.136
64.69000 4.054
64.70000 10.152
64.71000 6.994
64.72000 11.153
64.73000 8.020
64.74000 12.071
64.75000 10.232
64.76000 11.071
64.77000 2.995
64.78000 8.212
64.79000 10.032
64.80000 10.190
64.81000 9.123
64.82000 7.111
64.83000 8.152
64.84000 6.988
64.85000 14.188
64.86000 4.039
64.87000 7.040
64.88000 9.057
64.89000 6.128
64.90000 5.052
64.91000 11.166
64.92000 3.990
64.93000 4.034
64.94000 10.039
64.95000 13.342
64.96000 7.047
64.97000 5.075
64.98000 12.091
64.99000 8.162
65.00000 7.090
