20.00000 17.297
20.01000 15.164
20.02000 20.315
20.03000 12.196
20.04000 23.162
20.05000 18.338
20.06000 20.160
20.07000 21.125
20.08000 13.202
20.09000 21.118
20.10000 18.245
20.11000 20.028
20.12000 23.297
20.13000 24.209
20.14000 18.121
20.15000 12.353
20.16000 19.270
20.17000 22.198
20.18000 22.388
20.19000 24.318
20.20000 19.225
20.21000 20.101
20.22000 21.337
20.23000 21.234
20.24000 19.412
20.25000 19.292
20.26000 20.328
20.27000 22.130
20.28000 15.076
20.29000 24.298
20.30000 15.219
20.31000 14.109
20.32000 24.182
20.33000 13.165
20.34000 19.257
20.35000 17.110
20.36000 12.145
20.37000 26.457
20.38000 19.064
20.39000 19.166
20.40000 20.286
20.41000 16.147
20.42000 21.275
20.43000 23.223
20.44000 16.203
20.45000 19.196
20.46000 15.369
20.47000 18.323
20.48000 13.066
20.49000 22.113
20.50000 17.133
20.51000 12.059
20.52000 31.397
20.53000 27.336
20.54000 20.238
20.55000 21.020
20.56000 19.249
20.57000 14.208
20.58000 14.367
20.59000 24.241
20.60000 11.231
20.61000 12.342
20.62000 17.210
20.63000 13.286
20.64000 9.096
20.65000 20.246
20.66000 22.164
20.67000 19.528
20.68000 18.287
20.69000 24.304
20.70000 14.186
20.71000 22.141
20.72000 17.189
20.73000 12.071
20.74000 12.167
20.75000 20.330
20.76000 21.266
20.77000 23.366
20.78000 21.356
20.79000 21.393
20.80000 15.466
20.81000 19.311
20.82000 19.198
20.83000 24.439
20.84000 15.292
20.85000 17.253
20.86000 19.381
20.87000 31.476
20.88000 21.344
20.89000 20.194
20.90000 21.106
20.91000 28.462
20.92000 24.620
20.93000 23.479
20.94000 14.125
20.95000 24.206
20.96000 22.353
20.97000 18.382
20.98000 17.183
20.99000 21.330
21.00000 17.244
21.01000 18.302
21.02000 17.231
21.03000 25.376
21.04000 19.017
21.05000 22.300
21.06000 22.307
21.07000 21.537
21.08000 15.215
21.09000 27.396
21.10000 15.174
21.11000 25.395
21.12000 17.057
21.13000 19.305
21.14000 18.455
21.15000 19.084
21.16000 18.273
21.17000 17.312
21.18000 20.291
21.19000 22.417
21.20000 20.156
21.21000 19.360
21.22000 28.207
21.23000 23.296
21.24000 29.293
21.25000 19.249
21.26000 15.219
21.27000 18.274
21.28000 23.278
21.29000 17.165
21.30000 20.351
21.31000 22.263
21.32000 23.480
21.33000 23.306
21.34000 19.275
21.35000 26.286
21.36000 19.223
21.37000 19.257
21.38000 22.616
21.39000 26.295
21.40000 24.457
21.41000 19.256
21.42000 19.454
21.43000 23.122
21.44000 23.111
21.45000 12.240
21.46000 17.156
21.47000 22.188
21.48000 18.352
21.49000 18.335
21.50000 12.166
21.51000 18.226
21.52000 26.300
21.53000 20.516
21.54000 32.297
21.55000 17.275
21.56000 21.188
21.57000 19.171
21.58000 30.446
21.59000 16.342
21.60000 22.458
21.61000 21.519
21.62000 20.413
21.63000 16.421
21.64000 30.451
21.65000 20.232
21.66000 14.292
21.67000 17.200
21.68000 21.252
21.69000 24.435
21.70000 29.504
21.71000 15.178
21.72000 27.441
21.73000 37.917
21.74000 22.315
21.75000 18.250
21.76000 22.463
21.77000 16.221
21.78000 26.511
21.79000 17.243
21.80000 21.206
21.81000 19.204
21.82000 22.501
21.83000 22.461
21.84000 18.156
21.85000 21.066
21.86000 24.387
21.87000 22.288
21.88000 19.192
21.89000 25.479
21.90000 22.386
21.91000 13.070
21.92000 27.300
21.93000 23.532
21.94000 24.311
21.95000 23.230
21.96000 29.347
21.97000 25.198
21.98000 23.272
21.99000 21.342
22.00000 24.302
22.01000 24.194
22.02000 18.321
22.03000 24.428
22.04000 26.445
22.05000 25.043
22.06000 22.138
22.07000 32.326
22.08000 27.275
22.09000 25.227
22.10000 27.130
22.11000 26.238
22.12000 20.251
22.13000 26.484
22.14000 23.397
22.15000 26.328
22.16000 16.239
22.17000 25.291
22.18000 15.312
22.19000 20.343
22.20000 12.167
22.21000 24.588
22.22000 33.528
22.23000 20.227
22.24000 23.570
22.25000 21.198
22.26000 24.449
22.27000 19.326
22.28000 29.628
22.29000 32.443
22.30000 33.432
22.31000 25.437
22.32000 20.321
22.33000 16.317
22.34000 22.400
22.35000 32.353
22.36000 26.178
22.37000 22.361
22.38000 34.506
22.39000 18.035
22.40000 24.098
22.41000 16.270
22.42000 26.203
22.43000 23.410
22.44000 29.433
22.45000 18.136
22.46000 21.016
22.47000 17.399
22.48000 28.524
22.49000 26.445
22.50000 32.574
22.51000 19.097
22.52000 33.444
22.53000 20.296
22.54000 26.378
22.55000 26.442
22.56000 26.269
22.57000 22.242
22.58000 28.533
22.59000 20.211
22.60000 22.464
22.61000 25.293
22.62000 18.253
22.63000 21.442
22.64000 31.645
22.65000 19.124
22.66000 28.389
22.67000 23.351
22.68000 25.263
22.69000 37.259
22.70000 29.139
22.71000 31.325
22.72000 22.333
22.73000 21.341
22.74000 23.212
22.75000 23.214
22.76000 26.477
22.77000 32.481
22.78000 31.586
22.79000 24.232
22.80000 25.286
22.81000 23.378
22.82000 33.600
22.83000 28.158
22.84000 33.414
22.85000 28.463
22.86000 31.338
22.87000 24.248
22.88000 27.340
22.89000 20.123
22.90000 24.322
22.91000 32.595
22.92000 25.244
22.93000 24.263
22.94000 21.264
22.95000 27.427
22.96000 27.394
22.97000 37.554
22.98000 26.684
22.99000 29.328
23.00000 30.560
23.01000 25.281
23.02000 29.294
23.03000 26.369
23.04000 29.289
23.05000 26.477
23.06000 19.977
23.07000 24.330
23.08000 23.111
23.09000 29.577
23.10000 20.213
23.11000 21.165
23.12000 24.285
23.13000 17.208
23.14000 36.621
23.15000 27.459
23.16000 28.503
23.17000 30.480
23.18000 26.485
23.19000 33.722
23.20000 23.400
23.21000 23.283
23.22000 16.102
23.23000 33.180
23.24000 27.314
23.25000 36.417
23.26000 29.478
23.27000 33.610
23.28000 25.203
23.29000 29.434
23.30000 37.544
23.31000 18.257
23.32000 27.491
23.33000 28.962
23.34000 18.437
23.35000 23.485
23.36000 27.315
23.37000 26.697
23.38000 26.252
23.39000 19.292
23.40000 25.431
23.41000 23.244
23.42000 22.140
23.43000 22.171
23.44000 19.395
23.45000 27.294
23.46000 32.438
23.47000 21.239
23.48000 32.371
23.49000 35.739
23.50000 29.292
23.51000 26.349
23.52000 25.273
23.53000 27.375
23.54000 22.454
23.55000 37.386
23.56000 28.103
23.57000 29.279
23.58000 22.255
23.59000 39.416
23.60000 26.377
23.61000 21.204
23.62000 23.368
23.63000 28.417
23.64000 25.247
23.65000 34.412
23.66000 26.264
23.67000 21.290
23.68000 23.254
23.69000 26.178
23.70000 32.228
23.71000 26.170
23.72000 39.329
23.73000 27.433
23.74000 35.415
23.75000 31.329
23.76000 34.385
23.77000 29.191
23.78000 30.352
23.79000 32.374
23.80000 30.401
23.81000 30.374
23.82000 42.513
23.83000 27.150
23.84000 33.354
23.85000 27.629
23.86000 27.491
23.87000 29.610
23.88000 36.996
23.89000 27.258
23.90000 28.327
23.91000 42.534
23.92000 28.431
23.93000 26.587
23.94000 29.379
23.95000 37.345
23.96000 36.587
23.97000 41.420
23.98000 35.609
23.99000 26.546
24.00000 32.252
24.01000 34.440
24.02000 31.582
24.03000 30.129
24.04000 25.148
24.05000 32.235
24.06000 37.369
24.07000 29.290
24.08000 33.519
24.09000 21.264
24.10000 31.306
24.11000 38.473
24.12000 33.625
24.13000 27.263
24.14000 34.344
24.15000 31.336
24.16000 28.407
24.17000 34.560
24.18000 27.569
24.19000 35.659
24.20000 33.287
24.21000 33.645
24.22000 40.520
24.23000 40.439
24.24000 38.584
24.25000 23.250
24.26000 44.492
24.27000 35.162
24.28000 23.499
24.29000 38.654
24.30000 38.503
24.31000 31.575
24.32000 42.672
24.33000 36.637
24.34000 33.413
24.35000 46.597
24.36000 31.492
24.37000 35.793
24.38000 32.680
24.39000 33.247
24.40000 35.302
24.41000 36.595
24.42000 35.278
24.43000 46.673
24.44000 31.403
24.45000 30.478
24.46000 37.519
24.47000 31.429
24.48000 39.693
24.49000 34.301
24.50000 43.675
24.51000 30.432
24.52000 34.712
24.53000 39.575
24.54000 32.505
24.55000 25.363
24.56000 32.380
24.57000 39.554
24.58000 48.457
24.59000 27.403
24.60000 32.651
24.61000 34.471
24.62000 34.341
24.63000 39.302
24.64000 33.270
24.65000 33.328
24.66000 38.289
24.67000 29.350
24.68000 34.527
24.69000 37.451
24.70000 36.442
24.71000 30.137
24.72000 26.437
24.73000 34.483
24.74000 28.067
24.75000 51.827
24.76000 34.642
24.77000 39.631
24.78000 37.581
24.79000 40.872
24.80000 30.166
24.81000 40.524
24.82000 42.357
24.83000 28.177
24.84000 38.355
24.85000 42.426
24.86000 38.457
24.87000 42.384
24.88000 33.323
24.89000 49.485
24.90000 49.541
24.91000 34.499
24.92000 44.377
24.93000 34.293
24.94000 32.504
24.95000 33.506
24.96000 35.509
24.97000 48.727
24.98000 35.376
24.99000 40.536
25.00000 37.295
25.01000 34.603
25.02000 32.658
25.03000 34.570
25.04000 35.547
25.05000 35.560
25.06000 47.297
25.07000 44.763
25.08000 47.751
25.09000 26.347
25.10000 36.401
25.11000 43.678
25.12000 40.460
25.13000 40.571
25.14000 42.645
25.15000 36.603
25.16000 49.578
25.17000 39.365
25.18000 37.250
25.19000 28.294
25.20000 45.736
25.21000 45.646
25.22000 30.573
25.23000 45.476
25.24000 36.456
25.25000 46.716
25.26000 35.472
25.27000 30.728
25.28000 44.416
25.29000 45.640
25.30000 48.576
25.31000 34.309
25.32000 41.704
25.33000 35.366
25.34000 58.854
25.35000 39.494
25.36000 38.534
25.37000 44.505
25.38000 44.659
25.39000 43.748
25.40000 46.220
25.41000 45.486
25.42000 50.979
25.43000 39.807
25.44000 47.583
25.45000 52.906
25.46000 52.648
25.47000 44.442
25.48000 45.811
25.49000 37.163
25.50000 51.980
25.51000 43.505
25.52000 50.599
25.53000 39.685
25.54000 40.315
25.55000 47.583
25.56000 35.277
25.57000 59.834
25.58000 60.879
25.59000 46.616
25.60000 42.436
25.61000 39.759
25.62000 48.040
25.63000 40.778
25.64000 41.666
25.65000 37.143
25.66000 41.544
25.67000 48.568
25.68000 51.962
25.69000 50.907
25.70000 45.590
25.71000 53.667
25.72000 50.820
25.73000 45.647
25.74000 45.574
25.75000 54.754
25.76000 56.728
25.77000 44.392
25.78000 43.839
25.79000 48.736
25.80000 40.554
25.81000 41.324
25.82000 45.629
25.83000 51.767
25.84000 42.497
25.85000 47.531
25.86000 53.718
25.87000 62.910
25.88000 52.864
25.89000 40.493
25.90000 51.749
25.91000 53.676
25.92000 49.596
25.93000 33.573
25.94000 49.870
25.95000 48.574
25.96000 48.864
25.97000 51.007
25.98000 54.818
25.99000 52.850
26.00000 56.677
26.01000 43.767
26.02000 42.323
26.03000 48.682
26.04000 51.557
26.05000 59.628
26.06000 57.878
26.07000 46.662
26.08000 63.851
26.09000 50.732
26.10000 50.845
26.11000 38.458
26.12000 64.765
26.13000 66.697
26.14000 52.504
26.15000 44.743
26.16000 41.649
26.17000 51.459
26.18000 54.744
26.19000 44.720
26.20000 49.642
26.21000 46.612
26.22000 38.935
26.23000 54.772
26.24000 54.636
26.25000 59.320
26.26000 60.564
26.27000 51.710
26.28000 52.593
26.29000 47.688
26.30000 44.920
26.31000 49.670
26.32000 51.754
26.33000 56.860
26.34000 55.663
26.35000 48.496
26.36000 53.392
26.37000 59.518
26.38000 54.653
26.39000 51.455
26.40000 62.582
26.41000 50.815
26.42000 48.413
26.43000 42.288
26.44000 51.667
26.45000 45.612
26.46000 40.260
26.47000 56.603
26.48000 47.573
26.49000 53.701
26.50000 53.768
26.51000 62.541
26.52000 56.617
26.53000 56.637
26.54000 55.957
26.55000 58.659
26.56000 52.816
26.57000 52.606
26.58000 46.543
26.59000 55.375
26.60000 50.618
26.61000 69.856
26.62000 45.535
26.63000 61.326
26.64000 50.588
26.65000 57.865
26.66000 56.169
26.67000 56.639
26.68000 48.059
26.69000 56.569
26.70000 65.773
26.71000 57.857
26.72000 53.723
26.73000 71.285
26.74000 62.643
26.75000 60.424
26.76000 48.785
26.77000 49.646
26.78000 62.718
26.79000 69.818
26.80000 51.549
26.81000 63.225
26.82000 55.346
26.83000 60.946
26.84000 64.768
26.85000 61.759
26.86000 71.937
26.87000 42.550
26.88000 43.592
26.89000 57.595
26.90000 56.488
26.91000 63.769
26.92000 54.847
26.93000 56.626
26.94000 60.055
26.95000 61.721
26.96000 59.987
26.97000 66.421
26.98000 64.683
26.99000 59.023
27.00000 64.011
27.01000 64.740
27.02000 60.825
27.03000 51.833
27.04000 62.842
27.05000 69.604
27.06000 63.753
27.07000 60.437
27.08000 49.770
27.09000 62.861
27.10000 67.710
27.11000 73.944
27.12000 68.698
27.13000 71.011
27.14000 68.204
27.15000 59.760
27.16000 68.974
27.17000 71.781
27.18000 46.613
27.19000 53.584
27.20000 52.587
27.21000 68.753
27.22000 64.902
27.23000 50.722
27.24000 52.506
27.25000 57.683
27.26000 65.752
27.27000 62.724
27.28000 63.762
27.29000 48.570
27.30000 59.764
27.31000 69.923
27.32000 68.822
27.33000 73.040
27.34000 63.861
27.35000 57.035
27.36000 57.777
27.37000 78.367
27.38000 66.859
27.39000 53.694
27.40000 60.710
27.41000 76.487
27.42000 54.571
27.43000 59.833
27.44000 41.540
27.45000 52.435
27.46000 71.693
27.47000 53.639
27.48000 58.607
27.49000 59.827
27.50000 55.731
27.51000 67.625
27.52000 62.259
27.53000 56.818
27.54000 63.855
27.55000 54.602
27.56000 53.955
27.57000 77.909
27.58000 55.800
27.59000 65.716
27.60000 63.911
27.61000 56.713
27.62000 64.746
27.63000 58.482
27.64000 75.162
27.65000 60.385
27.66000 57.887
27.67000 67.942
27.68000 67.728
27.69000 55.575
27.70000 59.756
27.71000 74.237
27.72000 53.706
27.73000 51.600
27.74000 65.703
27.75000 67.158
27.76000 54.818
27.77000 62.878
27.78000 57.239
27.79000 56.850
27.80000 70.066
27.81000 58.324
27.82000 60.952
27.83000 61.428
27.84000 61.752
27.85000 53.818
27.86000 61.878
27.87000 72.040
27.88000 57.583
27.89000 52.721
27.90000 49.494
27.91000 69.259
27.92000 52.732
27.93000 64.853
27.94000 60.667
27.95000 54.611
27.96000 67.068
27.97000 54.049
27.98000 51.611
27.99000 57.757
28.00000 66.008
28.01000 64.178
28.02000 63.830
28.03000 73.021
28.04000 69.705
28.05000 64.782
28.06000 49.787
28.07000 55.780
28.08000 61.820
28.09000 52.461
28.10000 65.844
28.11000 66.119
28.12000 68.023
28.13000 58.747
28.14000 67.765
28.15000 57.783
28.16000 48.799
28.17000 61.892
28.18000 66.892
28.19000 55.729
28.20000 53.549
28.21000 67.717
28.22000 68.078
28.23000 60.705
28.24000 54.350
28.25000 69.098
28.26000 57.428
28.27000 57.887
28.28000 63.987
28.29000 56.703
28.30000 43.598
28.31000 57.742
28.32000 53.609
28.33000 56.619
28.34000 68.838
28.35000 63.725
28.36000 59.118
28.37000 58.001
28.38000 57.763
28.39000 65.809
28.40000 63.206
28.41000 61.811
28.42000 66.223
28.43000 58.617
28.44000 68.793
28.45000 59.397
28.46000 64.963
28.47000 50.842
28.48000 60.649
28.49000 71.139
28.50000 48.195
28.51000 61.631
28.52000 58.072
28.53000 65.650
28.54000 59.845
28.55000 65.974
28.56000 60.946
28.57000 66.285
28.58000 59.058
28.59000 61.022
28.60000 56.718
28.61000 54.593
28.62000 60.887
28.63000 50.654
28.64000 59.807
28.65000 63.626
28.66000 68.920
28.67000 54.943
28.68000 70.791
28.69000 56.636
28.70000 59.653
28.71000 46.486
28.72000 61.375
28.73000 47.942
28.74000 54.683
28.75000 50.407
28.76000 55.630
28.77000 70.926
28.78000 49.959
28.79000 41.577
28.80000 59.958
28.81000 58.910
28.82000 52.693
28.83000 55.944
28.84000 66.875
28.85000 57.238
28.86000 47.640
28.87000 66.989
28.88000 48.560
28.89000 49.753
28.90000 53.744
28.91000 69.774
28.92000 74.050
28.93000 55.635
28.94000 50.593
28.95000 53.685
28.96000 51.606
28.97000 60.594
28.98000 55.838
28.99000 46.575
29.00000 48.298
29.01000 65.975
29.02000 62.790
29.03000 52.419
29.04000 58.028
29.05000 49.355
29.06000 52.701
29.07000 53.706
29.08000 71.987
29.09000 61.977
29.10000 51.668
29.11000 56.853
29.12000 53.838
29.13000 64.142
29.14000 50.595
29.15000 42.518
29.16000 52.614
29.17000 47.780
29.18000 50.793
29.19000 57.837
29.20000 54.516
29.21000 45.685
29.22000 52.731
29.23000 52.776
29.24000 40.741
29.25000 55.821
29.26000 44.853
29.27000 45.543
29.28000 52.451
29.29000 57.773
29.30000 55.845
29.31000 52.962
29.32000 60.225
29.33000 44.689
29.34000 41.552
29.35000 67.936
29.36000 59.087
29.37000 58.863
29.38000 58.529
29.39000 53.706
29.40000 50.770
29.41000 40.589
29.42000 49.804
29.43000 55.834
29.44000 54.550
29.45000 44.753
29.46000 43.675
29.47000 51.851
29.48000 49.638
29.49000 52.864
29.50000 54.490
29.51000 52.475
29.52000 55.938
29.53000 38.354
29.54000 60.644
29.55000 63.608
29.56000 49.581
29.57000 56.868
29.58000 63.945
29.59000 42.515
29.60000 49.511
29.61000 42.565
29.62000 58.725
29.63000 60.854
29.64000 48.776
29.65000 49.458
29.66000 48.670
29.67000 49.535
29.68000 53.682
29.69000 52.665
29.70000 43.767
29.71000 48.795
29.72000 44.691
29.73000 41.828
29.74000 40.523
29.75000 57.521
29.76000 42.412
29.77000 36.310
29.78000 49.649
29.79000 50.928
29.80000 42.763
29.81000 54.652
29.82000 40.483
29.83000 49.540
29.84000 36.474
29.85000 49.641
29.86000 42.871
29.87000 39.554
29.88000 51.480
29.89000 55.594
29.90000 42.728
29.91000 37.479
29.92000 53.672
29.93000 57.011
29.94000 44.509
29.95000 42.393
29.96000 42.466
29.97000 38.701
29.98000 50.615
29.99000 56.722
30.00000 49.850
30.01000 54.531
30.02000 43.601
30.03000 34.311
30.04000 48.853
30.05000 46.634
30.06000 51.568
30.07000 36.470
30.08000 48.479
30.09000 41.625
30.10000 46.895
30.11000 39.561
30.12000 39.501
30.13000 46.591
30.14000 46.338
30.15000 55.755
30.16000 49.360
30.17000 43.502
30.18000 40.661
30.19000 48.851
30.20000 42.645
30.21000 44.713
30.22000 35.522
30.23000 40.772
30.24000 40.445
30.25000 43.276
30.26000 46.766
30.27000 45.723
30.28000 31.524
30.29000 53.792
30.30000 34.325
30.31000 33.319
30.32000 42.896
30.33000 44.557
30.34000 39.579
30.35000 53.809
30.36000 41.559
30.37000 46.835
30.38000 46.551
30.39000 47.717
30.40000 41.540
30.41000 49.833
30.42000 44.484
30.43000 27.459
30.44000 28.317
30.45000 38.497
30.46000 41.513
30.47000 45.511
30.48000 35.562
30.49000 47.440
30.50000 43.830
30.51000 44.754
30.52000 36.385
30.53000 38.586
30.54000 40.791
30.55000 44.744
30.56000 51.834
30.57000 33.626
30.58000 46.573
30.59000 30.367
30.60000 38.431
30.61000 29.171
30.62000 31.329
30.63000 40.629
30.64000 33.513
30.65000 36.649
30.66000 41.450
30.67000 53.519
30.68000 36.555
30.69000 40.492
30.70000 25.234
30.71000 37.509
30.72000 43.517
30.73000 43.220
30.74000 24.133
30.75000 34.322
30.76000 36.576
30.77000 36.385
30.78000 44.532
30.79000 39.488
30.80000 34.833
30.81000 41.828
30.82000 33.405
30.83000 38.508
30.84000 29.708
30.85000 41.416
30.86000 34.541
30.87000 33.732
30.88000 30.397
30.89000 36.444
30.90000 25.337
30.91000 24.150
30.92000 30.356
30.93000 36.431
30.94000 35.410
30.95000 42.532
30.96000 23.215
30.97000 33.776
30.98000 35.384
30.99000 37.672
31.00000 35.269
31.01000 37.409
31.02000 36.614
31.03000 38.522
31.04000 34.641
31.05000 28.413
31.06000 35.337
31.07000 34.478
31.08000 26.222
31.09000 28.422
31.10000 39.791
31.11000 28.345
31.12000 31.546
31.13000 30.348
31.14000 26.284
31.15000 22.234
31.16000 43.675
31.17000 31.581
31.18000 32.573
31.19000 36.418
31.20000 32.367
31.21000 41.824
31.22000 45.531
31.23000 26.298
31.24000 40.627
31.25000 33.466
31.26000 42.307
31.27000 41.385
31.28000 29.528
31.29000 28.318
31.30000 35.715
31.31000 33.668
31.32000 29.393
31.33000 33.414
31.34000 40.554
31.35000 24.370
31.36000 28.290
31.37000 26.174
31.38000 41.356
31.39000 35.337
31.40000 39.609
31.41000 23.499
31.42000 29.341
31.43000 34.560
31.44000 40.660
31.45000 29.449
31.46000 28.347
31.47000 28.441
31.48000 33.602
31.49000 29.471
31.50000 24.232
31.51000 31.581
31.52000 23.115
31.53000 26.303
31.54000 41.583
31.55000 26.214
31.56000 28.553
31.57000 33.262
31.58000 38.367
31.59000 32.280
31.60000 36.539
31.61000 29.295
31.62000 30.187
31.63000 32.639
31.64000 27.446
31.65000 26.623
31.66000 32.339
31.67000 26.458
31.68000 42.793
31.69000 27.167
31.70000 27.508
31.71000 28.586
31.72000 29.449
31.73000 22.415
31.74000 26.380
31.75000 31.202
31.76000 28.382
31.77000 32.538
31.78000 34.661
31.79000 35.530
31.80000 31.122
31.81000 40.576
31.82000 32.484
31.83000 26.388
31.84000 22.430
31.85000 33.404
31.86000 32.167
31.87000 29.433
31.88000 38.565
31.89000 28.470
31.90000 29.245
31.91000 29.584
31.92000 24.172
31.93000 24.271
31.94000 32.490
31.95000 28.327
31.96000 41.676
31.97000 34.594
31.98000 36.322
31.99000 30.226
32.00000 24.305
32.01000 29.405
32.02000 21.162
32.03000 33.684
32.04000 23.331
32.05000 32.090
32.06000 35.648
32.07000 30.443
32.08000 37.278
32.09000 35.460
32.10000 18.197
32.11000 30.390
32.12000 31.634
32.13000 25.472
32.14000 31.385
32.15000 26.205
32.16000 29.402
32.17000 32.333
32.18000 31.252
32.19000 11.065
32.20000 24.407
32.21000 23.215
32.22000 29.383
32.23000 20.189
32.24000 28.575
32.25000 22.340
32.26000 33.274
32.27000 26.530
32.28000 14.223
32.29000 30.405
32.30000 25.406
32.31000 26.316
32.32000 36.632
32.33000 26.261
32.34000 40.429
32.35000 25.500
32.36000 28.202
32.37000 27.360
32.38000 34.503
32.39000 19.277
32.40000 30.482
32.41000 24.297
32.42000 34.341
32.43000 37.392
32.44000 25.235
32.45000 31.386
32.46000 24.265
32.47000 21.414
32.48000 37.498
32.49000 29.287
32.50000 29.391
32.51000 28.492
32.52000 21.418
32.53000 24.455
32.54000 18.192
32.55000 23.278
32.56000 31.208
32.57000 17.101
32.58000 24.316
32.59000 31.558
32.60000 18.293
32.61000 30.451
32.62000 28.067
32.63000 31.330
32.64000 17.392
32.65000 28.276
32.66000 28.380
32.67000 42.734
32.68000 25.267
32.69000 28.235
32.70000 18.981
32.71000 20.270
32.72000 19.451
32.73000 18.126
32.74000 24.323
32.75000 29.513
32.76000 22.311
32.77000 30.457
32.78000 22.238
32.79000 23.340
32.80000 20.260
32.81000 21.574
32.82000 35.347
32.83000 19.267
32.84000 20.467
32.85000 29.467
32.86000 23.509
32.87000 22.304
32.88000 23.206
32.89000 20.301
32.90000 24.281
32.91000 27.496
32.92000 19.492
32.93000 19.242
32.94000 25.336
32.95000 28.308
32.96000 26.299
32.97000 22.295
32.98000 15.208
32.99000 21.198
33.00000 21.229
33.01000 15.105
33.02000 22.228
33.03000 28.411
33.04000 26.746
33.05000 16.070
33.06000 17.160
33.07000 19.279
33.08000 30.224
33.09000 24.172
33.10000 24.422
33.11000 24.367
33.12000 20.192
33.13000 17.259
33.14000 18.269
33.15000 31.354
33.16000 21.475
33.17000 21.327
33.18000 25.286
33.19000 17.217
33.20000 22.329
33.21000 25.425
33.22000 22.250
33.23000 19.218
33.24000 15.232
33.25000 32.480
33.26000 19.305
33.27000 13.198
33.28000 26.449
33.29000 24.310
33.30000 23.367
33.31000 22.350
33.32000 26.081
33.33000 19.222
33.34000 20.160
33.35000 21.282
33.36000 19.347
33.37000 30.532
33.38000 13.123
33.39000 20.435
33.40000 25.425
33.41000 30.513
33.42000 27.299
33.43000 19.242
33.44000 20.332
33.45000 28.371
33.46000 23.210
33.47000 15.068
33.48000 21.393
33.49000 19.141
33.50000 13.106
33.51000 21.217
33.52000 30.551
33.53000 23.206
33.54000 26.273
33.55000 16.065
33.56000 24.228
33.57000 19.158
33.58000 18.212
33.59000 22.258
33.60000 17.238
33.61000 17.247
33.62000 18.217
33.63000 18.246
33.64000 21.227
33.65000 13.185
33.66000 24.292
33.67000 27.397
33.68000 17.243
33.69000 11.123
33.70000 22.269
33.71000 18.313
33.72000 30.401
33.73000 12.205
33.74000 17.418
33.75000 27.350
33.76000 14.104
33.77000 16.113
33.78000 22.289
33.79000 22.197
33.80000 19.340
33.81000 19.434
33.82000 23.458
33.83000 15.137
33.84000 17.341
33.85000 12.155
33.86000 19.440
33.87000 15.078
33.88000 29.535
33.89000 16.248
33.90000 19.325
33.91000 28.482
33.92000 17.266
33.93000 20.294
33.94000 16.232
33.95000 12.110
33.96000 22.162
33.97000 21.290
33.98000 18.180
33.99000 12.104
34.00000 14.145
34.01000 17.126
34.02000 16.138
34.03000 22.342
34.04000 17.272
34.05000 14.165
34.06000 13.246
34.07000 11.222
34.08000 16.278
34.09000 24.378
34.10000 19.274
34.11000 18.370
34.12000 12.242
34.13000 16.142
34.14000 15.110
34.15000 18.142
34.16000 22.470
34.17000 16.382
34.18000 14.178
34.19000 12.171
34.20000 19.268
34.21000 19.276
34.22000 13.160
34.23000 18.019
34.24000 23.180
34.25000 18.297
34.26000 13.999
34.27000 17.130
34.28000 28.471
34.29000 21.254
34.30000 21.364
34.31000 14.165
34.32000 15.122
34.33000 21.277
34.34000 21.563
34.35000 17.090
34.36000 18.219
34.37000 18.410
34.38000 19.422
34.39000 24.282
34.40000 18.365
34.41000 17.231
34.42000 19.140
34.43000 14.205
34.44000 17.178
34.45000 15.271
34.46000 21.246
34.47000 20.186
34.48000 19.298
34.49000 21.502
34.50000 11.066
34.51000 15.406
34.52000 21.225
34.53000 17.186
34.54000 20.071
34.55000 14.089
34.56000 29.660
34.57000 14.143
34.58000 22.161
34.59000 20.335
34.60000 22.251
34.61000 20.315
34.62000 19.107
34.63000 26.437
34.64000 24.381
34.65000 15.284
34.66000 19.192
34.67000 24.347
34.68000 19.225
34.69000 14.260
34.70000 23.415
34.71000 23.217
34.72000 8.060
34.73000 16.185
34.74000 18.251
34.75000 25.229
34.76000 15.119
34.77000 18.301
34.78000 27.268
34.79000 21.515
34.80000 14.152
34.81000 25.211
34.82000 18.119
34.83000 13.230
34.84000 26.402
34.85000 19.226
34.86000 15.085
34.87000 16.259
34.88000 6.985
34.89000 17.113
34.90000 23.350
34.91000 16.263
34.92000 17.201
34.93000 13.195
34.94000 11.136
34.95000 19.414
34.96000 13.062
34.97000 11.145
34.98000 18.181
34.99000 12.133
35.00000 23.226
35.01000 18.375
35.02000 16.102
35.03000 16.119
35.04000 19.104
35.05000 19.260
35.06000 19.392
35.07000 13.113
35.08000 18.186
35.09000 21.532
35.10000 18.202
35.11000 19.146
35.12000 14.265
35.13000 25.055
35.14000 20.374
35.15000 11.180
35.16000 21.279
35.17000 12.196
35.18000 16.053
35.19000 18.309
35.20000 17.260
35.21000 22.284
35.22000 22.185
35.23000 20.336
35.24000 15.140
35.25000 14.171
35.26000 17.114
35.27000 14.195
35.28000 16.429
35.29000 26.271
35.30000 14.151
35.31000 33.445
35.32000 20.313
35.33000 13.248
35.34000 19.186
35.35000 21.197
35.36000 16.203
35.37000 19.170
35.38000 17.267
35.39000 14.104
35.40000 15.254
35.41000 22.439
35.42000 23.158
35.43000 17.171
35.44000 25.147
35.45000 24.207
35.46000 19.357
35.47000 11.128
35.48000 20.214
35.49000 21.458
35.50000 12.305
35.51000 23.284
35.52000 21.351
35.53000 21.245
35.54000 17.341
35.55000 24.139
35.56000 24.221
35.57000 18.185
35.58000 16.064
35.59000 15.209
35.60000 25.239
35.61000 13.106
35.62000 18.255
35.63000 21.392
35.64000 19.288
35.65000 20.143
35.66000 21.268
35.67000 23.121
35.68000 24.317
35.69000 19.111
35.70000 15.336
35.71000 12.050
35.72000 21.183
35.73000 26.432
35.74000 16.133
35.75000 12.197
35.76000 15.172
35.77000 25.254
35.78000 14.301
35.79000 9.099
35.80000 22.287
35.81000 22.155
35.82000 16.245
35.83000 22.496
35.84000 16.171
35.85000 17.117
35.86000 18.231
35.87000 15.188
35.88000 15.283
35.89000 14.207
35.90000 23.196
35.91000 23.165
35.92000 15.279
35.93000 24.327
35.94000 14.233
35.95000 14.467
35.96000 26.269
35.97000 28.257
35.98000 18.179
35.99000 15.180
36.00000 14.145
36.01000 14.379
36.02000 17.204
36.03000 17.193
36.04000 29.479
36.05000 15.055
36.06000 20.069
36.07000 17.238
36.08000 10.109
36.09000 20.427
36.10000 14.294
36.11000 22.164
36.12000 18.399
36.13000 24.302
36.14000 22.089
36.15000 16.926
36.16000 19.071
36.17000 20.170
36.18000 18.340
36.19000 26.439
36.20000 17.187
36.21000 24.317
36.22000 15.148
36.23000 15.019
36.24000 26.341
36.25000 24.390
36.26000 18.237
36.27000 18.164
36.28000 17.187
36.29000 17.271
36.30000 18.259
36.31000 24.449
36.32000 28.452
36.33000 22.249
36.34000 18.325
36.35000 19.158
36.36000 18.257
36.37000 18.296
36.38000 16.282
36.39000 21.187
36.40000 20.328
36.41000 23.316
36.42000 19.526
36.43000 23.268
36.44000 22.384
36.45000 21.405
36.46000 19.282
36.47000 19.127
36.48000 18.191
36.49000 16.276
36.50000 27.241
36.51000 19.350
36.52000 18.346
36.53000 20.068
36.54000 12.375
36.55000 23.339
36.56000 12.090
36.57000 18.441
36.58000 20.437
36.59000 23.387
36.60000 17.249
36.61000 19.194
36.62000 28.451
36.63000 18.302
36.64000 18.073
36.65000 14.090
36.66000 17.179
36.67000 23.491
36.68000 18.178
36.69000 20.277
36.70000 20.318
36.71000 12.361
36.72000 15.262
36.73000 23.171
36.74000 17.436
36.75000 19.212
36.76000 21.402
36.77000 22.342
36.78000 18.029
36.79000 16.078
36.80000 23.346
36.81000 15.206
36.82000 12.149
36.83000 18.024
36.84000 22.273
36.85000 26.338
36.86000 19.373
36.87000 20.094
36.88000 18.281
36.89000 18.225
36.90000 16.123
36.91000 17.074
36.92000 23.388
36.93000 22.315
36.94000 17.184
36.95000 22.262
36.96000 19.284
36.97000 23.665
36.98000 31.489
36.99000 16.258
37.00000 21.244
37.01000 25.219
37.02000 15.047
37.03000 12.198
37.04000 16.162
37.05000 21.255
37.06000 23.430
37.07000 15.161
37.08000 17.300
37.09000 15.254
37.10000 20.227
37.11000 14.961
37.12000 18.297
37.13000 17.425
37.14000 18.140
37.15000 29.283
37.16000 14.114
37.17000 11.101
37.18000 11.060
37.19000 26.245
37.20000 25.303
37.21000 22.109
37.22000 11.196
37.23000 20.329
37.24000 16.190
37.25000 15.230
37.26000 15.443
37.27000 17.216
37.28000 16.213
37.29000 17.115
37.30000 22.205
37.31000 11.195
37.32000 24.128
37.33000 24.429
37.34000 21.225
37.35000 24.347
37.36000 17.284
37.37000 17.183
37.38000 17.162
37.39000 22.215
37.40000 23.484
37.41000 21.300
37.42000 20.318
37.43000 16.196
37.44000 23.228
37.45000 23.292
37.46000 14.190
37.47000 25.342
37.48000 16.173
37.49000 18.149
37.50000 13.268
37.51000 18.348
37.52000 19.253
37.53000 17.250
37.54000 16.163
37.55000 13.288
37.56000 17.225
37.57000 22.387
37.58000 21.197
37.59000 22.326
37.60000 14.275
37.61000 32.353
37.62000 24.243
37.63000 25.235
37.64000 19.218
37.65000 24.142
37.66000 19.259
37.67000 25.373
37.68000 17.279
37.69000 15.225
37.70000 20.403
37.71000 31.543
37.72000 16.163
37.73000 25.268
37.74000 26.300
37.75000 26.388
37.76000 23.249
37.77000 24.275
37.78000 20.232
37.79000 21.214
37.80000 16.116
37.81000 20.050
37.82000 18.002
37.83000 19.286
37.84000 28.395
37.85000 23.213
37.86000 12.364
37.87000 22.437
37.88000 23.288
37.89000 29.511
37.90000 23.235
37.91000 22.330
37.92000 17.243
37.93000 19.293
37.94000 23.427
37.95000 29.490
37.96000 18.286
37.97000 19.389
37.98000 18.222
37.99000 28.338
38.00000 21.243
38.01000 13.162
38.02000 23.394
38.03000 18.143
38.04000 22.388
38.05000 22.485
38.06000 23.345
38.07000 25.294
38.08000 23.371
38.09000 17.261
38.10000 27.198
38.11000 22.264
38.12000 20.089
38.13000 20.225
38.14000 14.093
38.15000 25.355
38.16000 29.309
38.17000 18.247
38.18000 17.209
38.19000 9.017
38.20000 22.170
38.21000 27.155
38.22000 15.158
38.23000 18.352
38.24000 20.274
38.25000 18.128
38.26000 18.261
38.27000 20.360
38.28000 15.289
38.29000 20.484
38.30000 19.219
38.31000 23.383
38.32000 17.137
38.33000 18.175
38.34000 19.279
38.35000 22.385
38.36000 31.445
38.37000 25.184
38.38000 24.513
38.39000 17.238
38.40000 15.270
38.41000 25.153
38.42000 19.264
38.43000 20.121
38.44000 24.263
38.45000 16.311
38.46000 16.240
38.47000 16.048
38.48000 15.216
38.49000 18.168
38.50000 22.193
38.51000 20.204
38.52000 27.282
38.53000 25.326
38.54000 17.438
38.55000 14.150
38.56000 19.182
38.57000 29.417
38.58000 21.398
38.59000 10.202
38.60000 20.418
38.61000 23.124
38.62000 14.366
38.63000 18.240
38.64000 23.204
38.65000 17.100
38.66000 18.319
38.67000 23.423
38.68000 22.281
38.69000 21.278
38.70000 22.233
38.71000 24.447
38.72000 19.163
38.73000 29.407
38.74000 23.322
38.75000 31.218
38.76000 20.300
38.77000 24.340
38.78000 16.141
38.79000 15.262
38.80000 17.310
38.81000 27.335
38.82000 17.091
38.83000 28.356
38.84000 20.136
38.85000 18.351
38.86000 23.316
38.87000 31.451
38.88000 19.190
38.89000 18.246
38.90000 22.289
38.91000 19.164
38.92000 27.377
38.93000 16.206
38.94000 21.294
38.95000 17.261
38.96000 22.186
38.97000 22.286
38.98000 24.406
38.99000 29.299
39.00000 24.199
39.01000 24.245
39.02000 20.186
39.03000 23.225
39.04000 15.118
39.05000 17.166
39.06000 20.170
39.07000 26.396
39.08000 20.392
39.09000 23.077
39.10000 17.977
39.11000 21.291
39.12000 16.149
39.13000 20.341
39.14000 26.276
39.15000 21.237
39.16000 20.308
39.17000 25.365
39.18000 22.202
39.19000 21.346
39.20000 14.375
39.21000 26.418
39.22000 17.164
39.23000 24.233
39.24000 22.302
39.25000 25.236
39.26000 16.363
39.27000 26.561
39.28000 28.315
39.29000 25.456
39.30000 19.278
39.31000 19.281
39.32000 20.197
39.33000 22.310
39.34000 18.258
39.35000 22.510
39.36000 23.661
39.37000 21.200
39.38000 28.327
39.39000 27.304
39.40000 24.380
39.41000 22.216
39.42000 17.201
39.43000 18.096
39.44000 20.311
39.45000 13.071
39.46000 24.199
39.47000 21.164
39.48000 24.341
39.49000 22.251
39.50000 23.441
39.51000 17.201
39.52000 21.290
39.53000 21.417
39.54000 23.233
39.55000 18.375
39.56000 18.071
39.57000 27.141
39.58000 25.284
39.59000 28.294
39.60000 19.095
39.61000 22.312
39.62000 31.446
39.63000 18.114
39.64000 24.258
39.65000 20.470
39.66000 25.320
39.67000 23.253
39.68000 18.417
39.69000 23.401
39.70000 16.195
39.71000 27.345
39.72000 21.002
39.73000 17.028
39.74000 25.350
39.75000 15.202
39.76000 22.475
39.77000 23.325
39.78000 15.373
39.79000 25.377
39.80000 23.218
39.81000 19.190
39.82000 25.290
39.83000 22.254
39.84000 20.272
39.85000 23.253
39.86000 16.202
39.87000 31.237
39.88000 18.142
39.89000 16.376
39.90000 27.320
39.91000 17.222
39.92000 26.305
39.93000 24.323
39.94000 20.261
39.95000 24.289
39.96000 16.237
39.97000 19.336
39.98000 26.415
39.99000 15.220
40.00000 14.197
40.01000 14.220
40.02000 21.133
40.03000 15.350
40.04000 19.218
40.05000 27.223
40.06000 19.351
40.07000 23.370
40.08000 24.346
40.09000 15.127
40.10000 23.302
40.11000 30.518
40.12000 18.493
40.13000 20.197
40.14000 13.146
40.15000 17.172
40.16000 23.162
40.17000 15.122
40.18000 18.391
40.19000 19.349
40.20000 20.290
40.21000 33.336
40.22000 24.130
40.23000 20.137
40.24000 21.484
40.25000 19.349
40.26000 11.893
40.27000 22.256
40.28000 33.494
40.29000 21.130
40.30000 17.270
40.31000 18.316
40.32000 22.270
40.33000 27.472
40.34000 28.293
40.35000 30.482
40.36000 27.575
40.37000 23.169
40.38000 21.143
40.39000 23.408
40.40000 25.369
40.41000 28.239
40.42000 12.174
40.43000 17.290
40.44000 23.133
40.45000 29.407
40.46000 24.195
40.47000 22.382
40.48000 23.147
40.49000 24.385
40.50000 26.461
40.51000 20.210
40.52000 24.489
40.53000 20.152
40.54000 20.589
40.55000 14.117
40.56000 33.397
40.57000 22.195
40.58000 27.502
40.59000 26.459
40.60000 26.487
40.61000 18.284
40.62000 25.520
40.63000 22.212
40.64000 19.376
40.65000 15.160
40.66000 18.149
40.67000 14.167
40.68000 26.385
40.69000 30.493
40.70000 20.316
40.71000 22.583
40.72000 25.340
40.73000 21.212
40.74000 19.222
40.75000 18.261
40.76000 25.471
40.77000 18.278
40.78000 21.097
40.79000 27.391
40.80000 21.401
40.81000 32.377
40.82000 24.193
40.83000 24.244
40.84000 24.562
40.85000 19.290
40.86000 22.178
40.87000 27.464
40.88000 28.283
40.89000 20.115
40.90000 28.404
40.91000 20.177
40.92000 26.254
40.93000 19.283
40.94000 22.442
40.95000 20.422
40.96000 25.523
40.97000 20.338
40.98000 27.327
40.99000 20.265
41.00000 20.432
41.01000 22.368
41.02000 21.282
41.03000 23.570
41.04000 22.294
41.05000 29.323
41.06000 26.395
41.07000 24.385
41.08000 26.052
41.09000 17.143
41.10000 16.165
41.11000 26.268
41.12000 23.403
41.13000 24.374
41.14000 27.349
41.15000 19.189
41.16000 24.329
41.17000 31.487
41.18000 19.390
41.19000 30.273
41.20000 23.263
41.21000 18.278
41.22000 23.116
41.23000 21.055
41.24000 22.250
41.25000 21.276
41.26000 25.383
41.27000 31.228
41.28000 15.291
41.29000 21.219
41.30000 27.516
41.31000 14.119
41.32000 13.101
41.33000 29.335
41.34000 20.395
41.35000 19.308
41.36000 23.127
41.37000 17.105
41.38000 20.249
41.39000 18.344
41.40000 28.393
41.41000 25.240
41.42000 20.470
41.43000 21.231
41.44000 25.240
41.45000 19.256
41.46000 18.356
41.47000 29.681
41.48000 24.372
41.49000 18.247
41.50000 21.237
41.51000 31.462
41.52000 19.156
41.53000 19.188
41.54000 16.281
41.55000 30.635
41.56000 25.385
41.57000 20.366
41.58000 13.273
41.59000 18.153
41.60000 25.406
41.61000 23.379
41.62000 23.429
41.63000 23.455
41.64000 14.171
41.65000 28.527
41.66000 27.358
41.67000 19.507
41.68000 20.179
41.69000 20.456
41.70000 26.253
41.71000 20.336
41.72000 25.173
41.73000 33.352
41.74000 17.274
41.75000 12.131
41.76000 28.486
41.77000 17.242
41.78000 14.162
41.79000 23.130
41.80000 22.461
41.81000 19.356
41.82000 21.265
41.83000 23.204
41.84000 16.196
41.85000 25.233
41.86000 21.188
41.87000 21.356
41.88000 20.539
41.89000 21.321
41.90000 23.538
41.91000 26.583
41.92000 26.166
41.93000 25.061
41.94000 14.112
41.95000 21.109
41.96000 27.269
41.97000 20.134
41.98000 23.177
41.99000 19.046
42.00000 21.298
42.01000 35.230
42.02000 25.214
42.03000 18.363
42.04000 26.242
42.05000 20.335
42.06000 16.297
42.07000 23.126
42.08000 24.351
42.09000 24.367
42.10000 22.564
42.11000 17.292
42.12000 21.251
42.13000 23.221
42.14000 29.522
42.15000 19.264
42.16000 30.249
42.17000 19.139
42.18000 31.270
42.19000 30.327
42.20000 14.074
42.21000 21.036
42.22000 27.256
42.23000 10.147
42.24000 14.232
42.25000 19.399
42.26000 22.261
42.27000 21.143
42.28000 21.282
42.29000 32.285
42.30000 20.419
42.31000 24.336
42.32000 24.478
42.33000 21.371
42.34000 13.984
42.35000 16.286
42.36000 28.123
42.37000 28.350
42.38000 20.240
42.39000 25.250
42.40000 17.195
42.41000 25.402
42.42000 22.323
42.43000 24.407
42.44000 22.453
42.45000 24.522
42.46000 20.282
42.47000 27.643
42.48000 28.434
42.49000 25.509
42.50000 27.231
42.51000 19.308
42.52000 21.381
42.53000 15.272
42.54000 24.409
42.55000 23.230
42.56000 27.255
42.57000 19.300
42.58000 15.095
42.59000 17.016
42.60000 17.094
42.61000 20.125
42.62000 17.108
42.63000 17.126
42.64000 26.235
42.65000 18.386
42.66000 24.445
42.67000 22.198
42.68000 26.438
42.69000 20.148
42.70000 19.335
42.71000 32.481
42.72000 21.244
42.73000 19.286
42.74000 19.204
42.75000 23.285
42.76000 23.128
42.77000 24.283
42.78000 22.236
42.79000 21.289
42.80000 22.584
42.81000 23.314
42.82000 25.260
42.83000 21.062
42.84000 19.157
42.85000 20.339
42.86000 28.572
42.87000 19.139
42.88000 21.224
42.89000 22.231
42.90000 9.193
42.91000 19.268
42.92000 32.313
42.93000 23.426
42.94000 26.168
42.95000 12.240
42.96000 22.301
42.97000 25.398
42.98000 13.315
42.99000 27.375
43.00000 20.251
43.01000 22.311
43.02000 21.520
43.03000 26.294
43.04000 25.445
43.05000 24.449
43.06000 26.327
43.07000 20.252
43.08000 21.454
43.09000 19.347
43.10000 16.193
43.11000 24.201
43.12000 20.345
43.13000 27.474
43.14000 23.470
43.15000 23.124
43.16000 30.220
43.17000 27.228
43.18000 15.126
43.19000 26.550
43.20000 24.367
43.21000 17.393
43.22000 20.310
43.23000 24.217
43.24000 24.204
43.25000 25.521
43.26000 35.372
43.27000 24.446
43.28000 19.474
43.29000 23.216
43.30000 18.152
43.31000 20.183
43.32000 13.103
43.33000 19.306
43.34000 13.266
43.35000 32.286
43.36000 12.167
43.37000 27.435
43.38000 26.381
43.39000 22.500
43.40000 18.156
43.41000 25.218
43.42000 25.311
43.43000 24.484
43.44000 17.276
43.45000 21.431
43.46000 28.383
43.47000 29.386
43.48000 24.171
43.49000 24.278
43.50000 21.281
43.51000 21.230
43.52000 19.262
43.53000 15.158
43.54000 27.407
43.55000 23.221
43.56000 17.159
43.57000 29.457
43.58000 17.274
43.59000 19.201
43.60000 15.326
43.61000 15.080
43.62000 23.389
43.63000 21.263
43.64000 25.165
43.65000 23.523
43.66000 17.255
43.67000 22.451
43.68000 17.168
43.69000 19.216
43.70000 13.231
43.71000 28.569
43.72000 23.465
43.73000 17.166
43.74000 15.227
43.75000 16.345
43.76000 25.315
43.77000 21.341
43.78000 22.113
43.79000 29.499
43.80000 21.171
43.81000 22.324
43.82000 24.432
43.83000 27.293
43.84000 17.254
43.85000 21.497
43.86000 22.517
43.87000 17.349
43.88000 17.179
43.89000 21.323
43.90000 30.185
43.91000 13.135
43.92000 18.396
43.93000 22.236
43.94000 27.307
43.95000 13.060
43.96000 12.005
43.97000 23.157
43.98000 23.245
43.99000 16.263
44.00000 15.200
44.01000 16.971
44.02000 21.266
44.03000 25.430
44.04000 18.133
44.05000 27.210
44.06000 21.272
44.07000 16.113
44.08000 21.411
44.09000 27.565
44.10000 24.048
44.11000 20.184
44.12000 28.525
44.13000 13.113
44.14000 14.083
44.15000 30.302
44.16000 24.448
44.17000 26.272
44.18000 13.195
44.19000 16.371
44.20000 20.415
44.21000 15.135
44.22000 27.435
44.23000 21.251
44.24000 19.281
44.25000 22.339
44.26000 17.030
44.27000 15.185
44.28000 19.135
44.29000 27.205
44.30000 25.405
44.31000 24.473
44.32000 18.249
44.33000 21.288
44.34000 21.368
44.35000 24.449
44.36000 26.497
44.37000 32.387
44.38000 20.127
44.39000 29.159
44.40000 20.254
44.41000 21.207
44.42000 22.233
44.43000 15.230
44.44000 22.449
44.45000 32.360
44.46000 20.085
44.47000 22.238
44.48000 24.419
44.49000 19.335
44.50000 22.399
44.51000 22.527
44.52000 23.284
44.53000 21.222
44.54000 23.382
44.55000 24.407
44.56000 14.072
44.57000 19.044
44.58000 23.608
44.59000 10.161
44.60000 31.512
44.61000 19.281
44.62000 32.321
44.63000 25.406
44.64000 25.282
44.65000 16.247
44.66000 24.145
44.67000 28.389
44.68000 23.326
44.69000 28.581
44.70000 18.216
44.71000 22.374
44.72000 19.165
44.73000 25.385
44.74000 22.265
44.75000 21.118
44.76000 23.431
44.77000 13.243
44.78000 22.333
44.79000 29.594
44.80000 21.220
44.81000 23.511
44.82000 20.137
44.83000 25.360
44.84000 14.099
44.85000 21.356
44.86000 24.441
44.87000 32.404
44.88000 27.230
44.89000 28.419
44.90000 18.382
44.91000 16.079
44.92000 20.382
44.93000 21.419
44.94000 24.291
44.95000 21.296
44.96000 28.458
44.97000 24.245
44.98000 16.261
44.99000 17.260
45.00000 16.304
45.01000 23.307
45.02000 18.558
45.03000 17.233
45.04000 17.362
45.05000 25.308
45.06000 20.432
45.07000 28.541
45.08000 21.238
45.09000 17.106
45.10000 22.211
45.11000 18.223
45.12000 20.267
45.13000 18.393
45.14000 30.284
45.15000 14.160
45.16000 21.160
45.17000 19.171
45.18000 27.531
45.19000 21.115
45.20000 30.319
45.21000 24.221
45.22000 24.197
45.23000 26.259
45.24000 21.275
45.25000 26.186
45.26000 19.320
45.27000 26.397
45.28000 24.279
45.29000 19.174
45.30000 26.278
45.31000 21.157
45.32000 19.217
45.33000 17.292
45.34000 21.241
45.35000 21.244
45.36000 21.401
45.37000 24.466
45.38000 28.226
45.39000 23.299
45.40000 24.168
45.41000 19.295
45.42000 15.004
45.43000 22.489
45.44000 18.152
45.45000 22.295
45.46000 16.235
45.47000 22.392
45.48000 21.499
45.49000 17.107
45.50000 23.552
45.51000 22.121
45.52000 15.264
45.53000 18.250
45.54000 15.274
45.55000 24.607
45.56000 24.189
45.57000 17.208
45.58000 26.541
45.59000 28.239
45.60000 21.506
45.61000 25.161
45.62000 29.324
45.63000 12.989
45.64000 17.393
45.65000 23.360
45.66000 18.274
45.67000 24.125
45.68000 22.238
45.69000 27.560
45.70000 24.292
45.71000 22.353
45.72000 16.180
45.73000 25.231
45.74000 16.256
45.75000 23.527
45.76000 20.320
45.77000 18.214
45.78000 23.187
45.79000 23.105
45.80000 15.155
45.81000 24.198
45.82000 22.472
45.83000 26.295
45.84000 17.123
45.85000 27.340
45.86000 19.264
45.87000 23.476
45.88000 22.094
45.89000 28.198
45.90000 28.227
45.91000 16.239
45.92000 16.399
45.93000 23.452
45.94000 15.117
45.95000 25.315
45.96000 25.279
45.97000 22.275
45.98000 11.194
45.99000 18.189
46.00000 16.256
46.01000 32.456
46.02000 22.305
46.03000 20.315
46.04000 16.121
46.05000 21.406
46.06000 19.164
46.07000 23.252
46.08000 24.259
46.09000 23.416
46.10000 14.162
46.11000 16.210
46.12000 27.246
46.13000 19.387
46.14000 24.359
46.15000 16.043
46.16000 29.333
46.17000 28.260
46.18000 23.407
46.19000 26.327
46.20000 20.227
46.21000 22.594
46.22000 18.219
46.23000 20.390
46.24000 19.272
46.25000 18.124
46.26000 21.138
46.27000 13.190
46.28000 18.095
46.29000 21.265
46.30000 26.407
46.31000 21.394
46.32000 23.369
46.33000 21.072
46.34000 26.181
46.35000 21.169
46.36000 22.354
46.37000 26.477
46.38000 21.136
46.39000 16.053
46.40000 22.442
46.41000 17.503
46.42000 28.517
46.43000 20.249
46.44000 23.521
46.45000 31.568
46.46000 24.252
46.47000 20.211
46.48000 17.262
46.49000 17.150
46.50000 21.380
46.51000 27.188
46.52000 18.350
46.53000 17.256
46.54000 24.491
46.55000 16.201
46.56000 18.128
46.57000 21.174
46.58000 16.257
46.59000 30.455
46.60000 26.383
46.61000 18.260
46.62000 23.413
46.63000 19.115
46.64000 20.359
46.65000 16.213
46.66000 18.067
46.67000 21.227
46.68000 20.213
46.69000 24.619
46.70000 18.257
46.71000 26.492
46.72000 26.142
46.73000 15.284
46.74000 15.242
46.75000 19.338
46.76000 20.406
46.77000 15.201
46.78000 20.444
46.79000 21.332
46.80000 25.012
46.81000 27.220
46.82000 15.173
46.83000 21.271
46.84000 16.247
46.85000 13.116
46.86000 16.290
46.87000 28.438
46.88000 15.217
46.89000 20.372
46.90000 21.192
46.91000 23.132
46.92000 23.151
46.93000 22.118
46.94000 21.465
46.95000 24.354
46.96000 18.327
46.97000 19.273
46.98000 24.388
46.99000 17.238
47.00000 21.374
47.01000 17.173
47.02000 20.305
47.03000 19.213
47.04000 32.496
47.05000 22.246
47.06000 15.158
47.07000 23.093
47.08000 16.283
47.09000 23.383
47.10000 15.031
47.11000 16.306
47.12000 13.070
47.13000 16.250
47.14000 18.288
47.15000 28.360
47.16000 17.266
47.17000 24.375
47.18000 19.210
47.19000 24.312
47.20000 12.374
47.21000 26.570
47.22000 16.053
47.23000 21.225
47.24000 20.356
47.25000 28.537
47.26000 16.274
47.27000 16.076
47.28000 19.203
47.29000 15.148
47.30000 21.323
47.31000 27.571
47.32000 20.194
47.33000 20.007
47.34000 11.226
47.35000 18.348
47.36000 27.223
47.37000 25.162
47.38000 19.994
47.39000 24.244
47.40000 20.214
47.41000 21.357
47.42000 22.403
47.43000 28.412
47.44000 20.324
47.45000 25.250
47.46000 21.232
47.47000 28.349
47.48000 17.246
47.49000 17.341
47.50000 24.301
47.51000 8.069
47.52000 18.344
47.53000 20.236
47.54000 22.346
47.55000 21.230
47.56000 22.386
47.57000 20.194
47.58000 21.370
47.59000 24.198
47.60000 19.451
47.61000 14.199
47.62000 14.146
47.63000 30.392
47.64000 23.383
47.65000 24.379
47.66000 18.208
47.67000 20.275
47.68000 19.449
47.69000 15.200
47.70000 21.520
47.71000 24.576
47.72000 23.384
47.73000 17.450
47.74000 17.456
47.75000 18.169
47.76000 15.207
47.77000 20.153
47.78000 14.317
47.79000 27.425
47.80000 22.324
47.81000 25.139
47.82000 24.578
47.83000 21.231
47.84000 19.131
47.85000 21.431
47.86000 19.436
47.87000 13.221
47.88000 21.250
47.89000 17.133
47.90000 14.157
47.91000 20.386
47.92000 18.163
47.93000 38.562
47.94000 22.179
47.95000 17.149
47.96000 20.309
47.97000 15.234
47.98000 14.253
47.99000 16.173
48.00000 16.200
48.01000 13.091
48.02000 20.201
48.03000 13.064
48.04000 21.160
48.05000 26.371
48.06000 16.250
48.07000 16.347
48.08000 25.229
48.09000 24.168
48.10000 21.234
48.11000 35.460
48.12000 28.265
48.13000 16.289
48.14000 22.266
48.15000 13.056
48.16000 17.243
48.17000 19.306
48.18000 16.058
48.19000 23.346
48.20000 19.158
48.21000 20.341
48.22000 11.087
48.23000 24.463
48.24000 20.556
48.25000 27.301
48.26000 25.143
48.27000 19.144
48.28000 29.583
48.29000 24.311
48.30000 20.108
48.31000 19.191
48.32000 22.311
48.33000 20.164
48.34000 19.121
48.35000 21.226
48.36000 22.130
48.37000 20.193
48.38000 17.312
48.39000 15.256
48.40000 15.345
48.41000 19.350
48.42000 26.344
48.43000 18.297
48.44000 19.128
48.45000 12.155
48.46000 18.428
48.47000 18.193
48.48000 18.197
48.49000 22.194
48.50000 16.239
48.51000 20.308
48.52000 20.276
48.53000 18.272
48.54000 24.507
48.55000 19.326
48.56000 35.194
48.57000 16.336
48.58000 19.183
48.59000 22.190
48.60000 12.320
48.61000 30.214
48.62000 12.990
48.63000 18.400
48.64000 19.356
48.65000 17.198
48.66000 21.322
48.67000 14.108
48.68000 20.245
48.69000 15.155
48.70000 23.407
48.71000 20.267
48.72000 21.436
48.73000 22.243
48.74000 17.313
48.75000 18.176
48.76000 22.183
48.77000 17.282
48.78000 12.035
48.79000 21.372
48.80000 21.381
48.81000 17.169
48.82000 27.280
48.83000 10.107
48.84000 16.259
48.85000 24.358
48.86000 22.170
48.87000 19.285
48.88000 20.327
48.89000 32.339
48.90000 20.334
48.91000 15.095
48.92000 18.216
48.93000 14.191
48.94000 15.385
48.95000 25.446
48.96000 20.075
48.97000 18.299
48.98000 26.586
48.99000 18.203
49.00000 16.067
49.01000 23.247
49.02000 19.146
49.03000 20.349
49.04000 21.324
49.05000 20.219
49.06000 11.228
49.07000 9.014
49.08000 11.301
49.09000 12.166
49.10000 18.285
49.11000 22.280
49.12000 18.210
49.13000 9.056
49.14000 18.162
49.15000 13.131
49.16000 17.254
49.17000 16.267
49.18000 14.199
49.19000 19.035
49.20000 21.164
49.21000 18.387
49.22000 17.181
49.23000 18.153
49.24000 18.266
49.25000 27.383
49.26000 20.211
49.27000 24.091
49.28000 16.130
49.29000 16.250
49.30000 20.576
49.31000 13.129
49.32000 25.312
49.33000 11.061
49.34000 21.412
49.35000 26.575
49.36000 21.216
49.37000 18.242
49.38000 18.393
49.39000 19.352
49.40000 17.092
49.41000 17.288
49.42000 16.202
49.43000 19.140
49.44000 20.278
49.45000 16.129
49.46000 15.074
49.47000 30.559
49.48000 21.221
49.49000 20.358
49.50000 25.381
49.51000 19.230
49.52000 22.045
49.53000 20.371
49.54000 19.279
49.55000 12.287
49.56000 25.464
49.57000 16.190
49.58000 15.197
49.59000 17.213
49.60000 16.062
49.61000 20.159
49.62000 18.317
49.63000 18.252
49.64000 13.120
49.65000 15.151
49.66000 17.333
49.67000 12.105
49.68000 15.235
49.69000 17.154
49.70000 22.386
49.71000 11.157
49.72000 17.144
49.73000 22.323
49.74000 24.290
49.75000 19.293
49.76000 20.263
49.77000 15.143
49.78000 11.150
49.79000 20.026
49.80000 14.100
49.81000 15.081
49.82000 24.211
49.83000 20.270
49.84000 18.311
49.85000 14.274
49.86000 20.310
49.87000 17.369
49.88000 22.237
49.89000 21.203
49.90000 28.519
49.91000 23.396
49.92000 16.169
49.93000 24.319
49.94000 15.296
49.95000 16.273
49.96000 23.322
49.97000 14.086
49.98000 8.035
49.99000 17.365
50.00000 16.285
50.01000 20.343
50.02000 15.227
50.03000 14.198
50.04000 26.236
50.05000 14.265
50.06000 17.179
50.07000 17.279
50.08000 21.174
50.09000 25.404
50.10000 16.258
50.11000 9.229
50.12000 19.333
50.13000 16.105
50.14000 19.280
50.15000 15.312
50.16000 16.372
50.17000 20.287
50.18000 18.308
50.19000 19.250
50.20000 10.113
50.21000 22.469
50.22000 23.208
50.23000 21.276
50.24000 12.332
50.25000 17.230
50.26000 15.145
50.27000 19.294
50.28000 14.177
50.29000 27.176
50.30000 16.160
50.31000 10.213
50.32000 19.086
50.33000 19.295
50.34000 23.206
50.35000 18.234
50.36000 17.191
50.37000 17.286
50.38000 19.264
50.39000 17.109
50.40000 21.327
50.41000 13.151
50.42000 17.089
50.43000 18.353
50.44000 13.160
50.45000 20.443
50.46000 21.283
50.47000 26.381
50.48000 18.303
50.49000 18.282
50.50000 17.303
50.51000 15.392
50.52000 19.366
50.53000 17.219
50.54000 11.095
50.55000 22.442
50.56000 18.253
50.57000 14.260
50.58000 17.274
50.59000 21.976
50.60000 21.215
50.61000 13.146
50.62000 17.431
50.63000 26.168
50.64000 16.082
50.65000 14.290
50.66000 17.333
50.67000 17.106
50.68000 13.107
50.69000 15.095
50.70000 25.384
50.71000 16.195
50.72000 19.359
50.73000 23.584
50.74000 16.397
50.75000 21.463
50.76000 18.216
50.77000 9.059
50.78000 19.174
50.79000 14.205
50.80000 17.255
50.81000 16.084
50.82000 17.184
50.83000 18.108
50.84000 13.172
50.85000 11.161
50.86000 29.259
50.87000 20.435
50.88000 11.215
50.89000 18.213
50.90000 14.279
50.91000 15.172
50.92000 16.208
50.93000 21.154
50.94000 20.179
50.95000 23.320
50.96000 16.297
50.97000 19.326
50.98000 18.269
50.99000 20.074
51.00000 20.277
51.01000 23.189
51.02000 22.256
51.03000 20.167
51.04000 17.363
51.05000 13.228
51.06000 27.495
51.07000 18.239
51.08000 17.232
51.09000 19.388
51.10000 17.095
51.11000 10.071
51.12000 18.246
51.13000 22.245
51.14000 14.102
51.15000 10.053
51.16000 8.179
51.17000 10.081
51.18000 18.179
51.19000 21.276
51.20000 18.374
51.21000 21.309
51.22000 21.315
51.23000 13.909
51.24000 22.395
51.25000 19.315
51.26000 20.200
51.27000 14.118
51.28000 23.334
51.29000 20.272
51.30000 15.183
51.31000 20.256
51.32000 17.280
51.33000 18.159
51.34000 22.234
51.35000 19.286
51.36000 19.337
51.37000 20.188
51.38000 19.164
51.39000 16.403
51.40000 14.100
51.41000 10.259
51.42000 15.110
51.43000 18.279
51.44000 21.243
51.45000 12.175
51.46000 16.309
51.47000 13.127
51.48000 13.243
51.49000 16.118
51.50000 19.198
51.51000 23.546
51.52000 25.368
51.53000 17.186
51.54000 9.185
51.55000 23.365
51.56000 14.338
51.57000 21.330
51.58000 17.282
51.59000 12.217
51.60000 24.317
51.61000 14.049
51.62000 18.352
51.63000 18.104
51.64000 17.079
51.65000 15.068
51.66000 16.193
51.67000 19.198
51.68000 11.045
51.69000 17.122
51.70000 16.003
51.71000 17.056
51.72000 26.325
51.73000 12.131
51.74000 15.215
51.75000 19.296
51.76000 13.233
51.77000 17.007
51.78000 19.988
51.79000 20.308
51.80000 19.148
51.81000 15.272
51.82000 14.147
51.83000 14.000
51.84000 13.020
51.85000 11.187
51.86000 14.161
51.87000 18.176
51.88000 21.296
51.89000 18.347
51.90000 15.057
51.91000 20.294
51.92000 15.113
51.93000 20.339
51.94000 14.128
51.95000 17.323
51.96000 17.102
51.97000 17.059
51.98000 24.190
51.99000 11.158
52.00000 14.114
52.01000 18.250
52.02000 12.116
52.03000 16.007
52.04000 15.150
52.05000 15.253
52.06000 13.087
52.07000 12.195
52.08000 19.239
52.09000 17.352
52.10000 11.125
52.11000 24.394
52.12000 28.004
52.13000 22.209
52.14000 12.106
52.15000 7.014
52.16000 15.277
52.17000 22.274
52.18000 18.219
52.19000 12.098
52.20000 20.430
52.21000 16.224
52.22000 24.203
52.23000 19.432
52.24000 22.224
52.25000 14.295
52.26000 18.162
52.27000 15.248
52.28000 16.353
52.29000 23.284
52.30000 12.195
52.31000 14.196
52.32000 10.023
52.33000 19.276
52.34000 20.183
52.35000 10.275
52.36000 18.135
52.37000 18.426
52.38000 18.162
52.39000 19.154
52.40000 18.315
52.41000 9.136
52.42000 21.245
52.43000 22.431
52.44000 19.208
52.45000 22.233
52.46000 15.150
52.47000 19.078
52.48000 16.297
52.49000 13.152
52.50000 12.200
52.51000 13.275
52.52000 19.033
52.53000 13.250
52.54000 18.126
52.55000 15.195
52.56000 11.264
52.57000 18.207
52.58000 22.266
52.59000 14.158
52.60000 9.019
52.61000 12.157
52.62000 8.148
52.63000 22.209
52.64000 10.131
52.65000 18.491
52.66000 14.231
52.67000 13.058
52.68000 13.224
52.69000 15.183
52.70000 22.439
52.71000 17.257
52.72000 18.231
52.73000 18.059
52.74000 13.228
52.75000 23.192
52.76000 12.033
52.77000 9.293
52.78000 20.206
52.79000 18.002
52.80000 20.400
52.81000 14.225
52.82000 14.173
52.83000 14.226
52.84000 14.147
52.85000 21.495
52.86000 23.250
52.87000 22.024
52.88000 16.203
52.89000 12.209
52.90000 13.145
52.91000 15.293
52.92000 15.087
52.93000 15.182
52.94000 20.281
52.95000 8.025
52.96000 19.441
52.97000 15.169
52.98000 14.079
52.99000 16.279
53.00000 9.099
53.01000 9.062
53.02000 12.134
53.03000 19.318
53.04000 16.253
53.05000 15.081
53.06000 6.996
53.07000 16.229
53.08000 23.188
53.09000 12.993
53.10000 12.245
53.11000 19.358
53.12000 24.276
53.13000 16.215
53.14000 15.138
53.15000 23.221
53.16000 7.999
53.17000 17.048
53.18000 13.279
53.19000 15.078
53.20000 16.466
53.21000 16.185
53.22000 16.363
53.23000 12.178
53.24000 16.323
53.25000 18.222
53.26000 25.285
53.27000 15.226
53.28000 24.311
53.29000 15.082
53.30000 13.050
53.31000 17.157
53.32000 17.240
53.33000 21.195
53.34000 13.148
53.35000 19.331
53.36000 16.249
53.37000 15.135
53.38000 13.001
53.39000 18.195
53.40000 11.214
53.41000 25.237
53.42000 12.051
53.43000 7.129
53.44000 11.959
53.45000 12.067
53.46000 10.198
53.47000 11.482
53.48000 12.131
53.49000 12.228
53.50000 12.166
53.51000 13.151
53.52000 20.074
53.53000 20.152
53.54000 17.249
53.55000 17.232
53.56000 18.279
53.57000 17.215
53.58000 15.343
53.59000 11.082
53.60000 17.088
53.61000 12.127
53.62000 12.309
53.63000 16.196
53.64000 15.156
53.65000 23.203
53.66000 11.125
53.67000 12.205
53.68000 9.252
53.69000 10.123
53.70000 13.147
53.71000 9.105
53.72000 11.146
53.73000 13.306
53.74000 10.185
53.75000 18.355
53.76000 16.149
53.77000 14.033
53.78000 16.280
53.79000 11.041
53.80000 15.166
53.81000 16.455
53.82000 16.282
53.83000 17.186
53.84000 21.233
53.85000 24.344
53.86000 16.083
53.87000 12.151
53.88000 14.204
53.89000 14.185
53.90000 17.190
53.91000 6.101
53.92000 16.305
53.93000 8.037
53.94000 15.320
53.95000 10.048
53.96000 11.179
53.97000 17.339
53.98000 10.111
53.99000 14.212
54.00000 19.169
54.01000 10.146
54.02000 11.115
54.03000 15.289
54.04000 16.282
54.05000 14.119
54.06000 10.169
54.07000 10.037
54.08000 19.226
54.09000 9.094
54.10000 14.242
54.11000 9.028
54.12000 9.116
54.13000 13.147
54.14000 13.094
54.15000 12.178
54.16000 11.196
54.17000 17.341
54.18000 13.094
54.19000 20.157
54.20000 16.293
54.21000 15.206
54.22000 13.165
54.23000 17.068
54.24000 23.379
54.25000 16.068
54.26000 11.171
54.27000 11.285
54.28000 17.190
54.29000 10.005
54.30000 11.006
54.31000 13.275
54.32000 14.311
54.33000 15.357
54.34000 15.194
54.35000 14.219
54.36000 10.064
54.37000 16.181
54.38000 9.258
54.39000 9.085
54.40000 16.114
54.41000 9.254
54.42000 13.260
54.43000 16.300
54.44000 12.259
54.45000 17.294
54.46000 15.008
54.47000 9.113
54.48000 15.151
54.49000 11.141
54.50000 15.120
54.51000 21.189
54.52000 12.225
54.53000 14.147
54.54000 12.243
54.55000 14.172
54.56000 19.323
54.57000 18.300
54.58000 20.054
54.59000 15.129
54.60000 15.389
54.61000 17.225
54.62000 7.098
54.63000 14.142
54.64000 16.147
54.65000 9.101
54.66000 19.167
54.67000 17.095
54.68000 12.067
54.69000 22.341
54.70000 13.274
54.71000 13.106
54.72000 11.280
54.73000 11.154
54.74000 13.235
54.75000 13.282
54.76000 14.086
54.77000 13.159
54.78000 12.252
54.79000 13.137
54.80000 20.342
54.81000 19.018
54.82000 11.043
54.83000 11.254
54.84000 14.266
54.85000 12.283
54.86000 10.250
54.87000 13.080
54.88000 12.135
54.89000 7.952
54.90000 15.449
54.91000 16.245
54.92000 12.132
54.93000 10.109
54.94000 10.231
54.95000 14.258
54.96000 8.139
54.97000 14.168
54.98000 15.212
54.99000 17.358
55.00000 23.414
55.01000 18.302
55.02000 7.029
55.03000 12.104
55.04000 12.298
55.05000 16.221
55.06000 17.212
55.07000 11.096
55.08000 20.370
55.09000 14.237
55.10000 14.281
55.11000 14.226
55.12000 8.345
55.13000 19.278
55.14000 13.158
55.15000 15.372
55.16000 14.028
55.17000 15.177
55.18000 17.264
55.19000 14.225
55.20000 19.142
55.21000 12.089
55.22000 16.220
55.23000 15.047
55.24000 16.320
55.25000 10.230
55.26000 20.339
55.27000 17.044
55.28000 10.208
55.29000 17.133
55.30000 16.066
55.31000 17.259
55.32000 16.235
55.33000 9.045
55.34000 13.211
55.35000 13.098
55.36000 8.146
55.37000 15.171
55.38000 13.063
55.39000 23.193
55.40000 13.125
55.41000 8.244
55.42000 11.145
55.43000 10.050
55.44000 7.105
55.45000 8.028
55.46000 14.241
55.47000 20.223
55.48000 21.311
55.49000 10.024
55.50000 8.145
55.51000 12.159
55.52000 10.174
55.53000 11.167
55.54000 10.026
55.55000 15.160
55.56000 14.140
55.57000 12.329
55.58000 18.207
55.59000 15.250
55.60000 14.123
55.61000 18.297
55.62000 20.270
55.63000 12.208
55.64000 18.163
55.65000 13.019
55.66000 15.187
55.67000 19.264
55.68000 16.172
55.69000 17.265
55.70000 12.152
55.71000 17.254
55.72000 12.183
55.73000 17.163
55.74000 22.375
55.75000 15.134
55.76000 14.156
55.77000 13.121
55.78000 19.072
55.79000 12.236
55.80000 16.261
55.81000 12.151
55.82000 9.142
55.83000 17.240
55.84000 17.244
55.85000 12.006
55.86000 16.146
55.87000 6.083
55.88000 13.098
55.89000 24.300
55.90000 15.060
55.91000 7.044
55.92000 16.174
55.93000 12.011
55.94000 25.231
55.95000 18.360
55.96000 14.198
55.97000 11.248
55.98000 14.206
55.99000 6.063
56.00000 12.185
56.01000 9.236
56.02000 19.318
56.03000 10.198
56.04000 12.177
56.05000 19.166
56.06000 11.184
56.07000 20.375
56.08000 14.965
56.09000 9.047
56.10000 14.164
56.11000 11.150
56.12000 12.075
56.13000 13.217
56.14000 15.268
56.15000 10.143
56.16000 15.944
56.17000 13.140
56.18000 17.318
56.19000 14.122
56.20000 12.242
56.21000 24.092
56.22000 12.094
56.23000 6.952
56.24000 12.208
56.25000 15.061
56.26000 12.118
56.27000 7.236
56.28000 12.251
56.29000 11.223
56.30000 14.212
56.31000 12.154
56.32000 18.489
56.33000 13.258
56.34000 9.940
56.35000 12.060
56.36000 16.124
56.37000 17.151
56.38000 16.153
56.39000 11.035
56.40000 12.014
56.41000 6.106
56.42000 16.177
56.43000 10.163
56.44000 14.183
56.45000 11.200
56.46000 6.077
56.47000 15.126
56.48000 16.323
56.49000 11.019
56.50000 11.194
56.51000 11.214
56.52000 8.148
56.53000 16.221
56.54000 12.310
56.55000 19.214
56.56000 10.131
56.57000 10.026
56.58000 12.099
56.59000 11.182
56.60000 17.120
56.61000 16.343
56.62000 11.062
56.63000 19.125
56.64000 12.115
56.65000 11.230
56.66000 16.289
56.67000 15.198
56.68000 16.262
56.69000 13.017
56.70000 17.234
56.71000 11.963
56.72000 21.246
56.73000 8.141
56.74000 13.413
56.75000 11.129
56.76000 8.124
56.77000 8.058
56.78000 9.145
56.79000 7.095
56.80000 12.164
56.81000 20.309
56.82000 15.146
56.83000 10.104
56.84000 9.187
56.85000 8.146
56.86000 8.084
56.87000 14.134
56.88000 16.048
56.89000 10.205
56.90000 13.209
56.91000 8.117
56.92000 14.181
56.93000 14.065
56.94000 18.224
56.95000 17.318
56.96000 10.968
56.97000 10.215
56.98000 14.279
56.99000 15.202
57.00000 13.165
57.01000 12.205
57.02000 12.039
57.03000 7.171
57.04000 9.046
57.05000 11.076
57.06000 8.176
57.07000 11.041
57.08000 11.294
57.09000 9.054
57.10000 21.251
57.11000 17.121
57.12000 15.256
57.13000 10.149
57.14000 9.093
57.15000 16.324
57.16000 16.253
57.17000 12.261
57.18000 16.135
57.19000 11.263
57.20000 16.165
57.21000 9.135
57.22000 14.218
57.23000 4.067
57.24000 12.173
57.25000 6.054
57.26000 10.140
57.27000 15.291
57.28000 9.125
57.29000 12.074
57.30000 11.046
57.31000 13.033
57.32000 9.096
57.33000 12.287
57.34000 15.120
57.35000 13.150
57.36000 16.160
57.37000 15.262
57.38000 10.124
57.39000 14.297
57.40000 16.244
57.41000 7.084
57.42000 12.095
57.43000 12.207
57.44000 14.003
57.45000 10.011
57.46000 6.924
57.47000 13.099
57.48000 13.188
57.49000 8.051
57.50000 12.093
57.51000 12.117
57.52000 14.105
57.53000 14.234
57.54000 10.092
57.55000 11.279
57.56000 10.097
57.57000 16.192
57.58000 5.196
57.59000 13.099
57.60000 15.287
57.61000 10.125
57.62000 13.069
57.63000 10.159
57.64000 16.279
57.65000 12.035
57.66000 10.036
57.67000 12.270
57.68000 14.176
57.69000 16.334
57.70000 10.054
57.71000 12.177
57.72000 9.145
57.73000 8.203
57.74000 11.169
57.75000 10.176
57.76000 10.092
57.77000 13.977
57.78000 11.212
57.79000 13.243
57.80000 17.115
57.81000 14.240
57.82000 18.308
57.83000 14.204
57.84000 8.143
57.85000 16.199
57.86000 13.201
57.87000 16.220
57.88000 13.130
57.89000 11.030
57.90000 10.156
57.91000 20.285
57.92000 18.113
57.93000 21.214
57.94000 12.263
57.95000 14.085
57.96000 8.226
57.97000 19.185
57.98000 11.171
57.99000 15.350
58.00000 14.106
58.01000 16.131
58.02000 15.121
58.03000 12.131
58.04000 8.083
58.05000 12.123
58.06000 19.325
58.07000 12.072
58.08000 11.096
58.09000 17.239
58.10000 8.000
58.11000 14.222
58.12000 12.141
58.13000 12.159
58.14000 9.129
58.15000 12.128
58.16000 11.180
58.17000 21.319
58.18000 11.138
58.19000 12.103
58.20000 12.125
58.21000 10.058
58.22000 12.179
58.23000 8.084
58.24000 15.370
58.25000 15.159
58.26000 10.010
58.27000 17.395
58.28000 9.146
58.29000 9.136
58.30000 11.221
58.31000 14.208
58.32000 12.184
58.33000 4.040
58.34000 10.120
58.35000 18.205
58.36000 13.224
58.37000 10.120
58.38000 10.160
58.39000 13.088
58.40000 12.079
58.41000 11.121
58.42000 12.391
58.43000 8.067
58.44000 14.181
58.45000 6.977
58.46000 9.993
58.47000 13.999
58.48000 10.255
58.49000 17.206
58.50000 9.139
58.51000 14.081
58.52000 9.942
58.53000 16.358
58.54000 16.165
58.55000 9.081
58.56000 9.144
58.57000 15.269
58.58000 7.008
58.59000 10.122
58.60000 13.197
58.61000 11.080
58.62000 13.115
58.63000 10.147
58.64000 14.193
58.65000 14.124
58.66000 4.026
58.67000 13.315
58.68000 13.044
58.69000 9.066
58.70000 11.077
58.71000 12.090
58.72000 17.163
58.73000 7.093
58.74000 6.099
58.75000 16.223
58.76000 8.051
58.77000 8.991
58.78000 6.999
58.79000 7.972
58.80000 12.074
58.81000 9.141
58.82000 13.067
58.83000 13.175
58.84000 15.299
58.85000 10.071
58.86000 14.186
58.87000 11.001
58.88000 15.202
58.89000 7.002
58.90000 7.972
58.91000 16.080
58.92000 10.074
58.93000 13.067
58.94000 8.017
58.95000 14.297
58.96000 9.024
58.97000 12.227
58.98000 13.174
58.99000 10.185
59.00000 10.231
59.01000 13.137
59.02000 9.055
59.03000 8.975
59.04000 13.172
59.05000 15.176
59.06000 9.092
59.07000 10.935
59.08000 12.005
59.09000 14.187
59.10000 14.979
59.11000 8.067
59.12000 9.054
59.13000 4.153
59.14000 9.097
59.15000 8.041
59.16000 7.971
59.17000 14.128
59.18000 9.114
59.19000 17.292
59.20000 12.225
59.21000 17.224
59.22000 18.068
59.23000 10.140
59.24000 7.157
59.25000 13.164
59.26000 4.098
59.27000 12.141
59.28000 9.091
59.29000 8.100
59.30000 4.032
59.31000 10.181
59.32000 11.966
59.33000 9.162
59.34000 9.078
59.35000 7.166
59.36000 17.372
59.37000 5.129
59.38000 10.128
59.39000 9.144
59.40000 9.004
59.41000 7.026
59.42000 11.259
59.43000 14.090
59.44000 12.060
59.45000 13.186
59.46000 9.163
59.47000 14.223
59.48000 12.181
59.49000 15.983
59.50000 12.119
59.51000 11.169
59.52000 8.172
59.53000 12.078
59.54000 10.047
59.55000 12.021
59.56000 15.166
59.57000 12.111
59.58000 12.101
59.59000 12.157
59.60000 11.023
59.61000 12.133
59.62000 13.248
59.63000 17.143
59.64000 14.221
59.65000 12.196
59.66000 10.203
59.67000 8.109
59.68000 16.121
59.69000 6.012
59.70000 7.134
59.71000 11.227
59.72000 9.219
59.73000 7.092
59.74000 13.332
59.75000 2.086
59.76000 8.123
59.77000 14.049
59.78000 13.073
59.79000 8.122
59.80000 5.026
59.81000 6.049
59.82000 15.121
59.83000 13.005
59.84000 8.983
59.85000 11.053
59.86000 13.247
59.87000 10.115
59.88000 18.173
59.89000 7.162
59.90000 9.130
59.91000 12.168
59.92000 13.039
59.93000 8.132
59.94000 14.048
59.95000 10.123
59.96000 6.004
59.97000 4.067
59.98000 7.107
59.99000 13.113
60.00000 6.036
60.01000 4.001
60.02000 17.099
60.03000 8.074
60.04000 11.193
60.05000 12.211
60.06000 5.070
60.07000 12.055
60.08000 6.151
60.09000 7.140
60.10000 4.008
60.11000 5.101
60.12000 10.182
60.13000 13.079
60.14000 6.052
60.15000 14.170
60.16000 13.145
60.17000 12.294
60.18000 13.085
60.19000 10.147
60.20000 8.072
60.21000 10.151
60.22000 11.230
60.23000 11.095
60.24000 9.253
60.25000 12.110
60.26000 11.315
60.27000 15.296
60.28000 4.962
60.29000 13.257
60.30000 11.183
60.31000 9.141
60.32000 6.972
60.33000 7.101
60.34000 15.284
60.35000 4.016
60.36000 10.058
60.37000 8.142
60.38000 12.124
60.39000 11.157
60.40000 11.162
60.41000 16.266
60.42000 17.095
60.43000 11.286
60.44000 11.094
60.45000 9.133
60.46000 10.194
60.47000 14.170
60.48000 6.109
60.49000 10.166
60.50000 10.966
60.51000 10.251
60.52000 6.066
60.53000 8.152
60.54000 15.189
60.55000 11.192
60.56000 4.150
60.57000 18.036
60.58000 11.066
60.59000 13.149
60.60000 13.276
60.61000 8.059
60.62000 10.198
60.63000 14.257
60.64000 10.095
60.65000 10.185
60.66000 6.016
60.67000 12.124
60.68000 10.273
60.69000 10.066
60.70000 11.093
60.71000 11.023
60.72000 8.039
60.73000 16.108
60.74000 12.134
60.75000 10.948
60.76000 4.046
60.77000 8.240
60.78000 12.069
60.79000 14.178
60.80000 15.128
60.81000 12.960
60.82000 11.152
60.83000 9.097
60.84000 5.135
60.85000 12.120
60.86000 9.078
60.87000 16.146
60.88000 12.155
60.89000 9.099
60.90000 7.108
60.91000 9.101
60.92000 13.213
60.93000 11.098
60.94000 9.166
60.95000 7.172
60.96000 11.070
60.97000 9.116
60.98000 6.022
60.99000 4.030
61.00000 13.038
61.01000 10.210
61.02000 11.269
61.03000 6.154
61.04000 8.903
61.05000 18.187
61.06000 7.055
61.07000 5.116
61.08000 9.181
61.09000 6.215
61.10000 13.109
61.11000 11.081
61.12000 11.061
61.13000 10.138
61.14000 10.109
61.15000 7.020
61.16000 6.104
61.17000 13.159
61.18000 15.127
61.19000 10.054
61.20000 10.287
61.21000 18.288
61.22000 11.071
61.23000 10.230
61.24000 10.023
61.25000 11.044
61.26000 6.055
61.27000 6.968
61.28000 5.044
61.29000 10.993
61.30000 11.059
61.31000 9.063
61.32000 11.305
61.33000 8.044
61.34000 15.251
61.35000 12.225
61.36000 10.154
61.37000 6.031
61.38000 10.202
61.39000 11.203
61.40000 14.163
61.41000 7.093
61.42000 6.061
61.43000 12.134
61.44000 12.213
61.45000 8.065
61.46000 10.128
61.47000 9.053
61.48000 16.268
61.49000 11.190
61.50000 12.122
61.51000 13.093
61.52000 7.060
61.53000 12.242
61.54000 12.071
61.55000 8.131
61.56000 6.136
61.57000 10.991
61.58000 7.010
61.59000 13.135
61.60000 7.042
61.61000 8.178
61.62000 13.127
61.63000 9.097
61.64000 11.140
61.65000 7.222
61.66000 5.058
61.67000 13.051
61.68000 15.106
61.69000 11.125
61.70000 9.165
61.71000 5.160
61.72000 5.059
61.73000 6.989
61.74000 12.175
61.75000 15.265
61.76000 9.087
61.77000 12.181
61.78000 10.113
61.79000 12.272
61.80000 8.130
61.81000 10.180
61.82000 5.065
61.83000 11.062
61.84000 12.198
61.85000 9.979
61.86000 8.185
61.87000 5.071
61.88000 4.050
61.89000 11.014
61.90000 4.070
61.91000 15.195
61.92000 12.154
61.93000 11.182
61.94000 13.033
61.95000 5.029
61.96000 11.286
61.97000 12.144
61.98000 11.107
61.99000 11.070
62.00000 12.069
62.01000 12.213
62.02000 7.098
62.03000 7.121
62.04000 10.237
62.05000 10.989
62.06000 13.146
62.07000 10.977
62.08000 3.069
62.09000 7.173
62.10000 15.057
62.11000 5.984
62.12000 11.097
62.13000 8.140
62.14000 9.021
62.15000 6.079
62.16000 8.030
62.17000 8.150
62.18000 12.216
62.19000 8.031
62.20000 5.957
62.21000 10.075
62.22000 12.240
62.23000 9.993
62.24000 7.030
62.25000 9.190
62.26000 13.131
62.27000 3.027
62.28000 8.022
62.29000 13.152
62.30000 9.233
62.31000 6.157
62.32000 14.256
62.33000 10.147
62.34000 8.109
62.35000 10.125
62.36000 10.196
62.37000 9.176
62.38000 14.099
62.39000 7.193
62.40000 6.015
62.41000 11.179
62.42000 6.143
62.43000 14.012
62.44000 7.192
62.45000 11.031
62.46000 14.194
62.47000 4.992
62.48000 7.016
62.49000 6.060
62.50000 12.143
62.51000 7.045
62.52000 4.021
62.53000 13.410
62.54000 8.050
62.55000 7.084
62.56000 4.154
62.57000 9.096
62.58000 9.167
62.59000 11.189
62.60000 5.990
62.61000 6.026
62.62000 3.992
62.63000 8.012
62.64000 10.097
62.65000 15.336
62.66000 8.106
62.67000 8.013
62.68000 7.039
62.69000 9.143
62.70000 9.182
62.71000 8.241
62.72000 8.118
62.73000 12.118
62.74000 11.164
62.75000 7.112
62.76000 4.056
62.77000 10.155
62.78000 5.087
62.79000 5.043
62.80000 8.075
62.81000 10.164
62.82000 12.242
62.83000 4.086
62.84000 4.036
62.85000 10.134
62.86000 12.145
62.87000 10.043
62.88000 8.078
62.89000 7.016
62.90000 7.031
62.91000 11.076
62.92000 10.076
62.93000 13.217
62.94000 12.131
62.95000 7.017
62.96000 10.111
62.97000 14.019
62.98000 7.081
62.99000 4.967
63.00000 6.018
63.01000 12.103
63.02000 11.170
63.03000 6.206
63.04000 11.133
63.05000 8.030
63.06000 5.163
63.07000 5.079
63.08000 16.106
63.09000 10.176
63.10000 5.072
63.11000 4.965
63.12000 9.031
63.13000 5.168
63.14000 7.148
63.15000 12.039
63.16000 6.988
63.17000 12.051
63.18000 11.307
63.19000 4.048
63.20000 4.055
63.21000 12.302
63.22000 6.041
63.23000 7.189
63.24000 13.279
63.25000 8.152
63.26000 3.064
63.27000 6.123
63.28000 11.154
63.29000 7.046
63.30000 10.110
63.31000 9.238
63.32000 4.091
63.33000 6.174
63.34000 3.017
63.35000 8.191
63.36000 16.327
63.37000 6.041
63.38000 14.233
63.39000 6.092
63.40000 6.091
63.41000 9.170
63.42000 8.174
63.43000 7.069
63.44000 10.295
63.45000 4.036
63.46000 10.088
63.47000 12.200
63.48000 13.303
63.49000 12.141
63.50000 6.097
63.51000 11.024
63.52000 11.011
63.53000 11.062
63.54000 9.201
63.55000 8.059
63.56000 5.044
63.57000 4.050
63.58000 15.192
63.59000 9.143
63.60000 6.033
63.61000 8.049
63.62000 4.012
63.63000 9.012
63.64000 7.984
63.65000 9.102
63.66000 14.070
63.67000 8.999
63.68000 6.099
63.69000 7.104
63.70000 6.058
63.71000 10.061
63.72000 10.204
63.73000 10.072
63.74000 7.135
63.75000 9.214
63.76000 10.155
63.77000 8.155
63.78000 8.126
63.79000 7.088
63.80000 12.087
63.81000 11.100
63.82000 8.154
63.83000 6.140
63.84000 6.135
63.85000 9.183
63.86000 6.105
63.87000 13.380
63.88000 16.170
63.89000 7.949
63.90000 12.243
63.91000 13.144
63.92000 6.062
63.93000 8.133
63.94000 9.044
63.95000 17.304
63.96000 10.169
63.97000 10.092
63.98000 8.093
63.99000 6.080
64.00000 8.131
64.01000 10.026
64.02000 2.953
64.03000 8.116
64.04000 5.025
64.05000 9.044
64.06000 11.111
64.07000 8.229
64.08000 15.430
64.09000 7.088
64.10000 9.036
64.11000 8.207
64.12000 7.210
64.13000 8.089
64.14000 8.155
64.15000 8.094
64.16000 10.233
64.17000 7.216
64.18000 11.219
64.19000 16.293
64.20000 10.072
64.21000 6.125
64.22000 9.114
64.23000 8.065
64.24000 5.075
64.25000 9.057
64.26000 8.013
64.27000 5.062
64.28000 11.175
64.29000 4.117
64.30000 15.116
64.31000 10.085
64.32000 10.150
64.33000 5.119
64.34000 8.221
64.35000 6.107
64.36000 7.073
64.37000 10.053
64.38000 8.041
64.39000 6.093
64.40000 3.106
64.41000 9.143
64.42000 6.017
64.43000 15.264
64.44000 11.093
64.45000 6.992
64.46000 7.151
64.47000 9.077
64.48000 6.970
64.49000 6.027
64.50000 12.125
64.51000 10.127
64.52000 6.058
64.53000 11.060
64.54000 5.117
64.55000 10.110
64.56000 8.059
64.57000 12.195
64.58000 13.015
64.59000 5.987
64.60000 10.114
64.61000 11.189
64.62000 8.139
64.63000 12.260
64.64000 13.158
64.65000 6.959
64.66000 11.192
64.67000 6.094
64.68000 13.184
64.69000 10.192
64.70000 10.111
64.71000 15.167
64.72000 10.098
64.73000 13.129
64.74000 4.122
64.75000 12.273
64.76000 5.941
64.77000 10.216
64.78000 8.015
64.79000 8.047
64.80000 9.022
64.81000 6.001
64.82000 10.245
64.83000 11.241
64.84000 4.894
64.85000 10.158
64.86000 7.132
64.87000 7.124
64.88000 8.020
64.89000 8.149
64.90000 4.016
64.91000 8.181
64.92000 13.141
64.93000 7.009
64.94000 7.171
64.95000 6.162
64.96000 6.995
64.97000 7.005
64.98000 12.213
64.99000 8.118
65.00000 7.948
