20.00000 171.658
20.01000 162.349
20.02000 155.274
20.03000 186.942
20.04000 167.860
20.05000 160.464
20.06000 176.751
20.07000 160.354
20.08000 185.268
20.09000 175.319
20.10000 187.580
20.11000 158.170
20.12000 139.316
20.13000 172.845
20.14000 172.925
20.15000 187.048
20.16000 172.277
20.17000 160.147
20.18000 176.970
20.19000 162.261
20.20000 173.754
20.21000 157.391
20.22000 178.002
20.23000 157.397
20.24000 183.488
20.25000 163.828
20.26000 170.517
20.27000 151.244
20.28000 161.397
20.29000 164.698
20.30000 181.994
20.31000 153.252
20.32000 156.673
20.33000 151.870
20.34000 186.193
20.35000 145.793
20.36000 159.192
20.37000 150.487
20.38000 170.534
20.39000 166.589
20.40000 158.218
20.41000 157.803
20.42000 162.408
20.43000 135.548
20.44000 143.665
20.45000 150.271
20.46000 142.533
20.47000 145.099
20.48000 164.708
20.49000 179.277
20.50000 189.605
20.51000 146.507
20.52000 148.470
20.53000 162.488
20.54000 173.818
20.55000 162.897
20.56000 155.669
20.57000 150.570
20.58000 141.383
20.59000 144.465
20.60000 138.357
20.61000 146.299
20.62000 160.253
20.63000 158.988
20.64000 142.504
20.65000 171.496
20.66000 154.227
20.67000 126.904
20.68000 140.836
20.69000 143.486
20.70000 139.441
20.71000 108.229
20.72000 165.700
20.73000 157.419
20.74000 146.273
20.75000 146.371
20.76000 119.165
20.77000 141.107
20.78000 153.491
20.79000 155.963
20.80000 133.650
20.81000 138.232
20.82000 138.567
20.83000 154.633
20.84000 131.558
20.85000 137.515
20.86000 121.357
20.87000 135.676
20.88000 149.946
20.89000 133.096
20.90000 136.363
20.91000 125.038
20.92000 146.223
20.93000 136.364
20.94000 140.305
20.95000 139.417
20.96000 130.550
20.97000 115.935
20.98000 134.688
20.99000 131.394
21.00000 125.262
21.01000 135.365
21.02000 136.945
21.03000 110.262
21.04000 135.587
21.05000 116.808
21.06000 127.109
21.07000 133.562
21.08000 132.212
21.09000 134.282
21.10000 121.398
21.11000 113.171
21.12000 130.496
21.13000 136.092
21.14000 138.853
21.15000 109.007
21.16000 127.208
21.17000 132.244
21.18000 124.225
21.19000 127.177
21.20000 129.680
21.21000 107.848
21.22000 142.269
21.23000 125.517
21.24000 124.506
21.25000 133.907
21.26000 128.176
21.27000 120.227
21.28000 103.162
21.29000 105.200
21.30000 119.991
21.31000 128.285
21.32000 119.881
21.33000 115.146
21.34000 99.980
21.35000 116.108
21.36000 114.697
21.37000 107.119
21.38000 105.021
21.39000 117.104
21.40000 123.029
21.41000 122.096
21.42000 113.287
21.43000 105.680
21.44000 100.164
21.45000 102.080
21.46000 114.831
21.47000 128.709
21.48000 113.294
21.49000 103.077
21.50000 118.085
21.51000 130.258
21.52000 112.794
21.53000 95.914
21.54000 101.955
21.55000 92.102
21.56000 106.082
21.57000 112.012
21.58000 107.801
21.59000 97.852
21.60000 114.230
21.61000 119.172
21.62000 108.184
21.63000 101.010
21.64000 98.864
21.65000 93.721
21.66000 104.936
21.67000 112.854
21.68000 113.997
21.69000 107.334
21.70000 100.869
21.71000 91.826
21.72000 100.963
21.73000 102.166
21.74000 93.115
21.75000 103.026
21.76000 108.199
21.77000 102.163
21.78000 103.121
21.79000 76.783
21.80000 97.912
21.81000 92.663
21.82000 95.771
21.83000 105.600
21.84000 107.336
21.85000 97.957
21.86000 97.315
21.87000 92.461
21.88000 105.058
21.89000 83.530
21.90000 93.886
21.91000 67.698
21.92000 86.967
21.93000 93.991
21.94000 101.125
21.95000 87.943
21.96000 98.199
21.97000 90.838
21.98000 82.812
21.99000 91.022
22.00000 88.087
22.01000 100.895
22.02000 74.578
22.03000 86.748
22.04000 112.261
22.05000 86.750
22.06000 78.893
22.07000 87.935
22.08000 97.209
22.09000 76.542
22.10000 88.685
22.11000 86.211
22.12000 87.668
22.13000 95.505
22.14000 74.560
22.15000 85.735
22.16000 82.662
22.17000 92.296
22.18000 94.563
22.19000 75.869
22.20000 92.034
22.21000 68.882
22.22000 80.805
22.23000 88.062
22.24000 90.912
22.25000 77.842
22.26000 70.726
22.27000 71.595
22.28000 94.078
22.29000 82.651
22.30000 75.610
22.31000 94.982
22.32000 69.717
22.33000 83.644
22.34000 92.141
22.35000 78.668
22.36000 77.621
22.37000 77.875
22.38000 79.191
22.39000 68.481
22.40000 89.652
22.41000 73.016
22.42000 63.490
22.43000 80.993
22.44000 72.643
22.45000 71.707
22.46000 80.178
22.47000 77.771
22.48000 73.592
22.49000 94.511
22.50000 78.673
22.51000 55.852
22.52000 67.968
22.53000 75.813
22.54000 83.103
22.55000 76.662
22.56000 70.707
22.57000 77.623
22.58000 79.769
22.59000 77.747
22.60000 66.651
22.61000 92.330
22.62000 66.627
22.63000 55.667
22.64000 71.705
22.65000 84.053
22.66000 76.958
22.67000 54.475
22.68000 71.517
22.69000 73.605
22.70000 60.691
22.71000 69.994
22.72000 57.627
22.73000 56.474
22.74000 84.356
22.75000 57.303
22.76000 67.510
22.77000 58.703
22.78000 76.440
22.79000 53.789
22.80000 74.659
22.81000 77.892
22.82000 61.554
22.83000 75.673
22.84000 56.450
22.85000 65.575
22.86000 74.889
22.87000 62.662
22.88000 44.382
22.89000 57.675
22.90000 71.721
22.91000 71.667
22.92000 63.349
22.93000 62.792
22.94000 66.668
22.95000 68.615
22.96000 59.558
22.97000 58.680
22.98000 71.978
22.99000 75.861
23.00000 59.012
23.01000 49.664
23.02000 61.320
23.03000 48.404
23.04000 53.360
23.05000 64.820
23.06000 55.554
23.07000 56.617
23.08000 58.569
23.09000 52.634
23.10000 55.668
23.11000 53.607
23.12000 47.494
23.13000 59.626
23.14000 49.626
23.15000 60.790
23.16000 50.393
23.17000 57.935
23.18000 63.678
23.19000 54.565
23.20000 57.663
23.21000 51.265
23.22000 43.455
23.23000 41.234
23.24000 55.619
23.25000 57.398
23.26000 60.421
23.27000 54.397
23.28000 59.653
23.29000 58.359
23.30000 39.370
23.31000 58.562
23.32000 37.469
23.33000 51.373
23.34000 44.378
23.35000 50.457
23.36000 39.454
23.37000 54.390
23.38000 50.450
23.39000 50.548
23.40000 47.341
23.41000 43.494
23.42000 43.643
23.43000 28.323
23.44000 39.396
23.45000 48.576
23.46000 40.470
23.47000 46.607
23.48000 46.278
23.49000 53.581
23.50000 38.354
23.51000 48.444
23.52000 59.636
23.53000 37.281
23.54000 35.412
23.55000 40.353
23.56000 51.158
23.57000 45.638
23.58000 45.675
23.59000 45.393
23.60000 49.637
23.61000 35.241
23.62000 39.763
23.63000 39.324
23.64000 42.530
23.65000 50.506
23.66000 31.262
23.67000 43.276
23.68000 40.526
23.69000 33.629
23.70000 30.479
23.71000 40.411
23.72000 45.366
23.73000 45.502
23.74000 40.390
23.75000 50.355
23.76000 51.652
23.77000 44.309
23.78000 31.123
23.79000 28.204
23.80000 37.459
23.81000 45.468
23.82000 37.219
23.83000 39.596
23.84000 34.478
23.85000 36.550
23.86000 36.402
23.87000 32.465
23.88000 54.906
23.89000 42.542
23.90000 31.475
23.91000 44.449
23.92000 37.343
23.93000 37.430
23.94000 36.339
23.95000 45.485
23.96000 41.434
23.97000 33.341
23.98000 42.361
23.99000 42.376
24.00000 31.615
24.01000 35.480
24.02000 35.414
24.03000 36.361
24.04000 38.354
24.05000 37.263
24.06000 36.211
24.07000 40.343
24.08000 46.816
24.09000 39.414
24.10000 39.423
24.11000 38.511
24.12000 32.257
24.13000 30.189
24.14000 37.461
24.15000 31.578
24.16000 32.208
24.17000 44.519
24.18000 39.276
24.19000 26.191
24.20000 42.594
24.21000 31.228
24.22000 37.420
24.23000 30.536
24.24000 40.244
24.25000 31.205
24.26000 37.293
24.27000 30.185
24.28000 53.257
24.29000 27.341
24.30000 37.459
24.31000 41.673
24.32000 33.307
24.33000 31.648
24.34000 24.251
24.35000 30.359
24.36000 31.195
24.37000 25.164
24.38000 26.996
24.39000 35.575
24.40000 29.354
24.41000 33.477
24.42000 49.597
24.43000 31.434
24.44000 23.241
24.45000 33.122
24.46000 34.310
24.47000 31.388
24.48000 24.330
24.49000 26.190
24.50000 24.147
24.51000 25.130
24.52000 32.394
24.53000 37.444
24.54000 37.397
24.55000 30.336
24.56000 26.231
24.57000 25.290
24.58000 18.185
24.59000 24.385
24.60000 24.239
24.61000 30.241
24.62000 20.074
24.63000 24.254
24.64000 17.383
24.65000 31.711
24.66000 33.110
24.67000 30.280
24.68000 25.410
24.69000 20.077
24.70000 27.245
24.71000 17.242
24.72000 21.132
24.73000 31.178
24.74000 30.405
24.75000 23.369
24.76000 23.263
24.77000 27.364
24.78000 31.249
24.79000 35.228
24.80000 36.345
24.81000 25.251
24.82000 18.237
24.83000 24.184
24.84000 23.322
24.85000 23.246
24.86000 21.232
24.87000 25.199
24.88000 24.256
24.89000 18.127
24.90000 25.374
24.91000 23.361
24.92000 28.464
24.93000 35.508
24.94000 24.068
24.95000 20.239
24.96000 26.219
24.97000 19.113
24.98000 12.145
24.99000 28.636
25.00000 16.236
25.01000 19.176
25.02000 21.114
25.03000 16.924
25.04000 19.382
25.05000 22.085
25.06000 21.146
25.07000 35.302
25.08000 26.163
25.09000 17.244
25.10000 22.314
25.11000 21.284
25.12000 16.118
25.13000 30.160
25.14000 18.999
25.15000 18.241
25.16000 26.366
25.17000 24.262
25.18000 17.349
25.19000 22.199
25.20000 24.293
25.21000 27.370
25.22000 27.421
25.23000 23.353
25.24000 26.455
25.25000 22.097
25.26000 20.177
25.27000 20.209
25.28000 23.339
25.29000 20.135
25.30000 23.209
25.31000 23.148
25.32000 19.232
25.33000 23.368
25.34000 23.405
25.35000 20.169
25.36000 18.262
25.37000 16.133
25.38000 18.221
25.39000 18.183
25.40000 24.190
25.41000 21.336
25.42000 14.446
25.43000 22.350
25.44000 29.376
25.45000 21.263
25.46000 24.148
25.47000 19.272
25.48000 16.279
25.49000 17.267
25.50000 24.411
25.51000 23.202
25.52000 15.238
25.53000 22.417
25.54000 18.285
25.55000 18.077
25.56000 23.223
25.57000 22.181
25.58000 21.240
25.59000 18.172
25.60000 12.052
25.61000 26.281
25.62000 22.138
25.63000 18.360
25.64000 20.205
25.65000 16.088
25.66000 12.231
25.67000 21.219
25.68000 21.376
25.69000 26.486
25.70000 21.385
25.71000 21.158
25.72000 25.295
25.73000 18.287
25.74000 19.195
25.75000 17.102
25.76000 20.319
25.77000 18.298
25.78000 17.261
25.79000 26.374
25.80000 26.293
25.81000 24.170
25.82000 19.310
25.83000 18.256
25.84000 24.367
25.85000 21.238
25.86000 17.220
25.87000 19.173
25.88000 18.180
25.89000 18.148
25.90000 25.341
25.91000 11.179
25.92000 15.163
25.93000 19.269
25.94000 17.281
25.95000 12.187
25.96000 20.212
25.97000 20.416
25.98000 21.308
25.99000 21.287
26.00000 16.146
26.01000 18.222
26.02000 18.259
26.03000 21.247
26.04000 15.271
26.05000 27.239
26.06000 14.263
26.07000 17.259
26.08000 21.182
26.09000 9.219
26.10000 16.087
26.11000 22.249
26.12000 15.121
26.13000 14.024
26.14000 25.311
26.15000 16.192
26.16000 25.269
26.17000 16.197
26.18000 14.340
26.19000 20.293
26.20000 17.212
26.21000 13.106
26.22000 16.148
26.23000 16.219
26.24000 17.066
26.25000 23.002
26.26000 17.301
26.27000 21.093
26.28000 16.220
26.29000 15.186
26.30000 12.143
26.31000 24.325
26.32000 15.988
26.33000 14.983
26.34000 12.066
26.35000 14.183
26.36000 10.033
26.37000 16.123
26.38000 21.169
26.39000 22.223
26.40000 18.152
26.41000 9.141
26.42000 8.105
26.43000 10.082
26.44000 22.285
26.45000 12.150
26.46000 16.078
26.47000 15.048
26.48000 14.140
26.49000 17.286
26.50000 18.324
26.51000 13.177
26.52000 12.344
26.53000 17.118
26.54000 14.204
26.55000 16.201
26.56000 22.049
26.57000 13.207
26.58000 15.072
26.59000 21.341
26.60000 16.112
26.61000 15.094
26.62000 14.288
26.63000 10.080
26.64000 15.114
26.65000 14.066
26.66000 14.193
26.67000 18.181
26.68000 14.157
26.69000 7.009
26.70000 20.358
26.71000 13.129
26.72000 10.055
26.73000 17.239
26.74000 25.211
26.75000 20.327
26.76000 16.119
26.77000 14.117
26.78000 22.218
26.79000 12.247
26.80000 7.139
26.81000 13.236
26.82000 22.479
26.83000 16.281
26.84000 13.022
26.85000 22.142
26.86000 10.990
26.87000 12.224
26.88000 14.124
26.89000 12.072
26.90000 13.271
26.91000 22.044
26.92000 10.107
26.93000 17.303
26.94000 13.276
26.95000 14.167
26.96000 9.117
26.97000 10.057
26.98000 13.157
26.99000 11.101
27.00000 10.007
27.01000 9.166
27.02000 11.133
27.03000 11.152
27.04000 11.033
27.05000 14.409
27.06000 18.139
27.07000 13.062
27.08000 16.102
27.09000 7.053
27.10000 14.280
27.11000 13.153
27.12000 16.167
27.13000 17.291
27.14000 12.245
27.15000 20.295
27.16000 12.100
27.17000 15.036
27.18000 13.242
27.19000 22.281
27.20000 17.316
27.21000 12.033
27.22000 21.384
27.23000 12.198
27.24000 13.196
27.25000 6.988
27.26000 10.130
27.27000 13.235
27.28000 15.133
27.29000 15.237
27.30000 13.133
27.31000 10.046
27.32000 15.073
27.33000 15.112
27.34000 8.978
27.35000 8.239
27.36000 11.164
27.37000 18.263
27.38000 12.069
27.39000 12.246
27.40000 13.131
27.41000 6.113
27.42000 9.088
27.43000 16.191
27.44000 21.031
27.45000 11.086
27.46000 13.297
27.47000 15.294
27.48000 12.070
27.49000 19.269
27.50000 8.045
27.51000 13.199
27.52000 10.101
27.53000 10.235
27.54000 13.116
27.55000 15.277
27.56000 14.158
27.57000 19.129
27.58000 12.104
27.59000 12.167
27.60000 11.152
27.61000 14.192
27.62000 21.234
27.63000 15.181
27.64000 10.168
27.65000 13.166
27.66000 10.302
27.67000 11.203
27.68000 8.111
27.69000 10.115
27.70000 10.131
27.71000 6.071
27.72000 13.201
27.73000 15.148
27.74000 9.076
27.75000 15.078
27.76000 12.207
27.77000 10.112
27.78000 11.157
27.79000 11.128
27.80000 9.069
27.81000 14.108
27.82000 14.198
27.83000 11.122
27.84000 15.107
27.85000 14.031
27.86000 9.118
27.87000 6.984
27.88000 16.235
27.89000 6.003
27.90000 8.071
27.91000 16.156
27.92000 14.184
27.93000 10.085
27.94000 8.052
27.95000 7.057
27.96000 11.138
27.97000 8.110
27.98000 12.043
27.99000 8.145
28.00000 10.126
28.01000 9.098
28.02000 8.080
28.03000 11.177
28.04000 15.141
28.05000 17.204
28.06000 10.166
28.07000 12.126
28.08000 9.126
28.09000 7.009
28.10000 15.248
28.11000 13.090
28.12000 11.989
28.13000 8.156
28.14000 12.296
28.15000 16.193
28.16000 15.137
28.17000 9.264
28.18000 19.316
28.19000 17.315
28.20000 12.211
28.21000 8.105
28.22000 15.102
28.23000 10.110
28.24000 7.161
28.25000 12.043
28.26000 15.149
28.27000 12.064
28.28000 16.333
28.29000 9.103
28.30000 12.175
28.31000 7.053
28.32000 10.004
28.33000 16.169
28.34000 16.305
28.35000 13.164
28.36000 11.185
28.37000 12.156
28.38000 9.169
28.39000 9.208
28.40000 12.125
28.41000 11.210
28.42000 9.209
28.43000 10.138
28.44000 10.081
28.45000 10.252
28.46000 15.334
28.47000 9.062
28.48000 8.164
28.49000 10.203
28.50000 12.184
28.51000 16.110
28.52000 11.264
28.53000 9.076
28.54000 9.199
28.55000 12.266
28.56000 8.034
28.57000 8.111
28.58000 10.129
28.59000 9.049
28.60000 15.153
28.61000 17.233
28.62000 15.182
28.63000 9.131
28.64000 16.342
28.65000 5.090
28.66000 10.131
28.67000 7.184
28.68000 9.035
28.69000 13.082
28.70000 10.089
28.71000 5.091
28.72000 7.135
28.73000 16.012
28.74000 11.057
28.75000 13.132
28.76000 19.347
28.77000 7.077
28.78000 12.293
28.79000 10.216
28.80000 6.066
28.81000 9.144
28.82000 11.232
28.83000 9.130
28.84000 9.145
28.85000 16.047
28.86000 7.962
28.87000 12.221
28.88000 13.197
28.89000 7.014
28.90000 8.148
28.91000 10.110
28.92000 12.102
28.93000 12.179
28.94000 2.032
28.95000 7.134
28.96000 12.165
28.97000 14.163
28.98000 9.243
28.99000 16.392
29.00000 9.014
29.01000 10.269
29.02000 16.489
29.03000 9.052
29.04000 12.095
29.05000 7.181
29.06000 14.191
29.07000 7.198
29.08000 10.989
29.09000 13.231
29.10000 8.167
29.11000 7.076
29.12000 8.209
29.13000 14.083
29.14000 13.078
29.15000 10.157
29.16000 8.139
29.17000 9.142
29.18000 17.158
29.19000 8.038
29.20000 11.101
29.21000 13.126
29.22000 10.134
29.23000 8.079
29.24000 9.135
29.25000 8.086
29.26000 13.135
29.27000 7.066
29.28000 7.089
29.29000 7.178
29.30000 5.054
29.31000 14.288
29.32000 14.212
29.33000 13.155
29.34000 8.960
29.35000 2.058
29.36000 8.070
29.37000 9.055
29.38000 6.161
29.39000 11.017
29.40000 17.345
29.41000 11.030
29.42000 11.205
29.43000 8.031
29.44000 14.098
29.45000 8.031
29.46000 9.055
29.47000 12.203
29.48000 9.035
29.49000 4.060
29.50000 11.270
29.51000 6.077
29.52000 13.089
29.53000 12.165
29.54000 12.278
29.55000 15.144
29.56000 11.161
29.57000 10.178
29.58000 14.217
29.59000 10.192
29.60000 13.194
29.61000 7.030
29.62000 15.115
29.63000 8.955
29.64000 6.114
29.65000 11.190
29.66000 9.040
29.67000 11.043
29.68000 15.208
29.69000 11.197
29.70000 9.133
29.71000 12.155
29.72000 13.180
29.73000 13.138
29.74000 10.116
29.75000 19.437
29.76000 11.056
29.77000 16.385
29.78000 8.959
29.79000 12.078
29.80000 10.025
29.81000 5.090
29.82000 14.217
29.83000 8.097
29.84000 8.165
29.85000 6.108
29.86000 10.141
29.87000 7.130
29.88000 11.095
29.89000 16.275
29.90000 5.077
29.91000 9.192
29.92000 10.171
29.93000 10.133
29.94000 14.236
29.95000 11.147
29.96000 8.088
29.97000 7.059
29.98000 8.080
29.99000 13.376
30.00000 11.304
30.01000 10.073
30.02000 10.984
30.03000 12.053
30.04000 8.150
30.05000 10.034
30.06000 10.141
30.07000 8.099
30.08000 13.238
30.09000 12.140
30.10000 8.048
30.11000 6.211
30.12000 5.053
30.13000 12.171
30.14000 8.094
30.15000 11.085
30.16000 10.083
30.17000 5.096
30.18000 6.054
30.19000 10.147
30.20000 8.106
30.21000 8.083
30.22000 12.172
30.23000 12.166
30.24000 11.098
30.25000 8.080
30.26000 14.194
30.27000 11.231
30.28000 6.093
30.29000 8.157
30.30000 8.048
30.31000 6.977
30.32000 10.190
30.33000 12.167
30.34000 12.254
30.35000 7.112
30.36000 10.105
30.37000 9.071
30.38000 10.072
30.39000 15.188
30.40000 14.224
30.41000 10.049
30.42000 8.112
30.43000 11.089
30.44000 10.123
30.45000 10.144
30.46000 8.132
30.47000 12.299
30.48000 11.139
30.49000 11.237
30.50000 11.112
30.51000 4.105
30.52000 8.255
30.53000 6.016
30.54000 4.991
30.55000 11.230
30.56000 2.986
30.57000 8.223
30.58000 9.191
30.59000 9.201
30.60000 9.155
30.61000 7.131
30.62000 10.146
30.63000 5.997
30.64000 17.202
30.65000 10.211
30.66000 5.146
30.67000 8.185
30.68000 9.156
30.69000 13.269
30.70000 10.108
30.71000 8.211
30.72000 10.066
30.73000 12.155
30.74000 11.078
30.75000 12.162
30.76000 9.089
30.77000 9.088
30.78000 13.281
30.79000 8.965
30.80000 6.185
30.81000 10.135
30.82000 7.098
30.83000 7.051
30.84000 8.144
30.85000 12.144
30.86000 8.250
30.87000 6.060
30.88000 9.144
30.89000 9.124
30.90000 8.132
30.91000 5.172
30.92000 6.015
30.93000 10.118
30.94000 9.075
30.95000 9.126
30.96000 5.010
30.97000 8.236
30.98000 11.146
30.99000 10.272
31.00000 6.092
31.01000 8.123
31.02000 11.109
31.03000 10.189
31.04000 13.067
31.05000 6.053
31.06000 7.059
31.07000 7.194
31.08000 7.133
31.09000 12.262
31.10000 5.051
31.11000 5.084
31.12000 7.082
31.13000 9.200
31.14000 6.985
31.15000 10.161
31.16000 6.073
31.17000 9.033
31.18000 10.175
31.19000 11.194
31.20000 10.158
31.21000 10.115
31.22000 6.097
31.23000 7.101
31.24000 9.095
31.25000 13.207
31.26000 14.116
31.27000 14.112
31.28000 7.174
31.29000 8.175
31.30000 6.134
31.31000 6.963
31.32000 10.119
31.33000 4.063
31.34000 7.093
31.35000 1.004
31.36000 9.154
31.37000 6.096
31.38000 6.096
31.39000 17.144
31.40000 14.194
31.41000 7.258
31.42000 13.224
31.43000 10.152
31.44000 11.146
31.45000 10.159
31.46000 4.071
31.47000 12.129
31.48000 8.208
31.49000 10.180
31.50000 7.088
31.51000 6.078
31.52000 7.052
31.53000 13.099
31.54000 10.062
31.55000 10.066
31.56000 5.122
31.57000 12.107
31.58000 12.975
31.59000 11.068
31.60000 10.197
31.61000 8.072
31.62000 8.025
31.63000 11.159
31.64000 10.160
31.65000 12.247
31.66000 15.190
31.67000 4.964
31.68000 5.019
31.69000 12.091
31.70000 12.188
31.71000 7.116
31.72000 7.048
31.73000 8.140
31.74000 6.102
31.75000 10.272
31.76000 7.184
31.77000 7.138
31.78000 11.505
31.79000 5.091
31.80000 5.144
31.81000 9.320
31.82000 6.023
31.83000 10.009
31.84000 4.957
31.85000 7.083
31.86000 7.119
31.87000 6.025
31.88000 4.075
31.89000 11.190
31.90000 6.139
31.91000 13.076
31.92000 15.264
31.93000 5.040
31.94000 7.017
31.95000 10.193
31.96000 8.124
31.97000 6.087
31.98000 10.161
31.99000 7.027
32.00000 7.147
32.01000 8.224
32.02000 7.977
32.03000 13.151
32.04000 10.144
32.05000 6.053
32.06000 9.159
32.07000 7.183
32.08000 6.064
32.09000 10.159
32.10000 7.045
32.11000 9.040
32.12000 8.103
32.13000 8.062
32.14000 7.028
32.15000 10.194
32.16000 15.076
32.17000 7.032
32.18000 10.139
32.19000 4.033
32.20000 11.233
32.21000 7.099
32.22000 8.028
32.23000 8.039
32.24000 2.975
32.25000 4.018
32.26000 4.044
32.27000 7.089
32.28000 6.167
32.29000 10.148
32.30000 8.118
32.31000 11.121
32.32000 10.250
32.33000 12.197
32.34000 0.996
32.35000 9.191
32.36000 7.003
32.37000 8.041
32.38000 9.190
32.39000 6.042
32.40000 10.148
32.41000 10.144
32.42000 6.155
32.43000 4.019
32.44000 6.111
32.45000 14.228
32.46000 5.023
32.47000 8.091
32.48000 5.114
32.49000 15.140
32.50000 8.122
32.51000 5.038
32.52000 9.220
32.53000 10.061
32.54000 6.998
32.55000 7.112
32.56000 10.099
32.57000 7.996
32.58000 10.192
32.59000 11.108
32.60000 10.216
32.61000 9.068
32.62000 9.056
32.63000 5.042
32.64000 12.064
32.65000 4.069
32.66000 8.209
32.67000 3.094
32.68000 4.039
32.69000 4.006
32.70000 7.154
32.71000 10.267
32.72000 11.055
32.73000 7.100
32.74000 11.149
32.75000 4.036
32.76000 10.296
32.77000 5.011
32.78000 4.018
32.79000 5.085
32.80000 9.145
32.81000 9.092
32.82000 6.044
32.83000 9.144
32.84000 13.152
32.85000 15.149
32.86000 8.057
32.87000 9.166
32.88000 7.993
32.89000 10.157
32.90000 8.136
32.91000 6.059
32.92000 4.077
32.93000 7.127
32.94000 8.107
32.95000 6.032
32.96000 11.243
32.97000 4.110
32.98000 8.083
32.99000 4.022
33.00000 8.138
33.01000 5.102
33.02000 6.215
33.03000 3.994
33.04000 11.122
33.05000 9.147
33.06000 4.053
33.07000 10.083
33.08000 1.014
33.09000 5.007
33.10000 3.979
33.11000 7.087
33.12000 5.036
33.13000 4.069
33.14000 11.038
33.15000 7.148
33.16000 8.090
33.17000 5.076
33.18000 5.021
33.19000 6.156
33.20000 8.162
33.21000 5.080
33.22000 10.116
33.23000 7.118
33.24000 8.992
33.25000 9.138
33.26000 7.082
33.27000 8.083
33.28000 8.090
33.29000 3.993
33.30000 11.090
33.31000 5.175
33.32000 5.146
33.33000 6.073
33.34000 12.150
33.35000 9.054
33.36000 7.108
33.37000 10.097
33.38000 6.129
33.39000 5.092
33.40000 9.098
33.41000 7.101
33.42000 10.119
33.43000 3.124
33.44000 4.083
33.45000 9.987
33.46000 14.318
33.47000 11.204
33.48000 5.058
33.49000 4.035
33.50000 3.975
33.51000 5.078
33.52000 5.111
33.53000 10.198
33.54000 3.008
33.55000 14.369
33.56000 14.140
33.57000 7.039
33.58000 8.137
33.59000 5.067
33.60000 4.968
33.61000 8.171
33.62000 7.106
33.63000 8.061
33.64000 6.030
33.65000 3.990
33.66000 7.143
33.67000 9.152
33.68000 5.022
33.69000 7.085
33.70000 11.088
33.71000 4.951
33.72000 4.960
33.73000 11.997
33.74000 7.077
33.75000 7.173
33.76000 5.951
33.77000 4.077
33.78000 11.248
33.79000 3.013
33.80000 6.041
33.81000 7.153
33.82000 3.992
33.83000 3.072
33.84000 8.146
33.85000 8.063
33.86000 2.981
33.87000 9.209
33.88000 8.127
33.89000 8.183
33.90000 5.999
33.91000 14.073
33.92000 7.026
33.93000 8.176
33.94000 9.288
33.95000 7.021
33.96000 3.074
33.97000 5.054
33.98000 10.123
33.99000 7.103
34.00000 6.067
34.01000 9.172
34.02000 4.034
34.03000 7.106
34.04000 1.989
34.05000 7.160
34.06000 10.080
34.07000 6.050
34.08000 3.003
34.09000 4.039
34.10000 5.063
34.11000 9.125
34.12000 3.082
34.13000 6.138
34.14000 11.145
34.15000 3.066
34.16000 1.001
34.17000 5.090
34.18000 5.184
34.19000 4.093
34.20000 8.152
34.21000 7.246
34.22000 10.241
34.23000 6.233
34.24000 7.180
34.25000 5.048
34.26000 5.146
34.27000 4.011
34.28000 7.108
34.29000 4.986
34.30000 8.177
34.31000 9.128
34.32000 11.192
34.33000 10.171
34.34000 10.169
34.35000 8.015
34.36000 6.058
34.37000 11.152
34.38000 5.147
34.39000 3.015
34.40000 5.071
34.41000 4.038
34.42000 5.043
34.43000 6.048
34.44000 8.062
34.45000 6.090
34.46000 11.072
34.47000 7.128
34.48000 11.228
34.49000 6.100
34.50000 6.021
34.51000 9.231
34.52000 3.049
34.53000 5.994
34.54000 7.203
34.55000 6.976
34.56000 4.062
34.57000 4.044
34.58000 5.038
34.59000 5.999
34.60000 9.204
34.61000 7.083
34.62000 6.076
34.63000 7.124
34.64000 12.199
34.65000 7.153
34.66000 6.104
34.67000 5.007
34.68000 5.966
34.69000 11.183
34.70000 5.094
34.71000 4.044
34.72000 6.162
34.73000 2.061
34.74000 5.147
34.75000 13.382
34.76000 2.089
34.77000 1.068
34.78000 5.976
34.79000 10.118
34.80000 5.025
34.81000 8.131
34.82000 5.050
34.83000 10.073
34.84000 9.057
34.85000 8.120
34.86000 3.029
34.87000 10.113
34.88000 5.951
34.89000 7.180
34.90000 3.991
34.91000 9.114
34.92000 3.041
34.93000 0.990
34.94000 9.102
34.95000 7.146
34.96000 10.153
34.97000 9.158
34.98000 8.918
34.99000 2.044
35.00000 11.159
35.01000 4.031
35.02000 3.079
35.03000 3.080
35.04000 3.034
35.05000 9.021
35.06000 5.079
35.07000 3.035
35.08000 5.124
35.09000 6.054
35.10000 7.062
35.11000 6.078
35.12000 9.079
35.13000 8.015
35.14000 4.125
35.15000 7.036
35.16000 6.070
35.17000 6.073
35.18000 7.128
35.19000 8.046
35.20000 6.061
35.21000 4.063
35.22000 10.240
35.23000 4.998
35.24000 5.038
35.25000 5.051
35.26000 10.113
35.27000 5.024
35.28000 7.139
35.29000 6.120
35.30000 9.191
35.31000 5.044
35.32000 5.090
35.33000 6.040
35.34000 3.043
35.35000 11.105
35.36000 6.120
35.37000 15.110
35.38000 5.135
35.39000 6.220
35.40000 7.012
35.41000 6.130
35.42000 12.127
35.43000 9.110
35.44000 6.083
35.45000 6.045
35.46000 7.034
35.47000 5.062
35.48000 4.039
35.49000 4.060
35.50000 5.045
35.51000 2.049
35.52000 4.018
35.53000 5.119
35.54000 11.034
35.55000 4.992
35.56000 5.034
35.57000 10.033
35.58000 9.112
35.59000 2.978
35.60000 4.060
35.61000 4.962
35.62000 8.144
35.63000 5.090
35.64000 5.973
35.65000 11.197
35.66000 6.095
35.67000 10.093
35.68000 6.009
35.69000 3.124
35.70000 5.065
35.71000 4.069
35.72000 4.969
35.73000 0.998
35.74000 5.057
35.75000 9.114
35.76000 6.210
35.77000 11.076
35.78000 11.190
35.79000 8.084
35.80000 4.100
35.81000 8.201
35.82000 7.123
35.83000 7.056
35.84000 4.123
35.85000 4.965
35.86000 7.078
35.87000 4.077
35.88000 8.132
35.89000 7.205
35.90000 10.162
35.91000 2.028
35.92000 9.172
35.93000 8.124
35.94000 7.015
35.95000 4.046
35.96000 9.088
35.97000 6.123
35.98000 12.169
35.99000 3.110
36.00000 3.003
36.01000 2.974
36.02000 5.045
36.03000 3.039
36.04000 1.012
36.05000 5.095
36.06000 5.017
36.07000 5.022
36.08000 4.072
36.09000 8.023
36.10000 8.018
36.11000 3.104
36.12000 8.041
36.13000 6.044
36.14000 7.079
36.15000 6.044
36.16000 3.066
36.17000 4.042
36.18000 6.095
36.19000 3.995
36.20000 8.008
36.21000 0.991
36.22000 10.187
36.23000 5.149
36.24000 3.003
36.25000 5.075
36.26000 4.072
36.27000 7.236
36.28000 5.030
36.29000 6.033
36.30000 5.016
36.31000 9.122
36.32000 4.007
36.33000 7.112
36.34000 6.074
36.35000 9.183
36.36000 7.097
36.37000 4.965
36.38000 5.122
36.39000 7.073
36.40000 10.263
36.41000 1.984
36.42000 5.129
36.43000 7.105
36.44000 6.035
36.45000 6.079
36.46000 6.034
36.47000 5.056
36.48000 7.220
36.49000 5.165
36.50000 5.115
36.51000 4.057
36.52000 2.098
36.53000 5.108
36.54000 1.978
36.55000 5.049
36.56000 1.988
36.57000 7.124
36.58000 8.131
36.59000 7.178
36.60000 7.115
36.61000 7.074
36.62000 8.112
36.63000 8.253
36.64000 5.005
36.65000 5.069
36.66000 3.995
36.67000 5.025
36.68000 5.051
36.69000 8.074
36.70000 2.996
36.71000 5.032
36.72000 4.082
36.73000 4.031
36.74000 5.075
36.75000 6.097
36.76000 5.021
36.77000 9.074
36.78000 2.061
36.79000 8.111
36.80000 7.113
36.81000 6.976
36.82000 2.040
36.83000 2.020
36.84000 0.983
36.85000 5.073
36.86000 11.286
36.87000 7.139
36.88000 8.059
36.89000 1.993
36.90000 2.975
36.91000 6.127
36.92000 11.153
36.93000 6.093
36.94000 7.135
36.95000 6.071
36.96000 3.008
36.97000 5.156
36.98000 2.956
36.99000 9.105
37.00000 6.080
37.01000 2.995
37.02000 4.015
37.03000 5.055
37.04000 2.025
37.05000 8.068
37.06000 6.069
37.07000 2.994
37.08000 6.119
37.09000 7.110
37.10000 6.081
37.11000 6.101
37.12000 3.001
37.13000 4.039
37.14000 9.115
37.15000 5.153
37.16000 4.000
37.17000 4.023
37.18000 7.177
37.19000 3.117
37.20000 5.152
37.21000 1.996
37.22000 8.069
37.23000 2.017
37.24000 6.075
37.25000 7.087
37.26000 4.062
37.27000 4.038
37.28000 2.990
37.29000 10.139
37.30000 3.034
37.31000 6.104
37.32000 5.081
37.33000 2.091
37.34000 3.034
37.35000 6.087
37.36000 5.038
37.37000 5.181
37.38000 11.166
37.39000 5.989
37.40000 2.969
37.41000 6.060
37.42000 10.137
37.43000 5.072
37.44000 6.035
37.45000 3.018
37.46000 12.217
37.47000 4.086
37.48000 8.066
37.49000 5.049
37.50000 5.091
37.51000 4.083
37.52000 5.104
37.53000 4.089
37.54000 7.045
37.55000 5.107
37.56000 2.081
37.57000 4.049
37.58000 5.186
37.59000 2.012
37.60000 5.004
37.61000 10.009
37.62000 10.078
37.63000 8.231
37.64000 3.027
37.65000 3.009
37.66000 3.092
37.67000 6.094
37.68000 7.093
37.69000 2.956
37.70000 4.027
37.71000 2.065
37.72000 4.131
37.73000 6.081
37.74000 10.240
37.75000 5.146
37.76000 4.057
37.77000 5.064
37.78000 5.052
37.79000 5.055
37.80000 8.196
37.81000 5.075
37.82000 4.070
37.83000 8.209
37.84000 4.087
37.85000 5.028
37.86000 3.055
37.87000 5.046
37.88000 9.085
37.89000 2.987
37.90000 3.061
37.91000 4.024
37.92000 6.123
37.93000 4.052
37.94000 6.152
37.95000 6.075
37.96000 3.053
37.97000 9.141
37.98000 3.017
37.99000 7.120
38.00000 7.109
38.01000 7.020
38.02000 5.031
38.03000 7.158
38.04000 3.970
38.05000 3.000
38.06000 3.000
38.07000 8.116
38.08000 5.061
38.09000 8.117
38.10000 5.016
38.11000 2.978
38.12000 5.034
38.13000 7.073
38.14000 4.059
38.15000 3.027
38.16000 4.058
38.17000 4.145
38.18000 4.029
38.19000 6.088
38.20000 6.070
38.21000 7.051
38.22000 4.077
38.23000 5.134
38.24000 4.039
38.25000 4.083
38.26000 6.098
38.27000 3.055
38.28000 0.996
38.29000 5.018
38.30000 4.121
38.31000 0.000
38.32000 3.001
38.33000 5.053
38.34000 4.082
38.35000 4.971
38.36000 3.000
38.37000 4.014
38.38000 7.068
38.39000 7.104
38.40000 4.993
38.41000 5.051
38.42000 4.061
38.43000 5.147
38.44000 1.963
38.45000 1.024
38.46000 4.066
38.47000 5.055
38.48000 5.087
38.49000 3.041
38.50000 6.065
38.51000 2.014
38.52000 3.039
38.53000 2.055
38.54000 4.987
38.55000 3.088
38.56000 6.106
38.57000 1.999
38.58000 5.078
38.59000 4.131
38.60000 6.048
38.61000 0.000
38.62000 7.151
38.63000 0.984
38.64000 5.042
38.65000 6.061
38.66000 11.035
38.67000 2.992
38.68000 5.063
38.69000 5.056
38.70000 5.055
38.71000 8.079
38.72000 3.090
38.73000 6.114
38.74000 1.972
38.75000 3.036
38.76000 5.988
38.77000 0.976
38.78000 6.154
38.79000 5.090
38.80000 5.037
38.81000 1.986
38.82000 8.020
38.83000 8.068
38.84000 2.057
38.85000 6.201
38.86000 4.066
38.87000 2.110
38.88000 7.156
38.89000 5.067
38.90000 4.075
38.91000 4.074
38.92000 6.020
38.93000 5.078
38.94000 5.080
38.95000 4.062
38.96000 3.031
38.97000 1.995
38.98000 3.092
38.99000 2.988
39.00000 1.024
39.01000 2.958
39.02000 3.110
39.03000 8.101
39.04000 7.147
39.05000 4.083
39.06000 7.047
39.07000 2.020
39.08000 9.143
39.09000 7.118
39.10000 7.096
39.11000 6.031
39.12000 5.960
39.13000 2.971
39.14000 2.983
39.15000 2.971
39.16000 3.045
39.17000 5.036
39.18000 7.138
39.19000 6.108
39.20000 5.108
39.21000 3.994
39.22000 4.041
39.23000 7.152
39.24000 1.974
39.25000 7.113
39.26000 6.238
39.27000 3.036
39.28000 5.096
39.29000 7.150
39.30000 3.077
39.31000 7.099
39.32000 6.066
39.33000 7.146
39.34000 4.049
39.35000 3.026
39.36000 5.006
39.37000 3.063
39.38000 5.987
39.39000 4.030
39.40000 8.026
39.41000 3.035
39.42000 0.000
39.43000 4.027
39.44000 5.032
39.45000 5.060
39.46000 11.100
39.47000 3.027
39.48000 6.110
39.49000 8.183
39.50000 7.269
39.51000 3.005
39.52000 3.994
39.53000 5.055
39.54000 2.038
39.55000 5.074
39.56000 6.066
39.57000 4.059
39.58000 3.978
39.59000 5.068
39.60000 11.317
39.61000 2.041
39.62000 4.079
39.63000 2.005
39.64000 8.125
39.65000 4.064
39.66000 3.062
39.67000 6.074
39.68000 5.125
39.69000 1.990
39.70000 2.077
39.71000 5.019
39.72000 2.033
39.73000 4.039
39.74000 7.243
39.75000 5.084
39.76000 5.956
39.77000 7.145
39.78000 3.989
39.79000 6.070
39.80000 8.087
39.81000 2.999
39.82000 3.052
39.83000 8.069
39.84000 2.026
39.85000 4.119
39.86000 7.177
39.87000 5.092
39.88000 9.127
39.89000 5.190
39.90000 7.003
39.91000 3.079
39.92000 7.094
39.93000 6.079
39.94000 0.000
39.95000 7.099
39.96000 6.057
39.97000 6.077
39.98000 5.979
39.99000 9.086
40.00000 5.035
40.01000 0.990
40.02000 10.167
40.03000 8.084
40.04000 6.102
40.05000 6.102
40.06000 3.967
40.07000 0.985
40.08000 7.066
40.09000 4.054
40.10000 6.142
40.11000 4.115
40.12000 2.014
40.13000 4.008
40.14000 0.986
40.15000 5.024
40.16000 7.197
40.17000 3.074
40.18000 3.045
40.19000 2.059
40.20000 3.032
40.21000 1.014
40.22000 1.020
40.23000 6.109
40.24000 7.138
40.25000 0.981
40.26000 6.000
40.27000 7.993
40.28000 5.042
40.29000 4.057
40.30000 7.132
40.31000 4.042
40.32000 4.040
40.33000 7.083
40.34000 4.072
40.35000 6.063
40.36000 5.022
40.37000 6.124
40.38000 5.128
40.39000 4.990
40.40000 3.051
40.41000 6.075
40.42000 3.974
40.43000 4.095
40.44000 9.196
40.45000 6.043
40.46000 3.139
40.47000 5.024
40.48000 1.048
40.49000 5.132
40.50000 7.108
40.51000 5.112
40.52000 2.067
40.53000 0.985
40.54000 3.025
40.55000 6.098
40.56000 2.034
40.57000 5.114
40.58000 5.015
40.59000 5.016
40.60000 2.989
40.61000 6.107
40.62000 5.100
40.63000 5.087
40.64000 5.069
40.65000 1.002
40.66000 4.042
40.67000 3.013
40.68000 6.140
40.69000 6.124
40.70000 3.064
40.71000 5.053
40.72000 6.140
40.73000 4.080
40.74000 5.041
40.75000 4.022
40.76000 6.162
40.77000 5.066
40.78000 4.180
40.79000 8.174
40.80000 5.113
40.81000 9.216
40.82000 3.998
40.83000 5.056
40.84000 3.992
40.85000 4.053
40.86000 4.021
40.87000 7.109
40.88000 2.031
40.89000 4.080
40.90000 3.157
40.91000 5.093
40.92000 4.996
40.93000 10.083
40.94000 4.056
40.95000 4.089
40.96000 5.087
40.97000 9.161
40.98000 2.024
40.99000 1.046
41.00000 6.040
41.01000 4.157
41.02000 4.039
41.03000 6.086
41.04000 5.014
41.05000 3.047
41.06000 7.097
41.07000 2.017
41.08000 6.020
41.09000 3.033
41.10000 8.040
41.11000 7.053
41.12000 4.000
41.13000 3.083
41.14000 3.080
41.15000 6.073
41.16000 3.998
41.17000 5.060
41.18000 4.085
41.19000 4.053
41.20000 5.146
41.21000 4.028
41.22000 9.137
41.23000 5.090
41.24000 3.080
41.25000 5.153
41.26000 11.084
41.27000 6.028
41.28000 5.095
41.29000 2.015
41.30000 2.026
41.31000 2.070
41.32000 5.091
41.33000 4.112
41.34000 7.037
41.35000 2.016
41.36000 4.058
41.37000 8.215
41.38000 4.972
41.39000 6.215
41.40000 1.035
41.41000 2.029
41.42000 3.048
41.43000 1.029
41.44000 11.013
41.45000 6.185
41.46000 7.065
41.47000 7.132
41.48000 1.007
41.49000 3.993
41.50000 5.028
41.51000 3.039
41.52000 4.932
41.53000 8.085
41.54000 4.013
41.55000 4.069
41.56000 7.131
41.57000 2.005
41.58000 2.056
41.59000 4.065
41.60000 3.093
41.61000 2.027
41.62000 5.033
41.63000 1.022
41.64000 6.165
41.65000 0.981
41.66000 2.001
41.67000 5.104
41.68000 3.059
41.69000 5.019
41.70000 5.113
41.71000 5.064
41.72000 7.201
41.73000 3.040
41.74000 2.068
41.75000 4.050
41.76000 3.034
41.77000 13.082
41.78000 5.079
41.79000 4.963
41.80000 5.075
41.81000 4.131
41.82000 3.016
41.83000 4.082
41.84000 3.070
41.85000 3.030
41.86000 3.119
41.87000 5.081
41.88000 6.054
41.89000 2.954
41.90000 6.111
41.91000 4.073
41.92000 4.003
41.93000 3.994
41.94000 3.060
41.95000 5.003
41.96000 4.025
41.97000 4.120
41.98000 4.104
41.99000 3.923
42.00000 6.239
42.01000 4.046
42.02000 5.074
42.03000 2.064
42.04000 1.069
42.05000 5.152
42.06000 4.996
42.07000 11.187
42.08000 3.044
42.09000 7.159
42.10000 2.060
42.11000 2.991
42.12000 3.024
42.13000 4.098
42.14000 6.170
42.15000 7.036
42.16000 5.028
42.17000 2.087
42.18000 5.032
42.19000 2.032
42.20000 2.023
42.21000 3.060
42.22000 6.055
42.23000 4.062
42.24000 5.061
42.25000 0.984
42.26000 0.994
42.27000 6.068
42.28000 6.119
42.29000 3.974
42.30000 3.017
42.31000 5.107
42.32000 6.024
42.33000 6.060
42.34000 0.996
42.35000 5.099
42.36000 1.049
42.37000 7.071
42.38000 6.152
42.39000 2.009
42.40000 7.153
42.41000 8.022
42.42000 8.000
42.43000 5.091
42.44000 1.016
42.45000 4.015
42.46000 4.030
42.47000 8.171
42.48000 2.024
42.49000 1.991
42.50000 3.055
42.51000 5.078
42.52000 4.040
42.53000 2.975
42.54000 9.319
42.55000 4.128
42.56000 7.040
42.57000 4.092
42.58000 4.980
42.59000 4.090
42.60000 2.027
42.61000 3.019
42.62000 2.078
42.63000 1.054
42.64000 5.147
42.65000 2.977
42.66000 0.000
42.67000 4.060
42.68000 2.020
42.69000 3.057
42.70000 3.074
42.71000 1.982
42.72000 8.190
42.73000 3.103
42.74000 5.008
42.75000 1.007
42.76000 4.027
42.77000 7.018
42.78000 3.042
42.79000 4.040
42.80000 2.998
42.81000 3.031
42.82000 2.033
42.83000 5.116
42.84000 2.014
42.85000 5.995
42.86000 2.020
42.87000 5.014
42.88000 0.987
42.89000 0.994
42.90000 3.078
42.91000 5.044
42.92000 6.121
42.93000 4.076
42.94000 4.032
42.95000 4.056
42.96000 3.026
42.97000 3.013
42.98000 4.023
42.99000 5.105
43.00000 1.029
43.01000 2.022
43.02000 3.034
43.03000 3.016
43.04000 3.059
43.05000 6.100
43.06000 6.121
43.07000 3.038
43.08000 4.108
43.09000 6.014
43.10000 0.996
43.11000 4.017
43.12000 3.161
43.13000 0.993
43.14000 6.075
43.15000 5.083
43.16000 4.037
43.17000 3.045
43.18000 5.047
43.19000 2.006
43.20000 4.060
43.21000 2.970
43.22000 4.034
43.23000 1.991
43.24000 6.064
43.25000 3.092
43.26000 4.063
43.27000 4.965
43.28000 3.099
43.29000 3.025
43.30000 0.000
43.31000 3.044
43.32000 7.030
43.33000 5.065
43.34000 3.029
43.35000 3.930
43.36000 1.989
43.37000 4.109
43.38000 3.017
43.39000 2.028
43.40000 3.111
43.41000 1.013
43.42000 5.087
43.43000 0.974
43.44000 1.988
43.45000 6.044
43.46000 4.986
43.47000 2.987
43.48000 6.020
43.49000 6.128
43.50000 5.007
43.51000 1.017
43.52000 2.038
43.53000 1.000
43.54000 4.097
43.55000 6.090
43.56000 8.952
43.57000 5.034
43.58000 4.053
43.59000 5.153
43.60000 1.987
43.61000 2.004
43.62000 4.058
43.63000 5.018
43.64000 1.002
43.65000 2.014
43.66000 2.959
43.67000 5.064
43.68000 7.163
43.69000 3.997
43.70000 0.000
43.71000 2.995
43.72000 3.023
43.73000 4.065
43.74000 2.083
43.75000 3.050
43.76000 2.986
43.77000 6.058
43.78000 4.011
43.79000 5.997
43.80000 5.029
43.81000 5.011
43.82000 6.092
43.83000 1.029
43.84000 3.091
43.85000 4.066
43.86000 5.073
43.87000 3.977
43.88000 3.984
43.89000 0.000
43.90000 6.052
43.91000 4.077
43.92000 2.014
43.93000 4.048
43.94000 4.011
43.95000 6.116
43.96000 5.077
43.97000 8.022
43.98000 0.000
43.99000 5.035
44.00000 2.003
44.01000 3.041
44.02000 3.078
44.03000 3.071
44.04000 3.026
44.05000 3.000
44.06000 3.005
44.07000 4.078
44.08000 4.077
44.09000 4.047
44.10000 4.005
44.11000 4.016
44.12000 4.046
44.13000 5.058
44.14000 3.018
44.15000 3.069
44.16000 3.031
44.17000 2.958
44.18000 2.078
44.19000 0.000
44.20000 3.005
44.21000 4.067
44.22000 8.082
44.23000 3.026
44.24000 1.984
44.25000 3.077
44.26000 4.042
44.27000 3.070
44.28000 1.977
44.29000 6.084
44.30000 5.057
44.31000 2.029
44.32000 3.987
44.33000 0.000
44.34000 6.034
44.35000 3.978
44.36000 4.155
44.37000 4.964
44.38000 3.107
44.39000 6.038
44.40000 1.026
44.41000 1.023
44.42000 3.004
44.43000 0.989
44.44000 3.019
44.45000 4.136
44.46000 4.991
44.47000 3.991
44.48000 0.000
44.49000 2.023
44.50000 7.966
44.51000 1.044
44.52000 5.203
44.53000 1.009
44.54000 7.086
44.55000 5.091
44.56000 6.024
44.57000 2.004
44.58000 3.013
44.59000 4.065
44.60000 3.023
44.61000 4.006
44.62000 2.051
44.63000 5.078
44.64000 0.000
44.65000 3.980
44.66000 5.117
44.67000 5.092
44.68000 2.998
44.69000 4.006
44.70000 3.120
44.71000 4.146
44.72000 1.995
44.73000 1.005
44.74000 1.979
44.75000 0.000
44.76000 6.063
44.77000 1.009
44.78000 1.002
44.79000 4.139
44.80000 2.000
44.81000 2.022
44.82000 0.000
44.83000 5.086
44.84000 2.988
44.85000 3.058
44.86000 3.035
44.87000 5.063
44.88000 1.999
44.89000 6.013
44.90000 2.073
44.91000 5.106
44.92000 3.041
44.93000 0.999
44.94000 9.133
44.95000 5.128
44.96000 4.017
44.97000 5.032
44.98000 2.061
44.99000 0.993
45.00000 2.104
45.01000 7.095
45.02000 3.065
45.03000 2.018
45.04000 9.041
45.05000 4.030
45.06000 5.110
45.07000 2.048
45.08000 0.999
45.09000 2.006
45.10000 2.033
45.11000 2.026
45.12000 5.051
45.13000 5.145
45.14000 6.049
45.15000 2.996
45.16000 3.060
45.17000 1.020
45.18000 1.004
45.19000 6.126
45.20000 3.980
45.21000 4.073
45.22000 1.030
45.23000 8.227
45.24000 7.154
45.25000 3.019
45.26000 3.100
45.27000 7.252
45.28000 3.010
45.29000 0.000
45.30000 5.996
45.31000 4.044
45.32000 3.059
45.33000 5.008
45.34000 4.052
45.35000 5.113
45.36000 2.033
45.37000 4.039
45.38000 4.985
45.39000 0.979
45.40000 1.025
45.41000 7.113
45.42000 0.999
45.43000 2.043
45.44000 4.094
45.45000 2.987
45.46000 4.038
45.47000 2.977
45.48000 0.989
45.49000 3.162
45.50000 1.026
45.51000 2.050
45.52000 4.098
45.53000 3.104
45.54000 5.033
45.55000 6.131
45.56000 6.012
45.57000 1.012
45.58000 5.079
45.59000 1.018
45.60000 2.041
45.61000 4.035
45.62000 1.006
45.63000 0.996
45.64000 4.116
45.65000 4.073
45.66000 2.997
45.67000 2.022
45.68000 0.990
45.69000 7.064
45.70000 10.048
45.71000 1.015
45.72000 5.109
45.73000 4.007
45.74000 0.000
45.75000 4.037
45.76000 4.013
45.77000 2.998
45.78000 3.092
45.79000 4.015
45.80000 2.012
45.81000 1.040
45.82000 4.064
45.83000 2.965
45.84000 4.093
45.85000 6.091
45.86000 3.046
45.87000 1.045
45.88000 3.013
45.89000 0.988
45.90000 3.047
45.91000 5.093
45.92000 5.108
45.93000 3.024
45.94000 4.114
45.95000 5.025
45.96000 3.062
45.97000 3.071
45.98000 4.091
45.99000 8.035
46.00000 5.085
46.01000 2.068
46.02000 5.034
46.03000 1.993
46.04000 2.016
46.05000 0.000
46.06000 1.000
46.07000 1.989
46.08000 1.006
46.09000 5.967
46.10000 3.084
46.11000 1.993
46.12000 2.101
46.13000 7.102
46.14000 5.071
46.15000 5.085
46.16000 5.034
46.17000 2.024
46.18000 5.016
46.19000 3.051
46.20000 4.092
46.21000 5.068
46.22000 1.981
46.23000 4.076
46.24000 2.092
46.25000 4.083
46.26000 3.101
46.27000 4.106
46.28000 3.036
46.29000 5.030
46.30000 5.028
46.31000 0.000
46.32000 3.073
46.33000 6.055
46.34000 5.064
46.35000 2.000
46.36000 3.076
46.37000 2.025
46.38000 1.978
46.39000 1.008
46.40000 1.021
46.41000 1.016
46.42000 4.112
46.43000 0.000
46.44000 3.072
46.45000 2.054
46.46000 5.117
46.47000 3.049
46.48000 1.024
46.49000 4.052
46.50000 4.039
46.51000 3.025
46.52000 3.008
46.53000 1.028
46.54000 4.053
46.55000 4.022
46.56000 4.104
46.57000 3.026
46.58000 2.013
46.59000 3.108
46.60000 1.991
46.61000 6.104
46.62000 1.992
46.63000 1.053
46.64000 1.002
46.65000 2.997
46.66000 8.187
46.67000 4.058
46.68000 2.025
46.69000 1.034
46.70000 4.083
46.71000 4.006
46.72000 3.099
46.73000 4.057
46.74000 2.051
46.75000 2.013
46.76000 1.024
46.77000 3.072
46.78000 2.092
46.79000 2.027
46.80000 1.990
46.81000 3.001
46.82000 6.025
46.83000 2.995
46.84000 2.049
46.85000 1.996
46.86000 8.012
46.87000 2.015
46.88000 6.091
46.89000 5.085
46.90000 2.017
46.91000 1.057
46.92000 5.011
46.93000 5.151
46.94000 2.010
46.95000 3.042
46.96000 2.058
46.97000 1.027
46.98000 3.028
46.99000 3.011
47.00000 5.076
47.01000 2.977
47.02000 5.012
47.03000 7.073
47.04000 0.000
47.05000 1.989
47.06000 2.157
47.07000 6.102
47.08000 3.070
47.09000 2.076
47.10000 4.065
47.11000 5.089
47.12000 3.122
47.13000 3.109
47.14000 7.067
47.15000 2.001
47.16000 2.013
47.17000 0.000
47.18000 2.986
47.19000 4.047
47.20000 3.042
47.21000 1.961
47.22000 3.006
47.23000 3.043
47.24000 2.977
47.25000 5.067
47.26000 5.096
47.27000 4.090
47.28000 4.049
47.29000 4.071
47.30000 1.981
47.31000 4.029
47.32000 1.973
47.33000 1.010
47.34000 1.039
47.35000 1.005
47.36000 5.001
47.37000 2.999
47.38000 0.000
47.39000 1.015
47.40000 1.003
47.41000 6.191
47.42000 3.011
47.43000 4.012
47.44000 7.101
47.45000 4.071
47.46000 1.035
47.47000 0.997
47.48000 6.087
47.49000 3.062
47.50000 4.028
47.51000 0.983
47.52000 0.000
47.53000 4.073
47.54000 3.043
47.55000 0.993
47.56000 3.089
47.57000 1.981
47.58000 0.983
47.59000 4.104
47.60000 4.958
47.61000 4.007
47.62000 1.952
47.63000 3.024
47.64000 5.076
47.65000 4.040
47.66000 3.056
47.67000 2.050
47.68000 2.046
47.69000 6.127
47.70000 4.090
47.71000 7.010
47.72000 0.991
47.73000 3.028
47.74000 3.022
47.75000 5.084
47.76000 1.030
47.77000 5.138
47.78000 2.002
47.79000 2.021
47.80000 3.002
47.81000 7.091
47.82000 2.024
47.83000 2.057
47.84000 5.092
47.85000 1.023
47.86000 3.999
47.87000 3.003
47.88000 3.044
47.89000 4.093
47.90000 2.040
47.91000 4.033
47.92000 2.035
47.93000 6.016
47.94000 2.048
47.95000 3.036
47.96000 4.036
47.97000 5.101
47.98000 2.064
47.99000 0.980
48.00000 2.029
48.01000 4.006
48.02000 2.037
48.03000 2.015
48.04000 3.021
48.05000 4.048
48.06000 3.005
48.07000 0.999
48.08000 6.965
48.09000 3.005
48.10000 1.999
48.11000 4.029
48.12000 1.016
48.13000 1.054
48.14000 5.042
48.15000 1.990
48.16000 2.019
48.17000 4.135
48.18000 3.153
48.19000 4.055
48.20000 4.098
48.21000 3.012
48.22000 3.967
48.23000 3.005
48.24000 1.001
48.25000 2.985
48.26000 0.000
48.27000 5.016
48.28000 3.046
48.29000 4.037
48.30000 1.053
48.31000 6.059
48.32000 2.041
48.33000 6.122
48.34000 1.003
48.35000 1.009
48.36000 1.019
48.37000 2.015
48.38000 2.025
48.39000 3.030
48.40000 5.020
48.41000 2.085
48.42000 4.004
48.43000 2.016
48.44000 0.000
48.45000 7.123
48.46000 6.045
48.47000 1.985
48.48000 2.067
48.49000 4.021
48.50000 3.992
48.51000 4.964
48.52000 5.042
48.53000 2.048
48.54000 2.002
48.55000 3.055
48.56000 9.037
48.57000 0.997
48.58000 2.041
48.59000 0.999
48.60000 2.015
48.61000 1.979
48.62000 0.000
48.63000 3.992
48.64000 2.073
48.65000 2.018
48.66000 3.966
48.67000 0.000
48.68000 0.977
48.69000 3.037
48.70000 4.005
48.71000 4.090
48.72000 4.072
48.73000 2.018
48.74000 1.999
48.75000 0.999
48.76000 7.072
48.77000 3.041
48.78000 7.112
48.79000 5.012
48.80000 4.111
48.81000 3.116
48.82000 3.067
48.83000 6.050
48.84000 2.050
48.85000 3.054
48.86000 3.024
48.87000 5.073
48.88000 0.988
48.89000 1.029
48.90000 2.024
48.91000 3.061
48.92000 4.022
48.93000 2.015
48.94000 1.015
48.95000 4.991
48.96000 3.076
48.97000 5.050
48.98000 7.045
48.99000 5.017
49.00000 5.032
49.01000 1.036
49.02000 0.000
49.03000 4.017
49.04000 0.995
49.05000 4.093
49.06000 4.130
49.07000 2.075
49.08000 0.994
49.09000 1.987
49.10000 3.018
49.11000 0.000
49.12000 0.991
49.13000 3.036
49.14000 4.117
49.15000 3.002
49.16000 4.085
49.17000 1.020
49.18000 2.078
49.19000 0.000
49.20000 1.992
49.21000 5.022
49.22000 1.984
49.23000 1.035
49.24000 2.038
49.25000 2.004
49.26000 3.031
49.27000 2.031
49.28000 4.059
49.29000 3.109
49.30000 3.050
49.31000 3.126
49.32000 4.091
49.33000 1.041
49.34000 3.009
49.35000 1.966
49.36000 2.034
49.37000 4.092
49.38000 2.997
49.39000 0.975
49.40000 3.083
49.41000 1.003
49.42000 2.025
49.43000 4.049
49.44000 2.037
49.45000 2.009
49.46000 4.118
49.47000 3.075
49.48000 1.005
49.49000 1.023
49.50000 5.037
49.51000 5.120
49.52000 1.010
49.53000 2.982
49.54000 0.983
49.55000 2.033
49.56000 5.177
49.57000 0.000
49.58000 2.055
49.59000 0.991
49.60000 4.991
49.61000 2.054
49.62000 1.030
49.63000 4.026
49.64000 3.025
49.65000 3.078
49.66000 2.985
49.67000 3.045
49.68000 8.213
49.69000 4.020
49.70000 3.077
49.71000 7.114
49.72000 4.086
49.73000 1.039
49.74000 5.127
49.75000 5.990
49.76000 1.996
49.77000 0.994
49.78000 1.015
49.79000 2.059
49.80000 1.015
49.81000 5.048
49.82000 3.010
49.83000 5.166
49.84000 2.069
49.85000 1.013
49.86000 1.015
49.87000 3.985
49.88000 2.026
49.89000 7.116
49.90000 2.080
49.91000 4.112
49.92000 5.094
49.93000 3.013
49.94000 1.013
49.95000 2.979
49.96000 3.038
49.97000 2.985
49.98000 1.024
49.99000 1.033
50.00000 7.078
50.01000 3.081
50.02000 3.023
50.03000 3.048
50.04000 1.985
50.05000 4.119
50.06000 1.972
50.07000 4.066
50.08000 1.007
50.09000 3.041
50.10000 5.118
50.11000 2.999
50.12000 1.002
50.13000 0.982
50.14000 0.000
50.15000 3.072
50.16000 1.032
50.17000 1.028
50.18000 1.964
50.19000 2.006
50.20000 0.000
50.21000 4.062
50.22000 2.025
50.23000 2.015
50.24000 5.116
50.25000 2.094
50.26000 3.090
50.27000 3.053
50.28000 4.039
50.29000 3.035
50.30000 4.000
50.31000 5.146
50.32000 3.063
50.33000 1.987
50.34000 0.000
50.35000 5.011
50.36000 4.131
50.37000 2.047
50.38000 2.007
50.39000 3.013
50.40000 3.021
50.41000 1.001
50.42000 3.004
50.43000 0.000
50.44000 2.000
50.45000 0.000
50.46000 3.059
50.47000 2.025
50.48000 3.022
50.49000 5.068
50.50000 5.036
50.51000 2.009
50.52000 5.045
50.53000 4.989
50.54000 1.058
50.55000 0.994
50.56000 5.034
50.57000 3.031
50.58000 1.018
50.59000 1.980
50.60000 1.989
50.61000 2.015
50.62000 5.999
50.63000 1.000
50.64000 2.071
50.65000 2.061
50.66000 3.059
50.67000 1.037
50.68000 3.041
50.69000 3.085
50.70000 2.991
50.71000 3.057
50.72000 1.024
50.73000 4.087
50.74000 3.016
50.75000 4.023
50.76000 0.000
50.77000 4.066
50.78000 3.050
50.79000 5.055
50.80000 1.029
50.81000 0.987
50.82000 1.010
50.83000 0.988
50.84000 2.992
50.85000 1.983
50.86000 4.090
50.87000 3.026
50.88000 0.996
50.89000 2.029
50.90000 0.000
50.91000 4.038
50.92000 6.155
50.93000 3.024
50.94000 3.109
50.95000 1.981
50.96000 2.038
50.97000 5.062
50.98000 4.191
50.99000 2.051
51.00000 0.986
51.01000 8.033
51.02000 3.061
51.03000 2.977
51.04000 2.068
51.05000 6.098
51.06000 3.035
51.07000 1.028
51.08000 2.977
51.09000 4.009
51.10000 3.097
51.11000 2.998
51.12000 4.100
51.13000 1.026
51.14000 3.027
51.15000 4.061
51.16000 3.025
51.17000 7.018
51.18000 2.988
51.19000 2.989
51.20000 4.042
51.21000 5.980
51.22000 5.036
51.23000 1.007
51.24000 4.049
51.25000 0.981
51.26000 3.074
51.27000 3.044
51.28000 1.003
51.29000 5.105
51.30000 4.139
51.31000 2.982
51.32000 0.000
51.33000 6.122
51.34000 1.031
51.35000 3.032
51.36000 3.971
51.37000 4.001
51.38000 1.028
51.39000 2.046
51.40000 0.969
51.41000 2.020
51.42000 4.069
51.43000 1.996
51.44000 3.940
51.45000 0.992
51.46000 0.999
51.47000 2.069
51.48000 2.004
51.49000 0.000
51.50000 3.047
51.51000 4.074
51.52000 2.963
51.53000 0.000
51.54000 1.995
51.55000 0.973
51.56000 3.072
51.57000 3.043
51.58000 2.993
51.59000 2.028
51.60000 3.131
51.61000 2.981
51.62000 3.037
51.63000 3.052
51.64000 0.000
51.65000 0.000
51.66000 3.076
51.67000 1.000
51.68000 3.056
51.69000 3.016
51.70000 0.997
51.71000 5.049
51.72000 3.036
51.73000 1.999
51.74000 3.063
51.75000 4.019
51.76000 5.029
51.77000 1.985
51.78000 7.131
51.79000 3.019
51.80000 2.079
51.81000 5.027
51.82000 3.002
51.83000 5.003
51.84000 2.006
51.85000 3.051
51.86000 0.000
51.87000 0.000
51.88000 2.050
51.89000 2.005
51.90000 1.032
51.91000 2.030
51.92000 1.033
51.93000 0.992
51.94000 5.016
51.95000 3.997
51.96000 4.054
51.97000 2.055
51.98000 2.045
51.99000 4.141
52.00000 3.044
52.01000 2.005
52.02000 2.000
52.03000 4.032
52.04000 1.040
52.05000 5.045
52.06000 0.000
52.07000 3.024
52.08000 1.036
52.09000 2.042
52.10000 1.006
52.11000 4.098
52.12000 1.992
52.13000 4.169
52.14000 4.091
52.15000 3.111
52.16000 6.074
52.17000 2.018
52.18000 3.047
52.19000 2.019
52.20000 2.022
52.21000 1.982
52.22000 1.049
52.23000 3.020
52.24000 4.122
52.25000 1.973
52.26000 1.013
52.27000 5.095
52.28000 6.045
52.29000 2.006
52.30000 0.977
52.31000 5.086
52.32000 1.993
52.33000 1.024
52.34000 0.979
52.35000 4.999
52.36000 1.995
52.37000 0.997
52.38000 3.022
52.39000 2.997
52.40000 1.969
52.41000 3.013
52.42000 2.007
52.43000 0.000
52.44000 1.041
52.45000 1.999
52.46000 1.994
52.47000 1.000
52.48000 2.015
52.49000 3.115
52.50000 3.038
52.51000 0.000
52.52000 3.022
52.53000 0.000
52.54000 2.993
52.55000 0.000
52.56000 0.997
52.57000 1.035
52.58000 2.028
52.59000 0.000
52.60000 4.100
52.61000 2.118
52.62000 2.026
52.63000 0.991
52.64000 1.064
52.65000 1.989
52.66000 2.975
52.67000 1.994
52.68000 1.019
52.69000 1.994
52.70000 2.039
52.71000 4.035
52.72000 1.998
52.73000 4.087
52.74000 0.000
52.75000 2.051
52.76000 2.057
52.77000 4.062
52.78000 6.128
52.79000 5.101
52.80000 1.000
52.81000 1.025
52.82000 3.049
52.83000 1.976
52.84000 2.040
52.85000 5.033
52.86000 5.034
52.87000 1.029
52.88000 0.999
52.89000 4.147
52.90000 4.040
52.91000 2.032
52.92000 2.937
52.93000 5.057
52.94000 5.026
52.95000 1.968
52.96000 0.000
52.97000 3.027
52.98000 1.023
52.99000 3.037
53.00000 2.010
53.01000 0.000
53.02000 6.032
53.03000 0.000
53.04000 0.982
53.05000 1.038
53.06000 0.999
53.07000 2.986
53.08000 5.032
53.09000 6.050
53.10000 5.070
53.11000 2.011
53.12000 2.014
53.13000 3.085
53.14000 1.043
53.15000 4.999
53.16000 3.082
53.17000 2.059
53.18000 3.011
53.19000 2.022
53.20000 2.966
53.21000 0.992
53.22000 6.232
53.23000 0.987
53.24000 4.134
53.25000 1.999
53.26000 5.014
53.27000 4.064
53.28000 3.004
53.29000 1.998
53.30000 3.101
53.31000 2.066
53.32000 1.044
53.33000 1.971
53.34000 4.036
53.35000 1.011
53.36000 4.058
53.37000 1.984
53.38000 7.952
53.39000 3.082
53.40000 0.000
53.41000 3.018
53.42000 3.016
53.43000 2.037
53.44000 2.032
53.45000 2.086
53.46000 6.985
53.47000 2.035
53.48000 1.001
53.49000 1.003
53.50000 3.046
53.51000 4.046
53.52000 1.002
53.53000 1.031
53.54000 1.060
53.55000 1.023
53.56000 2.010
53.57000 3.985
53.58000 2.105
53.59000 4.114
53.60000 2.992
53.61000 0.000
53.62000 2.019
53.63000 3.040
53.64000 6.107
53.65000 2.964
53.66000 2.014
53.67000 1.999
53.68000 2.073
53.69000 2.976
53.70000 2.084
53.71000 1.036
53.72000 3.075
53.73000 3.007
53.74000 3.987
53.75000 4.024
53.76000 2.055
53.77000 0.000
53.78000 0.992
53.79000 2.005
53.80000 3.097
53.81000 0.988
53.82000 2.024
53.83000 6.107
53.84000 5.952
53.85000 1.005
53.86000 2.041
53.87000 6.052
53.88000 1.001
53.89000 2.056
53.90000 3.965
53.91000 3.060
53.92000 0.993
53.93000 3.021
53.94000 0.000
53.95000 2.063
53.96000 1.042
53.97000 3.022
53.98000 3.041
53.99000 3.988
54.00000 2.030
54.01000 2.013
54.02000 1.005
54.03000 4.050
54.04000 0.987
54.05000 1.973
54.06000 4.125
54.07000 3.989
54.08000 4.050
54.09000 1.987
54.10000 4.040
54.11000 1.999
54.12000 0.996
54.13000 1.004
54.14000 2.004
54.15000 1.007
54.16000 2.021
54.17000 2.075
54.18000 0.000
54.19000 3.051
54.20000 3.068
54.21000 1.028
54.22000 3.075
54.23000 3.966
54.24000 6.146
54.25000 0.000
54.26000 4.959
54.27000 4.033
54.28000 3.036
54.29000 4.057
54.30000 2.047
54.31000 1.026
54.32000 1.016
54.33000 3.009
54.34000 1.003
54.35000 6.109
54.36000 4.120
54.37000 4.074
54.38000 1.042
54.39000 1.026
54.40000 2.002
54.41000 2.067
54.42000 6.059
54.43000 0.000
54.44000 1.031
54.45000 3.029
54.46000 2.974
54.47000 4.031
54.48000 2.028
54.49000 0.997
54.50000 3.047
54.51000 0.000
54.52000 0.986
54.53000 0.000
54.54000 4.083
54.55000 0.000
54.56000 1.009
54.57000 2.992
54.58000 2.098
54.59000 0.000
54.60000 5.061
54.61000 3.009
54.62000 4.065
54.63000 1.035
54.64000 2.958
54.65000 0.986
54.66000 0.989
54.67000 5.041
54.68000 2.005
54.69000 3.053
54.70000 2.066
54.71000 1.010
54.72000 3.077
54.73000 1.988
54.74000 1.972
54.75000 5.963
54.76000 1.014
54.77000 3.086
54.78000 4.080
54.79000 3.031
54.80000 1.030
54.81000 1.030
54.82000 3.018
54.83000 2.018
54.84000 0.990
54.85000 3.049
54.86000 2.050
54.87000 3.014
54.88000 1.021
54.89000 4.061
54.90000 3.061
54.91000 1.014
54.92000 1.009
54.93000 1.030
54.94000 1.054
54.95000 1.034
54.96000 3.055
54.97000 3.055
54.98000 1.000
54.99000 1.049
55.00000 0.000
55.01000 3.993
55.02000 0.000
55.03000 1.024
55.04000 7.106
55.05000 7.024
55.06000 2.045
55.07000 0.000
55.08000 2.994
55.09000 1.027
55.10000 4.004
55.11000 5.110
55.12000 2.978
55.13000 4.990
55.14000 2.039
55.15000 3.003
55.16000 1.993
55.17000 0.000
55.18000 4.070
55.19000 4.076
55.20000 4.074
55.21000 3.050
55.22000 2.028
55.23000 3.125
55.24000 0.999
55.25000 3.009
55.26000 2.072
55.27000 3.010
55.28000 3.037
55.29000 3.052
55.30000 0.000
55.31000 3.006
55.32000 3.054
55.33000 0.995
55.34000 1.039
55.35000 5.005
55.36000 3.033
55.37000 1.999
55.38000 4.059
55.39000 0.000
55.40000 1.969
55.41000 5.057
55.42000 3.041
55.43000 1.028
55.44000 1.047
55.45000 3.055
55.46000 5.008
55.47000 4.003
55.48000 2.981
55.49000 0.999
55.50000 4.026
55.51000 1.985
55.52000 0.000
55.53000 1.977
55.54000 4.042
55.55000 3.017
55.56000 2.056
55.57000 3.032
55.58000 2.044
55.59000 1.954
55.60000 1.986
55.61000 3.004
55.62000 6.105
55.63000 2.084
55.64000 0.000
55.65000 6.077
55.66000 2.964
55.67000 4.104
55.68000 3.031
55.69000 3.039
55.70000 1.984
55.71000 2.974
55.72000 1.011
55.73000 0.982
55.74000 3.013
55.75000 3.022
55.76000 2.065
55.77000 0.996
55.78000 3.081
55.79000 2.034
55.80000 2.994
55.81000 3.070
55.82000 0.000
55.83000 1.019
55.84000 1.012
55.85000 4.108
55.86000 5.972
55.87000 1.011
55.88000 1.027
55.89000 2.009
55.90000 0.985
55.91000 2.059
55.92000 4.003
55.93000 0.995
55.94000 3.055
55.95000 2.079
55.96000 0.000
55.97000 3.083
55.98000 3.134
55.99000 1.980
56.00000 2.973
56.01000 3.057
56.02000 1.990
56.03000 4.029
56.04000 5.054
56.05000 1.996
56.06000 3.011
56.07000 1.000
56.08000 3.036
56.09000 0.000
56.10000 6.074
56.11000 0.000
56.12000 0.000
56.13000 4.121
56.14000 2.008
56.15000 3.072
56.16000 5.116
56.17000 1.035
56.18000 2.026
56.19000 3.982
56.20000 1.017
56.21000 3.041
56.22000 0.987
56.23000 3.039
56.24000 5.116
56.25000 3.086
56.26000 1.015
56.27000 2.009
56.28000 1.030
56.29000 2.024
56.30000 1.046
56.31000 2.980
56.32000 0.987
56.33000 2.022
56.34000 1.041
56.35000 2.030
56.36000 0.000
56.37000 1.009
56.38000 1.990
56.39000 2.028
56.40000 2.102
56.41000 0.000
56.42000 0.000
56.43000 0.973
56.44000 1.991
56.45000 3.092
56.46000 1.050
56.47000 4.167
56.48000 6.027
56.49000 0.994
56.50000 3.033
56.51000 0.997
56.52000 4.980
56.53000 3.083
56.54000 0.980
56.55000 1.970
56.56000 3.019
56.57000 4.053
56.58000 2.020
56.59000 2.028
56.60000 3.044
56.61000 5.000
56.62000 4.087
56.63000 2.031
56.64000 2.034
56.65000 1.040
56.66000 1.019
56.67000 1.016
56.68000 2.986
56.69000 4.053
56.70000 0.000
56.71000 3.031
56.72000 2.001
56.73000 4.016
56.74000 4.061
56.75000 2.018
56.76000 3.029
56.77000 2.988
56.78000 1.037
56.79000 1.013
56.80000 2.031
56.81000 1.980
56.82000 5.026
56.83000 4.084
56.84000 4.037
56.85000 1.010
56.86000 1.010
56.87000 0.000
56.88000 4.028
56.89000 0.000
56.90000 0.997
56.91000 7.018
56.92000 4.912
56.93000 3.013
56.94000 2.033
56.95000 1.967
56.96000 3.106
56.97000 0.000
56.98000 4.113
56.99000 0.990
57.00000 2.004
57.01000 0.991
57.02000 1.032
57.03000 0.977
57.04000 4.079
57.05000 0.000
57.06000 2.996
57.07000 2.010
57.08000 3.097
57.09000 1.004
57.10000 4.146
57.11000 1.044
57.12000 2.026
57.13000 3.073
57.14000 3.103
57.15000 2.988
57.16000 1.017
57.17000 0.989
57.18000 3.047
57.19000 2.043
57.20000 2.001
57.21000 2.014
57.22000 0.000
57.23000 4.018
57.24000 0.000
57.25000 0.000
57.26000 0.000
57.27000 5.042
57.28000 3.058
57.29000 1.003
57.30000 0.000
57.31000 1.013
57.32000 3.013
57.33000 3.118
57.34000 0.000
57.35000 3.060
57.36000 2.020
57.37000 2.046
57.38000 3.053
57.39000 1.004
57.40000 3.118
57.41000 0.000
57.42000 2.053
57.43000 1.041
57.44000 3.097
57.45000 5.058
57.46000 1.008
57.47000 2.043
57.48000 0.990
57.49000 1.986
57.50000 3.044
57.51000 1.001
57.52000 4.052
57.53000 0.992
57.54000 1.025
57.55000 1.999
57.56000 2.008
57.57000 2.008
57.58000 3.017
57.59000 2.049
57.60000 4.024
57.61000 3.129
57.62000 4.058
57.63000 0.992
57.64000 1.044
57.65000 0.000
57.66000 3.082
57.67000 2.049
57.68000 0.990
57.69000 2.030
57.70000 1.029
57.71000 0.981
57.72000 2.027
57.73000 0.000
57.74000 5.986
57.75000 1.003
57.76000 4.024
57.77000 4.111
57.78000 1.998
57.79000 1.995
57.80000 1.958
57.81000 4.090
57.82000 3.020
57.83000 3.040
57.84000 0.000
57.85000 1.983
57.86000 2.011
57.87000 4.065
57.88000 3.052
57.89000 2.998
57.90000 1.015
57.91000 0.980
57.92000 0.000
57.93000 4.016
57.94000 1.016
57.95000 1.034
57.96000 0.995
57.97000 8.041
57.98000 5.057
57.99000 3.011
58.00000 6.066
58.01000 1.013
58.02000 0.998
58.03000 0.990
58.04000 3.033
58.05000 1.022
58.06000 8.101
58.07000 3.027
58.08000 2.038
58.09000 0.000
58.10000 2.965
58.11000 1.017
58.12000 4.021
58.13000 1.012
58.14000 2.081
58.15000 3.029
58.16000 3.045
58.17000 1.977
58.18000 3.074
58.19000 1.004
58.20000 3.015
58.21000 1.019
58.22000 5.147
58.23000 1.981
58.24000 5.038
58.25000 4.028
58.26000 2.020
58.27000 1.019
58.28000 3.112
58.29000 3.039
58.30000 2.065
58.31000 0.000
58.32000 0.000
58.33000 3.051
58.34000 1.034
58.35000 3.940
58.36000 2.023
58.37000 2.007
58.38000 2.022
58.39000 6.105
58.40000 5.081
58.41000 1.010
58.42000 2.080
58.43000 4.059
58.44000 2.052
58.45000 4.067
58.46000 1.009
58.47000 3.024
58.48000 3.035
58.49000 4.101
58.50000 2.013
58.51000 3.982
58.52000 6.109
58.53000 2.983
58.54000 2.040
58.55000 2.065
58.56000 1.999
58.57000 1.019
58.58000 0.000
58.59000 1.021
58.60000 0.000
58.61000 1.023
58.62000 2.993
58.63000 6.030
58.64000 2.009
58.65000 0.984
58.66000 2.017
58.67000 2.005
58.68000 0.000
58.69000 1.028
58.70000 6.994
58.71000 1.049
58.72000 0.000
58.73000 0.000
58.74000 2.983
58.75000 2.981
58.76000 0.991
58.77000 3.059
58.78000 2.008
58.79000 1.044
58.80000 1.029
58.81000 1.992
58.82000 1.007
58.83000 3.056
58.84000 4.005
58.85000 6.124
58.86000 6.072
58.87000 4.012
58.88000 1.965
58.89000 3.012
58.90000 3.048
58.91000 3.127
58.92000 1.016
58.93000 3.048
58.94000 1.969
58.95000 2.996
58.96000 4.014
58.97000 2.036
58.98000 2.035
58.99000 2.038
59.00000 4.192
59.01000 1.978
59.02000 2.034
59.03000 4.017
59.04000 1.997
59.05000 1.001
59.06000 2.000
59.07000 4.103
59.08000 2.043
59.09000 0.989
59.10000 0.000
59.11000 3.037
59.12000 2.059
59.13000 6.178
59.14000 2.025
59.15000 1.000
59.16000 1.045
59.17000 2.058
59.18000 1.010
59.19000 2.053
59.20000 0.999
59.21000 0.000
59.22000 1.003
59.23000 0.965
59.24000 2.036
59.25000 2.041
59.26000 2.039
59.27000 2.016
59.28000 4.062
59.29000 3.057
59.30000 4.022
59.31000 0.998
59.32000 2.050
59.33000 0.998
59.34000 1.038
59.35000 0.987
59.36000 4.045
59.37000 2.982
59.38000 0.000
59.39000 2.062
59.40000 2.028
59.41000 5.090
59.42000 4.994
59.43000 2.000
59.44000 4.006
59.45000 2.019
59.46000 2.038
59.47000 0.000
59.48000 1.051
59.49000 2.021
59.50000 2.034
59.51000 1.057
59.52000 2.004
59.53000 1.987
59.54000 2.079
59.55000 1.992
59.56000 1.014
59.57000 3.043
59.58000 0.000
59.59000 0.000
59.60000 0.000
59.61000 1.033
59.62000 1.995
59.63000 0.982
59.64000 2.032
59.65000 3.047
59.66000 5.073
59.67000 1.012
59.68000 2.075
59.69000 2.943
59.70000 2.034
59.71000 3.032
59.72000 0.000
59.73000 2.037
59.74000 6.057
59.75000 0.000
59.76000 0.988
59.77000 0.000
59.78000 2.968
59.79000 0.992
59.80000 4.967
59.81000 2.004
59.82000 0.000
59.83000 3.042
59.84000 1.970
59.85000 1.017
59.86000 1.011
59.87000 0.000
59.88000 1.030
59.89000 1.048
59.90000 2.047
59.91000 1.043
59.92000 3.099
59.93000 3.057
59.94000 1.015
59.95000 4.131
59.96000 6.033
59.97000 0.976
59.98000 2.017
59.99000 2.988
60.00000 1.003
60.01000 0.000
60.02000 1.014
60.03000 2.013
60.04000 1.047
60.05000 1.034
60.06000 4.089
60.07000 0.990
60.08000 3.047
60.09000 2.993
60.10000 2.016
60.11000 0.976
60.12000 2.021
60.13000 3.996
60.14000 4.087
60.15000 0.993
60.16000 2.037
60.17000 3.012
60.18000 3.006
60.19000 3.051
60.20000 0.000
60.21000 1.987
60.22000 2.042
60.23000 0.000
60.24000 3.029
60.25000 1.033
60.26000 0.000
60.27000 1.022
60.28000 3.969
60.29000 1.003
60.30000 0.000
60.31000 3.083
60.32000 1.983
60.33000 2.049
60.34000 2.047
60.35000 4.062
60.36000 3.057
60.37000 0.000
60.38000 4.017
60.39000 2.068
60.40000 3.003
60.41000 2.029
60.42000 0.000
60.43000 2.081
60.44000 2.059
60.45000 0.000
60.46000 3.049
60.47000 4.029
60.48000 3.009
60.49000 3.070
60.50000 4.007
60.51000 3.006
60.52000 0.000
60.53000 1.030
60.54000 3.071
60.55000 5.011
60.56000 3.013
60.57000 1.041
60.58000 0.996
60.59000 0.000
60.60000 2.052
60.61000 4.072
60.62000 0.995
60.63000 0.976
60.64000 0.000
60.65000 1.040
60.66000 3.135
60.67000 3.025
60.68000 3.082
60.69000 3.027
60.70000 3.051
60.71000 2.004
60.72000 0.987
60.73000 2.072
60.74000 0.995
60.75000 1.989
60.76000 1.017
60.77000 3.029
60.78000 2.043
60.79000 1.013
60.80000 3.007
60.81000 4.082
60.82000 1.009
60.83000 2.003
60.84000 0.995
60.85000 7.022
60.86000 3.057
60.87000 4.057
60.88000 0.000
60.89000 0.000
60.90000 2.014
60.91000 4.013
60.92000 3.057
60.93000 1.005
60.94000 0.995
60.95000 3.051
60.96000 3.004
60.97000 3.054
60.98000 1.971
60.99000 0.974
61.00000 0.977
61.01000 0.978
61.02000 0.000
61.03000 2.013
61.04000 0.981
61.05000 3.085
61.06000 4.012
61.07000 3.012
61.08000 3.058
61.09000 1.033
61.10000 4.051
61.11000 0.000
61.12000 0.969
61.13000 3.016
61.14000 2.003
61.15000 2.035
61.16000 1.018
61.17000 1.023
61.18000 2.048
61.19000 3.038
61.20000 5.052
61.21000 1.003
61.22000 2.018
61.23000 0.996
61.24000 1.030
61.25000 1.977
61.26000 2.058
61.27000 2.038
61.28000 1.999
61.29000 3.028
61.30000 4.021
61.31000 2.017
61.32000 1.994
61.33000 0.989
61.34000 1.973
61.35000 3.067
61.36000 2.050
61.37000 3.003
61.38000 2.043
61.39000 0.000
61.40000 1.016
61.41000 0.000
61.42000 0.974
61.43000 1.032
61.44000 2.056
61.45000 4.020
61.46000 1.025
61.47000 2.015
61.48000 2.073
61.49000 0.997
61.50000 3.029
61.51000 0.977
61.52000 4.083
61.53000 2.000
61.54000 1.063
61.55000 3.003
61.56000 1.005
61.57000 3.009
61.58000 5.150
61.59000 3.018
61.60000 3.013
61.61000 3.011
61.62000 0.985
61.63000 1.033
61.64000 4.994
61.65000 6.058
61.66000 3.081
61.67000 0.000
61.68000 2.071
61.69000 2.069
61.70000 3.993
61.71000 0.000
61.72000 2.051
61.73000 2.061
61.74000 3.027
61.75000 2.965
61.76000 1.082
61.77000 0.997
61.78000 3.036
61.79000 0.000
61.80000 2.039
61.81000 0.994
61.82000 3.011
61.83000 0.000
61.84000 1.998
61.85000 2.038
61.86000 0.000
61.87000 4.099
61.88000 1.056
61.89000 0.984
61.90000 1.975
61.91000 2.028
61.92000 3.051
61.93000 2.011
61.94000 0.000
61.95000 1.996
61.96000 4.026
61.97000 1.031
61.98000 1.055
61.99000 3.016
62.00000 4.063
62.01000 2.045
62.02000 2.090
62.03000 3.133
62.04000 3.041
62.05000 1.016
62.06000 4.002
62.07000 3.103
62.08000 0.000
62.09000 1.026
62.10000 4.048
62.11000 3.061
62.12000 3.067
62.13000 5.050
62.14000 4.061
62.15000 2.015
62.16000 0.000
62.17000 3.026
62.18000 2.989
62.19000 1.988
62.20000 1.020
62.21000 3.010
62.22000 1.969
62.23000 0.000
62.24000 1.052
62.25000 1.003
62.26000 3.036
62.27000 4.974
62.28000 3.053
62.29000 3.000
62.30000 2.005
62.31000 0.987
62.32000 2.046
62.33000 0.992
62.34000 2.009
62.35000 0.000
62.36000 1.038
62.37000 1.046
62.38000 0.987
62.39000 0.000
62.40000 2.032
62.41000 6.016
62.42000 2.037
62.43000 4.996
62.44000 1.028
62.45000 5.020
62.46000 0.000
62.47000 3.050
62.48000 2.015
62.49000 0.000
62.50000 1.010
62.51000 0.999
62.52000 6.078
62.53000 0.997
62.54000 1.003
62.55000 3.063
62.56000 1.041
62.57000 0.000
62.58000 3.004
62.59000 2.031
62.60000 0.000
62.61000 2.084
62.62000 1.986
62.63000 1.010
62.64000 1.011
62.65000 0.000
62.66000 2.004
62.67000 3.074
62.68000 1.984
62.69000 4.051
62.70000 3.080
62.71000 2.018
62.72000 4.019
62.73000 1.003
62.74000 1.034
62.75000 3.005
62.76000 2.037
62.77000 2.113
62.78000 2.958
62.79000 3.091
62.80000 3.053
62.81000 1.018
62.82000 1.037
62.83000 8.041
62.84000 1.017
62.85000 5.129
62.86000 8.086
62.87000 0.000
62.88000 3.034
62.89000 1.981
62.90000 0.987
62.91000 4.956
62.92000 3.060
62.93000 1.017
62.94000 1.020
62.95000 0.000
62.96000 1.015
62.97000 0.989
62.98000 1.079
62.99000 0.992
63.00000 1.033
63.01000 1.970
63.02000 4.042
63.03000 2.970
63.04000 2.007
63.05000 2.029
63.06000 0.982
63.07000 1.038
63.08000 5.053
63.09000 3.021
63.10000 1.011
63.11000 0.983
63.12000 2.007
63.13000 2.076
63.14000 2.045
63.15000 8.112
63.16000 2.988
63.17000 5.052
63.18000 2.044
63.19000 3.993
63.20000 0.000
63.21000 3.096
63.22000 3.001
63.23000 2.052
63.24000 1.026
63.25000 1.956
63.26000 3.043
63.27000 0.000
63.28000 2.082
63.29000 4.038
63.30000 3.063
63.31000 0.990
63.32000 0.000
63.33000 2.982
63.34000 0.995
63.35000 1.025
63.36000 3.011
63.37000 3.087
63.38000 4.042
63.39000 1.977
63.40000 3.020
63.41000 0.000
63.42000 2.030
63.43000 4.099
63.44000 2.038
63.45000 1.009
63.46000 2.999
63.47000 3.048
63.48000 0.998
63.49000 2.064
63.50000 1.000
63.51000 3.139
63.52000 2.982
63.53000 3.106
63.54000 1.006
63.55000 0.000
63.56000 3.023
63.57000 5.033
63.58000 2.036
63.59000 3.010
63.60000 3.038
63.61000 3.074
63.62000 2.042
63.63000 2.076
63.64000 3.034
63.65000 0.993
63.66000 0.000
63.67000 1.058
63.68000 0.000
63.69000 2.010
63.70000 3.006
63.71000 2.103
63.72000 3.986
63.73000 2.030
63.74000 1.996
63.75000 4.019
63.76000 1.047
63.77000 2.029
63.78000 2.051
63.79000 1.033
63.80000 3.035
63.81000 1.041
63.82000 0.000
63.83000 1.997
63.84000 3.077
63.85000 1.016
63.86000 1.000
63.87000 5.079
63.88000 3.029
63.89000 2.055
63.90000 3.092
63.91000 3.031
63.92000 1.009
63.93000 0.998
63.94000 0.990
63.95000 1.022
63.96000 1.998
63.97000 1.017
63.98000 0.000
63.99000 2.016
64.00000 2.958
64.01000 1.006
64.02000 5.039
64.03000 0.000
64.04000 5.029
64.05000 1.987
64.06000 1.039
64.07000 0.984
64.08000 3.015
64.09000 1.009
64.10000 1.032
64.11000 1.983
64.12000 2.027
64.13000 1.979
64.14000 2.010
64.15000 1.002
64.16000 0.976
64.17000 1.999
64.18000 1.972
64.19000 1.029
64.20000 3.013
64.21000 1.005
64.22000 1.036
64.23000 1.040
64.24000 2.008
64.25000 3.029
64.26000 0.993
64.27000 2.058
64.28000 2.026
64.29000 4.040
64.30000 0.000
64.31000 1.958
64.32000 0.000
64.33000 4.036
64.34000 0.987
64.35000 5.049
64.36000 0.000
64.37000 5.054
64.38000 1.001
64.39000 0.988
64.40000 4.042
64.41000 3.011
64.42000 1.957
64.43000 8.027
64.44000 0.000
64.45000 5.011
64.46000 2.073
64.47000 2.034
64.48000 2.040
64.49000 0.991
64.50000 3.091
64.51000 2.990
64.52000 0.000
64.53000 2.066
64.54000 5.097
64.55000 3.035
64.56000 2.043
64.57000 2.068
64.58000 2.009
64.59000 2.005
64.60000 0.981
64.61000 1.966
64.62000 2.079
64.63000 5.097
64.64000 0.000
64.65000 4.102
64.66000 2.063
64.67000 2.032
64.68000 2.030
64.69000 1.974
64.70000 1.016
64.71000 5.031
64.72000 1.989
64.73000 2.030
64.74000 3.095
64.75000 1.981
64.76000 1.011
64.77000 1.977
64.78000 4.016
64.79000 2.037
64.80000 2.060
64.81000 2.026
64.82000 3.076
64.83000 4.072
64.84000 0.000
64.85000 3.047
64.86000 0.994
64.87000 2.028
64.88000 1.004
64.89000 4.052
64.90000 2.981
64.91000 2.019
64.92000 1.019
64.93000 1.005
64.94000 3.080
64.95000 4.022
64.96000 0.000
64.97000 2.018
64.98000 1.013
64.99000 1.025
65.00000 0.998
