20.00000 8.223
20.01000 9.257
20.02000 9.395
20.03000 9.387
20.04000 8.158
20.05000 14.502
20.06000 5.187
20.07000 4.103
20.08000 11.419
20.09000 10.418
20.10000 7.276
20.11000 7.207
20.12000 4.094
20.13000 7.123
20.14000 11.395
20.15000 6.243
20.16000 8.201
20.17000 8.134
20.18000 11.172
20.19000 12.446
20.20000 7.100
20.21000 7.255
20.22000 10.244
20.23000 8.356
20.24000 7.257
20.25000 12.376
20.26000 18.552
20.27000 11.314
20.28000 6.227
20.29000 15.427
20.30000 5.115
20.31000 5.180
20.32000 10.187
20.33000 10.273
20.34000 11.394
20.35000 9.305
20.36000 6.101
20.37000 7.164
20.38000 15.482
20.39000 6.221
20.40000 9.352
20.41000 7.204
20.42000 16.444
20.43000 7.237
20.44000 12.539
20.45000 5.150
20.46000 9.279
20.47000 7.312
20.48000 5.184
20.49000 10.272
20.50000 6.169
20.51000 9.221
20.52000 5.184
20.53000 6.205
20.54000 10.376
20.55000 6.177
20.56000 10.357
20.57000 12.410
20.58000 13.327
20.59000 5.194
20.60000 7.106
20.61000 4.033
20.62000 8.315
20.63000 11.326
20.64000 7.197
20.65000 13.352
20.66000 6.118
20.67000 5.205
20.68000 7.300
20.69000 10.292
20.70000 18.707
20.71000 10.274
20.72000 8.170
20.73000 12.347
20.74000 10.324
20.75000 9.243
20.76000 11.306
20.77000 7.112
20.78000 9.295
20.79000 13.385
20.80000 17.547
20.81000 10.316
20.82000 14.411
20.83000 14.493
20.84000 7.221
20.85000 11.248
20.86000 7.276
20.87000 8.214
20.88000 17.487
20.89000 5.094
20.90000 6.196
20.91000 7.277
20.92000 11.428
20.93000 9.222
20.94000 9.336
20.95000 10.421
20.96000 4.148
20.97000 14.446
20.98000 10.363
20.99000 7.207
21.00000 6.120
21.01000 7.188
21.02000 9.264
21.03000 13.402
21.04000 6.153
21.05000 14.493
21.06000 10.310
21.07000 9.343
21.08000 12.365
21.09000 8.276
21.10000 13.407
21.11000 7.247
21.12000 9.377
21.13000 9.340
21.14000 10.460
21.15000 6.202
21.16000 10.418
21.17000 7.315
21.18000 9.298
21.19000 10.246
21.20000 7.203
21.21000 10.354
21.22000 10.396
21.23000 10.221
21.24000 11.451
21.25000 5.106
21.26000 5.126
21.27000 19.654
21.28000 9.132
21.29000 8.190
21.30000 11.443
21.31000 9.304
21.32000 13.476
21.33000 9.287
21.34000 6.147
21.35000 13.536
21.36000 6.172
21.37000 6.182
21.38000 13.376
21.39000 11.398
21.40000 5.200
21.41000 15.625
21.42000 12.403
21.43000 13.453
21.44000 8.257
21.45000 10.325
21.46000 10.362
21.47000 10.494
21.48000 9.336
21.49000 4.116
21.50000 12.494
21.51000 6.296
21.52000 8.261
21.53000 8.231
21.54000 10.339
21.55000 7.104
21.56000 11.374
21.57000 12.328
21.58000 10.355
21.59000 12.446
21.60000 10.204
21.61000 11.229
21.62000 12.343
21.63000 5.046
21.64000 6.157
21.65000 9.287
21.66000 6.246
21.67000 10.484
21.68000 13.515
21.69000 13.336
21.70000 14.380
21.71000 10.234
21.72000 16.426
21.73000 10.372
21.74000 7.320
21.75000 9.423
21.76000 8.211
21.77000 10.433
21.78000 14.517
21.79000 5.140
21.80000 9.324
21.81000 9.117
21.82000 8.280
21.83000 8.358
21.84000 9.258
21.85000 9.319
21.86000 6.183
21.87000 10.328
21.88000 12.452
21.89000 8.201
21.90000 10.299
21.91000 14.585
21.92000 11.313
21.93000 4.088
21.94000 3.017
21.95000 8.240
21.96000 9.371
21.97000 14.449
21.98000 10.272
21.99000 5.130
22.00000 15.498
22.01000 14.443
22.02000 9.295
22.03000 8.351
22.04000 13.403
22.05000 7.175
22.06000 10.297
22.07000 11.406
22.08000 9.291
22.09000 14.455
22.10000 9.252
22.11000 8.224
22.12000 13.365
22.13000 13.492
22.14000 10.361
22.15000 11.347
22.16000 14.475
22.17000 5.166
22.18000 13.545
22.19000 10.280
22.20000 5.153
22.21000 7.201
22.22000 10.241
22.23000 13.505
22.24000 13.374
22.25000 8.295
22.26000 16.480
22.27000 14.486
22.28000 6.166
22.29000 8.153
22.30000 12.412
22.31000 8.133
22.32000 11.338
22.33000 13.355
22.34000 8.137
22.35000 9.356
22.36000 5.309
22.37000 8.238
22.38000 16.607
22.39000 6.152
22.40000 10.342
22.41000 4.178
22.42000 5.150
22.43000 5.288
22.44000 10.287
22.45000 14.495
22.46000 7.199
22.47000 8.279
22.48000 13.271
22.49000 8.236
22.50000 19.809
22.51000 9.205
22.52000 13.403
22.53000 9.261
22.54000 18.398
22.55000 9.325
22.56000 5.103
22.57000 8.321
22.58000 16.466
22.59000 8.240
22.60000 7.299
22.61000 7.239
22.62000 12.393
22.63000 10.555
22.64000 13.445
22.65000 13.435
22.66000 11.388
22.67000 11.385
22.68000 8.312
22.69000 5.184
22.70000 13.407
22.71000 10.238
22.72000 5.181
22.73000 11.347
22.74000 12.465
22.75000 5.122
22.76000 9.276
22.77000 16.546
22.78000 9.233
22.79000 9.255
22.80000 11.484
22.81000 12.337
22.82000 14.396
22.83000 11.316
22.84000 9.329
22.85000 10.380
22.86000 10.276
22.87000 12.423
22.88000 15.363
22.89000 7.239
22.90000 8.315
22.91000 8.161
22.92000 8.278
22.93000 5.108
22.94000 11.250
22.95000 9.345
22.96000 8.366
22.97000 12.430
22.98000 8.401
22.99000 8.365
23.00000 7.223
23.01000 9.387
23.02000 9.283
23.03000 9.352
23.04000 13.340
23.05000 16.325
23.06000 9.255
23.07000 13.503
23.08000 7.302
23.09000 13.379
23.10000 7.268
23.11000 9.190
23.12000 8.227
23.13000 9.185
23.14000 10.362
23.15000 9.357
23.16000 12.307
23.17000 13.371
23.18000 8.105
23.19000 7.209
23.20000 10.161
23.21000 6.259
23.22000 16.504
23.23000 11.273
23.24000 7.292
23.25000 13.473
23.26000 12.530
23.27000 8.230
23.28000 3.095
23.29000 9.323
23.30000 9.403
23.31000 8.103
23.32000 10.156
23.33000 15.384
23.34000 9.356
23.35000 13.352
23.36000 13.405
23.37000 8.186
23.38000 12.468
23.39000 14.410
23.40000 11.250
23.41000 12.329
23.42000 8.280
23.43000 11.336
23.44000 6.189
23.45000 10.427
23.46000 16.403
23.47000 9.193
23.48000 15.493
23.49000 8.112
23.50000 9.280
23.51000 11.345
23.52000 7.270
23.53000 7.239
23.54000 17.447
23.55000 9.228
23.56000 9.336
23.57000 14.376
23.58000 6.227
23.59000 11.279
23.60000 10.434
23.61000 7.255
23.62000 14.422
23.63000 11.317
23.64000 12.349
23.65000 16.630
23.66000 11.207
23.67000 11.179
23.68000 8.174
23.69000 14.524
23.70000 11.279
23.71000 13.444
23.72000 13.248
23.73000 17.555
23.74000 17.554
23.75000 9.346
23.76000 10.349
23.77000 6.111
23.78000 9.238
23.79000 12.320
23.80000 15.434
23.81000 16.487
23.82000 11.220
23.83000 7.283
23.84000 14.450
23.85000 10.206
23.86000 10.326
23.87000 11.462
23.88000 11.386
23.89000 10.297
23.90000 7.227
23.91000 10.189
23.92000 11.431
23.93000 12.597
23.94000 16.526
23.95000 10.411
23.96000 12.381
23.97000 12.412
23.98000 12.272
23.99000 10.290
24.00000 13.386
24.01000 13.469
24.02000 9.164
24.03000 10.402
24.04000 16.599
24.05000 6.193
24.06000 14.361
24.07000 14.481
24.08000 9.372
24.09000 12.328
24.10000 13.499
24.11000 7.217
24.12000 9.325
24.13000 15.412
24.14000 6.114
24.15000 14.331
24.16000 15.517
24.17000 17.441
24.18000 18.414
24.19000 13.502
24.20000 12.235
24.21000 13.532
24.22000 7.229
24.23000 7.333
24.24000 12.485
24.25000 11.158
24.26000 16.452
24.27000 14.389
24.28000 14.550
24.29000 12.399
24.30000 13.451
24.31000 14.433
24.32000 11.339
24.33000 10.444
24.34000 7.318
24.35000 15.488
24.36000 17.619
24.37000 18.596
24.38000 13.638
24.39000 15.497
24.40000 5.166
24.41000 14.352
24.42000 13.356
24.43000 13.583
24.44000 8.289
24.45000 18.460
24.46000 11.311
24.47000 9.448
24.48000 9.338
24.49000 12.380
24.50000 15.600
24.51000 12.629
24.52000 9.296
24.53000 22.895
24.54000 15.654
24.55000 12.214
24.56000 16.369
24.57000 19.431
24.58000 18.497
24.59000 13.428
24.60000 15.515
24.61000 14.450
24.62000 9.338
24.63000 16.390
24.64000 14.391
24.65000 9.316
24.66000 18.607
24.67000 12.430
24.68000 13.411
24.69000 15.563
24.70000 25.989
24.71000 14.641
24.72000 13.469
24.73000 18.452
24.74000 17.475
24.75000 11.237
24.76000 13.494
24.77000 17.673
24.78000 14.499
24.79000 14.395
24.80000 11.349
24.81000 9.225
24.82000 16.488
24.83000 14.450
24.84000 9.207
24.85000 11.365
24.86000 15.502
24.87000 14.251
24.88000 12.375
24.89000 11.365
24.90000 13.442
24.91000 25.960
24.92000 13.441
24.93000 13.273
24.94000 8.244
24.95000 15.443
24.96000 15.587
24.97000 14.378
24.98000 18.610
24.99000 14.486
25.00000 14.366
25.01000 13.443
25.02000 10.184
25.03000 12.452
25.04000 11.246
25.05000 13.613
25.06000 17.612
25.07000 17.489
25.08000 8.210
25.09000 20.446
25.10000 12.447
25.11000 14.529
25.12000 18.663
25.13000 13.328
25.14000 16.611
25.15000 15.379
25.16000 17.541
25.17000 16.423
25.18000 10.245
25.19000 11.398
25.20000 16.547
25.21000 16.424
25.22000 10.412
25.23000 14.443
25.24000 11.409
25.25000 16.518
25.26000 14.399
25.27000 12.304
25.28000 23.654
25.29000 15.621
25.30000 12.621
25.31000 12.387
25.32000 12.280
25.33000 12.422
25.34000 17.670
25.35000 12.539
25.36000 16.508
25.37000 18.533
25.38000 18.577
25.39000 19.491
25.40000 13.482
25.41000 15.317
25.42000 14.290
25.43000 17.549
25.44000 11.406
25.45000 14.442
25.46000 12.417
25.47000 17.620
25.48000 14.410
25.49000 15.514
25.50000 13.490
25.51000 12.349
25.52000 12.294
25.53000 13.519
25.54000 18.566
25.55000 15.453
25.56000 9.294
25.57000 15.632
25.58000 12.304
25.59000 5.180
25.60000 11.317
25.61000 8.202
25.62000 17.589
25.63000 15.684
25.64000 16.643
25.65000 11.441
25.66000 14.578
25.67000 19.353
25.68000 8.369
25.69000 13.339
25.70000 16.542
25.71000 13.346
25.72000 16.488
25.73000 17.466
25.74000 14.361
25.75000 12.355
25.76000 20.624
25.77000 13.476
25.78000 17.510
25.79000 13.455
25.80000 20.584
25.81000 21.713
25.82000 16.592
25.83000 19.435
25.84000 14.392
25.85000 9.265
25.86000 19.719
25.87000 15.448
25.88000 17.658
25.89000 17.608
25.90000 20.626
25.91000 16.481
25.92000 19.695
25.93000 20.803
25.94000 15.240
25.95000 18.438
25.96000 16.477
25.97000 20.621
25.98000 20.456
25.99000 11.304
26.00000 18.672
26.01000 15.463
26.02000 19.638
26.03000 18.383
26.04000 23.695
26.05000 19.574
26.06000 23.816
26.07000 21.465
26.08000 14.638
26.09000 11.339
26.10000 15.561
26.11000 20.653
26.12000 20.623
26.13000 12.263
26.14000 14.468
26.15000 15.402
26.16000 21.708
26.17000 21.816
26.18000 18.582
26.19000 17.685
26.20000 21.663
26.21000 16.363
26.22000 18.682
26.23000 15.597
26.24000 24.735
26.25000 17.474
26.26000 21.574
26.27000 24.717
26.28000 22.691
26.29000 13.457
26.30000 24.744
26.31000 10.383
26.32000 19.482
26.33000 32.007
26.34000 19.697
26.35000 20.617
26.36000 14.566
26.37000 11.372
26.38000 19.856
26.39000 17.594
26.40000 9.242
26.41000 17.580
26.42000 26.927
26.43000 13.456
26.44000 19.443
26.45000 20.629
26.46000 20.595
26.47000 13.479
26.48000 17.556
26.49000 18.780
26.50000 16.579
26.51000 22.694
26.52000 14.554
26.53000 17.679
26.54000 12.457
26.55000 18.443
26.56000 23.767
26.57000 17.427
26.58000 24.711
26.59000 13.389
26.60000 19.334
26.61000 19.460
26.62000 19.514
26.63000 18.686
26.64000 20.645
26.65000 15.218
26.66000 21.612
26.67000 13.459
26.68000 18.777
26.69000 32.874
26.70000 17.507
26.71000 16.581
26.72000 17.557
26.73000 15.650
26.74000 20.517
26.75000 26.823
26.76000 23.608
26.77000 11.271
26.78000 18.594
26.79000 12.340
26.80000 18.553
26.81000 16.332
26.82000 20.707
26.83000 16.377
26.84000 16.363
26.85000 22.691
26.86000 26.959
26.87000 11.394
26.88000 18.760
26.89000 23.578
26.90000 19.710
26.91000 19.493
26.92000 13.397
26.93000 20.655
26.94000 27.757
26.95000 20.810
26.96000 20.773
26.97000 21.579
26.98000 16.570
26.99000 16.511
27.00000 15.543
27.01000 19.818
27.02000 12.323
27.03000 21.597
27.04000 22.914
27.05000 14.467
27.06000 19.609
27.07000 31.053
27.08000 19.553
27.09000 22.759
27.10000 24.710
27.11000 16.524
27.12000 24.967
27.13000 22.711
27.14000 14.538
27.15000 28.920
27.16000 13.345
27.17000 23.715
27.18000 20.838
27.19000 11.347
27.20000 23.864
27.21000 19.791
27.22000 19.609
27.23000 26.774
27.24000 20.829
27.25000 17.425
27.26000 16.485
27.27000 16.275
27.28000 20.451
27.29000 16.440
27.30000 24.790
27.31000 26.771
27.32000 14.384
27.33000 15.380
27.34000 22.758
27.35000 24.724
27.36000 15.667
27.37000 16.522
27.38000 21.566
27.39000 22.795
27.40000 24.727
27.41000 23.709
27.42000 17.436
27.43000 18.530
27.44000 14.483
27.45000 25.797
27.46000 18.499
27.47000 21.686
27.48000 17.526
27.49000 19.722
27.50000 12.403
27.51000 21.797
27.52000 21.569
27.53000 25.726
27.54000 22.876
27.55000 23.695
27.56000 18.496
27.57000 20.563
27.58000 15.490
27.59000 28.897
27.60000 16.504
27.61000 23.885
27.62000 13.357
27.63000 21.490
27.64000 17.666
27.65000 23.677
27.66000 12.321
27.67000 23.587
27.68000 12.407
27.69000 17.432
27.70000 20.770
27.71000 17.469
27.72000 24.684
27.73000 14.490
27.74000 18.564
27.75000 18.547
27.76000 18.630
27.77000 15.504
27.78000 24.941
27.79000 18.294
27.80000 23.638
27.81000 15.525
27.82000 20.558
27.83000 17.648
27.84000 21.819
27.85000 18.606
27.86000 19.563
27.87000 15.673
27.88000 25.917
27.89000 9.186
27.90000 17.629
27.91000 19.553
27.92000 29.003
27.93000 16.358
27.94000 20.501
27.95000 17.557
27.96000 21.713
27.97000 12.280
27.98000 18.448
27.99000 21.588
28.00000 27.964
28.01000 15.457
28.02000 19.547
28.03000 20.548
28.04000 20.657
28.05000 13.272
28.06000 19.391
28.07000 19.647
28.08000 23.948
28.09000 15.634
28.10000 10.307
28.11000 18.667
28.12000 19.618
28.13000 23.615
28.14000 22.585
28.15000 20.684
28.16000 10.484
28.17000 35.291
28.18000 13.506
28.19000 16.552
28.20000 25.835
28.21000 14.529
28.22000 18.700
28.23000 17.452
28.24000 19.612
28.25000 27.881
28.26000 16.472
28.27000 17.616
28.28000 17.632
28.29000 13.380
28.30000 18.729
28.31000 16.501
28.32000 19.785
28.33000 21.631
28.34000 17.578
28.35000 20.481
28.36000 18.628
28.37000 17.546
28.38000 25.614
28.39000 17.484
28.40000 21.636
28.41000 16.569
28.42000 23.610
28.43000 13.485
28.44000 15.358
28.45000 23.659
28.46000 21.463
28.47000 19.738
28.48000 19.669
28.49000 15.653
28.50000 17.502
28.51000 19.380
28.52000 18.616
28.53000 15.557
28.54000 16.386
28.55000 19.478
28.56000 22.573
28.57000 11.341
28.58000 24.836
28.59000 15.349
28.60000 14.448
28.61000 14.464
28.62000 15.487
28.63000 20.613
28.64000 24.800
28.65000 19.589
28.66000 15.537
28.67000 22.699
28.68000 21.803
28.69000 25.799
28.70000 10.482
28.71000 14.320
28.72000 16.414
28.73000 19.606
28.74000 23.918
28.75000 16.526
28.76000 14.372
28.77000 21.711
28.78000 10.261
28.79000 17.605
28.80000 24.593
28.81000 23.639
28.82000 23.529
28.83000 27.911
28.84000 17.629
28.85000 17.538
28.86000 24.759
28.87000 16.543
28.88000 16.561
28.89000 21.772
28.90000 15.566
28.91000 17.520
28.92000 18.650
28.93000 12.441
28.94000 10.223
28.95000 10.355
28.96000 24.796
28.97000 25.653
28.98000 20.549
28.99000 12.562
29.00000 11.425
29.01000 17.733
29.02000 15.434
29.03000 19.705
29.04000 23.775
29.05000 20.480
29.06000 15.334
29.07000 14.544
29.08000 17.535
29.09000 14.386
29.10000 9.180
29.11000 17.556
29.12000 12.372
29.13000 15.637
29.14000 20.492
29.15000 16.537
29.16000 21.917
29.17000 18.653
29.18000 17.631
29.19000 14.340
29.20000 13.510
29.21000 14.440
29.22000 15.438
29.23000 19.530
29.24000 15.623
29.25000 14.476
29.26000 18.557
29.27000 17.682
29.28000 8.239
29.29000 25.645
29.30000 22.669
29.31000 24.737
29.32000 8.181
29.33000 15.463
29.34000 17.591
29.35000 20.532
29.36000 10.206
29.37000 16.362
29.38000 19.487
29.39000 11.327
29.40000 22.841
29.41000 22.716
29.42000 8.261
29.43000 17.581
29.44000 16.609
29.45000 20.724
29.46000 17.548
29.47000 13.569
29.48000 19.499
29.49000 14.362
29.50000 13.485
29.51000 14.437
29.52000 17.562
29.53000 15.580
29.54000 24.757
29.55000 9.210
29.56000 16.461
29.57000 14.433
29.58000 21.496
29.59000 18.560
29.60000 16.774
29.61000 14.440
29.62000 16.544
29.63000 8.266
29.64000 14.432
29.65000 13.436
29.66000 18.772
29.67000 20.648
29.68000 13.456
29.69000 16.454
29.70000 20.696
29.71000 23.715
29.72000 14.312
29.73000 9.330
29.74000 16.502
29.75000 12.471
29.76000 15.298
29.77000 18.872
29.78000 19.447
29.79000 11.394
29.80000 15.489
29.81000 14.433
29.82000 14.368
29.83000 20.595
29.84000 20.797
29.85000 14.346
29.86000 17.519
29.87000 10.294
29.88000 15.511
29.89000 13.476
29.90000 14.500
29.91000 12.361
29.92000 10.353
29.93000 14.488
29.94000 18.447
29.95000 15.475
29.96000 18.483
29.97000 16.492
29.98000 22.643
29.99000 13.286
30.00000 7.182
30.01000 13.323
30.02000 13.368
30.03000 13.517
30.04000 11.332
30.05000 15.551
30.06000 11.386
30.07000 16.577
30.08000 18.715
30.09000 8.227
30.10000 9.334
30.11000 20.777
30.12000 18.570
30.13000 23.737
30.14000 16.493
30.15000 7.226
30.16000 10.386
30.17000 11.264
30.18000 9.271
30.19000 13.295
30.20000 11.407
30.21000 20.455
30.22000 12.462
30.23000 16.561
30.24000 8.224
30.25000 15.650
30.26000 18.608
30.27000 11.297
30.28000 6.266
30.29000 13.326
30.30000 11.276
30.31000 11.438
30.32000 14.501
30.33000 12.421
30.34000 9.344
30.35000 16.387
30.36000 16.586
30.37000 14.480
30.38000 9.261
30.39000 10.293
30.40000 16.565
30.41000 12.400
30.42000 12.347
30.43000 5.141
30.44000 14.465
30.45000 16.504
30.46000 16.606
30.47000 15.379
30.48000 10.112
30.49000 17.686
30.50000 10.303
30.51000 16.475
30.52000 11.183
30.53000 14.383
30.54000 9.263
30.55000 12.343
30.56000 15.587
30.57000 13.387
30.58000 14.475
30.59000 10.378
30.60000 11.510
30.61000 14.446
30.62000 11.183
30.63000 16.428
30.64000 17.611
30.65000 19.686
30.66000 10.520
30.67000 8.269
30.68000 10.355
30.69000 12.413
30.70000 13.323
30.71000 15.416
30.72000 11.344
30.73000 10.385
30.74000 10.324
30.75000 10.387
30.76000 11.311
30.77000 12.332
30.78000 10.293
30.79000 9.419
30.80000 12.313
30.81000 14.267
30.82000 14.626
30.83000 15.424
30.84000 10.224
30.85000 11.268
30.86000 5.210
30.87000 12.302
30.88000 9.301
30.89000 12.463
30.90000 12.407
30.91000 12.345
30.92000 14.453
30.93000 18.583
30.94000 15.461
30.95000 8.280
30.96000 14.494
30.97000 12.427
30.98000 17.601
30.99000 11.433
31.00000 9.263
31.01000 14.364
31.02000 12.347
31.03000 14.316
31.04000 7.260
31.05000 5.124
31.06000 7.146
31.07000 10.403
31.08000 14.426
31.09000 7.151
31.10000 13.454
31.11000 3.106
31.12000 12.579
31.13000 12.371
31.14000 15.680
31.15000 16.640
31.16000 4.161
31.17000 14.258
31.18000 13.473
31.19000 14.525
31.20000 9.318
31.21000 6.194
31.22000 13.590
31.23000 11.353
31.24000 9.297
31.25000 11.326
31.26000 13.456
31.27000 14.571
31.28000 10.343
31.29000 10.314
31.30000 11.261
31.31000 13.414
31.32000 18.537
31.33000 6.122
31.34000 18.637
31.35000 9.351
31.36000 8.348
31.37000 10.288
31.38000 13.534
31.39000 10.354
31.40000 9.129
31.41000 11.271
31.42000 17.778
31.43000 15.580
31.44000 12.524
31.45000 9.289
31.46000 10.295
31.47000 13.439
31.48000 10.351
31.49000 9.281
31.50000 10.340
31.51000 8.322
31.52000 12.427
31.53000 7.290
31.54000 12.231
31.55000 10.207
31.56000 9.305
31.57000 15.742
31.58000 12.476
31.59000 8.191
31.60000 9.320
31.61000 13.455
31.62000 9.345
31.63000 11.361
31.64000 6.304
31.65000 8.267
31.66000 11.402
31.67000 9.356
31.68000 9.333
31.69000 15.433
31.70000 13.474
31.71000 11.359
31.72000 4.142
31.73000 16.649
31.74000 22.725
31.75000 8.191
31.76000 5.186
31.77000 9.281
31.78000 12.254
31.79000 13.418
31.80000 16.477
31.81000 4.092
31.82000 5.060
31.83000 10.336
31.84000 2.012
31.85000 6.257
31.86000 8.223
31.87000 6.182
31.88000 11.293
31.89000 9.219
31.90000 11.329
31.91000 11.242
31.92000 12.398
31.93000 13.249
31.94000 8.297
31.95000 5.056
31.96000 13.451
31.97000 13.420
31.98000 12.487
31.99000 13.358
32.00000 14.461
32.01000 11.347
32.02000 13.394
32.03000 11.254
32.04000 11.315
32.05000 14.512
32.06000 12.355
32.07000 12.369
32.08000 7.153
32.09000 12.320
32.10000 12.569
32.11000 10.287
32.12000 14.536
32.13000 12.510
32.14000 16.438
32.15000 5.104
32.16000 6.159
32.17000 4.237
32.18000 12.281
32.19000 10.266
32.20000 12.446
32.21000 8.298
32.22000 10.296
32.23000 12.345
32.24000 5.141
32.25000 16.588
32.26000 8.248
32.27000 15.407
32.28000 11.334
32.29000 10.465
32.30000 8.240
32.31000 12.282
32.32000 8.354
32.33000 15.403
32.34000 6.222
32.35000 11.343
32.36000 11.388
32.37000 13.369
32.38000 11.337
32.39000 8.340
32.40000 8.324
32.41000 14.490
32.42000 11.427
32.43000 12.369
32.44000 15.543
32.45000 16.376
32.46000 16.565
32.47000 8.227
32.48000 6.299
32.49000 9.314
32.50000 14.633
32.51000 13.454
32.52000 12.380
32.53000 10.343
32.54000 7.285
32.55000 11.331
32.56000 8.315
32.57000 9.460
32.58000 8.131
32.59000 5.178
32.60000 9.262
32.61000 13.364
32.62000 16.449
32.63000 12.424
32.64000 7.145
32.65000 9.260
32.66000 12.165
32.67000 13.328
32.68000 9.173
32.69000 11.346
32.70000 8.256
32.71000 7.256
32.72000 8.438
32.73000 7.129
32.74000 6.199
32.75000 7.201
32.76000 6.145
32.77000 12.364
32.78000 13.407
32.79000 5.179
32.80000 10.278
32.81000 10.308
32.82000 3.051
32.83000 10.229
32.84000 11.298
32.85000 7.262
32.86000 5.265
32.87000 10.289
32.88000 7.183
32.89000 14.371
32.90000 8.169
32.91000 17.515
32.92000 9.270
32.93000 9.229
32.94000 14.638
32.95000 6.163
32.96000 8.378
32.97000 10.272
32.98000 10.353
32.99000 7.238
33.00000 7.267
33.01000 5.200
33.02000 14.510
33.03000 6.177
33.04000 5.264
33.05000 4.047
33.06000 6.204
33.07000 10.301
33.08000 9.170
33.09000 5.069
33.10000 7.194
33.11000 7.312
33.12000 4.096
33.13000 9.248
33.14000 9.234
33.15000 8.259
33.16000 12.549
33.17000 8.246
33.18000 7.269
33.19000 7.350
33.20000 8.263
33.21000 10.321
33.22000 5.253
33.23000 7.199
33.24000 7.258
33.25000 8.301
33.26000 4.240
33.27000 7.232
33.28000 14.564
33.29000 6.182
33.30000 5.169
33.31000 5.144
33.32000 6.224
33.33000 11.268
33.34000 10.280
33.35000 9.277
33.36000 6.249
33.37000 4.072
33.38000 6.247
33.39000 6.229
33.40000 8.105
33.41000 10.344
33.42000 11.313
33.43000 6.314
33.44000 7.218
33.45000 6.330
33.46000 8.198
33.47000 10.217
33.48000 9.273
33.49000 8.190
33.50000 9.303
33.51000 5.189
33.52000 7.318
33.53000 4.078
33.54000 9.209
33.55000 11.350
33.56000 9.269
33.57000 8.299
33.58000 5.076
33.59000 6.154
33.60000 16.465
33.61000 7.181
33.62000 8.248
33.63000 5.206
33.64000 9.307
33.65000 9.239
33.66000 7.311
33.67000 7.173
33.68000 10.405
33.69000 10.322
33.70000 4.076
33.71000 10.305
33.72000 5.083
33.73000 5.135
33.74000 10.378
33.75000 12.257
33.76000 4.162
33.77000 6.178
33.78000 10.233
33.79000 8.237
33.80000 5.114
33.81000 5.180
33.82000 9.438
33.83000 10.382
33.84000 6.229
33.85000 5.289
33.86000 7.282
33.87000 4.073
33.88000 7.294
33.89000 2.070
33.90000 2.066
33.91000 10.293
33.92000 12.442
33.93000 7.068
33.94000 5.183
33.95000 9.123
33.96000 7.254
33.97000 6.166
33.98000 5.252
33.99000 9.350
34.00000 6.108
34.01000 7.147
34.02000 3.138
34.03000 4.100
34.04000 4.173
34.05000 3.122
34.06000 3.140
34.07000 5.092
34.08000 7.190
34.09000 8.220
34.10000 8.371
34.11000 6.157
34.12000 4.137
34.13000 7.253
34.14000 6.182
34.15000 8.251
34.16000 4.140
34.17000 7.279
34.18000 9.400
34.19000 11.339
34.20000 7.386
34.21000 4.208
34.22000 3.016
34.23000 5.151
34.24000 7.282
34.25000 9.280
34.26000 6.229
34.27000 5.192
34.28000 5.165
34.29000 4.134
34.30000 12.561
34.31000 5.096
34.32000 5.101
34.33000 8.130
34.34000 3.013
34.35000 6.068
34.36000 5.130
34.37000 6.149
34.38000 4.185
34.39000 8.353
34.40000 9.338
34.41000 6.242
34.42000 4.107
34.43000 6.178
34.44000 7.351
34.45000 6.163
34.46000 3.048
34.47000 7.189
34.48000 7.352
34.49000 6.168
34.50000 11.401
34.51000 7.111
34.52000 5.122
34.53000 8.091
34.54000 4.031
34.55000 4.079
34.56000 8.321
34.57000 5.159
34.58000 10.320
34.59000 5.098
34.60000 7.250
34.61000 12.438
34.62000 9.401
34.63000 9.309
34.64000 8.312
34.65000 5.122
34.66000 13.353
34.67000 7.230
34.68000 7.230
34.69000 7.240
34.70000 6.197
34.71000 10.130
34.72000 4.096
34.73000 5.176
34.74000 8.207
34.75000 6.213
34.76000 14.291
34.77000 4.046
34.78000 3.089
34.79000 9.239
34.80000 2.017
34.81000 7.300
34.82000 4.175
34.83000 5.085
34.84000 8.197
34.85000 9.186
34.86000 5.108
34.87000 5.189
34.88000 4.183
34.89000 6.133
34.90000 4.187
34.91000 5.146
34.92000 6.154
34.93000 7.270
34.94000 7.240
34.95000 8.253
34.96000 5.209
34.97000 4.020
34.98000 7.231
34.99000 5.232
35.00000 6.157
35.01000 8.295
35.02000 5.402
35.03000 8.264
35.04000 7.181
35.05000 3.022
35.06000 6.254
35.07000 6.201
35.08000 7.123
35.09000 6.251
35.10000 8.263
35.11000 7.340
35.12000 5.206
35.13000 13.353
35.14000 10.412
35.15000 13.321
35.16000 7.224
35.17000 5.130
35.18000 3.102
35.19000 9.161
35.20000 8.202
35.21000 5.167
35.22000 14.466
35.23000 4.229
35.24000 7.199
35.25000 3.092
35.26000 9.183
35.27000 3.084
35.28000 5.179
35.29000 6.249
35.30000 8.370
35.31000 7.234
35.32000 7.276
35.33000 7.263
35.34000 6.269
35.35000 10.440
35.36000 4.207
35.37000 6.221
35.38000 12.352
35.39000 5.056
35.40000 5.072
35.41000 6.220
35.42000 10.394
35.43000 7.217
35.44000 5.133
35.45000 7.180
35.46000 4.114
35.47000 8.277
35.48000 4.109
35.49000 9.319
35.50000 8.202
35.51000 6.123
35.52000 16.506
35.53000 3.082
35.54000 5.274
35.55000 8.223
35.56000 4.084
35.57000 8.411
35.58000 5.183
35.59000 6.200
35.60000 1.019
35.61000 7.191
35.62000 2.093
35.63000 9.310
35.64000 12.459
35.65000 7.177
35.66000 10.353
35.67000 5.139
35.68000 12.343
35.69000 9.274
35.70000 3.104
35.71000 12.402
35.72000 3.059
35.73000 10.307
35.74000 9.285
35.75000 5.067
35.76000 2.073
35.77000 6.096
35.78000 8.335
35.79000 8.421
35.80000 2.068
35.81000 6.173
35.82000 6.119
35.83000 3.113
35.84000 8.239
35.85000 4.095
35.86000 3.035
35.87000 9.252
35.88000 5.176
35.89000 7.138
35.90000 4.256
35.91000 8.165
35.92000 4.137
35.93000 14.673
35.94000 1.011
35.95000 6.161
35.96000 4.216
35.97000 9.348
35.98000 12.368
35.99000 4.124
36.00000 4.131
36.01000 6.125
36.02000 7.244
36.03000 5.104
36.04000 2.065
36.05000 3.074
36.06000 13.394
36.07000 3.039
36.08000 6.185
36.09000 2.104
36.10000 6.149
36.11000 4.087
36.12000 7.073
36.13000 6.114
36.14000 5.183
36.15000 4.120
36.16000 5.185
36.17000 8.231
36.18000 8.246
36.19000 3.175
36.20000 7.158
36.21000 7.168
36.22000 5.256
36.23000 2.093
36.24000 6.119
36.25000 5.128
36.26000 6.256
36.27000 7.283
36.28000 8.131
36.29000 7.168
36.30000 2.991
36.31000 3.079
36.32000 7.164
36.33000 8.158
36.34000 8.196
36.35000 8.241
36.36000 4.130
36.37000 6.316
36.38000 7.249
36.39000 7.193
36.40000 6.226
36.41000 5.169
36.42000 10.383
36.43000 7.244
36.44000 7.252
36.45000 8.174
36.46000 8.262
36.47000 5.175
36.48000 9.275
36.49000 5.093
36.50000 6.206
36.51000 12.414
36.52000 11.349
36.53000 8.183
36.54000 10.266
36.55000 4.072
36.56000 7.107
36.57000 6.267
36.58000 8.160
36.59000 5.229
36.60000 3.137
36.61000 4.140
36.62000 5.195
36.63000 6.211
36.64000 11.382
36.65000 7.313
36.66000 9.260
36.67000 8.245
36.68000 3.087
36.69000 8.203
36.70000 13.452
36.71000 6.210
36.72000 6.290
36.73000 6.147
36.74000 5.245
36.75000 5.100
36.76000 6.193
36.77000 8.180
36.78000 6.291
36.79000 11.443
36.80000 7.248
36.81000 7.191
36.82000 10.335
36.83000 9.223
36.84000 8.248
36.85000 7.245
36.86000 2.060
36.87000 10.277
36.88000 10.313
36.89000 4.165
36.90000 8.270
36.91000 8.198
36.92000 9.251
36.93000 6.228
36.94000 7.230
36.95000 4.134
36.96000 7.222
36.97000 8.167
36.98000 3.041
36.99000 7.227
37.00000 7.309
37.01000 9.239
37.02000 6.178
37.03000 5.139
37.04000 10.473
37.05000 6.273
37.06000 6.106
37.07000 12.294
37.08000 7.255
37.09000 8.259
37.10000 4.117
37.11000 8.252
37.12000 3.115
37.13000 5.125
37.14000 2.028
37.15000 7.277
37.16000 7.196
37.17000 9.396
37.18000 7.181
37.19000 4.111
37.20000 7.288
37.21000 9.268
37.22000 4.045
37.23000 9.421
37.24000 4.132
37.25000 9.227
37.26000 7.236
37.27000 9.228
37.28000 10.432
37.29000 9.380
37.30000 4.058
37.31000 3.066
37.32000 7.271
37.33000 3.051
37.34000 9.334
37.35000 4.133
37.36000 7.312
37.37000 6.199
37.38000 9.163
37.39000 5.091
37.40000 6.210
37.41000 10.157
37.42000 5.087
37.43000 9.340
37.44000 7.261
37.45000 7.237
37.46000 8.230
37.47000 3.125
37.48000 6.145
37.49000 7.208
37.50000 4.110
37.51000 9.308
37.52000 3.047
37.53000 7.164
37.54000 6.294
37.55000 5.239
37.56000 3.042
37.57000 15.494
37.58000 5.200
37.59000 6.219
37.60000 10.256
37.61000 8.248
37.62000 8.332
37.63000 11.266
37.64000 5.224
37.65000 8.319
37.66000 9.356
37.67000 7.336
37.68000 2.101
37.69000 2.073
37.70000 3.162
37.71000 7.196
37.72000 2.111
37.73000 5.182
37.74000 13.463
37.75000 8.124
37.76000 8.153
37.77000 6.310
37.78000 5.126
37.79000 4.099
37.80000 8.263
37.81000 6.230
37.82000 8.154
37.83000 7.277
37.84000 8.235
37.85000 8.329
37.86000 8.177
37.87000 4.088
37.88000 6.255
37.89000 10.523
37.90000 7.282
37.91000 6.143
37.92000 4.049
37.93000 5.233
37.94000 4.050
37.95000 8.194
37.96000 13.430
37.97000 4.110
37.98000 7.249
37.99000 5.046
38.00000 5.242
38.01000 14.521
38.02000 7.203
38.03000 9.209
38.04000 4.199
38.05000 9.222
38.06000 7.200
38.07000 13.508
38.08000 7.170
38.09000 5.116
38.10000 4.078
38.11000 4.176
38.12000 8.167
38.13000 2.097
38.14000 7.299
38.15000 7.153
38.16000 6.327
38.17000 11.239
38.18000 5.233
38.19000 11.325
38.20000 6.165
38.21000 10.297
38.22000 4.143
38.23000 2.050
38.24000 7.189
38.25000 4.258
38.26000 5.146
38.27000 9.256
38.28000 6.226
38.29000 7.255
38.30000 10.262
38.31000 11.387
38.32000 11.421
38.33000 5.178
38.34000 9.329
38.35000 14.264
38.36000 8.269
38.37000 9.290
38.38000 5.105
38.39000 9.324
38.40000 9.155
38.41000 8.355
38.42000 7.310
38.43000 5.167
38.44000 7.249
38.45000 6.295
38.46000 3.080
38.47000 10.257
38.48000 9.346
38.49000 9.412
38.50000 6.133
38.51000 8.422
38.52000 10.326
38.53000 5.079
38.54000 5.247
38.55000 6.152
38.56000 7.326
38.57000 6.195
38.58000 10.294
38.59000 7.273
38.60000 5.124
38.61000 6.353
38.62000 7.209
38.63000 8.161
38.64000 7.112
38.65000 7.271
38.66000 6.147
38.67000 5.177
38.68000 9.104
38.69000 9.259
38.70000 9.328
38.71000 13.570
38.72000 7.439
38.73000 6.322
38.74000 8.308
38.75000 13.458
38.76000 3.026
38.77000 10.339
38.78000 5.137
38.79000 5.192
38.80000 6.127
38.81000 7.168
38.82000 8.237
38.83000 4.155
38.84000 7.190
38.85000 12.443
38.86000 10.403
38.87000 15.575
38.88000 11.364
38.89000 8.270
38.90000 9.216
38.91000 5.193
38.92000 7.293
38.93000 5.170
38.94000 11.338
38.95000 7.317
38.96000 4.041
38.97000 7.194
38.98000 8.122
38.99000 10.433
39.00000 7.223
39.01000 8.272
39.02000 6.193
39.03000 8.212
39.04000 7.312
39.05000 10.228
39.06000 8.181
39.07000 9.294
39.08000 7.246
39.09000 10.209
39.10000 6.218
39.11000 6.155
39.12000 3.009
39.13000 8.355
39.14000 5.091
39.15000 4.170
39.16000 8.256
39.17000 5.174
39.18000 4.053
39.19000 9.431
39.20000 12.427
39.21000 5.085
39.22000 8.147
39.23000 14.397
39.24000 10.384
39.25000 9.311
39.26000 8.244
39.27000 6.247
39.28000 11.266
39.29000 5.066
39.30000 7.191
39.31000 9.309
39.32000 4.133
39.33000 4.074
39.34000 5.122
39.35000 5.082
39.36000 9.312
39.37000 5.182
39.38000 3.092
39.39000 4.172
39.40000 6.175
39.41000 8.196
39.42000 6.164
39.43000 5.196
39.44000 9.302
39.45000 7.226
39.46000 8.364
39.47000 7.244
39.48000 5.211
39.49000 7.297
39.50000 6.191
39.51000 11.362
39.52000 10.169
39.53000 8.173
39.54000 6.125
39.55000 5.195
39.56000 12.266
39.57000 8.272
39.58000 6.253
39.59000 8.257
39.60000 7.241
39.61000 7.228
39.62000 8.238
39.63000 4.202
39.64000 8.381
39.65000 6.204
39.66000 5.212
39.67000 8.299
39.68000 10.322
39.69000 8.308
39.70000 6.167
39.71000 11.499
39.72000 3.134
39.73000 13.425
39.74000 7.129
39.75000 7.265
39.76000 7.200
39.77000 9.350
39.78000 5.100
39.79000 3.056
39.80000 3.175
39.81000 7.246
39.82000 8.235
39.83000 6.292
39.84000 4.147
39.85000 6.172
39.86000 10.272
39.87000 2.068
39.88000 10.374
39.89000 8.195
39.90000 15.393
39.91000 7.337
39.92000 12.312
39.93000 9.366
39.94000 4.177
39.95000 6.213
39.96000 6.309
39.97000 3.093
39.98000 6.159
39.99000 2.051
40.00000 8.315
40.01000 9.337
40.02000 14.531
40.03000 3.089
40.04000 6.238
40.05000 3.036
40.06000 9.243
40.07000 8.196
40.08000 9.215
40.09000 10.254
40.10000 6.162
40.11000 5.193
40.12000 9.220
40.13000 9.162
40.14000 5.209
40.15000 6.160
40.16000 5.137
40.17000 7.299
40.18000 6.311
40.19000 6.185
40.20000 7.138
40.21000 8.322
40.22000 5.187
40.23000 9.250
40.24000 14.447
40.25000 8.237
40.26000 6.234
40.27000 13.397
40.28000 9.337
40.29000 2.056
40.30000 7.139
40.31000 7.168
40.32000 7.179
40.33000 9.261
40.34000 5.179
40.35000 5.166
40.36000 8.349
40.37000 9.304
40.38000 3.057
40.39000 8.265
40.40000 7.179
40.41000 8.272
40.42000 9.360
40.43000 10.329
40.44000 13.468
40.45000 9.245
40.46000 7.173
40.47000 8.374
40.48000 11.178
40.49000 5.218
40.50000 5.157
40.51000 15.342
40.52000 8.286
40.53000 6.251
40.54000 4.106
40.55000 4.091
40.56000 7.183
40.57000 6.143
40.58000 5.177
40.59000 7.220
40.60000 10.222
40.61000 6.171
40.62000 10.186
40.63000 6.185
40.64000 4.163
40.65000 5.126
40.66000 6.205
40.67000 6.213
40.68000 7.218
40.69000 9.170
40.70000 7.251
40.71000 10.234
40.72000 13.453
40.73000 5.124
40.74000 10.298
40.75000 7.242
40.76000 12.270
40.77000 6.165
40.78000 8.298
40.79000 10.343
40.80000 11.236
40.81000 9.414
40.82000 6.244
40.83000 9.327
40.84000 9.320
40.85000 6.155
40.86000 3.046
40.87000 12.315
40.88000 8.195
40.89000 12.262
40.90000 5.167
40.91000 9.375
40.92000 9.319
40.93000 5.146
40.94000 5.129
40.95000 3.022
40.96000 5.271
40.97000 9.425
40.98000 9.241
40.99000 5.141
41.00000 3.118
41.01000 5.164
41.02000 6.124
41.03000 9.204
41.04000 10.328
41.05000 9.294
41.06000 14.575
41.07000 6.186
41.08000 9.271
41.09000 5.119
41.10000 15.460
41.11000 6.254
41.12000 9.378
41.13000 6.178
41.14000 6.103
41.15000 8.242
41.16000 7.216
41.17000 11.382
41.18000 8.285
41.19000 6.367
41.20000 9.208
41.21000 13.488
41.22000 6.184
41.23000 6.095
41.24000 5.117
41.25000 8.235
41.26000 10.286
41.27000 6.183
41.28000 4.194
41.29000 6.130
41.30000 9.380
41.31000 10.225
41.32000 13.639
41.33000 6.147
41.34000 2.089
41.35000 6.246
41.36000 7.255
41.37000 7.179
41.38000 7.333
41.39000 9.265
41.40000 8.212
41.41000 9.342
41.42000 9.447
41.43000 5.162
41.44000 2.084
41.45000 6.252
41.46000 9.331
41.47000 6.239
41.48000 5.231
41.49000 5.199
41.50000 5.223
41.51000 3.167
41.52000 7.145
41.53000 5.126
41.54000 6.160
41.55000 3.115
41.56000 10.180
41.57000 3.085
41.58000 7.242
41.59000 5.229
41.60000 5.170
41.61000 7.298
41.62000 6.157
41.63000 6.113
41.64000 2.058
41.65000 5.138
41.66000 9.231
41.67000 6.193
41.68000 8.274
41.69000 2.046
41.70000 5.221
41.71000 6.141
41.72000 10.345
41.73000 11.432
41.74000 7.174
41.75000 7.240
41.76000 5.103
41.77000 10.441
41.78000 4.175
41.79000 7.274
41.80000 6.124
41.81000 5.140
41.82000 9.303
41.83000 6.149
41.84000 6.256
41.85000 6.169
41.86000 3.039
41.87000 12.309
41.88000 7.312
41.89000 8.248
41.90000 7.273
41.91000 8.184
41.92000 8.203
41.93000 9.323
41.94000 8.266
41.95000 10.318
41.96000 3.114
41.97000 4.136
41.98000 5.182
41.99000 5.198
42.00000 8.208
42.01000 6.152
42.02000 8.335
42.03000 4.137
42.04000 6.230
42.05000 2.094
42.06000 7.306
42.07000 7.297
42.08000 12.392
42.09000 8.221
42.10000 9.304
42.11000 6.165
42.12000 10.121
42.13000 3.093
42.14000 15.562
42.15000 4.213
42.16000 5.200
42.17000 4.103
42.18000 10.266
42.19000 8.278
42.20000 10.355
42.21000 4.108
42.22000 6.204
42.23000 7.253
42.24000 12.379
42.25000 3.101
42.26000 7.193
42.27000 9.248
42.28000 8.288
42.29000 7.282
42.30000 5.090
42.31000 9.424
42.32000 8.305
42.33000 12.541
42.34000 6.204
42.35000 10.499
42.36000 4.127
42.37000 3.044
42.38000 9.351
42.39000 4.190
42.40000 10.420
42.41000 11.420
42.42000 6.289
42.43000 13.580
42.44000 10.274
42.45000 10.281
42.46000 8.256
42.47000 7.159
42.48000 4.177
42.49000 9.331
42.50000 8.415
42.51000 4.083
42.52000 8.326
42.53000 5.171
42.54000 6.206
42.55000 6.102
42.56000 7.345
42.57000 8.298
42.58000 4.135
42.59000 8.206
42.60000 8.263
42.61000 6.228
42.62000 6.132
42.63000 9.196
42.64000 14.433
42.65000 5.204
42.66000 1.005
42.67000 6.159
42.68000 5.138
42.69000 7.241
42.70000 8.098
42.71000 6.151
42.72000 8.286
42.73000 11.366
42.74000 10.265
42.75000 10.256
42.76000 6.178
42.77000 4.096
42.78000 8.127
42.79000 3.079
42.80000 12.468
42.81000 7.203
42.82000 6.161
42.83000 5.195
42.84000 11.359
42.85000 5.191
42.86000 6.279
42.87000 4.176
42.88000 8.215
42.89000 11.171
42.90000 8.220
42.91000 4.175
42.92000 9.272
42.93000 8.284
42.94000 5.181
42.95000 9.330
42.96000 6.256
42.97000 5.240
42.98000 10.381
42.99000 6.125
43.00000 6.319
43.01000 13.402
43.02000 12.362
43.03000 6.261
43.04000 5.127
43.05000 4.151
43.06000 8.215
43.07000 6.151
43.08000 3.040
43.09000 5.076
43.10000 3.036
43.11000 7.202
43.12000 5.083
43.13000 6.155
43.14000 7.209
43.15000 6.180
43.16000 7.156
43.17000 1.026
43.18000 9.496
43.19000 4.128
43.20000 4.159
43.21000 6.172
43.22000 10.298
43.23000 4.045
43.24000 9.236
43.25000 16.744
43.26000 6.280
43.27000 4.254
43.28000 9.396
43.29000 7.247
43.30000 9.333
43.31000 9.305
43.32000 8.173
43.33000 13.390
43.34000 5.189
43.35000 3.069
43.36000 5.089
43.37000 9.253
43.38000 4.082
43.39000 8.304
43.40000 10.375
43.41000 8.251
43.42000 6.220
43.43000 7.203
43.44000 7.150
43.45000 5.138
43.46000 6.145
43.47000 11.372
43.48000 3.080
43.49000 7.189
43.50000 7.269
43.51000 10.294
43.52000 7.237
43.53000 6.271
43.54000 5.088
43.55000 3.079
43.56000 5.160
43.57000 11.526
43.58000 11.351
43.59000 6.138
43.60000 4.086
43.61000 10.342
43.62000 11.389
43.63000 4.124
43.64000 8.317
43.65000 10.203
43.66000 9.479
43.67000 9.308
43.68000 7.177
43.69000 10.347
43.70000 4.048
43.71000 6.177
43.72000 9.290
43.73000 8.209
43.74000 9.156
43.75000 7.266
43.76000 12.303
43.77000 4.091
43.78000 9.410
43.79000 5.248
43.80000 8.269
43.81000 6.082
43.82000 11.203
43.83000 6.137
43.84000 10.186
43.85000 13.479
43.86000 8.258
43.87000 4.106
43.88000 8.227
43.89000 8.251
43.90000 5.144
43.91000 7.173
43.92000 6.140
43.93000 7.217
43.94000 9.383
43.95000 7.189
43.96000 7.118
43.97000 9.317
43.98000 6.081
43.99000 10.250
44.00000 6.124
44.01000 10.269
44.02000 5.201
44.03000 5.137
44.04000 10.288
44.05000 3.097
44.06000 6.162
44.07000 6.133
44.08000 13.431
44.09000 7.128
44.10000 5.224
44.11000 11.268
44.12000 5.133
44.13000 2.098
44.14000 3.086
44.15000 6.227
44.16000 11.369
44.17000 8.218
44.18000 4.216
44.19000 14.495
44.20000 5.169
44.21000 7.187
44.22000 5.083
44.23000 7.302
44.24000 4.109
44.25000 9.297
44.26000 6.201
44.27000 6.286
44.28000 10.308
44.29000 7.173
44.30000 6.215
44.31000 12.445
44.32000 9.263
44.33000 7.134
44.34000 11.406
44.35000 5.211
44.36000 8.316
44.37000 5.077
44.38000 7.222
44.39000 10.410
44.40000 7.319
44.41000 4.153
44.42000 6.225
44.43000 10.368
44.44000 5.187
44.45000 7.226
44.46000 8.181
44.47000 5.218
44.48000 5.110
44.49000 9.304
44.50000 8.187
44.51000 4.213
44.52000 5.215
44.53000 10.299
44.54000 13.587
44.55000 6.116
44.56000 8.145
44.57000 7.243
44.58000 6.225
44.59000 10.327
44.60000 4.113
44.61000 8.365
44.62000 5.098
44.63000 8.334
44.64000 9.222
44.65000 7.256
44.66000 7.306
44.67000 4.116
44.68000 4.114
44.69000 7.169
44.70000 6.274
44.71000 8.292
44.72000 7.124
44.73000 9.316
44.74000 9.363
44.75000 9.385
44.76000 9.221
44.77000 14.461
44.78000 3.092
44.79000 6.121
44.80000 5.164
44.81000 6.171
44.82000 4.185
44.83000 9.369
44.84000 11.392
44.85000 6.091
44.86000 11.355
44.87000 7.269
44.88000 8.268
44.89000 6.196
44.90000 7.239
44.91000 6.201
44.92000 4.097
44.93000 4.114
44.94000 4.068
44.95000 6.244
44.96000 8.348
44.97000 8.307
44.98000 4.147
44.99000 11.327
45.00000 5.121
45.01000 5.161
45.02000 3.040
45.03000 9.261
45.04000 8.258
45.05000 7.191
45.06000 4.128
45.07000 4.121
45.08000 8.230
45.09000 9.207
45.10000 6.136
45.11000 5.216
45.12000 7.273
45.13000 9.351
45.14000 5.083
45.15000 6.277
45.16000 5.194
45.17000 8.215
45.18000 11.386
45.19000 8.254
45.20000 6.152
45.21000 7.197
45.22000 6.272
45.23000 7.244
45.24000 5.198
45.25000 13.531
45.26000 5.261
45.27000 9.245
45.28000 9.172
45.29000 8.147
45.30000 11.303
45.31000 7.261
45.32000 5.155
45.33000 7.251
45.34000 9.368
45.35000 3.096
45.36000 9.232
45.37000 6.252
45.38000 8.178
45.39000 8.224
45.40000 6.212
45.41000 12.229
45.42000 8.275
45.43000 6.149
45.44000 10.381
45.45000 4.098
45.46000 5.105
45.47000 5.207
45.48000 9.177
45.49000 11.398
45.50000 5.197
45.51000 8.195
45.52000 6.150
45.53000 9.259
45.54000 9.330
45.55000 11.319
45.56000 7.159
45.57000 4.157
45.58000 9.417
45.59000 6.251
45.60000 6.247
45.61000 6.157
45.62000 8.218
45.63000 5.139
45.64000 3.060
45.65000 8.296
45.66000 9.228
45.67000 10.307
45.68000 6.239
45.69000 6.219
45.70000 7.188
45.71000 10.395
45.72000 2.068
45.73000 8.302
45.74000 12.421
45.75000 3.114
45.76000 11.357
45.77000 7.159
45.78000 9.250
45.79000 8.154
45.80000 9.405
45.81000 5.134
45.82000 11.285
45.83000 11.328
45.84000 10.201
45.85000 8.173
45.86000 4.164
45.87000 7.253
45.88000 10.350
45.89000 5.159
45.90000 4.176
45.91000 3.053
45.92000 11.378
45.93000 6.209
45.94000 7.247
45.95000 4.217
45.96000 10.351
45.97000 6.205
45.98000 6.183
45.99000 4.134
46.00000 8.276
46.01000 6.146
46.02000 8.333
46.03000 7.237
46.04000 10.380
46.05000 11.448
46.06000 8.219
46.07000 7.213
46.08000 8.282
46.09000 8.256
46.10000 4.073
46.11000 9.241
46.12000 9.266
46.13000 5.150
46.14000 6.188
46.15000 11.396
46.16000 6.291
46.17000 5.146
46.18000 4.095
46.19000 10.416
46.20000 4.080
46.21000 8.225
46.22000 9.336
46.23000 10.430
46.24000 6.241
46.25000 8.215
46.26000 4.080
46.27000 11.399
46.28000 8.270
46.29000 9.236
46.30000 10.225
46.31000 6.242
46.32000 13.481
46.33000 7.090
46.34000 9.243
46.35000 9.334
46.36000 13.315
46.37000 7.100
46.38000 10.238
46.39000 8.071
46.40000 6.061
46.41000 10.215
46.42000 6.106
46.43000 6.150
46.44000 4.128
46.45000 8.318
46.46000 7.213
46.47000 7.201
46.48000 4.157
46.49000 10.327
46.50000 5.147
46.51000 7.250
46.52000 6.238
46.53000 9.361
46.54000 8.350
46.55000 9.225
46.56000 7.157
46.57000 5.200
46.58000 9.387
46.59000 8.249
46.60000 9.353
46.61000 6.173
46.62000 13.212
46.63000 10.304
46.64000 6.192
46.65000 6.166
46.66000 6.086
46.67000 5.053
46.68000 6.147
46.69000 10.253
46.70000 6.200
46.71000 7.190
46.72000 8.269
46.73000 7.212
46.74000 6.118
46.75000 6.265
46.76000 4.141
46.77000 11.306
46.78000 9.309
46.79000 8.299
46.80000 13.425
46.81000 7.138
46.82000 5.097
46.83000 11.372
46.84000 11.407
46.85000 5.194
46.86000 9.224
46.87000 9.378
46.88000 8.337
46.89000 5.108
46.90000 3.036
46.91000 6.152
46.92000 8.276
46.93000 8.318
46.94000 12.382
46.95000 4.113
46.96000 9.320
46.97000 7.199
46.98000 13.414
46.99000 8.254
47.00000 6.201
47.01000 7.302
47.02000 7.136
47.03000 9.218
47.04000 7.175
47.05000 7.236
47.06000 7.365
47.07000 5.174
47.08000 7.212
47.09000 9.268
47.10000 2.089
47.11000 6.288
47.12000 13.687
47.13000 8.219
47.14000 5.157
47.15000 11.269
47.16000 6.239
47.17000 7.227
47.18000 2.122
47.19000 9.236
47.20000 6.225
47.21000 9.479
47.22000 11.339
47.23000 7.225
47.24000 7.187
47.25000 6.291
47.26000 4.097
47.27000 8.223
47.28000 8.159
47.29000 8.163
47.30000 5.124
47.31000 6.190
47.32000 7.217
47.33000 3.048
47.34000 10.293
47.35000 8.228
47.36000 3.093
47.37000 10.387
47.38000 8.278
47.39000 12.356
47.40000 7.312
47.41000 11.363
47.42000 7.257
47.43000 8.231
47.44000 3.102
47.45000 12.340
47.46000 11.487
47.47000 5.255
47.48000 5.059
47.49000 12.272
47.50000 11.293
47.51000 8.331
47.52000 6.176
47.53000 6.109
47.54000 4.044
47.55000 8.252
47.56000 6.265
47.57000 9.320
47.58000 7.146
47.59000 10.362
47.60000 3.056
47.61000 7.277
47.62000 10.316
47.63000 7.385
47.64000 8.161
47.65000 11.425
47.66000 9.381
47.67000 10.334
47.68000 8.263
47.69000 13.359
47.70000 7.220
47.71000 3.123
47.72000 6.212
47.73000 5.217
47.74000 10.200
47.75000 8.278
47.76000 8.216
47.77000 4.076
47.78000 6.257
47.79000 3.091
47.80000 8.187
47.81000 4.128
47.82000 5.144
47.83000 3.141
47.84000 7.288
47.85000 7.100
47.86000 14.535
47.87000 5.210
47.88000 9.286
47.89000 4.123
47.90000 9.247
47.91000 7.263
47.92000 5.217
47.93000 10.306
47.94000 10.263
47.95000 9.291
47.96000 9.359
47.97000 5.200
47.98000 6.233
47.99000 6.205
48.00000 5.168
48.01000 5.049
48.02000 2.019
48.03000 4.244
48.04000 5.124
48.05000 9.291
48.06000 5.097
48.07000 3.081
48.08000 5.180
48.09000 3.095
48.10000 10.452
48.11000 4.073
48.12000 4.120
48.13000 6.212
48.14000 7.228
48.15000 8.173
48.16000 4.139
48.17000 4.284
48.18000 7.173
48.19000 8.441
48.20000 6.136
48.21000 6.252
48.22000 8.208
48.23000 8.371
48.24000 10.162
48.25000 9.274
48.26000 8.314
48.27000 4.138
48.28000 7.168
48.29000 6.147
48.30000 12.424
48.31000 6.178
48.32000 5.194
48.33000 5.141
48.34000 7.260
48.35000 6.170
48.36000 3.083
48.37000 6.265
48.38000 2.079
48.39000 5.065
48.40000 8.294
48.41000 7.116
48.42000 7.252
48.43000 3.068
48.44000 5.160
48.45000 7.255
48.46000 1.033
48.47000 7.280
48.48000 2.096
48.49000 7.207
48.50000 9.320
48.51000 6.185
48.52000 5.237
48.53000 9.279
48.54000 7.224
48.55000 14.434
48.56000 5.069
48.57000 7.163
48.58000 4.190
48.59000 4.149
48.60000 7.125
48.61000 10.352
48.62000 4.025
48.63000 3.122
48.64000 8.387
48.65000 13.496
48.66000 7.238
48.67000 5.203
48.68000 2.081
48.69000 7.314
48.70000 6.335
48.71000 12.473
48.72000 6.240
48.73000 6.226
48.74000 3.086
48.75000 1.022
48.76000 9.295
48.77000 4.155
48.78000 5.166
48.79000 6.204
48.80000 7.228
48.81000 2.084
48.82000 8.240
48.83000 8.363
48.84000 5.146
48.85000 7.234
48.86000 13.294
48.87000 7.181
48.88000 4.201
48.89000 7.174
48.90000 10.417
48.91000 5.148
48.92000 0.000
48.93000 4.092
48.94000 8.318
48.95000 6.212
48.96000 15.338
48.97000 11.438
48.98000 5.178
48.99000 13.348
49.00000 7.097
49.01000 6.166
49.02000 6.093
49.03000 6.185
49.04000 7.218
49.05000 12.224
49.06000 1.051
49.07000 6.180
49.08000 8.280
49.09000 8.223
49.10000 11.519
49.11000 6.149
49.12000 5.205
49.13000 7.268
49.14000 10.319
49.15000 8.281
49.16000 7.285
49.17000 3.137
49.18000 7.293
49.19000 6.252
49.20000 8.321
49.21000 6.133
49.22000 7.159
49.23000 5.145
49.24000 4.170
49.25000 12.452
49.26000 5.165
49.27000 3.110
49.28000 8.296
49.29000 15.517
49.30000 8.301
49.31000 6.210
49.32000 8.193
49.33000 6.250
49.34000 4.158
49.35000 8.400
49.36000 5.130
49.37000 10.389
49.38000 6.245
49.39000 5.328
49.40000 10.331
49.41000 6.307
49.42000 10.382
49.43000 4.274
49.44000 3.092
49.45000 7.119
49.46000 8.347
49.47000 10.328
49.48000 7.288
49.49000 7.268
49.50000 8.176
49.51000 4.089
49.52000 8.445
49.53000 5.173
49.54000 8.323
49.55000 5.088
49.56000 3.036
49.57000 3.100
49.58000 7.239
49.59000 6.193
49.60000 7.226
49.61000 5.165
49.62000 10.258
49.63000 12.389
49.64000 10.176
49.65000 6.205
49.66000 5.073
49.67000 5.134
49.68000 7.201
49.69000 4.163
49.70000 9.326
49.71000 5.170
49.72000 8.414
49.73000 7.224
49.74000 10.270
49.75000 7.246
49.76000 6.215
49.77000 6.195
49.78000 10.414
49.79000 7.335
49.80000 2.055
49.81000 6.173
49.82000 5.067
49.83000 6.276
49.84000 8.232
49.85000 6.261
49.86000 10.432
49.87000 8.193
49.88000 10.293
49.89000 10.405
49.90000 3.115
49.91000 7.232
49.92000 8.268
49.93000 8.312
49.94000 5.104
49.95000 6.194
49.96000 7.214
49.97000 5.160
49.98000 5.106
49.99000 6.159
50.00000 6.285
50.01000 3.067
50.02000 5.171
50.03000 8.341
50.04000 9.228
50.05000 9.221
50.06000 5.108
50.07000 6.195
50.08000 9.519
50.09000 7.268
50.10000 6.072
50.11000 8.215
50.12000 6.164
50.13000 6.158
50.14000 4.108
50.15000 7.130
50.16000 5.135
50.17000 3.072
50.18000 4.069
50.19000 4.223
50.20000 7.337
50.21000 3.031
50.22000 7.317
50.23000 4.165
50.24000 6.122
50.25000 7.234
50.26000 2.108
50.27000 5.183
50.28000 5.082
50.29000 6.212
50.30000 11.439
50.31000 8.280
50.32000 7.188
50.33000 6.213
50.34000 2.096
50.35000 4.144
50.36000 4.170
50.37000 6.262
50.38000 7.299
50.39000 3.039
50.40000 7.412
50.41000 8.181
50.42000 12.343
50.43000 5.149
50.44000 4.082
50.45000 6.162
50.46000 5.245
50.47000 4.160
50.48000 7.191
50.49000 7.254
50.50000 8.345
50.51000 3.130
50.52000 8.248
50.53000 6.125
50.54000 4.129
50.55000 7.251
50.56000 0.000
50.57000 16.534
50.58000 2.059
50.59000 4.098
50.60000 3.058
50.61000 6.215
50.62000 8.214
50.63000 5.152
50.64000 8.262
50.65000 4.201
50.66000 6.167
50.67000 7.280
50.68000 13.476
50.69000 5.268
50.70000 5.213
50.71000 6.194
50.72000 5.242
50.73000 8.327
50.74000 7.108
50.75000 5.213
50.76000 9.425
50.77000 4.047
50.78000 2.089
50.79000 8.220
50.80000 9.484
50.81000 8.262
50.82000 8.373
50.83000 3.060
50.84000 4.081
50.85000 6.166
50.86000 6.113
50.87000 5.177
50.88000 2.049
50.89000 6.238
50.90000 7.191
50.91000 8.282
50.92000 6.157
50.93000 8.114
50.94000 4.076
50.95000 5.243
50.96000 8.215
50.97000 6.209
50.98000 2.120
50.99000 4.058
51.00000 6.199
51.01000 4.073
51.02000 10.406
51.03000 7.207
51.04000 6.287
51.05000 7.275
51.06000 4.091
51.07000 7.195
51.08000 8.260
51.09000 8.160
51.10000 7.261
51.11000 6.213
51.12000 3.097
51.13000 5.191
51.14000 6.196
51.15000 4.093
51.16000 12.426
51.17000 4.168
51.18000 6.149
51.19000 9.211
51.20000 3.051
51.21000 4.046
51.22000 7.242
51.23000 6.255
51.24000 10.418
51.25000 5.169
51.26000 4.089
51.27000 8.435
51.28000 4.092
51.29000 3.040
51.30000 7.153
51.31000 14.382
51.32000 5.143
51.33000 4.158
51.34000 5.202
51.35000 6.190
51.36000 7.191
51.37000 7.149
51.38000 4.055
51.39000 3.111
51.40000 8.213
51.41000 6.295
51.42000 8.321
51.43000 12.468
51.44000 4.088
51.45000 8.269
51.46000 4.047
51.47000 9.327
51.48000 7.266
51.49000 9.313
51.50000 7.297
51.51000 5.166
51.52000 6.136
51.53000 5.352
51.54000 6.172
51.55000 6.201
51.56000 5.194
51.57000 6.117
51.58000 6.201
51.59000 7.139
51.60000 9.258
51.61000 7.100
51.62000 6.277
51.63000 7.211
51.64000 9.373
51.65000 11.417
51.66000 12.325
51.67000 3.015
51.68000 6.153
51.69000 7.338
51.70000 9.217
51.71000 6.270
51.72000 8.148
51.73000 6.160
51.74000 3.054
51.75000 7.174
51.76000 2.052
51.77000 4.158
51.78000 1.036
51.79000 6.167
51.80000 9.230
51.81000 5.184
51.82000 10.397
51.83000 6.253
51.84000 6.264
51.85000 9.190
51.86000 9.297
51.87000 4.152
51.88000 8.361
51.89000 2.111
51.90000 3.095
51.91000 7.254
51.92000 8.367
51.93000 4.115
51.94000 3.116
51.95000 6.215
51.96000 2.085
51.97000 3.065
51.98000 3.156
51.99000 7.126
52.00000 10.230
52.01000 4.110
52.02000 10.226
52.03000 7.069
52.04000 6.147
52.05000 5.259
52.06000 9.381
52.07000 12.502
52.08000 5.147
52.09000 2.048
52.10000 5.130
52.11000 11.345
52.12000 7.343
52.13000 7.359
52.14000 4.090
52.15000 5.197
52.16000 7.244
52.17000 7.187
52.18000 10.377
52.19000 4.064
52.20000 5.285
52.21000 7.270
52.22000 5.173
52.23000 11.401
52.24000 8.312
52.25000 7.283
52.26000 11.253
52.27000 9.377
52.28000 10.475
52.29000 8.356
52.30000 3.113
52.31000 7.268
52.32000 8.278
52.33000 6.127
52.34000 7.322
52.35000 11.256
52.36000 9.186
52.37000 3.109
52.38000 5.051
52.39000 5.228
52.40000 5.195
52.41000 7.205
52.42000 6.259
52.43000 5.147
52.44000 5.064
52.45000 6.232
52.46000 2.093
52.47000 9.349
52.48000 5.187
52.49000 4.135
52.50000 7.186
52.51000 6.336
52.52000 7.268
52.53000 5.194
52.54000 6.131
52.55000 9.290
52.56000 6.239
52.57000 4.111
52.58000 4.061
52.59000 5.163
52.60000 5.093
52.61000 7.344
52.62000 11.337
52.63000 6.217
52.64000 12.514
52.65000 4.084
52.66000 4.182
52.67000 3.110
52.68000 10.324
52.69000 3.216
52.70000 5.046
52.71000 9.165
52.72000 12.434
52.73000 6.109
52.74000 6.210
52.75000 2.039
52.76000 2.059
52.77000 3.040
52.78000 14.354
52.79000 6.131
52.80000 6.326
52.81000 5.210
52.82000 7.202
52.83000 6.164
52.84000 10.383
52.85000 11.397
52.86000 5.210
52.87000 9.344
52.88000 9.277
52.89000 8.362
52.90000 6.210
52.91000 9.234
52.92000 6.237
52.93000 10.303
52.94000 5.095
52.95000 5.130
52.96000 6.228
52.97000 6.159
52.98000 5.200
52.99000 11.452
53.00000 4.153
53.01000 4.050
53.02000 9.185
53.03000 2.158
53.04000 8.168
53.05000 2.030
53.06000 11.358
53.07000 3.085
53.08000 12.323
53.09000 7.168
53.10000 7.194
53.11000 8.245
53.12000 6.092
53.13000 3.114
53.14000 10.304
53.15000 4.130
53.16000 7.242
53.17000 10.288
53.18000 10.262
53.19000 8.274
53.20000 7.277
53.21000 5.238
53.22000 4.103
53.23000 8.197
53.24000 8.297
53.25000 10.395
53.26000 7.299
53.27000 3.090
53.28000 11.348
53.29000 3.099
53.30000 7.180
53.31000 10.442
53.32000 9.236
53.33000 11.323
53.34000 8.238
53.35000 10.371
53.36000 12.319
53.37000 9.361
53.38000 4.151
53.39000 8.184
53.40000 7.162
53.41000 10.363
53.42000 10.351
53.43000 15.498
53.44000 12.442
53.45000 17.622
53.46000 12.213
53.47000 17.667
53.48000 21.957
53.49000 21.692
53.50000 33.989
53.51000 50.796
53.52000 75.285
53.53000 104.428
53.54000 119.685
53.55000 151.008
53.56000 166.603
53.57000 202.290
53.58000 177.543
53.59000 213.515
53.60000 234.748
53.61000 255.485
53.62000 305.764
53.63000 275.039
53.64000 327.501
53.65000 337.429
53.66000 348.919
53.67000 384.033
53.68000 373.409
53.69000 424.749
53.70000 462.817
53.71000 472.412
53.72000 441.270
53.73000 462.823
53.74000 473.432
53.75000 476.073
53.76000 493.908
53.77000 474.197
53.78000 491.598
53.79000 456.304
53.80000 454.114
53.81000 430.464
53.82000 448.902
53.83000 411.461
53.84000 358.942
53.85000 362.519
53.86000 307.020
53.87000 341.465
53.88000 286.393
53.89000 272.266
53.90000 263.531
53.91000 223.663
53.92000 216.295
53.93000 197.350
53.94000 147.589
53.95000 137.558
53.96000 114.599
53.97000 95.982
53.98000 97.523
53.99000 55.466
54.00000 36.266
54.01000 26.965
54.02000 13.317
54.03000 18.772
54.04000 15.477
54.05000 13.302
54.06000 8.378
54.07000 11.271
54.08000 5.196
54.09000 12.190
54.10000 14.645
54.11000 10.251
54.12000 8.239
54.13000 9.389
54.14000 13.292
54.15000 12.380
54.16000 6.199
54.17000 13.458
54.18000 13.460
54.19000 10.479
54.20000 12.408
54.21000 8.182
54.22000 14.382
54.23000 5.028
54.24000 5.150
54.25000 7.127
54.26000 8.157
54.27000 9.284
54.28000 5.184
54.29000 7.272
54.30000 12.258
54.31000 6.205
54.32000 8.147
54.33000 11.409
54.34000 11.438
54.35000 3.088
54.36000 6.181
54.37000 9.263
54.38000 6.273
54.39000 8.340
54.40000 8.197
54.41000 8.249
54.42000 8.301
54.43000 9.095
54.44000 13.478
54.45000 7.211
54.46000 9.268
54.47000 12.567
54.48000 5.067
54.49000 4.116
54.50000 5.158
54.51000 9.170
54.52000 11.370
54.53000 4.052
54.54000 7.258
54.55000 10.352
54.56000 14.469
54.57000 10.237
54.58000 15.367
54.59000 12.522
54.60000 6.212
54.61000 7.182
54.62000 14.470
54.63000 7.175
54.64000 12.206
54.65000 11.278
54.66000 15.526
54.67000 10.363
54.68000 13.440
54.69000 18.673
54.70000 11.317
54.71000 11.353
54.72000 5.187
54.73000 11.357
54.74000 11.326
54.75000 17.522
54.76000 17.571
54.77000 18.532
54.78000 14.261
54.79000 15.469
54.80000 17.587
54.81000 17.602
54.82000 20.765
54.83000 13.408
54.84000 13.279
54.85000 13.453
54.86000 13.376
54.87000 16.469
54.88000 17.627
54.89000 9.176
54.90000 11.434
54.91000 16.465
54.92000 23.910
54.93000 14.363
54.94000 11.416
54.95000 18.400
54.96000 13.339
54.97000 17.562
54.98000 15.490
54.99000 17.505
55.00000 10.300
55.01000 11.395
55.02000 16.351
55.03000 11.258
55.04000 16.611
55.05000 13.329
55.06000 10.443
55.07000 17.375
55.08000 14.457
55.09000 20.656
55.10000 14.322
55.11000 6.293
55.12000 14.343
55.13000 18.598
55.14000 15.571
55.15000 16.666
55.16000 22.729
55.17000 11.482
55.18000 10.446
55.19000 8.294
55.20000 15.421
55.21000 15.568
55.22000 12.336
55.23000 6.140
55.24000 11.358
55.25000 16.828
55.26000 11.295
55.27000 10.413
55.28000 14.472
55.29000 11.459
55.30000 17.593
55.31000 13.379
55.32000 13.306
55.33000 10.342
55.34000 12.587
55.35000 11.428
55.36000 15.522
55.37000 16.599
55.38000 12.402
55.39000 11.340
55.40000 10.238
55.41000 15.431
55.42000 20.767
55.43000 11.313
55.44000 8.202
55.45000 18.711
55.46000 17.775
55.47000 12.394
55.48000 15.420
55.49000 12.530
55.50000 18.674
55.51000 11.211
55.52000 20.653
55.53000 14.334
55.54000 10.321
55.55000 11.201
55.56000 16.482
55.57000 20.748
55.58000 15.692
55.59000 17.854
55.60000 10.321
55.61000 21.846
55.62000 20.598
55.63000 12.462
55.64000 14.558
55.65000 16.587
55.66000 23.782
55.67000 13.477
55.68000 8.317
55.69000 14.419
55.70000 18.654
55.71000 14.516
55.72000 9.166
55.73000 17.510
55.74000 11.452
55.75000 7.167
55.76000 17.441
55.77000 14.402
55.78000 15.351
55.79000 15.462
55.80000 15.526
55.81000 16.412
55.82000 13.329
55.83000 9.245
55.84000 12.511
55.85000 15.341
55.86000 11.630
55.87000 22.723
55.88000 8.308
55.89000 18.564
55.90000 16.395
55.91000 19.610
55.92000 10.348
55.93000 11.205
55.94000 13.446
55.95000 13.494
55.96000 11.346
55.97000 15.606
55.98000 19.586
55.99000 13.429
56.00000 11.382
56.01000 15.584
56.02000 13.435
56.03000 14.503
56.04000 7.157
56.05000 18.468
56.06000 22.661
56.07000 14.691
56.08000 8.212
56.09000 5.194
56.10000 14.465
56.11000 9.280
56.12000 11.291
56.13000 17.404
56.14000 15.583
56.15000 6.204
56.16000 11.270
56.17000 10.285
56.18000 10.228
56.19000 13.427
56.20000 12.368
56.21000 10.355
56.22000 14.509
56.23000 11.399
56.24000 12.465
56.25000 16.558
56.26000 18.540
56.27000 18.478
56.28000 7.189
56.29000 7.210
56.30000 7.193
56.31000 15.505
56.32000 10.338
56.33000 11.327
56.34000 8.189
56.35000 17.559
56.36000 9.268
56.37000 13.458
56.38000 11.251
56.39000 12.382
56.40000 9.198
56.41000 7.271
56.42000 13.510
56.43000 7.244
56.44000 8.248
56.45000 9.285
56.46000 9.211
56.47000 11.433
56.48000 8.327
56.49000 16.528
56.50000 10.466
56.51000 6.160
56.52000 9.315
56.53000 14.335
56.54000 12.385
56.55000 13.392
56.56000 5.088
56.57000 5.136
56.58000 14.489
56.59000 6.162
56.60000 10.240
56.61000 8.258
56.62000 10.244
56.63000 13.467
56.64000 13.358
56.65000 10.618
56.66000 12.390
56.67000 10.424
56.68000 9.399
56.69000 14.656
56.70000 10.303
56.71000 4.065
56.72000 10.329
56.73000 11.528
56.74000 15.566
56.75000 6.092
56.76000 7.322
56.77000 4.185
56.78000 10.245
56.79000 6.242
56.80000 7.208
56.81000 9.197
56.82000 11.435
56.83000 5.096
56.84000 7.252
56.85000 8.328
56.86000 5.118
56.87000 11.304
56.88000 9.146
56.89000 7.194
56.90000 9.217
56.91000 5.079
56.92000 10.335
56.93000 10.317
56.94000 7.312
56.95000 9.236
56.96000 5.223
56.97000 9.344
56.98000 6.216
56.99000 6.182
57.00000 8.212
57.01000 8.257
57.02000 6.145
57.03000 9.262
57.04000 8.246
57.05000 12.317
57.06000 8.263
57.07000 6.179
57.08000 4.079
57.09000 10.334
57.10000 6.232
57.11000 9.318
57.12000 13.455
57.13000 7.317
57.14000 4.089
57.15000 3.023
57.16000 9.374
57.17000 7.237
57.18000 6.122
57.19000 5.067
57.20000 10.288
57.21000 11.242
57.22000 11.437
57.23000 5.166
57.24000 10.339
57.25000 5.141
57.26000 8.233
57.27000 9.394
57.28000 9.181
57.29000 9.335
57.30000 12.612
57.31000 6.060
57.32000 9.326
57.33000 14.750
57.34000 8.281
57.35000 13.377
57.36000 5.162
57.37000 4.116
57.38000 10.179
57.39000 6.185
57.40000 10.329
57.41000 5.142
57.42000 6.182
57.43000 6.351
57.44000 4.109
57.45000 3.038
57.46000 8.182
57.47000 7.243
57.48000 6.292
57.49000 9.222
57.50000 6.232
57.51000 8.213
57.52000 7.273
57.53000 3.159
57.54000 5.264
57.55000 7.072
57.56000 6.236
57.57000 4.172
57.58000 3.121
57.59000 7.082
57.60000 5.169
57.61000 8.217
57.62000 9.289
57.63000 12.458
57.64000 8.218
57.65000 6.163
57.66000 11.291
57.67000 7.273
57.68000 3.027
57.69000 4.065
57.70000 7.247
57.71000 5.166
57.72000 6.175
57.73000 6.177
57.74000 10.558
57.75000 10.436
57.76000 4.058
57.77000 6.272
57.78000 6.257
57.79000 12.468
57.80000 8.181
57.81000 5.167
57.82000 6.135
57.83000 6.126
57.84000 7.172
57.85000 10.280
57.86000 4.191
57.87000 6.214
57.88000 3.122
57.89000 6.249
57.90000 6.327
57.91000 7.210
57.92000 4.082
57.93000 6.246
57.94000 3.052
57.95000 6.053
57.96000 8.224
57.97000 8.273
57.98000 8.413
57.99000 5.240
58.00000 6.205
58.01000 5.220
58.02000 6.223
58.03000 5.085
58.04000 10.349
58.05000 6.173
58.06000 7.194
58.07000 4.119
58.08000 8.255
58.09000 7.208
58.10000 6.137
58.11000 6.195
58.12000 8.348
58.13000 5.126
58.14000 5.124
58.15000 15.673
58.16000 7.142
58.17000 5.105
58.18000 10.428
58.19000 7.180
58.20000 4.081
58.21000 6.183
58.22000 6.137
58.23000 3.145
58.24000 4.138
58.25000 8.301
58.26000 2.067
58.27000 1.027
58.28000 6.214
58.29000 7.264
58.30000 4.208
58.31000 8.290
58.32000 5.188
58.33000 9.272
58.34000 9.359
58.35000 4.142
58.36000 8.240
58.37000 7.260
58.38000 3.032
58.39000 7.241
58.40000 3.090
58.41000 3.172
58.42000 3.056
58.43000 4.130
58.44000 1.016
58.45000 5.121
58.46000 3.110
58.47000 4.151
58.48000 2.032
58.49000 7.152
58.50000 5.290
58.51000 1.060
58.52000 5.209
58.53000 9.311
58.54000 6.165
58.55000 5.152
58.56000 5.121
58.57000 8.125
58.58000 5.199
58.59000 8.238
58.60000 3.135
58.61000 6.153
58.62000 6.178
58.63000 9.371
58.64000 6.221
58.65000 9.393
58.66000 4.147
58.67000 9.306
58.68000 7.246
58.69000 1.031
58.70000 2.057
58.71000 6.091
58.72000 1.052
58.73000 6.287
58.74000 3.074
58.75000 3.133
58.76000 4.126
58.77000 5.200
58.78000 4.055
58.79000 6.152
58.80000 5.145
58.81000 3.072
58.82000 2.088
58.83000 4.136
58.84000 6.214
58.85000 8.211
58.86000 8.211
58.87000 8.241
58.88000 6.109
58.89000 3.132
58.90000 8.182
58.91000 6.203
58.92000 2.047
58.93000 5.151
58.94000 4.118
58.95000 5.235
58.96000 12.480
58.97000 7.110
58.98000 3.119
58.99000 11.441
59.00000 4.169
59.01000 3.041
59.02000 4.181
59.03000 6.065
59.04000 5.216
59.05000 6.049
59.06000 2.053
59.07000 5.173
59.08000 3.038
59.09000 3.116
59.10000 4.129
59.11000 3.104
59.12000 1.036
59.13000 8.246
59.14000 3.108
59.15000 3.027
59.16000 8.289
59.17000 4.153
59.18000 5.109
59.19000 6.175
59.20000 6.149
59.21000 5.111
59.22000 6.182
59.23000 9.150
59.24000 3.137
59.25000 5.158
59.26000 3.065
59.27000 8.344
59.28000 6.174
59.29000 6.167
59.30000 7.355
59.31000 5.099
59.32000 5.150
59.33000 4.081
59.34000 8.433
59.35000 7.304
59.36000 4.173
59.37000 5.211
59.38000 5.222
59.39000 11.325
59.40000 5.220
59.41000 8.256
59.42000 4.153
59.43000 0.995
59.44000 6.157
59.45000 6.092
59.46000 8.294
59.47000 5.033
59.48000 5.223
59.49000 11.397
59.50000 3.121
59.51000 1.039
59.52000 3.042
59.53000 5.204
59.54000 4.099
59.55000 5.230
59.56000 3.124
59.57000 7.164
59.58000 4.158
59.59000 5.173
59.60000 6.157
59.61000 3.154
59.62000 4.109
59.63000 2.044
59.64000 11.399
59.65000 5.242
59.66000 1.082
59.67000 4.124
59.68000 2.052
59.69000 5.194
59.70000 9.237
59.71000 5.095
59.72000 8.192
59.73000 7.202
59.74000 6.115
59.75000 5.195
59.76000 6.236
59.77000 3.057
59.78000 6.126
59.79000 5.190
59.80000 7.168
59.81000 4.177
59.82000 4.150
59.83000 3.118
59.84000 4.153
59.85000 6.247
59.86000 6.204
59.87000 4.097
59.88000 2.044
59.89000 7.205
59.90000 4.093
59.91000 4.176
59.92000 5.165
59.93000 2.056
59.94000 6.242
59.95000 6.198
59.96000 2.088
59.97000 5.139
59.98000 5.200
59.99000 4.174
60.00000 3.097
60.01000 2.084
60.02000 8.170
60.03000 5.109
60.04000 7.247
60.05000 5.073
60.06000 1.016
60.07000 6.201
60.08000 1.070
60.09000 9.267
60.10000 7.256
60.11000 8.191
60.12000 6.187
60.13000 1.051
60.14000 2.006
60.15000 6.274
60.16000 2.034
60.17000 6.166
60.18000 3.105
60.19000 6.205
60.20000 4.093
60.21000 3.111
60.22000 6.228
60.23000 3.116
60.24000 8.291
60.25000 5.161
60.26000 11.308
60.27000 9.325
60.28000 6.218
60.29000 3.017
60.30000 7.251
60.31000 5.128
60.32000 1.037
60.33000 3.102
60.34000 4.109
60.35000 5.306
60.36000 7.164
60.37000 4.118
60.38000 7.186
60.39000 3.100
60.40000 4.151
60.41000 6.171
60.42000 5.147
60.43000 3.076
60.44000 1.074
60.45000 6.144
60.46000 9.291
60.47000 5.116
60.48000 2.072
60.49000 5.234
60.50000 4.131
60.51000 5.167
60.52000 3.106
60.53000 6.167
60.54000 3.063
60.55000 9.442
60.56000 2.036
60.57000 3.076
60.58000 4.084
60.59000 3.066
60.60000 7.249
60.61000 4.074
60.62000 4.144
60.63000 5.191
60.64000 8.323
60.65000 6.187
60.66000 6.204
60.67000 3.043
60.68000 8.329
60.69000 4.128
60.70000 2.057
60.71000 3.149
60.72000 6.190
60.73000 1.052
60.74000 3.127
60.75000 2.080
60.76000 6.180
60.77000 9.261
60.78000 4.158
60.79000 4.178
60.80000 7.331
60.81000 5.109
60.82000 4.090
60.83000 4.084
60.84000 5.107
60.85000 7.137
60.86000 1.017
60.87000 5.140
60.88000 4.169
60.89000 4.159
60.90000 8.395
60.91000 10.446
60.92000 6.175
60.93000 7.187
60.94000 4.153
60.95000 5.180
60.96000 3.094
60.97000 4.207
60.98000 4.118
60.99000 5.131
61.00000 4.172
61.01000 3.118
61.02000 7.317
61.03000 6.215
61.04000 2.042
61.05000 1.056
61.06000 9.210
61.07000 2.064
61.08000 2.079
61.09000 0.000
61.10000 4.133
61.11000 2.011
61.12000 2.089
61.13000 7.227
61.14000 3.064
61.15000 2.076
61.16000 4.148
61.17000 7.170
61.18000 2.073
61.19000 2.061
61.20000 6.227
61.21000 5.138
61.22000 4.194
61.23000 1.040
61.24000 10.382
61.25000 2.032
61.26000 6.207
61.27000 3.093
61.28000 6.220
61.29000 7.302
61.30000 6.170
61.31000 5.173
61.32000 7.251
61.33000 2.020
61.34000 5.060
61.35000 4.083
61.36000 6.239
61.37000 9.386
61.38000 6.126
61.39000 4.246
61.40000 4.126
61.41000 5.149
61.42000 6.188
61.43000 3.121
61.44000 7.185
61.45000 3.124
61.46000 5.134
61.47000 4.085
61.48000 5.153
61.49000 2.125
61.50000 4.199
61.51000 4.102
61.52000 7.162
61.53000 4.118
61.54000 7.199
61.55000 6.139
61.56000 6.150
61.57000 5.155
61.58000 6.233
61.59000 3.090
61.60000 8.199
61.61000 2.039
61.62000 1.035
61.63000 3.064
61.64000 5.110
61.65000 6.213
61.66000 4.201
61.67000 2.082
61.68000 2.079
61.69000 5.154
61.70000 6.130
61.71000 6.230
61.72000 1.029
61.73000 3.129
61.74000 6.263
61.75000 8.220
61.76000 4.174
61.77000 0.000
61.78000 7.105
61.79000 3.088
61.80000 1.033
61.81000 4.113
61.82000 4.172
61.83000 4.159
61.84000 1.055
61.85000 3.062
61.86000 4.158
61.87000 3.080
61.88000 4.122
61.89000 2.101
61.90000 3.123
61.91000 4.249
61.92000 7.242
61.93000 3.087
61.94000 6.195
61.95000 2.120
61.96000 4.216
61.97000 4.163
61.98000 4.202
61.99000 8.225
62.00000 4.091
62.01000 6.205
62.02000 4.074
62.03000 4.108
62.04000 3.045
62.05000 4.120
62.06000 4.284
62.07000 7.240
62.08000 3.072
62.09000 5.094
62.10000 6.256
62.11000 7.127
62.12000 7.203
62.13000 2.046
62.14000 2.100
62.15000 9.358
62.16000 6.071
62.17000 5.147
62.18000 3.143
62.19000 7.369
62.20000 4.067
62.21000 4.125
62.22000 3.118
62.23000 4.156
62.24000 6.333
62.25000 5.256
62.26000 4.139
62.27000 9.256
62.28000 3.092
62.29000 3.062
62.30000 6.109
62.31000 5.280
62.32000 7.278
62.33000 7.247
62.34000 6.219
62.35000 8.197
62.36000 0.000
62.37000 1.017
62.38000 3.044
62.39000 3.137
62.40000 4.107
62.41000 0.000
62.42000 2.094
62.43000 4.016
62.44000 7.192
62.45000 6.239
62.46000 2.082
62.47000 1.025
62.48000 4.147
62.49000 8.258
62.50000 6.162
62.51000 6.286
62.52000 4.158
62.53000 4.216
62.54000 6.210
62.55000 4.120
62.56000 4.120
62.57000 2.016
62.58000 4.177
62.59000 3.127
62.60000 3.093
62.61000 3.118
62.62000 4.128
62.63000 5.137
62.64000 5.097
62.65000 6.222
62.66000 2.075
62.67000 4.106
62.68000 3.122
62.69000 8.172
62.70000 5.220
62.71000 4.108
62.72000 3.103
62.73000 3.133
62.74000 4.166
62.75000 4.180
62.76000 6.238
62.77000 5.273
62.78000 4.195
62.79000 3.071
62.80000 4.172
62.81000 3.190
62.82000 7.255
62.83000 3.065
62.84000 3.122
62.85000 3.115
62.86000 5.020
62.87000 4.133
62.88000 5.202
62.89000 1.045
62.90000 4.113
62.91000 4.137
62.92000 4.103
62.93000 3.182
62.94000 3.045
62.95000 1.015
62.96000 2.043
62.97000 4.220
62.98000 5.159
62.99000 4.202
63.00000 2.032
63.01000 7.197
63.02000 4.121
63.03000 1.037
63.04000 3.086
63.05000 3.143
63.06000 3.117
63.07000 1.010
63.08000 8.317
63.09000 1.053
63.10000 6.197
63.11000 1.035
63.12000 6.114
63.13000 1.042
63.14000 4.114
63.15000 1.057
63.16000 7.216
63.17000 3.096
63.18000 3.092
63.19000 3.112
63.20000 3.080
63.21000 3.112
63.22000 2.080
63.23000 7.270
63.24000 4.194
63.25000 4.155
63.26000 3.093
63.27000 7.082
63.28000 6.286
63.29000 3.146
63.30000 6.209
63.31000 4.159
63.32000 1.058
63.33000 8.366
63.34000 4.142
63.35000 4.152
63.36000 6.208
63.37000 4.138
63.38000 8.225
63.39000 5.195
63.40000 2.078
63.41000 1.046
63.42000 2.040
63.43000 5.098
63.44000 4.104
63.45000 2.076
63.46000 6.173
63.47000 6.218
63.48000 4.207
63.49000 2.151
63.50000 9.292
63.51000 5.161
63.52000 0.998
63.53000 2.033
63.54000 7.155
63.55000 6.219
63.56000 4.122
63.57000 3.071
63.58000 4.302
63.59000 2.069
63.60000 8.317
63.61000 6.310
63.62000 4.160
63.63000 6.291
63.64000 5.060
63.65000 8.126
63.66000 4.059
63.67000 4.106
63.68000 8.218
63.69000 3.145
63.70000 5.174
63.71000 8.257
63.72000 6.221
63.73000 4.151
63.74000 3.173
63.75000 1.045
63.76000 4.142
63.77000 3.250
63.78000 5.188
63.79000 3.065
63.80000 5.222
63.81000 4.099
63.82000 4.080
63.83000 3.041
63.84000 4.142
63.85000 2.036
63.86000 4.167
63.87000 5.231
63.88000 6.104
63.89000 3.078
63.90000 5.169
63.91000 1.019
63.92000 5.230
63.93000 4.139
63.94000 1.015
63.95000 3.022
63.96000 4.177
63.97000 5.249
63.98000 5.117
63.99000 3.119
64.00000 5.168
64.01000 3.058
64.02000 3.051
64.03000 5.164
64.04000 7.298
64.05000 5.131
64.06000 2.052
64.07000 3.138
64.08000 6.227
64.09000 6.175
64.10000 4.095
64.11000 3.131
64.12000 6.176
64.13000 4.088
64.14000 4.245
64.15000 5.094
64.16000 1.048
64.17000 4.118
64.18000 7.127
64.19000 2.082
64.20000 4.203
64.21000 5.126
64.22000 3.116
64.23000 4.246
64.24000 5.178
64.25000 5.210
64.26000 2.075
64.27000 5.206
64.28000 5.121
64.29000 1.004
64.30000 2.054
64.31000 2.040
64.32000 1.035
64.33000 3.055
64.34000 4.134
64.35000 6.215
64.36000 2.052
64.37000 7.135
64.38000 7.339
64.39000 3.053
64.40000 1.003
64.41000 3.040
64.42000 3.072
64.43000 3.100
64.44000 1.001
64.45000 3.041
64.46000 3.078
64.47000 3.076
64.48000 1.059
64.49000 7.246
64.50000 2.046
64.51000 2.052
64.52000 1.993
64.53000 3.034
64.54000 4.108
64.55000 3.100
64.56000 9.266
64.57000 7.188
64.58000 2.076
64.59000 3.062
64.60000 4.152
64.61000 0.000
64.62000 3.151
64.63000 6.267
64.64000 4.071
64.65000 6.182
64.66000 4.143
64.67000 8.170
64.68000 5.287
64.69000 6.159
64.70000 4.084
64.71000 5.160
64.72000 4.186
64.73000 4.098
64.74000 7.270
64.75000 4.201
64.76000 4.206
64.77000 4.129
64.78000 3.161
64.79000 8.250
64.80000 4.160
64.81000 7.173
64.82000 3.166
64.83000 6.133
64.84000 5.111
64.85000 5.269
64.86000 3.124
64.87000 2.139
64.88000 10.314
64.89000 6.164
64.90000 7.258
64.91000 8.211
64.92000 3.064
64.93000 4.150
64.94000 8.176
64.95000 4.100
64.96000 4.115
64.97000 7.314
64.98000 4.039
64.99000 3.061
65.00000 2.067
