20.00000 14.192
20.01000 21.101
20.02000 18.284
20.03000 14.433
20.04000 19.209
20.05000 17.311
20.06000 14.262
20.07000 18.200
20.08000 15.183
20.09000 18.377
20.10000 18.193
20.11000 11.193
20.12000 11.122
20.13000 18.242
20.14000 20.144
20.15000 13.057
20.16000 13.127
20.17000 18.164
20.18000 19.327
20.19000 19.165
20.20000 12.278
20.21000 16.120
20.22000 12.109
20.23000 17.450
20.24000 14.297
20.25000 15.225
20.26000 14.253
20.27000 16.174
20.28000 12.220
20.29000 10.104
20.30000 16.213
20.31000 18.342
20.32000 6.976
20.33000 8.994
20.34000 20.313
20.35000 18.217
20.36000 18.254
20.37000 18.241
20.38000 17.277
20.39000 19.366
20.40000 15.217
20.41000 12.172
20.42000 18.090
20.43000 21.092
20.44000 9.083
20.45000 21.161
20.46000 6.013
20.47000 18.150
20.48000 14.372
20.49000 17.317
20.50000 12.107
20.51000 16.257
20.52000 18.135
20.53000 20.420
20.54000 19.433
20.55000 12.143
20.56000 12.213
20.57000 16.240
20.58000 13.260
20.59000 15.401
20.60000 15.185
20.61000 13.133
20.62000 18.168
20.63000 17.189
20.64000 13.115
20.65000 14.144
20.66000 17.184
20.67000 17.191
20.68000 15.421
20.69000 22.371
20.70000 12.195
20.71000 9.135
20.72000 10.158
20.73000 16.289
20.74000 12.151
20.75000 14.212
20.76000 14.272
20.77000 16.103
20.78000 16.314
20.79000 15.215
20.80000 9.125
20.81000 15.336
20.82000 20.281
20.83000 17.241
20.84000 15.329
20.85000 15.368
20.86000 14.245
20.87000 11.230
20.88000 6.150
20.89000 10.177
20.90000 18.373
20.91000 12.069
20.92000 15.078
20.93000 14.184
20.94000 17.346
20.95000 15.072
20.96000 16.358
20.97000 17.090
20.98000 13.185
20.99000 11.223
21.00000 11.154
21.01000 17.235
21.02000 12.004
21.03000 14.101
21.04000 12.086
21.05000 16.258
21.06000 14.215
21.07000 9.111
21.08000 21.320
21.09000 21.372
21.10000 12.170
21.11000 15.125
21.12000 13.247
21.13000 16.190
21.14000 20.440
21.15000 10.065
21.16000 16.253
21.17000 23.478
21.18000 10.189
21.19000 17.155
21.20000 16.050
21.21000 15.443
21.22000 8.225
21.23000 12.095
21.24000 9.054
21.25000 17.447
21.26000 9.209
21.27000 15.216
21.28000 12.183
21.29000 14.368
21.30000 15.366
21.31000 15.406
21.32000 14.172
21.33000 9.045
21.34000 20.160
21.35000 17.162
21.36000 13.248
21.37000 10.270
21.38000 12.135
21.39000 13.266
21.40000 17.137
21.41000 16.960
21.42000 12.119
21.43000 13.169
21.44000 10.036
21.45000 14.312
21.46000 19.227
21.47000 18.332
21.48000 20.421
21.49000 12.261
21.50000 14.255
21.51000 8.126
21.52000 15.262
21.53000 13.198
21.54000 16.152
21.55000 9.001
21.56000 19.321
21.57000 12.061
21.58000 12.266
21.59000 15.929
21.60000 20.397
21.61000 10.090
21.62000 16.334
21.63000 14.077
21.64000 10.215
21.65000 11.126
21.66000 14.174
21.67000 14.133
21.68000 8.021
21.69000 9.173
21.70000 17.186
21.71000 17.284
21.72000 10.127
21.73000 16.250
21.74000 9.077
21.75000 14.358
21.76000 13.194
21.77000 13.921
21.78000 14.150
21.79000 20.282
21.80000 19.190
21.81000 12.222
21.82000 13.165
21.83000 8.111
21.84000 16.212
21.85000 12.263
21.86000 13.186
21.87000 17.127
21.88000 14.259
21.89000 15.252
21.90000 8.914
21.91000 10.305
21.92000 14.387
21.93000 22.400
21.94000 7.991
21.95000 6.058
21.96000 9.198
21.97000 12.235
21.98000 12.143
21.99000 9.249
22.00000 9.159
22.01000 17.145
22.02000 15.300
22.03000 13.131
22.04000 9.117
22.05000 20.361
22.06000 15.382
22.07000 9.078
22.08000 13.291
22.09000 12.220
22.10000 11.067
22.11000 18.399
22.12000 13.257
22.13000 6.086
22.14000 21.285
22.15000 8.195
22.16000 9.016
22.17000 14.153
22.18000 9.156
22.19000 11.204
22.20000 15.231
22.21000 17.243
22.22000 17.217
22.23000 12.123
22.24000 10.139
22.25000 8.209
22.26000 11.103
22.27000 19.105
22.28000 11.032
22.29000 13.206
22.30000 12.090
22.31000 14.162
22.32000 9.140
22.33000 10.215
22.34000 13.238
22.35000 12.095
22.36000 8.166
22.37000 17.296
22.38000 14.113
22.39000 14.263
22.40000 9.193
22.41000 13.173
22.42000 10.126
22.43000 13.112
22.44000 7.142
22.45000 10.133
22.46000 20.260
22.47000 15.064
22.48000 13.282
22.49000 11.152
22.50000 14.065
22.51000 14.012
22.52000 16.170
22.53000 11.123
22.54000 10.000
22.55000 13.237
22.56000 13.017
22.57000 20.257
22.58000 11.120
22.59000 10.106
22.60000 24.178
22.61000 20.021
22.62000 13.117
22.63000 13.064
22.64000 11.025
22.65000 12.269
22.66000 15.181
22.67000 9.104
22.68000 10.125
22.69000 16.212
22.70000 15.237
22.71000 15.287
22.72000 11.132
22.73000 9.160
22.74000 15.152
22.75000 14.249
22.76000 18.328
22.77000 24.280
22.78000 15.264
22.79000 14.234
22.80000 16.305
22.81000 11.134
22.82000 10.158
22.83000 10.295
22.84000 14.279
22.85000 9.078
22.86000 7.074
22.87000 21.233
22.88000 16.378
22.89000 19.304
22.90000 12.067
22.91000 10.049
22.92000 15.251
22.93000 15.065
22.94000 12.346
22.95000 13.103
22.96000 11.115
22.97000 14.113
22.98000 16.278
22.99000 22.112
23.00000 15.461
23.01000 10.056
23.02000 11.187
23.03000 11.036
23.04000 12.228
23.05000 17.224
23.06000 12.213
23.07000 13.243
23.08000 10.084
23.09000 13.326
23.10000 12.183
23.11000 16.103
23.12000 12.073
23.13000 11.128
23.14000 5.011
23.15000 15.165
23.16000 14.256
23.17000 11.192
23.18000 14.111
23.19000 19.186
23.20000 15.161
23.21000 15.237
23.22000 15.225
23.23000 16.264
23.24000 20.381
23.25000 10.219
23.26000 10.079
23.27000 14.149
23.28000 12.194
23.29000 13.125
23.30000 9.025
23.31000 11.313
23.32000 15.244
23.33000 17.061
23.34000 21.091
23.35000 7.067
23.36000 13.118
23.37000 7.093
23.38000 12.092
23.39000 10.201
23.40000 19.438
23.41000 18.265
23.42000 12.018
23.43000 14.188
23.44000 16.086
23.45000 12.188
23.46000 11.179
23.47000 13.213
23.48000 14.211
23.49000 17.277
23.50000 16.326
23.51000 18.350
23.52000 14.179
23.53000 14.306
23.54000 15.177
23.55000 23.208
23.56000 17.074
23.57000 14.245
23.58000 8.245
23.59000 15.200
23.60000 8.179
23.61000 13.306
23.62000 11.088
23.63000 11.145
23.64000 12.253
23.65000 10.108
23.66000 10.296
23.67000 12.241
23.68000 20.104
23.69000 16.219
23.70000 13.130
23.71000 15.129
23.72000 15.292
23.73000 18.094
23.74000 14.322
23.75000 8.041
23.76000 11.128
23.77000 12.187
23.78000 11.301
23.79000 13.326
23.80000 4.044
23.81000 13.090
23.82000 14.094
23.83000 9.148
23.84000 9.224
23.85000 11.155
23.86000 11.163
23.87000 11.192
23.88000 15.115
23.89000 10.182
23.90000 8.151
23.91000 16.330
23.92000 19.163
23.93000 17.267
23.94000 13.190
23.95000 17.204
23.96000 9.108
23.97000 10.074
23.98000 14.139
23.99000 14.156
24.00000 21.409
24.01000 15.291
24.02000 19.167
24.03000 12.147
24.04000 16.362
24.05000 13.205
24.06000 8.157
24.07000 13.216
24.08000 16.244
24.09000 12.118
24.10000 5.132
24.11000 19.087
24.12000 21.489
24.13000 7.154
24.14000 23.293
24.15000 9.073
24.16000 12.283
24.17000 12.362
24.18000 12.113
24.19000 8.025
24.20000 14.181
24.21000 10.146
24.22000 10.144
24.23000 13.268
24.24000 14.263
24.25000 14.119
24.26000 16.340
24.27000 8.092
24.28000 8.041
24.29000 9.177
24.30000 12.018
24.31000 13.318
24.32000 10.131
24.33000 9.067
24.34000 11.134
24.35000 13.214
24.36000 13.183
24.37000 17.248
24.38000 15.247
24.39000 13.130
24.40000 15.389
24.41000 13.281
24.42000 12.203
24.43000 13.249
24.44000 21.441
24.45000 19.174
24.46000 12.221
24.47000 7.215
24.48000 11.324
24.49000 10.051
24.50000 17.285
24.51000 12.991
24.52000 16.226
24.53000 7.065
24.54000 11.383
24.55000 10.998
24.56000 15.162
24.57000 9.224
24.58000 3.087
24.59000 11.177
24.60000 16.156
24.61000 17.176
24.62000 9.162
24.63000 9.263
24.64000 20.226
24.65000 11.173
24.66000 16.461
24.67000 12.063
24.68000 16.306
24.69000 15.206
24.70000 9.178
24.71000 12.129
24.72000 14.206
24.73000 12.219
24.74000 11.171
24.75000 14.222
24.76000 16.275
24.77000 16.051
24.78000 12.146
24.79000 9.133
24.80000 10.091
24.81000 8.091
24.82000 10.189
24.83000 10.108
24.84000 13.003
24.85000 16.196
24.86000 18.509
24.87000 10.137
24.88000 6.072
24.89000 11.133
24.90000 11.171
24.91000 13.107
24.92000 14.192
24.93000 11.267
24.94000 12.096
24.95000 12.066
24.96000 19.227
24.97000 18.403
24.98000 8.057
24.99000 19.344
25.00000 8.195
25.01000 14.994
25.02000 7.010
25.03000 14.144
25.04000 14.277
25.05000 12.209
25.06000 12.154
25.07000 12.190
25.08000 12.171
25.09000 14.298
25.10000 13.120
25.11000 10.052
25.12000 14.126
25.13000 12.142
25.14000 14.226
25.15000 10.088
25.16000 14.240
25.17000 7.096
25.18000 16.317
25.19000 10.104
25.20000 15.133
25.21000 13.209
25.22000 10.137
25.23000 14.368
25.24000 10.192
25.25000 15.160
25.26000 7.231
25.27000 13.282
25.28000 19.250
25.29000 14.341
25.30000 11.040
25.31000 15.200
25.32000 19.115
25.33000 18.254
25.34000 16.039
25.35000 18.192
25.36000 12.248
25.37000 10.969
25.38000 14.236
25.39000 12.302
25.40000 12.301
25.41000 19.186
25.42000 11.147
25.43000 18.216
25.44000 14.211
25.45000 12.084
25.46000 9.938
25.47000 16.405
25.48000 13.050
25.49000 11.211
25.50000 15.194
25.51000 13.252
25.52000 13.232
25.53000 13.046
25.54000 17.121
25.55000 5.007
25.56000 16.084
25.57000 11.171
25.58000 16.073
25.59000 8.044
25.60000 11.113
25.61000 13.300
25.62000 9.063
25.63000 8.168
25.64000 11.121
25.65000 13.277
25.66000 14.994
25.67000 21.271
25.68000 11.064
25.69000 14.169
25.70000 15.346
25.71000 10.128
25.72000 15.181
25.73000 11.171
25.74000 11.335
25.75000 11.107
25.76000 12.328
25.77000 13.273
25.78000 14.120
25.79000 17.221
25.80000 11.165
25.81000 14.145
25.82000 6.019
25.83000 12.228
25.84000 19.507
25.85000 17.149
25.86000 11.047
25.87000 9.168
25.88000 10.189
25.89000 11.058
25.90000 9.969
25.91000 22.345
25.92000 13.167
25.93000 14.358
25.94000 13.337
25.95000 12.165
25.96000 17.093
25.97000 12.199
25.98000 14.250
25.99000 16.253
26.00000 13.091
26.01000 12.293
26.02000 14.332
26.03000 17.181
26.04000 11.134
26.05000 7.215
26.06000 15.271
26.07000 14.305
26.08000 26.353
26.09000 17.225
26.10000 18.322
26.11000 18.280
26.12000 11.044
26.13000 12.065
26.14000 8.179
26.15000 16.147
26.16000 7.226
26.17000 8.058
26.18000 11.176
26.19000 11.200
26.20000 14.124
26.21000 14.107
26.22000 14.161
26.23000 15.263
26.24000 11.111
26.25000 14.285
26.26000 10.188
26.27000 12.237
26.28000 15.243
26.29000 14.165
26.30000 10.097
26.31000 12.200
26.32000 11.059
26.33000 8.099
26.34000 9.136
26.35000 17.018
26.36000 15.053
26.37000 17.120
26.38000 12.054
26.39000 16.253
26.40000 16.198
26.41000 16.176
26.42000 14.180
26.43000 5.989
26.44000 17.084
26.45000 15.379
26.46000 19.275
26.47000 14.313
26.48000 12.070
26.49000 8.182
26.50000 18.199
26.51000 13.255
26.52000 14.112
26.53000 10.084
26.54000 15.039
26.55000 10.219
26.56000 7.071
26.57000 19.438
26.58000 9.184
26.59000 15.236
26.60000 15.151
26.61000 11.264
26.62000 9.130
26.63000 13.200
26.64000 13.246
26.65000 15.340
26.66000 16.989
26.67000 14.145
26.68000 13.222
26.69000 18.354
26.70000 8.090
26.71000 10.047
26.72000 8.062
26.73000 17.294
26.74000 11.145
26.75000 13.214
26.76000 19.121
26.77000 13.151
26.78000 15.323
26.79000 21.379
26.80000 17.259
26.81000 10.146
26.82000 10.211
26.83000 12.229
26.84000 22.373
26.85000 14.205
26.86000 14.140
26.87000 13.166
26.88000 17.164
26.89000 11.195
26.90000 13.263
26.91000 13.150
26.92000 9.172
26.93000 11.268
26.94000 17.433
26.95000 10.157
26.96000 13.133
26.97000 25.270
26.98000 14.159
26.99000 15.294
27.00000 5.023
27.01000 19.239
27.02000 18.238
27.03000 10.991
27.04000 12.185
27.05000 14.002
27.06000 11.251
27.07000 19.328
27.08000 14.056
27.09000 18.148
27.10000 14.190
27.11000 8.321
27.12000 13.327
27.13000 17.322
27.14000 14.135
27.15000 14.184
27.16000 15.210
27.17000 19.274
27.18000 13.123
27.19000 22.314
27.20000 14.074
27.21000 10.187
27.22000 12.235
27.23000 12.231
27.24000 19.196
27.25000 20.371
27.26000 8.113
27.27000 9.080
27.28000 12.149
27.29000 18.261
27.30000 20.382
27.31000 16.446
27.32000 14.182
27.33000 15.077
27.34000 7.012
27.35000 13.293
27.36000 14.080
27.37000 19.297
27.38000 13.165
27.39000 15.149
27.40000 12.115
27.41000 12.180
27.42000 14.172
27.43000 16.222
27.44000 12.158
27.45000 16.221
27.46000 18.107
27.47000 16.185
27.48000 15.262
27.49000 21.133
27.50000 16.136
27.51000 15.284
27.52000 5.969
27.53000 16.456
27.54000 18.122
27.55000 15.160
27.56000 12.113
27.57000 12.106
27.58000 12.170
27.59000 9.131
27.60000 9.035
27.61000 12.120
27.62000 7.196
27.63000 18.277
27.64000 8.019
27.65000 16.346
27.66000 14.289
27.67000 9.208
27.68000 15.242
27.69000 7.050
27.70000 11.256
27.71000 16.286
27.72000 5.017
27.73000 16.293
27.74000 15.223
27.75000 18.110
27.76000 19.205
27.77000 18.070
27.78000 8.204
27.79000 15.104
27.80000 15.371
27.81000 11.152
27.82000 9.052
27.83000 20.062
27.84000 12.144
27.85000 12.014
27.86000 12.197
27.87000 13.078
27.88000 13.103
27.89000 16.049
27.90000 20.225
27.91000 14.148
27.92000 13.317
27.93000 21.323
27.94000 13.328
27.95000 20.299
27.96000 21.491
27.97000 12.252
27.98000 17.235
27.99000 13.104
28.00000 15.159
28.01000 17.148
28.02000 16.427
28.03000 17.449
28.04000 11.189
28.05000 15.095
28.06000 12.073
28.07000 15.188
28.08000 9.029
28.09000 11.186
28.10000 16.432
28.11000 17.257
28.12000 10.148
28.13000 14.194
28.14000 11.214
28.15000 7.084
28.16000 11.060
28.17000 13.060
28.18000 12.119
28.19000 20.216
28.20000 21.222
28.21000 12.123
28.22000 16.224
28.23000 14.206
28.24000 19.399
28.25000 19.223
28.26000 14.223
28.27000 10.141
28.28000 14.112
28.29000 16.201
28.30000 4.057
28.31000 14.260
28.32000 9.096
28.33000 13.257
28.34000 11.201
28.35000 14.024
28.36000 10.116
28.37000 18.130
28.38000 15.171
28.39000 17.404
28.40000 10.173
28.41000 13.043
28.42000 15.087
28.43000 16.328
28.44000 15.191
28.45000 18.178
28.46000 11.166
28.47000 23.417
28.48000 9.121
28.49000 16.081
28.50000 17.355
28.51000 10.123
28.52000 14.341
28.53000 23.400
28.54000 10.130
28.55000 8.148
28.56000 15.155
28.57000 12.057
28.58000 14.338
28.59000 14.184
28.60000 20.130
28.61000 11.203
28.62000 12.101
28.63000 9.097
28.64000 12.156
28.65000 10.216
28.66000 13.222
28.67000 12.095
28.68000 9.155
28.69000 14.229
28.70000 14.276
28.71000 19.351
28.72000 6.178
28.73000 17.321
28.74000 15.161
28.75000 10.082
28.76000 10.100
28.77000 7.035
28.78000 17.385
28.79000 10.201
28.80000 10.087
28.81000 11.441
28.82000 15.191
28.83000 5.054
28.84000 8.137
28.85000 14.247
28.86000 7.050
28.87000 13.098
28.88000 12.215
28.89000 14.178
28.90000 6.119
28.91000 16.171
28.92000 9.204
28.93000 15.184
28.94000 8.067
28.95000 14.299
28.96000 8.054
28.97000 14.148
28.98000 15.123
28.99000 5.040
29.00000 15.377
29.01000 21.346
29.02000 10.157
29.03000 12.138
29.04000 11.138
29.05000 12.231
29.06000 10.129
29.07000 11.263
29.08000 14.102
29.09000 14.213
29.10000 8.182
29.11000 14.186
29.12000 13.312
29.13000 15.122
29.14000 12.080
29.15000 12.099
29.16000 11.135
29.17000 7.137
29.18000 14.202
29.19000 16.055
29.20000 5.022
29.21000 13.347
29.22000 9.181
29.23000 14.165
29.24000 8.091
29.25000 8.144
29.26000 13.321
29.27000 12.229
29.28000 14.037
29.29000 9.124
29.30000 15.182
29.31000 15.355
29.32000 14.133
29.33000 10.065
29.34000 6.081
29.35000 13.157
29.36000 11.052
29.37000 13.212
29.38000 7.062
29.39000 12.041
29.40000 12.293
29.41000 17.128
29.42000 8.178
29.43000 13.160
29.44000 14.286
29.45000 11.021
29.46000 14.163
29.47000 12.120
29.48000 10.102
29.49000 14.145
29.50000 4.039
29.51000 15.234
29.52000 17.561
29.53000 13.038
29.54000 16.179
29.55000 9.223
29.56000 11.012
29.57000 9.119
29.58000 18.384
29.59000 10.161
29.60000 11.127
29.61000 12.396
29.62000 9.210
29.63000 10.219
29.64000 19.146
29.65000 11.227
29.66000 15.170
29.67000 9.084
29.68000 15.235
29.69000 11.129
29.70000 10.163
29.71000 10.057
29.72000 8.222
29.73000 11.155
29.74000 16.047
29.75000 16.194
29.76000 12.005
29.77000 16.315
29.78000 10.251
29.79000 7.058
29.80000 9.073
29.81000 10.073
29.82000 13.232
29.83000 15.368
29.84000 8.172
29.85000 9.282
29.86000 9.131
29.87000 13.158
29.88000 16.226
29.89000 12.145
29.90000 14.089
29.91000 9.103
29.92000 13.208
29.93000 8.172
29.94000 8.108
29.95000 13.203
29.96000 12.182
29.97000 12.983
29.98000 17.369
29.99000 8.150
30.00000 17.278
30.01000 12.181
30.02000 14.307
30.03000 11.178
30.04000 14.169
30.05000 13.147
30.06000 9.161
30.07000 15.131
30.08000 15.991
30.09000 11.079
30.10000 15.256
30.11000 11.063
30.12000 9.232
30.13000 17.152
30.14000 5.162
30.15000 12.183
30.16000 14.315
30.17000 8.043
30.18000 8.064
30.19000 10.085
30.20000 12.362
30.21000 14.295
30.22000 9.223
30.23000 15.204
30.24000 10.155
30.25000 10.071
30.26000 9.202
30.27000 12.287
30.28000 9.142
30.29000 10.151
30.30000 6.055
30.31000 14.203
30.32000 13.201
30.33000 14.130
30.34000 9.112
30.35000 8.060
30.36000 16.282
30.37000 6.192
30.38000 11.219
30.39000 13.061
30.40000 12.238
30.41000 12.148
30.42000 13.269
30.43000 13.421
30.44000 7.025
30.45000 13.223
30.46000 9.163
30.47000 8.076
30.48000 11.124
30.49000 4.172
30.50000 8.138
30.51000 9.129
30.52000 12.169
30.53000 9.136
30.54000 15.278
30.55000 7.094
30.56000 16.143
30.57000 11.115
30.58000 11.033
30.59000 15.300
30.60000 20.138
30.61000 11.191
30.62000 5.048
30.63000 11.041
30.64000 12.114
30.65000 7.027
30.66000 9.150
30.67000 8.026
30.68000 10.126
30.69000 9.248
30.70000 10.131
30.71000 6.066
30.72000 6.071
30.73000 7.098
30.74000 10.162
30.75000 9.153
30.76000 12.163
30.77000 14.261
30.78000 11.097
30.79000 16.329
30.80000 7.104
30.81000 9.120
30.82000 7.071
30.83000 11.142
30.84000 9.064
30.85000 10.117
30.86000 11.236
30.87000 12.261
30.88000 11.267
30.89000 14.238
30.90000 9.172
30.91000 6.146
30.92000 7.066
30.93000 4.096
30.94000 6.092
30.95000 7.119
30.96000 7.153
30.97000 7.122
30.98000 11.035
30.99000 9.146
31.00000 13.142
31.01000 11.027
31.02000 11.134
31.03000 9.228
31.04000 13.016
31.05000 12.196
31.06000 9.149
31.07000 8.973
31.08000 11.032
31.09000 13.018
31.10000 8.119
31.11000 7.049
31.12000 10.042
31.13000 13.076
31.14000 14.392
31.15000 7.139
31.16000 11.123
31.17000 7.038
31.18000 11.225
31.19000 8.198
31.20000 9.049
31.21000 14.226
31.22000 16.349
31.23000 7.177
31.24000 10.080
31.25000 9.091
31.26000 12.159
31.27000 6.132
31.28000 10.180
31.29000 5.992
31.30000 8.186
31.31000 4.036
31.32000 8.132
31.33000 10.088
31.34000 10.143
31.35000 3.067
31.36000 11.263
31.37000 4.039
31.38000 9.083
31.39000 13.275
31.40000 11.336
31.41000 9.078
31.42000 11.053
31.43000 9.255
31.44000 2.092
31.45000 7.147
31.46000 8.979
31.47000 7.119
31.48000 9.119
31.49000 9.246
31.50000 15.396
31.51000 10.129
31.52000 10.199
31.53000 8.123
31.54000 9.113
31.55000 7.105
31.56000 10.051
31.57000 10.083
31.58000 7.018
31.59000 8.158
31.60000 12.093
31.61000 12.130
31.62000 12.069
31.63000 8.194
31.64000 9.175
31.65000 12.152
31.66000 12.249
31.67000 5.978
31.68000 10.068
31.69000 16.308
31.70000 14.306
31.71000 10.225
31.72000 12.103
31.73000 11.034
31.74000 7.057
31.75000 10.078
31.76000 13.167
31.77000 6.021
31.78000 8.056
31.79000 2.060
31.80000 10.005
31.81000 8.138
31.82000 9.107
31.83000 6.048
31.84000 5.055
31.85000 10.144
31.86000 11.092
31.87000 9.054
31.88000 11.242
31.89000 10.131
31.90000 11.984
31.91000 7.176
31.92000 10.111
31.93000 7.140
31.94000 12.183
31.95000 6.085
31.96000 9.150
31.97000 12.309
31.98000 6.024
31.99000 6.104
32.00000 10.144
32.01000 5.017
32.02000 6.996
32.03000 8.261
32.04000 11.283
32.05000 10.216
32.06000 15.192
32.07000 12.043
32.08000 8.107
32.09000 9.047
32.10000 8.132
32.11000 9.091
32.12000 5.165
32.13000 3.043
32.14000 8.139
32.15000 11.159
32.16000 9.265
32.17000 7.026
32.18000 10.192
32.19000 9.047
32.20000 6.049
32.21000 10.051
32.22000 10.062
32.23000 1.997
32.24000 7.154
32.25000 3.050
32.26000 7.167
32.27000 7.063
32.28000 6.062
32.29000 11.187
32.30000 12.490
32.31000 3.094
32.32000 7.083
32.33000 6.039
32.34000 9.160
32.35000 6.096
32.36000 13.202
32.37000 2.050
32.38000 7.188
32.39000 8.001
32.40000 13.085
32.41000 3.995
32.42000 6.083
32.43000 7.098
32.44000 8.108
32.45000 13.268
32.46000 7.139
32.47000 10.266
32.48000 7.176
32.49000 10.202
32.50000 9.157
32.51000 8.118
32.52000 5.081
32.53000 8.059
32.54000 6.110
32.55000 5.079
32.56000 7.216
32.57000 7.044
32.58000 14.067
32.59000 9.057
32.60000 17.339
32.61000 7.066
32.62000 7.137
32.63000 5.083
32.64000 5.073
32.65000 8.056
32.66000 6.998
32.67000 5.086
32.68000 7.124
32.69000 10.170
32.70000 9.135
32.71000 7.033
32.72000 4.151
32.73000 5.059
32.74000 8.135
32.75000 13.152
32.76000 10.098
32.77000 6.108
32.78000 10.114
32.79000 8.091
32.80000 8.992
32.81000 9.087
32.82000 7.055
32.83000 9.154
32.84000 6.056
32.85000 4.063
32.86000 10.058
32.87000 7.129
32.88000 12.050
32.89000 7.142
32.90000 3.014
32.91000 11.135
32.92000 11.130
32.93000 8.093
32.94000 5.034
32.95000 8.187
32.96000 2.029
32.97000 7.146
32.98000 7.019
32.99000 11.218
33.00000 9.042
33.01000 7.055
33.02000 4.079
33.03000 10.223
33.04000 10.159
33.05000 4.137
33.06000 6.075
33.07000 11.115
33.08000 7.167
33.09000 3.078
33.10000 4.096
33.11000 3.071
33.12000 6.117
33.13000 9.061
33.14000 6.140
33.15000 9.193
33.16000 8.106
33.17000 10.146
33.18000 2.025
33.19000 7.224
33.20000 9.140
33.21000 4.032
33.22000 7.992
33.23000 7.129
33.24000 8.127
33.25000 4.000
33.26000 4.081
33.27000 8.170
33.28000 9.234
33.29000 6.081
33.30000 9.209
33.31000 4.134
33.32000 9.212
33.33000 6.000
33.34000 7.043
33.35000 2.025
33.36000 3.002
33.37000 10.298
33.38000 7.111
33.39000 7.124
33.40000 5.040
33.41000 5.096
33.42000 7.154
33.43000 10.108
33.44000 2.020
33.45000 4.047
33.46000 10.119
33.47000 2.022
33.48000 5.021
33.49000 5.011
33.50000 9.152
33.51000 6.176
33.52000 10.148
33.53000 9.176
33.54000 5.997
33.55000 8.104
33.56000 8.185
33.57000 4.976
33.58000 17.038
33.59000 6.098
33.60000 6.153
33.61000 5.195
33.62000 8.063
33.63000 5.992
33.64000 4.096
33.65000 2.040
33.66000 5.115
33.67000 5.130
33.68000 4.034
33.69000 10.108
33.70000 10.023
33.71000 7.998
33.72000 3.020
33.73000 11.065
33.74000 8.085
33.75000 5.123
33.76000 4.033
33.77000 10.198
33.78000 5.077
33.79000 5.151
33.80000 9.110
33.81000 10.053
33.82000 9.038
33.83000 7.032
33.84000 7.130
33.85000 6.168
33.86000 7.121
33.87000 8.106
33.88000 12.123
33.89000 4.146
33.90000 6.033
33.91000 6.102
33.92000 5.112
33.93000 6.030
33.94000 9.192
33.95000 4.064
33.96000 5.050
33.97000 0.992
33.98000 6.136
33.99000 4.130
34.00000 4.077
34.01000 2.061
34.02000 5.127
34.03000 1.054
34.04000 5.063
34.05000 12.172
34.06000 1.996
34.07000 4.040
34.08000 10.092
34.09000 6.092
34.10000 8.215
34.11000 5.044
34.12000 8.140
34.13000 5.063
34.14000 4.081
34.15000 7.156
34.16000 8.021
34.17000 6.059
34.18000 10.201
34.19000 5.973
34.20000 15.114
34.21000 10.184
34.22000 7.035
34.23000 5.148
34.24000 7.241
34.25000 6.143
34.26000 6.041
34.27000 6.040
34.28000 2.000
34.29000 20.055
34.30000 2.029
34.31000 4.989
34.32000 6.087
34.33000 8.105
34.34000 5.028
34.35000 8.137
34.36000 6.065
34.37000 4.126
34.38000 9.204
34.39000 6.064
34.40000 3.069
34.41000 7.067
34.42000 7.102
34.43000 3.125
34.44000 5.123
34.45000 6.052
34.46000 3.985
34.47000 4.097
34.48000 7.065
34.49000 5.057
34.50000 4.042
34.51000 5.077
34.52000 5.030
34.53000 8.069
34.54000 6.118
34.55000 4.132
34.56000 6.089
34.57000 2.999
34.58000 5.088
34.59000 9.221
34.60000 8.016
34.61000 10.062
34.62000 4.128
34.63000 8.225
34.64000 5.129
34.65000 4.090
34.66000 3.024
34.67000 7.080
34.68000 5.081
34.69000 7.070
34.70000 6.174
34.71000 4.067
34.72000 4.026
34.73000 5.130
34.74000 8.083
34.75000 4.034
34.76000 8.146
34.77000 8.076
34.78000 6.204
34.79000 2.040
34.80000 5.065
34.81000 4.976
34.82000 4.964
34.83000 3.060
34.84000 7.113
34.85000 10.316
34.86000 6.133
34.87000 6.071
34.88000 7.063
34.89000 3.008
34.90000 8.110
34.91000 5.055
34.92000 8.142
34.93000 8.144
34.94000 14.168
34.95000 3.027
34.96000 3.019
34.97000 9.077
34.98000 9.116
34.99000 4.035
35.00000 12.166
35.01000 2.972
35.02000 7.059
35.03000 5.063
35.04000 5.063
35.05000 8.111
35.06000 7.090
35.07000 6.065
35.08000 9.121
35.09000 10.154
35.10000 2.027
35.11000 12.231
35.12000 2.022
35.13000 5.014
35.14000 6.047
35.15000 17.244
35.16000 8.100
35.17000 7.114
35.18000 3.070
35.19000 9.143
35.20000 6.069
35.21000 9.041
35.22000 10.254
35.23000 6.132
35.24000 7.952
35.25000 6.065
35.26000 4.120
35.27000 8.045
35.28000 2.967
35.29000 7.088
35.30000 3.007
35.31000 5.064
35.32000 8.163
35.33000 6.079
35.34000 9.085
35.35000 7.160
35.36000 6.989
35.37000 6.002
35.38000 5.050
35.39000 7.122
35.40000 8.098
35.41000 4.067
35.42000 3.059
35.43000 6.037
35.44000 3.023
35.45000 6.041
35.46000 3.119
35.47000 8.188
35.48000 7.078
35.49000 5.117
35.50000 6.106
35.51000 5.934
35.52000 6.157
35.53000 7.134
35.54000 7.219
35.55000 8.132
35.56000 11.152
35.57000 11.168
35.58000 3.063
35.59000 4.063
35.60000 2.070
35.61000 14.325
35.62000 3.990
35.63000 7.065
35.64000 13.063
35.65000 10.096
35.66000 7.227
35.67000 3.062
35.68000 4.050
35.69000 1.002
35.70000 0.999
35.71000 6.125
35.72000 6.161
35.73000 6.063
35.74000 8.139
35.75000 6.166
35.76000 4.009
35.77000 7.139
35.78000 3.013
35.79000 1.960
35.80000 10.151
35.81000 8.112
35.82000 4.997
35.83000 5.078
35.84000 5.140
35.85000 4.062
35.86000 6.225
35.87000 10.092
35.88000 9.095
35.89000 4.113
35.90000 7.104
35.91000 9.061
35.92000 6.127
35.93000 4.106
35.94000 6.087
35.95000 8.175
35.96000 8.077
35.97000 6.106
35.98000 5.009
35.99000 8.124
36.00000 9.098
36.01000 2.043
36.02000 8.070
36.03000 4.052
36.04000 4.001
36.05000 3.015
36.06000 4.058
36.07000 0.997
36.08000 7.181
36.09000 4.108
36.10000 6.147
36.11000 7.044
36.12000 6.092
36.13000 6.949
36.14000 6.983
36.15000 3.001
36.16000 6.201
36.17000 2.093
36.18000 5.054
36.19000 5.054
36.20000 2.016
36.21000 10.230
36.22000 1.054
36.23000 1.998
36.24000 5.099
36.25000 6.164
36.26000 8.099
36.27000 2.016
36.28000 4.038
36.29000 1.002
36.30000 5.090
36.31000 6.059
36.32000 6.124
36.33000 7.015
36.34000 6.142
36.35000 7.045
36.36000 4.098
36.37000 4.024
36.38000 6.082
36.39000 7.082
36.40000 7.071
36.41000 6.101
36.42000 4.006
36.43000 10.085
36.44000 6.082
36.45000 7.993
36.46000 8.016
36.47000 9.010
36.48000 7.116
36.49000 5.093
36.50000 6.016
36.51000 3.046
36.52000 11.067
36.53000 3.070
36.54000 3.032
36.55000 4.967
36.56000 6.045
36.57000 12.129
36.58000 3.035
36.59000 4.061
36.60000 4.013
36.61000 3.246
36.62000 6.980
36.63000 7.190
36.64000 6.176
36.65000 2.032
36.66000 4.026
36.67000 5.055
36.68000 9.157
36.69000 4.085
36.70000 12.018
36.71000 11.235
36.72000 1.969
36.73000 2.062
36.74000 5.000
36.75000 5.036
36.76000 9.104
36.77000 7.139
36.78000 8.129
36.79000 7.136
36.80000 3.046
36.81000 12.242
36.82000 7.128
36.83000 11.129
36.84000 9.037
36.85000 6.134
36.86000 4.046
36.87000 4.091
36.88000 7.209
36.89000 3.045
36.90000 8.075
36.91000 5.081
36.92000 8.194
36.93000 8.008
36.94000 4.004
36.95000 7.052
36.96000 4.088
36.97000 0.996
36.98000 6.132
36.99000 7.148
37.00000 9.133
37.01000 6.117
37.02000 4.019
37.03000 3.949
37.04000 7.119
37.05000 4.084
37.06000 7.047
37.07000 3.030
37.08000 6.069
37.09000 6.075
37.10000 4.059
37.11000 6.116
37.12000 6.211
37.13000 5.121
37.14000 8.996
37.15000 3.076
37.16000 12.109
37.17000 2.045
37.18000 5.155
37.19000 8.098
37.20000 8.005
37.21000 3.046
37.22000 3.058
37.23000 7.073
37.24000 7.080
37.25000 11.101
37.26000 7.027
37.27000 4.082
37.28000 1.023
37.29000 7.024
37.30000 9.170
37.31000 4.046
37.32000 1.995
37.33000 7.074
37.34000 7.146
37.35000 3.046
37.36000 7.111
37.37000 5.013
37.38000 6.140
37.39000 3.114
37.40000 6.121
37.41000 7.009
37.42000 7.283
37.43000 6.213
37.44000 7.158
37.45000 9.140
37.46000 2.134
37.47000 6.065
37.48000 7.019
37.49000 4.997
37.50000 5.039
37.51000 6.182
37.52000 5.029
37.53000 7.114
37.54000 5.055
37.55000 6.032
37.56000 7.006
37.57000 5.051
37.58000 6.186
37.59000 6.035
37.60000 8.014
37.61000 7.072
37.62000 5.165
37.63000 8.175
37.64000 4.061
37.65000 6.022
37.66000 3.044
37.67000 5.015
37.68000 9.120
37.69000 7.032
37.70000 7.140
37.71000 5.040
37.72000 6.090
37.73000 6.035
37.74000 8.039
37.75000 7.129
37.76000 3.109
37.77000 7.145
37.78000 4.105
37.79000 6.244
37.80000 8.119
37.81000 8.067
37.82000 10.245
37.83000 8.141
37.84000 6.092
37.85000 10.065
37.86000 4.092
37.87000 9.108
37.88000 7.076
37.89000 3.105
37.90000 0.992
37.91000 6.108
37.92000 5.018
37.93000 4.005
37.94000 4.056
37.95000 1.001
37.96000 3.985
37.97000 3.027
37.98000 4.036
37.99000 9.088
38.00000 4.018
38.01000 7.189
38.02000 5.035
38.03000 6.068
38.04000 3.984
38.05000 5.073
38.06000 4.053
38.07000 4.007
38.08000 5.085
38.09000 12.179
38.10000 5.184
38.11000 10.167
38.12000 5.054
38.13000 8.153
38.14000 5.050
38.15000 8.154
38.16000 7.115
38.17000 1.986
38.18000 8.124
38.19000 7.129
38.20000 3.017
38.21000 9.111
38.22000 5.095
38.23000 5.004
38.24000 9.065
38.25000 1.050
38.26000 8.149
38.27000 6.031
38.28000 9.128
38.29000 4.999
38.30000 1.999
38.31000 5.015
38.32000 4.021
38.33000 9.236
38.34000 3.998
38.35000 6.095
38.36000 6.152
38.37000 5.149
38.38000 8.096
38.39000 3.076
38.40000 7.027
38.41000 9.121
38.42000 3.996
38.43000 4.058
38.44000 6.080
38.45000 5.166
38.46000 11.042
38.47000 7.157
38.48000 5.051
38.49000 6.063
38.50000 6.033
38.51000 2.073
38.52000 8.071
38.53000 6.014
38.54000 4.085
38.55000 5.075
38.56000 4.210
38.57000 5.153
38.58000 3.112
38.59000 5.064
38.60000 3.020
38.61000 7.135
38.62000 4.114
38.63000 7.011
38.64000 5.030
38.65000 5.041
38.66000 4.074
38.67000 2.010
38.68000 5.022
38.69000 6.003
38.70000 5.114
38.71000 1.982
38.72000 3.038
38.73000 7.113
38.74000 3.031
38.75000 6.186
38.76000 4.152
38.77000 6.147
38.78000 7.141
38.79000 5.957
38.80000 8.055
38.81000 5.071
38.82000 5.154
38.83000 6.099
38.84000 2.009
38.85000 4.065
38.86000 7.219
38.87000 7.208
38.88000 3.093
38.89000 6.138
38.90000 3.991
38.91000 3.074
38.92000 4.052
38.93000 5.058
38.94000 4.208
38.95000 4.033
38.96000 7.115
38.97000 5.997
38.98000 5.102
38.99000 6.024
39.00000 5.086
39.01000 6.059
39.02000 11.204
39.03000 5.054
39.04000 2.023
39.05000 8.012
39.06000 7.159
39.07000 3.017
39.08000 6.086
39.09000 7.204
39.10000 5.042
39.11000 8.056
39.12000 5.071
39.13000 2.009
39.14000 6.143
39.15000 7.199
39.16000 13.194
39.17000 6.023
39.18000 5.209
39.19000 4.004
39.20000 7.137
39.21000 3.007
39.22000 3.025
39.23000 4.988
39.24000 4.025
39.25000 6.077
39.26000 3.073
39.27000 9.153
39.28000 6.965
39.29000 6.106
39.30000 8.070
39.31000 6.022
39.32000 9.135
39.33000 7.032
39.34000 4.140
39.35000 7.016
39.36000 8.147
39.37000 7.990
39.38000 6.047
39.39000 8.219
39.40000 6.031
39.41000 8.118
39.42000 2.048
39.43000 6.132
39.44000 3.047
39.45000 11.222
39.46000 9.213
39.47000 8.146
39.48000 7.125
39.49000 6.027
39.50000 8.141
39.51000 7.050
39.52000 9.238
39.53000 5.023
39.54000 7.090
39.55000 10.046
39.56000 10.043
39.57000 4.040
39.58000 2.046
39.59000 2.034
39.60000 3.998
39.61000 8.098
39.62000 5.105
39.63000 7.083
39.64000 5.106
39.65000 8.019
39.66000 6.042
39.67000 7.066
39.68000 4.067
39.69000 7.134
39.70000 7.119
39.71000 6.067
39.72000 7.213
39.73000 9.104
39.74000 7.067
39.75000 8.042
39.76000 6.024
39.77000 5.109
39.78000 8.089
39.79000 8.143
39.80000 9.150
39.81000 5.016
39.82000 6.033
39.83000 6.100
39.84000 6.043
39.85000 7.014
39.86000 7.063
39.87000 8.213
39.88000 6.099
39.89000 9.069
39.90000 9.162
39.91000 3.991
39.92000 7.033
39.93000 8.211
39.94000 5.987
39.95000 6.046
39.96000 1.020
39.97000 5.028
39.98000 3.027
39.99000 3.072
40.00000 4.038
40.01000 6.043
40.02000 4.077
40.03000 7.050
40.04000 11.152
40.05000 7.099
40.06000 6.063
40.07000 11.071
40.08000 6.060
40.09000 8.090
40.10000 3.969
40.11000 6.104
40.12000 5.065
40.13000 3.031
40.14000 8.057
40.15000 5.052
40.16000 12.206
40.17000 3.058
40.18000 5.153
40.19000 6.081
40.20000 6.093
40.21000 4.067
40.22000 7.058
40.23000 4.041
40.24000 9.043
40.25000 6.095
40.26000 6.133
40.27000 4.080
40.28000 1.972
40.29000 6.114
40.30000 6.008
40.31000 6.081
40.32000 9.091
40.33000 9.239
40.34000 6.049
40.35000 9.194
40.36000 6.067
40.37000 6.059
40.38000 6.090
40.39000 1.001
40.40000 7.042
40.41000 9.108
40.42000 4.030
40.43000 8.094
40.44000 5.999
40.45000 10.019
40.46000 8.177
40.47000 4.076
40.48000 6.023
40.49000 3.012
40.50000 1.002
40.51000 7.091
40.52000 5.101
40.53000 6.029
40.54000 6.018
40.55000 6.978
40.56000 9.151
40.57000 7.993
40.58000 5.161
40.59000 5.065
40.60000 5.052
40.61000 6.101
40.62000 9.012
40.63000 6.159
40.64000 5.106
40.65000 5.991
40.66000 5.074
40.67000 9.089
40.68000 7.129
40.69000 5.043
40.70000 7.014
40.71000 4.991
40.72000 6.239
40.73000 9.045
40.74000 3.982
40.75000 7.157
40.76000 6.210
40.77000 5.103
40.78000 4.113
40.79000 7.022
40.80000 8.148
40.81000 6.125
40.82000 3.041
40.83000 12.174
40.84000 6.075
40.85000 1.039
40.86000 9.157
40.87000 3.054
40.88000 5.113
40.89000 8.249
40.90000 6.086
40.91000 7.212
40.92000 8.162
40.93000 6.017
40.94000 5.147
40.95000 8.265
40.96000 2.047
40.97000 6.118
40.98000 8.123
40.99000 7.044
41.00000 3.018
41.01000 2.024
41.02000 8.171
41.03000 3.999
41.04000 10.149
41.05000 8.004
41.06000 5.042
41.07000 8.197
41.08000 9.265
41.09000 9.157
41.10000 2.973
41.11000 3.999
41.12000 3.032
41.13000 3.040
41.14000 3.165
41.15000 3.030
41.16000 7.085
41.17000 4.090
41.18000 3.018
41.19000 8.149
41.20000 7.147
41.21000 5.065
41.22000 3.966
41.23000 5.073
41.24000 3.048
41.25000 3.951
41.26000 9.191
41.27000 4.999
41.28000 5.142
41.29000 6.092
41.30000 1.982
41.31000 7.045
41.32000 4.133
41.33000 5.060
41.34000 3.019
41.35000 5.026
41.36000 2.971
41.37000 4.151
41.38000 2.023
41.39000 5.083
41.40000 7.077
41.41000 5.002
41.42000 5.067
41.43000 4.093
41.44000 7.249
41.45000 11.176
41.46000 2.002
41.47000 3.059
41.48000 8.176
41.49000 4.135
41.50000 10.182
41.51000 8.024
41.52000 5.065
41.53000 1.982
41.54000 11.197
41.55000 5.169
41.56000 7.086
41.57000 1.016
41.58000 15.259
41.59000 3.092
41.60000 9.221
41.61000 7.046
41.62000 5.028
41.63000 4.109
41.64000 10.037
41.65000 3.042
41.66000 8.277
41.67000 1.052
41.68000 8.141
41.69000 3.078
41.70000 2.049
41.71000 14.273
41.72000 10.140
41.73000 6.048
41.74000 5.111
41.75000 4.058
41.76000 6.067
41.77000 5.103
41.78000 8.074
41.79000 5.112
41.80000 4.077
41.81000 8.121
41.82000 10.242
41.83000 4.015
41.84000 5.037
41.85000 6.165
41.86000 2.046
41.87000 4.036
41.88000 6.082
41.89000 1.010
41.90000 7.153
41.91000 2.060
41.92000 7.183
41.93000 14.369
41.94000 4.035
41.95000 4.056
41.96000 2.035
41.97000 6.092
41.98000 7.131
41.99000 5.038
42.00000 6.157
42.01000 8.136
42.02000 11.189
42.03000 2.024
42.04000 4.119
42.05000 4.046
42.06000 10.227
42.07000 5.118
42.08000 2.047
42.09000 1.973
42.10000 7.068
42.11000 9.094
42.12000 9.054
42.13000 9.231
42.14000 8.118
42.15000 8.197
42.16000 2.009
42.17000 12.150
42.18000 9.262
42.19000 7.038
42.20000 4.026
42.21000 5.124
42.22000 6.013
42.23000 3.063
42.24000 6.033
42.25000 5.120
42.26000 3.081
42.27000 3.023
42.28000 3.092
42.29000 8.161
42.30000 7.070
42.31000 4.088
42.32000 1.000
42.33000 6.119
42.34000 6.097
42.35000 5.109
42.36000 4.142
42.37000 4.974
42.38000 4.026
42.39000 8.333
42.40000 3.049
42.41000 5.045
42.42000 3.038
42.43000 6.063
42.44000 4.031
42.45000 5.030
42.46000 8.206
42.47000 3.022
42.48000 5.036
42.49000 5.088
42.50000 7.065
42.51000 4.052
42.52000 1.004
42.53000 4.071
42.54000 2.104
42.55000 1.988
42.56000 5.023
42.57000 6.062
42.58000 4.985
42.59000 5.067
42.60000 8.251
42.61000 4.047
42.62000 5.141
42.63000 7.123
42.64000 8.077
42.65000 3.028
42.66000 8.080
42.67000 7.121
42.68000 11.131
42.69000 3.041
42.70000 4.014
42.71000 5.157
42.72000 6.102
42.73000 6.066
42.74000 4.024
42.75000 6.050
42.76000 6.105
42.77000 9.135
42.78000 7.136
42.79000 4.065
42.80000 2.999
42.81000 8.998
42.82000 8.108
42.83000 7.122
42.84000 5.058
42.85000 6.101
42.86000 7.028
42.87000 4.098
42.88000 8.177
42.89000 3.065
42.90000 6.116
42.91000 4.021
42.92000 4.001
42.93000 5.102
42.94000 5.034
42.95000 1.005
42.96000 5.961
42.97000 8.036
42.98000 7.060
42.99000 10.195
43.00000 6.029
43.01000 3.039
43.02000 4.052
43.03000 8.996
43.04000 6.115
43.05000 3.970
43.06000 6.267
43.07000 6.078
43.08000 1.983
43.09000 7.073
43.10000 5.030
43.11000 3.023
43.12000 6.072
43.13000 7.020
43.14000 4.100
43.15000 4.035
43.16000 6.118
43.17000 5.099
43.18000 6.041
43.19000 6.151
43.20000 8.108
43.21000 7.137
43.22000 8.081
43.23000 3.027
43.24000 6.125
43.25000 6.149
43.26000 4.042
43.27000 4.020
43.28000 7.010
43.29000 7.081
43.30000 4.107
43.31000 6.987
43.32000 6.003
43.33000 3.113
43.34000 8.126
43.35000 4.117
43.36000 4.207
43.37000 4.067
43.38000 6.207
43.39000 9.120
43.40000 4.037
43.41000 9.140
43.42000 9.258
43.43000 5.017
43.44000 4.047
43.45000 4.085
43.46000 5.136
43.47000 10.242
43.48000 0.000
43.49000 7.184
43.50000 6.132
43.51000 5.065
43.52000 6.071
43.53000 8.010
43.54000 7.125
43.55000 4.092
43.56000 5.019
43.57000 4.028
43.58000 10.217
43.59000 3.167
43.60000 4.957
43.61000 5.012
43.62000 8.010
43.63000 9.147
43.64000 8.159
43.65000 6.018
43.66000 2.003
43.67000 8.158
43.68000 7.142
43.69000 7.062
43.70000 3.048
43.71000 6.079
43.72000 2.058
43.73000 7.141
43.74000 4.073
43.75000 7.177
43.76000 1.014
43.77000 9.058
43.78000 4.101
43.79000 5.062
43.80000 10.222
43.81000 9.180
43.82000 5.114
43.83000 7.111
43.84000 9.217
43.85000 5.031
43.86000 4.113
43.87000 4.088
43.88000 8.115
43.89000 2.062
43.90000 8.262
43.91000 4.077
43.92000 6.096
43.93000 5.167
43.94000 8.175
43.95000 10.140
43.96000 5.976
43.97000 1.982
43.98000 6.023
43.99000 8.106
44.00000 2.024
44.01000 4.075
44.02000 5.084
44.03000 2.045
44.04000 2.000
44.05000 4.086
44.06000 7.103
44.07000 11.055
44.08000 5.969
44.09000 6.060
44.10000 8.143
44.11000 10.145
44.12000 5.027
44.13000 5.991
44.14000 6.115
44.15000 2.958
44.16000 2.034
44.17000 12.235
44.18000 4.082
44.19000 5.100
44.20000 8.152
44.21000 7.180
44.22000 4.064
44.23000 6.043
44.24000 3.988
44.25000 7.100
44.26000 9.176
44.27000 5.108
44.28000 8.059
44.29000 5.067
44.30000 8.115
44.31000 3.071
44.32000 4.034
44.33000 8.269
44.34000 7.070
44.35000 1.036
44.36000 5.011
44.37000 9.271
44.38000 0.994
44.39000 4.009
44.40000 10.978
44.41000 10.143
44.42000 5.089
44.43000 3.029
44.44000 6.088
44.45000 6.185
44.46000 9.205
44.47000 0.983
44.48000 9.054
44.49000 5.059
44.50000 6.024
44.51000 10.060
44.52000 4.044
44.53000 4.085
44.54000 8.276
44.55000 13.267
44.56000 3.109
44.57000 4.998
44.58000 3.055
44.59000 6.082
44.60000 3.132
44.61000 6.133
44.62000 7.098
44.63000 3.026
44.64000 7.157
44.65000 11.074
44.66000 5.085
44.67000 7.150
44.68000 4.046
44.69000 6.067
44.70000 9.217
44.71000 8.144
44.72000 2.980
44.73000 6.086
44.74000 2.038
44.75000 9.285
44.76000 4.061
44.77000 4.989
44.78000 7.070
44.79000 5.017
44.80000 8.013
44.81000 2.003
44.82000 6.062
44.83000 8.121
44.84000 5.033
44.85000 3.058
44.86000 4.052
44.87000 8.121
44.88000 7.087
44.89000 0.994
44.90000 4.046
44.91000 5.165
44.92000 5.084
44.93000 7.054
44.94000 3.088
44.95000 6.161
44.96000 5.031
44.97000 4.987
44.98000 3.045
44.99000 12.280
45.00000 4.074
45.01000 3.042
45.02000 6.004
45.03000 4.098
45.04000 8.099
45.05000 9.075
45.06000 3.075
45.07000 6.129
45.08000 9.164
45.09000 7.068
45.10000 6.986
45.11000 3.988
45.12000 7.111
45.13000 5.041
45.14000 1.035
45.15000 4.171
45.16000 9.139
45.17000 7.140
45.18000 4.085
45.19000 7.096
45.20000 7.008
45.21000 4.096
45.22000 5.991
45.23000 0.977
45.24000 4.001
45.25000 9.170
45.26000 7.108
45.27000 5.077
45.28000 3.071
45.29000 9.209
45.30000 4.061
45.31000 10.151
45.32000 3.099
45.33000 4.108
45.34000 9.188
45.35000 9.078
45.36000 4.060
45.37000 8.003
45.38000 2.003
45.39000 9.146
45.40000 5.071
45.41000 6.034
45.42000 4.076
45.43000 2.047
45.44000 6.984
45.45000 8.010
45.46000 8.101
45.47000 8.036
45.48000 4.081
45.49000 10.054
45.50000 8.168
45.51000 8.158
45.52000 10.112
45.53000 5.105
45.54000 5.111
45.55000 4.028
45.56000 5.056
45.57000 2.022
45.58000 4.039
45.59000 1.986
45.60000 3.107
45.61000 4.044
45.62000 9.196
45.63000 7.145
45.64000 7.161
45.65000 3.092
45.66000 6.072
45.67000 8.076
45.68000 5.005
45.69000 7.128
45.70000 5.061
45.71000 1.993
45.72000 8.138
45.73000 5.106
45.74000 4.993
45.75000 5.062
45.76000 3.031
45.77000 10.259
45.78000 8.129
45.79000 3.959
45.80000 4.054
45.81000 9.025
45.82000 4.067
45.83000 6.083
45.84000 6.009
45.85000 9.181
45.86000 14.304
45.87000 7.134
45.88000 9.114
45.89000 7.007
45.90000 5.121
45.91000 5.026
45.92000 2.023
45.93000 4.011
45.94000 8.186
45.95000 7.035
45.96000 10.316
45.97000 7.162
45.98000 5.156
45.99000 4.054
46.00000 5.092
46.01000 6.067
46.02000 6.134
46.03000 15.233
46.04000 2.031
46.05000 7.113
46.06000 5.063
46.07000 7.078
46.08000 6.178
46.09000 2.999
46.10000 5.073
46.11000 7.069
46.12000 7.302
46.13000 5.097
46.14000 4.074
46.15000 5.069
46.16000 3.021
46.17000 6.062
46.18000 7.105
46.19000 3.042
46.20000 4.964
46.21000 9.143
46.22000 6.092
46.23000 6.122
46.24000 11.091
46.25000 6.065
46.26000 9.045
46.27000 4.039
46.28000 2.062
46.29000 6.076
46.30000 7.064
46.31000 8.043
46.32000 10.228
46.33000 3.065
46.34000 8.158
46.35000 7.202
46.36000 9.252
46.37000 6.114
46.38000 4.000
46.39000 10.393
46.40000 2.048
46.41000 8.165
46.42000 6.139
46.43000 4.054
46.44000 4.047
46.45000 3.131
46.46000 3.076
46.47000 9.130
46.48000 9.193
46.49000 7.116
46.50000 11.022
46.51000 6.170
46.52000 5.020
46.53000 4.126
46.54000 8.072
46.55000 6.011
46.56000 6.105
46.57000 9.122
46.58000 5.095
46.59000 3.126
46.60000 12.143
46.61000 0.991
46.62000 4.040
46.63000 7.036
46.64000 7.211
46.65000 5.041
46.66000 5.107
46.67000 5.087
46.68000 6.164
46.69000 4.038
46.70000 3.046
46.71000 2.037
46.72000 3.052
46.73000 4.012
46.74000 8.148
46.75000 4.042
46.76000 7.020
46.77000 2.001
46.78000 4.074
46.79000 2.002
46.80000 5.088
46.81000 7.077
46.82000 4.991
46.83000 4.190
46.84000 7.024
46.85000 5.008
46.86000 10.135
46.87000 6.074
46.88000 2.072
46.89000 8.041
46.90000 6.192
46.91000 1.002
46.92000 9.165
46.93000 6.150
46.94000 6.176
46.95000 2.119
46.96000 9.090
46.97000 4.097
46.98000 3.976
46.99000 7.105
47.00000 3.990
47.01000 8.041
47.02000 5.050
47.03000 2.006
47.04000 4.076
47.05000 5.052
47.06000 4.023
47.07000 2.040
47.08000 7.143
47.09000 2.018
47.10000 7.109
47.11000 3.961
47.12000 5.143
47.13000 3.086
47.14000 2.978
47.15000 3.030
47.16000 11.129
47.17000 6.070
47.18000 10.046
47.19000 4.147
47.20000 5.041
47.21000 4.994
47.22000 3.979
47.23000 8.106
47.24000 7.136
47.25000 1.990
47.26000 4.978
47.27000 5.142
47.28000 4.988
47.29000 6.052
47.30000 4.121
47.31000 4.101
47.32000 6.063
47.33000 4.089
47.34000 3.982
47.35000 5.124
47.36000 7.197
47.37000 6.013
47.38000 5.034
47.39000 3.076
47.40000 8.084
47.41000 8.087
47.42000 7.111
47.43000 3.987
47.44000 6.103
47.45000 1.045
47.46000 4.077
47.47000 4.042
47.48000 2.034
47.49000 9.317
47.50000 8.041
47.51000 2.968
47.52000 6.005
47.53000 5.153
47.54000 3.038
47.55000 6.022
47.56000 6.205
47.57000 3.031
47.58000 6.087
47.59000 8.026
47.60000 3.037
47.61000 2.063
47.62000 7.159
47.63000 4.102
47.64000 2.001
47.65000 10.198
47.66000 5.019
47.67000 3.049
47.68000 3.055
47.69000 6.993
47.70000 3.978
47.71000 6.001
47.72000 8.063
47.73000 6.069
47.74000 1.987
47.75000 5.192
47.76000 5.017
47.77000 6.112
47.78000 8.139
47.79000 1.023
47.80000 5.007
47.81000 4.031
47.82000 4.111
47.83000 6.161
47.84000 7.115
47.85000 12.103
47.86000 6.094
47.87000 3.090
47.88000 3.089
47.89000 3.974
47.90000 4.066
47.91000 6.119
47.92000 5.090
47.93000 8.054
47.94000 3.047
47.95000 9.171
47.96000 1.017
47.97000 7.044
47.98000 4.040
47.99000 3.041
48.00000 5.051
48.01000 5.054
48.02000 6.183
48.03000 8.008
48.04000 8.162
48.05000 6.069
48.06000 5.111
48.07000 4.049
48.08000 3.996
48.09000 4.076
48.10000 6.098
48.11000 7.120
48.12000 6.023
48.13000 0.000
48.14000 4.079
48.15000 4.021
48.16000 9.071
48.17000 2.978
48.18000 11.042
48.19000 5.023
48.20000 4.122
48.21000 5.115
48.22000 4.033
48.23000 6.079
48.24000 2.977
48.25000 6.142
48.26000 3.058
48.27000 4.095
48.28000 1.007
48.29000 6.096
48.30000 8.153
48.31000 7.151
48.32000 2.033
48.33000 5.062
48.34000 8.062
48.35000 7.101
48.36000 2.004
48.37000 5.135
48.38000 4.090
48.39000 5.205
48.40000 2.065
48.41000 4.035
48.42000 4.155
48.43000 5.031
48.44000 12.148
48.45000 6.064
48.46000 10.024
48.47000 5.056
48.48000 8.117
48.49000 8.065
48.50000 3.992
48.51000 5.026
48.52000 6.077
48.53000 8.133
48.54000 7.148
48.55000 4.090
48.56000 3.003
48.57000 5.042
48.58000 6.029
48.59000 5.019
48.60000 2.077
48.61000 3.973
48.62000 4.981
48.63000 2.975
48.64000 6.059
48.65000 2.021
48.66000 6.112
48.67000 2.056
48.68000 2.071
48.69000 5.109
48.70000 7.001
48.71000 4.068
48.72000 4.998
48.73000 5.027
48.74000 5.095
48.75000 5.103
48.76000 2.041
48.77000 2.025
48.78000 6.192
48.79000 3.028
48.80000 6.142
48.81000 8.112
48.82000 1.045
48.83000 6.105
48.84000 1.062
48.85000 7.067
48.86000 5.095
48.87000 7.063
48.88000 3.047
48.89000 4.064
48.90000 2.021
48.91000 5.063
48.92000 3.016
48.93000 12.242
48.94000 5.038
48.95000 7.082
48.96000 4.033
48.97000 6.009
48.98000 6.130
48.99000 5.016
49.00000 2.004
49.01000 3.057
49.02000 2.093
49.03000 5.049
49.04000 6.094
49.05000 3.063
49.06000 5.165
49.07000 1.986
49.08000 7.137
49.09000 8.088
49.10000 6.037
49.11000 5.092
49.12000 7.153
49.13000 9.172
49.14000 10.132
49.15000 4.208
49.16000 4.062
49.17000 8.198
49.18000 3.059
49.19000 4.013
49.20000 10.191
49.21000 3.035
49.22000 5.137
49.23000 2.997
49.24000 5.114
49.25000 2.026
49.26000 4.117
49.27000 7.111
49.28000 12.267
49.29000 4.017
49.30000 2.012
49.31000 7.197
49.32000 7.087
49.33000 6.088
49.34000 3.017
49.35000 11.187
49.36000 4.053
49.37000 9.126
49.38000 9.123
49.39000 4.109
49.40000 5.152
49.41000 3.039
49.42000 5.085
49.43000 5.149
49.44000 3.070
49.45000 7.092
49.46000 7.169
49.47000 10.045
49.48000 8.090
49.49000 3.091
49.50000 6.104
49.51000 5.146
49.52000 8.108
49.53000 5.129
49.54000 6.087
49.55000 5.040
49.56000 9.147
49.57000 6.053
49.58000 3.031
49.59000 2.087
49.60000 3.043
49.61000 9.061
49.62000 7.046
49.63000 9.008
49.64000 8.097
49.65000 5.095
49.66000 8.047
49.67000 7.151
49.68000 6.084
49.69000 6.052
49.70000 6.128
49.71000 5.003
49.72000 6.041
49.73000 7.083
49.74000 11.053
49.75000 1.994
49.76000 7.058
49.77000 5.966
49.78000 8.015
49.79000 0.995
49.80000 3.995
49.81000 9.154
49.82000 7.088
49.83000 6.038
49.84000 14.195
49.85000 0.000
49.86000 5.040
49.87000 8.089
49.88000 8.097
49.89000 8.049
49.90000 6.127
49.91000 11.167
49.92000 4.047
49.93000 4.111
49.94000 4.079
49.95000 4.089
49.96000 5.034
49.97000 0.000
49.98000 8.031
49.99000 4.068
50.00000 7.994
50.01000 6.085
50.02000 3.071
50.03000 5.058
50.04000 7.129
50.05000 6.037
50.06000 3.042
50.07000 3.065
50.08000 3.048
50.09000 4.099
50.10000 7.270
50.11000 3.969
50.12000 4.106
50.13000 8.114
50.14000 4.046
50.15000 6.118
50.16000 9.082
50.17000 6.089
50.18000 4.029
50.19000 4.112
50.20000 6.098
50.21000 10.157
50.22000 8.179
50.23000 5.086
50.24000 7.089
50.25000 8.082
50.26000 5.029
50.27000 4.064
50.28000 8.276
50.29000 4.972
50.30000 6.019
50.31000 2.009
50.32000 3.923
50.33000 7.175
50.34000 3.051
50.35000 2.966
50.36000 8.212
50.37000 6.025
50.38000 12.217
50.39000 5.052
50.40000 7.123
50.41000 6.001
50.42000 7.229
50.43000 9.144
50.44000 5.090
50.45000 3.030
50.46000 3.045
50.47000 9.004
50.48000 6.155
50.49000 6.094
50.50000 2.020
50.51000 1.988
50.52000 7.084
50.53000 4.072
50.54000 6.228
50.55000 5.170
50.56000 4.121
50.57000 8.016
50.58000 6.146
50.59000 3.022
50.60000 4.070
50.61000 1.048
50.62000 0.979
50.63000 5.080
50.64000 6.136
50.65000 5.076
50.66000 7.112
50.67000 4.042
50.68000 4.157
50.69000 9.145
50.70000 2.986
50.71000 7.036
50.72000 3.018
50.73000 5.065
50.74000 4.033
50.75000 9.116
50.76000 3.022
50.77000 5.007
50.78000 0.977
50.79000 4.038
50.80000 5.070
50.81000 7.089
50.82000 7.186
50.83000 3.125
50.84000 8.066
50.85000 4.043
50.86000 5.067
50.87000 4.095
50.88000 6.072
50.89000 6.034
50.90000 6.082
50.91000 7.080
50.92000 8.067
50.93000 4.077
50.94000 9.092
50.95000 6.123
50.96000 7.100
50.97000 4.029
50.98000 4.106
50.99000 2.067
51.00000 7.167
51.01000 5.103
51.02000 6.021
51.03000 5.089
51.04000 5.068
51.05000 7.072
51.06000 7.051
51.07000 8.048
51.08000 3.008
51.09000 4.018
51.10000 5.996
51.11000 10.078
51.12000 8.102
51.13000 5.072
51.14000 6.104
51.15000 14.204
51.16000 5.048
51.17000 8.084
51.18000 5.136
51.19000 2.023
51.20000 11.322
51.21000 3.006
51.22000 6.111
51.23000 6.132
51.24000 6.184
51.25000 2.012
51.26000 8.006
51.27000 1.981
51.28000 5.079
51.29000 5.115
51.30000 6.189
51.31000 9.143
51.32000 6.118
51.33000 7.152
51.34000 5.955
51.35000 9.086
51.36000 7.123
51.37000 4.108
51.38000 5.012
51.39000 8.169
51.40000 6.089
51.41000 3.111
51.42000 7.105
51.43000 6.114
51.44000 7.030
51.45000 8.210
51.46000 9.156
51.47000 4.062
51.48000 4.112
51.49000 5.066
51.50000 8.080
51.51000 6.035
51.52000 5.154
51.53000 2.048
51.54000 7.081
51.55000 6.142
51.56000 3.052
51.57000 1.999
51.58000 3.086
51.59000 13.186
51.60000 6.084
51.61000 7.019
51.62000 8.225
51.63000 7.058
51.64000 5.027
51.65000 3.018
51.66000 3.000
51.67000 5.073
51.68000 4.141
51.69000 4.106
51.70000 2.037
51.71000 6.041
51.72000 4.127
51.73000 7.113
51.74000 2.043
51.75000 5.098
51.76000 4.028
51.77000 8.162
51.78000 6.124
51.79000 8.000
51.80000 6.074
51.81000 6.112
51.82000 7.006
51.83000 5.079
51.84000 5.005
51.85000 5.088
51.86000 7.068
51.87000 4.007
51.88000 8.285
51.89000 6.113
51.90000 10.116
51.91000 2.981
51.92000 9.121
51.93000 7.037
51.94000 5.045
51.95000 8.152
51.96000 5.042
51.97000 5.146
51.98000 3.976
51.99000 8.161
52.00000 4.092
52.01000 6.142
52.02000 6.166
52.03000 4.181
52.04000 4.007
52.05000 2.034
52.06000 6.165
52.07000 8.133
52.08000 6.064
52.09000 6.195
52.10000 5.097
52.11000 3.046
52.12000 4.104
52.13000 2.012
52.14000 7.103
52.15000 6.014
52.16000 4.070
52.17000 6.086
52.18000 6.048
52.19000 3.043
52.20000 11.166
52.21000 6.075
52.22000 5.993
52.23000 6.001
52.24000 6.023
52.25000 5.079
52.26000 10.095
52.27000 2.004
52.28000 11.213
52.29000 5.056
52.30000 3.012
52.31000 8.189
52.32000 2.986
52.33000 7.194
52.34000 9.143
52.35000 5.049
52.36000 6.064
52.37000 6.084
52.38000 3.060
52.39000 9.011
52.40000 2.074
52.41000 3.979
52.42000 6.127
52.43000 7.027
52.44000 4.028
52.45000 2.973
52.46000 3.029
52.47000 6.127
52.48000 3.100
52.49000 3.018
52.50000 5.095
52.51000 3.057
52.52000 8.139
52.53000 7.085
52.54000 7.158
52.55000 7.118
52.56000 6.098
52.57000 3.015
52.58000 8.003
52.59000 2.020
52.60000 4.037
52.61000 10.101
52.62000 1.980
52.63000 6.102
52.64000 10.089
52.65000 2.045
52.66000 6.094
52.67000 5.056
52.68000 4.992
52.69000 5.119
52.70000 4.063
52.71000 5.999
52.72000 8.189
52.73000 4.036
52.74000 5.044
52.75000 4.011
52.76000 6.954
52.77000 6.025
52.78000 6.053
52.79000 4.011
52.80000 9.006
52.81000 9.040
52.82000 2.000
52.83000 3.072
52.84000 3.038
52.85000 4.999
52.86000 12.086
52.87000 3.041
52.88000 2.021
52.89000 4.046
52.90000 3.030
52.91000 5.020
52.92000 1.013
52.93000 4.143
52.94000 3.087
52.95000 6.008
52.96000 8.250
52.97000 2.019
52.98000 8.218
52.99000 4.203
53.00000 6.945
53.01000 9.132
53.02000 7.089
53.03000 5.106
53.04000 2.027
53.05000 3.006
53.06000 7.157
53.07000 3.971
53.08000 5.118
53.09000 4.037
53.10000 6.016
53.11000 1.978
53.12000 3.151
53.13000 7.127
53.14000 7.000
53.15000 6.069
53.16000 6.209
53.17000 4.961
53.18000 12.109
53.19000 7.000
53.20000 3.155
53.21000 3.941
53.22000 10.105
53.23000 3.066
53.24000 3.064
53.25000 4.071
53.26000 8.204
53.27000 4.085
53.28000 8.089
53.29000 0.000
53.30000 9.008
53.31000 2.051
53.32000 3.971
53.33000 6.050
53.34000 6.036
53.35000 4.030
53.36000 5.022
53.37000 1.021
53.38000 3.031
53.39000 3.982
53.40000 3.070
53.41000 8.118
53.42000 3.061
53.43000 2.008
53.44000 9.144
53.45000 3.068
53.46000 4.092
53.47000 4.069
53.48000 6.165
53.49000 3.143
53.50000 8.078
53.51000 8.987
53.52000 5.069
53.53000 1.954
53.54000 2.055
53.55000 7.084
53.56000 4.957
53.57000 8.046
53.58000 7.040
53.59000 4.030
53.60000 6.146
53.61000 6.227
53.62000 6.062
53.63000 5.083
53.64000 9.028
53.65000 6.093
53.66000 4.032
53.67000 6.039
53.68000 5.137
53.69000 8.177
53.70000 4.186
53.71000 4.081
53.72000 3.005
53.73000 6.111
53.74000 5.078
53.75000 4.217
53.76000 3.030
53.77000 8.151
53.78000 6.152
53.79000 4.035
53.80000 4.084
53.81000 7.125
53.82000 3.000
53.83000 9.076
53.84000 5.996
53.85000 6.057
53.86000 7.133
53.87000 5.032
53.88000 7.020
53.89000 6.243
53.90000 2.992
53.91000 5.004
53.92000 5.033
53.93000 3.058
53.94000 8.259
53.95000 5.019
53.96000 6.058
53.97000 5.025
53.98000 8.133
53.99000 4.082
54.00000 7.201
54.01000 3.954
54.02000 3.053
54.03000 5.041
54.04000 4.173
54.05000 4.143
54.06000 4.017
54.07000 6.096
54.08000 5.042
54.09000 8.090
54.10000 6.125
54.11000 2.053
54.12000 3.040
54.13000 5.073
54.14000 5.121
54.15000 3.067
54.16000 8.160
54.17000 4.067
54.18000 7.088
54.19000 4.070
54.20000 4.070
54.21000 2.034
54.22000 7.118
54.23000 3.965
54.24000 7.077
54.25000 9.148
54.26000 9.080
54.27000 4.086
54.28000 5.032
54.29000 6.110
54.30000 1.051
54.31000 4.039
54.32000 3.002
54.33000 0.998
54.34000 5.086
54.35000 4.069
54.36000 6.010
54.37000 4.105
54.38000 3.947
54.39000 9.067
54.40000 5.017
54.41000 3.055
54.42000 2.019
54.43000 5.054
54.44000 7.995
54.45000 6.115
54.46000 6.113
54.47000 4.106
54.48000 1.048
54.49000 5.111
54.50000 7.138
54.51000 5.048
54.52000 6.186
54.53000 5.025
54.54000 4.110
54.55000 6.029
54.56000 4.998
54.57000 3.009
54.58000 7.102
54.59000 3.959
54.60000 7.062
54.61000 5.093
54.62000 5.044
54.63000 6.031
54.64000 6.069
54.65000 3.088
54.66000 4.028
54.67000 4.072
54.68000 3.085
54.69000 7.241
54.70000 1.991
54.71000 3.004
54.72000 7.037
54.73000 3.110
54.74000 0.000
54.75000 2.970
54.76000 9.121
54.77000 3.030
54.78000 7.167
54.79000 3.038
54.80000 4.040
54.81000 3.019
54.82000 2.024
54.83000 7.121
54.84000 2.114
54.85000 4.097
54.86000 6.098
54.87000 4.121
54.88000 4.019
54.89000 4.058
54.90000 10.017
54.91000 2.012
54.92000 5.084
54.93000 2.002
54.94000 5.148
54.95000 4.018
54.96000 4.077
54.97000 5.088
54.98000 7.148
54.99000 3.026
55.00000 3.048
55.01000 6.991
55.02000 4.991
55.03000 10.230
55.04000 4.097
55.05000 1.007
55.06000 5.195
55.07000 5.965
55.08000 4.059
55.09000 4.991
55.10000 1.017
55.11000 8.110
55.12000 7.082
55.13000 5.085
55.14000 4.028
55.15000 2.998
55.16000 4.139
55.17000 3.044
55.18000 5.006
55.19000 5.993
55.20000 6.007
55.21000 15.058
55.22000 4.034
55.23000 7.990
55.24000 10.179
55.25000 6.059
55.26000 4.108
55.27000 4.085
55.28000 3.975
55.29000 5.139
55.30000 4.070
55.31000 1.025
55.32000 8.148
55.33000 6.175
55.34000 3.035
55.35000 4.104
55.36000 4.026
55.37000 5.019
55.38000 0.000
55.39000 5.133
55.40000 1.995
55.41000 5.131
55.42000 4.095
55.43000 6.106
55.44000 6.099
55.45000 6.047
55.46000 3.086
55.47000 5.164
55.48000 4.138
55.49000 6.178
55.50000 2.017
55.51000 3.019
55.52000 5.202
55.53000 8.050
55.54000 5.109
55.55000 8.178
55.56000 4.021
55.57000 6.166
55.58000 5.012
55.59000 5.030
55.60000 7.055
55.61000 6.173
55.62000 3.031
55.63000 0.998
55.64000 6.144
55.65000 4.073
55.66000 2.006
55.67000 1.061
55.68000 2.024
55.69000 6.062
55.70000 4.044
55.71000 4.027
55.72000 3.010
55.73000 3.061
55.74000 2.012
55.75000 3.976
55.76000 4.022
55.77000 6.045
55.78000 1.000
55.79000 4.036
55.80000 8.056
55.81000 3.940
55.82000 4.081
55.83000 4.025
55.84000 5.146
55.85000 7.048
55.86000 4.032
55.87000 3.092
55.88000 4.098
55.89000 4.110
55.90000 7.108
55.91000 8.151
55.92000 3.074
55.93000 1.006
55.94000 3.038
55.95000 5.025
55.96000 6.119
55.97000 4.032
55.98000 4.077
55.99000 6.042
56.00000 2.016
56.01000 2.068
56.02000 1.972
56.03000 3.079
56.04000 2.035
56.05000 2.991
56.06000 5.056
56.07000 4.014
56.08000 8.998
56.09000 5.040
56.10000 3.021
56.11000 3.040
56.12000 7.145
56.13000 4.087
56.14000 2.021
56.15000 5.034
56.16000 9.079
56.17000 7.082
56.18000 6.038
56.19000 3.047
56.20000 4.010
56.21000 4.028
56.22000 8.073
56.23000 1.021
56.24000 5.029
56.25000 4.071
56.26000 3.046
56.27000 2.091
56.28000 4.097
56.29000 4.009
56.30000 5.039
56.31000 4.031
56.32000 4.072
56.33000 6.031
56.34000 2.013
56.35000 5.002
56.36000 5.022
56.37000 4.039
56.38000 5.082
56.39000 3.012
56.40000 11.050
56.41000 6.061
56.42000 3.057
56.43000 11.019
56.44000 3.084
56.45000 3.122
56.46000 2.036
56.47000 4.009
56.48000 5.126
56.49000 5.947
56.50000 3.064
56.51000 4.051
56.52000 2.005
56.53000 11.218
56.54000 4.054
56.55000 1.995
56.56000 4.074
56.57000 5.128
56.58000 5.256
56.59000 3.075
56.60000 5.041
56.61000 6.052
56.62000 4.070
56.63000 2.060
56.64000 3.045
56.65000 3.073
56.66000 4.023
56.67000 6.051
56.68000 4.032
56.69000 7.130
56.70000 4.073
56.71000 7.063
56.72000 3.004
56.73000 5.030
56.74000 2.034
56.75000 9.182
56.76000 8.149
56.77000 6.077
56.78000 5.153
56.79000 8.038
56.80000 1.011
56.81000 2.000
56.82000 5.049
56.83000 3.955
56.84000 6.084
56.85000 8.111
56.86000 3.041
56.87000 2.993
56.88000 4.121
56.89000 4.106
56.90000 9.046
56.91000 6.065
56.92000 4.026
56.93000 2.042
56.94000 5.995
56.95000 4.029
56.96000 2.045
56.97000 7.172
56.98000 8.172
56.99000 5.016
57.00000 3.001
57.01000 3.044
57.02000 5.040
57.03000 4.129
57.04000 2.974
57.05000 4.052
57.06000 5.013
57.07000 1.041
57.08000 2.094
57.09000 7.057
57.10000 4.015
57.11000 5.053
57.12000 3.991
57.13000 5.097
57.14000 4.001
57.15000 7.085
57.16000 2.054
57.17000 0.000
57.18000 1.998
57.19000 4.149
57.20000 4.972
57.21000 4.041
57.22000 3.052
57.23000 3.070
57.24000 1.996
57.25000 3.025
57.26000 5.109
57.27000 5.081
57.28000 5.098
57.29000 6.032
57.30000 6.092
57.31000 5.069
57.32000 14.318
57.33000 4.012
57.34000 5.085
57.35000 6.075
57.36000 5.089
57.37000 2.060
57.38000 11.116
57.39000 6.095
57.40000 6.029
57.41000 5.155
57.42000 6.071
57.43000 5.057
57.44000 3.017
57.45000 3.074
57.46000 6.951
57.47000 3.002
57.48000 6.099
57.49000 5.089
57.50000 6.055
57.51000 5.059
57.52000 5.010
57.53000 0.000
57.54000 7.125
57.55000 7.086
57.56000 3.105
57.57000 1.961
57.58000 5.038
57.59000 4.021
57.60000 5.998
57.61000 4.235
57.62000 4.997
57.63000 1.989
57.64000 4.073
57.65000 5.020
57.66000 2.097
57.67000 5.057
57.68000 4.998
57.69000 2.009
57.70000 6.062
57.71000 7.070
57.72000 4.011
57.73000 4.115
57.74000 4.021
57.75000 4.044
57.76000 8.215
57.77000 1.017
57.78000 7.048
57.79000 3.054
57.80000 3.959
57.81000 8.135
57.82000 4.063
57.83000 3.031
57.84000 3.119
57.85000 6.973
57.86000 7.081
57.87000 4.109
57.88000 7.166
57.89000 2.002
57.90000 5.128
57.91000 4.074
57.92000 8.137
57.93000 4.005
57.94000 1.025
57.95000 3.049
57.96000 1.994
57.97000 7.091
57.98000 3.026
57.99000 3.046
58.00000 3.086
58.01000 3.019
58.02000 6.087
58.03000 4.086
58.04000 2.021
58.05000 1.005
58.06000 11.374
58.07000 5.037
58.08000 4.103
58.09000 4.052
58.10000 2.073
58.11000 3.116
58.12000 3.071
58.13000 5.117
58.14000 4.023
58.15000 3.109
58.16000 3.103
58.17000 6.173
58.18000 1.057
58.19000 0.998
58.20000 7.065
58.21000 5.997
58.22000 7.093
58.23000 11.128
58.24000 0.997
58.25000 1.990
58.26000 8.020
58.27000 2.987
58.28000 4.029
58.29000 3.049
58.30000 5.064
58.31000 3.070
58.32000 2.034
58.33000 4.041
58.34000 5.087
58.35000 4.018
58.36000 5.073
58.37000 4.110
58.38000 5.102
58.39000 4.099
58.40000 2.075
58.41000 3.025
58.42000 6.054
58.43000 5.035
58.44000 4.067
58.45000 6.100
58.46000 2.016
58.47000 3.936
58.48000 3.017
58.49000 4.120
58.50000 3.043
58.51000 3.029
58.52000 1.997
58.53000 4.096
58.54000 0.996
58.55000 3.159
58.56000 4.020
58.57000 3.047
58.58000 4.032
58.59000 0.000
58.60000 6.027
58.61000 3.034
58.62000 8.119
58.63000 1.036
58.64000 3.109
58.65000 2.037
58.66000 1.002
58.67000 7.156
58.68000 0.000
58.69000 3.043
58.70000 1.997
58.71000 4.074
58.72000 3.054
58.73000 3.075
58.74000 6.051
58.75000 4.087
58.76000 4.019
58.77000 4.003
58.78000 4.114
58.79000 7.095
58.80000 2.050
58.81000 3.032
58.82000 1.014
58.83000 4.083
58.84000 4.073
58.85000 3.032
58.86000 2.996
58.87000 6.015
58.88000 5.079
58.89000 5.167
58.90000 6.096
58.91000 5.100
58.92000 3.058
58.93000 3.134
58.94000 1.036
58.95000 8.013
58.96000 4.090
58.97000 3.082
58.98000 5.021
58.99000 2.004
59.00000 0.990
59.01000 1.968
59.02000 6.069
59.03000 5.136
59.04000 2.037
59.05000 5.050
59.06000 6.073
59.07000 5.116
59.08000 4.033
59.09000 6.116
59.10000 3.064
59.11000 1.967
59.12000 7.025
59.13000 8.057
59.14000 5.131
59.15000 2.054
59.16000 3.009
59.17000 5.066
59.18000 7.063
59.19000 0.000
59.20000 5.092
59.21000 3.056
59.22000 6.093
59.23000 6.118
59.24000 2.031
59.25000 3.999
59.26000 2.975
59.27000 2.017
59.28000 10.161
59.29000 7.097
59.30000 5.179
59.31000 3.000
59.32000 3.045
59.33000 5.060
59.34000 5.998
59.35000 3.031
59.36000 4.012
59.37000 6.155
59.38000 1.018
59.39000 4.105
59.40000 5.034
59.41000 6.093
59.42000 5.056
59.43000 4.097
59.44000 2.022
59.45000 3.019
59.46000 4.007
59.47000 4.116
59.48000 7.106
59.49000 4.086
59.50000 1.987
59.51000 5.031
59.52000 1.012
59.53000 0.980
59.54000 4.999
59.55000 2.008
59.56000 5.057
59.57000 1.988
59.58000 3.004
59.59000 5.078
59.60000 3.083
59.61000 2.988
59.62000 2.021
59.63000 2.056
59.64000 5.102
59.65000 4.062
59.66000 3.995
59.67000 4.105
59.68000 4.115
59.69000 7.102
59.70000 2.999
59.71000 6.094
59.72000 2.039
59.73000 3.012
59.74000 7.079
59.75000 4.041
59.76000 2.041
59.77000 2.065
59.78000 3.050
59.79000 1.025
59.80000 5.101
59.81000 2.019
59.82000 3.117
59.83000 3.061
59.84000 4.000
59.85000 5.041
59.86000 4.090
59.87000 5.081
59.88000 4.029
59.89000 13.180
59.90000 4.039
59.91000 5.057
59.92000 4.019
59.93000 4.001
59.94000 2.026
59.95000 7.047
59.96000 3.050
59.97000 1.031
59.98000 6.079
59.99000 7.111
60.00000 4.029
60.01000 5.164
60.02000 4.028
60.03000 1.020
60.04000 0.969
60.05000 5.002
60.06000 6.028
60.07000 7.138
60.08000 5.007
60.09000 3.026
60.10000 2.027
60.11000 5.131
60.12000 0.992
60.13000 2.003
60.14000 4.092
60.15000 2.032
60.16000 1.002
60.17000 4.025
60.18000 5.055
60.19000 5.123
60.20000 3.940
60.21000 0.000
60.22000 1.048
60.23000 1.972
60.24000 3.022
60.25000 3.052
60.26000 3.049
60.27000 1.007
60.28000 4.988
60.29000 4.946
60.30000 4.009
60.31000 5.974
60.32000 4.192
60.33000 4.031
60.34000 2.087
60.35000 7.081
60.36000 8.069
60.37000 1.036
60.38000 1.004
60.39000 3.060
60.40000 0.999
60.41000 6.203
60.42000 4.047
60.43000 3.021
60.44000 0.972
60.45000 2.039
60.46000 2.014
60.47000 3.072
60.48000 0.000
60.49000 2.987
60.50000 4.012
60.51000 6.016
60.52000 4.084
60.53000 2.996
60.54000 2.012
60.55000 2.998
60.56000 2.014
60.57000 1.990
60.58000 7.175
60.59000 5.046
60.60000 3.062
60.61000 3.063
60.62000 0.000
60.63000 6.036
60.64000 6.105
60.65000 4.007
60.66000 4.091
60.67000 3.085
60.68000 5.004
60.69000 11.132
60.70000 5.149
60.71000 3.040
60.72000 3.011
60.73000 5.177
60.74000 5.055
60.75000 0.999
60.76000 3.008
60.77000 4.063
60.78000 7.067
60.79000 1.001
60.80000 2.012
60.81000 7.098
60.82000 3.046
60.83000 4.003
60.84000 1.011
60.85000 4.098
60.86000 5.097
60.87000 3.984
60.88000 4.050
60.89000 2.106
60.90000 5.086
60.91000 6.018
60.92000 2.023
60.93000 3.026
60.94000 5.076
60.95000 0.994
60.96000 4.099
60.97000 5.080
60.98000 2.092
60.99000 2.017
61.00000 1.007
61.01000 6.105
61.02000 3.033
61.03000 2.967
61.04000 5.080
61.05000 3.032
61.06000 3.039
61.07000 1.041
61.08000 5.131
61.09000 2.001
61.10000 2.020
61.11000 0.000
61.12000 4.069
61.13000 2.035
61.14000 6.103
61.15000 4.003
61.16000 5.164
61.17000 4.090
61.18000 7.040
61.19000 5.140
61.20000 4.009
61.21000 6.066
61.22000 5.002
61.23000 8.066
61.24000 2.044
61.25000 4.074
61.26000 6.174
61.27000 5.056
61.28000 2.076
61.29000 4.062
61.30000 5.139
61.31000 5.118
61.32000 1.073
61.33000 3.091
61.34000 1.042
61.35000 3.026
61.36000 5.130
61.37000 2.055
61.38000 3.067
61.39000 4.052
61.40000 6.049
61.41000 4.038
61.42000 7.032
61.43000 3.942
61.44000 0.000
61.45000 4.043
61.46000 6.006
61.47000 4.140
61.48000 5.075
61.49000 2.074
61.50000 1.032
61.51000 5.034
61.52000 5.150
61.53000 1.031
61.54000 5.109
61.55000 2.061
61.56000 4.039
61.57000 6.028
61.58000 3.057
61.59000 5.076
61.60000 1.016
61.61000 2.016
61.62000 4.024
61.63000 1.021
61.64000 3.108
61.65000 5.064
61.66000 3.105
61.67000 1.020
61.68000 5.090
61.69000 3.012
61.70000 2.971
61.71000 0.999
61.72000 3.072
61.73000 0.000
61.74000 2.018
61.75000 6.020
61.76000 4.985
61.77000 1.020
61.78000 7.152
61.79000 3.023
61.80000 4.037
61.81000 2.026
61.82000 5.084
61.83000 1.006
61.84000 4.012
61.85000 2.007
61.86000 5.028
61.87000 2.049
61.88000 2.999
61.89000 4.048
61.90000 0.000
61.91000 2.074
61.92000 5.072
61.93000 3.000
61.94000 3.006
61.95000 4.011
61.96000 3.025
61.97000 4.090
61.98000 2.048
61.99000 6.125
62.00000 4.061
62.01000 2.004
62.02000 4.047
62.03000 5.059
62.04000 7.201
62.05000 3.065
62.06000 1.996
62.07000 8.264
62.08000 4.162
62.09000 1.981
62.10000 2.990
62.11000 4.069
62.12000 4.083
62.13000 3.024
62.14000 7.015
62.15000 5.086
62.16000 2.039
62.17000 4.997
62.18000 5.106
62.19000 1.040
62.20000 3.030
62.21000 6.076
62.22000 6.142
62.23000 4.096
62.24000 5.047
62.25000 4.000
62.26000 3.006
62.27000 10.194
62.28000 4.004
62.29000 2.986
62.30000 1.003
62.31000 5.090
62.32000 4.134
62.33000 3.071
62.34000 3.011
62.35000 2.045
62.36000 4.111
62.37000 4.060
62.38000 2.049
62.39000 2.005
62.40000 5.094
62.41000 7.018
62.42000 3.039
62.43000 2.057
62.44000 2.077
62.45000 1.029
62.46000 5.144
62.47000 5.035
62.48000 4.035
62.49000 6.030
62.50000 5.044
62.51000 5.106
62.52000 3.049
62.53000 2.103
62.54000 4.046
62.55000 5.223
62.56000 2.993
62.57000 3.145
62.58000 4.070
62.59000 1.019
62.60000 6.092
62.61000 6.127
62.62000 4.156
62.63000 3.005
62.64000 1.016
62.65000 2.040
62.66000 4.993
62.67000 2.025
62.68000 4.099
62.69000 3.018
62.70000 7.051
62.71000 3.074
62.72000 0.999
62.73000 4.063
62.74000 5.116
62.75000 2.030
62.76000 8.301
62.77000 5.021
62.78000 6.102
62.79000 1.991
62.80000 2.094
62.81000 6.057
62.82000 6.161
62.83000 3.096
62.84000 6.014
62.85000 0.000
62.86000 6.159
62.87000 1.027
62.88000 4.072
62.89000 0.000
62.90000 7.083
62.91000 4.037
62.92000 2.047
62.93000 2.974
62.94000 2.108
62.95000 1.988
62.96000 3.010
62.97000 2.093
62.98000 2.026
62.99000 5.041
63.00000 2.084
63.01000 4.113
63.02000 2.953
63.03000 5.078
63.04000 4.020
63.05000 1.047
63.06000 2.056
63.07000 2.040
63.08000 5.050
63.09000 3.010
63.10000 3.933
63.11000 4.014
63.12000 6.074
63.13000 5.055
63.14000 2.027
63.15000 2.051
63.16000 5.132
63.17000 4.001
63.18000 3.036
63.19000 4.060
63.20000 3.028
63.21000 4.979
63.22000 1.003
63.23000 2.058
63.24000 7.034
63.25000 2.079
63.26000 1.977
63.27000 4.994
63.28000 7.059
63.29000 5.127
63.30000 7.214
63.31000 5.007
63.32000 5.078
63.33000 2.053
63.34000 8.136
63.35000 5.081
63.36000 2.013
63.37000 7.090
63.38000 5.019
63.39000 4.981
63.40000 1.019
63.41000 3.076
63.42000 3.050
63.43000 0.000
63.44000 3.086
63.45000 3.070
63.46000 2.045
63.47000 1.000
63.48000 0.999
63.49000 5.986
63.50000 1.049
63.51000 5.158
63.52000 4.119
63.53000 2.984
63.54000 4.075
63.55000 0.000
63.56000 6.125
63.57000 5.005
63.58000 0.985
63.59000 2.014
63.60000 5.048
63.61000 2.015
63.62000 1.993
63.63000 8.052
63.64000 7.161
63.65000 3.012
63.66000 5.122
63.67000 5.063
63.68000 5.011
63.69000 2.040
63.70000 2.007
63.71000 7.077
63.72000 6.135
63.73000 4.147
63.74000 1.961
63.75000 2.035
63.76000 4.047
63.77000 0.996
63.78000 3.969
63.79000 4.061
63.80000 3.003
63.81000 3.063
63.82000 3.989
63.83000 3.997
63.84000 4.122
63.85000 4.994
63.86000 3.001
63.87000 10.117
63.88000 3.031
63.89000 3.091
63.90000 8.051
63.91000 3.007
63.92000 2.041
63.93000 3.021
63.94000 1.990
63.95000 6.072
63.96000 3.066
63.97000 2.026
63.98000 1.044
63.99000 5.105
64.00000 6.025
64.01000 5.022
64.02000 4.172
64.03000 1.011
64.04000 7.106
64.05000 4.014
64.06000 3.076
64.07000 3.051
64.08000 3.030
64.09000 6.173
64.10000 4.016
64.11000 2.043
64.12000 1.000
64.13000 2.048
64.14000 1.012
64.15000 1.017
64.16000 5.073
64.17000 2.049
64.18000 8.159
64.19000 0.998
64.20000 2.038
64.21000 3.035
64.22000 5.084
64.23000 4.097
64.24000 2.994
64.25000 3.028
64.26000 1.003
64.27000 6.083
64.28000 8.182
64.29000 3.067
64.30000 3.128
64.31000 3.075
64.32000 0.000
64.33000 0.000
64.34000 7.129
64.35000 1.023
64.36000 7.123
64.37000 4.129
64.38000 6.066
64.39000 2.036
64.40000 4.044
64.41000 7.114
64.42000 3.043
64.43000 4.009
64.44000 0.000
64.45000 6.209
64.46000 2.069
64.47000 3.015
64.48000 2.086
64.49000 5.058
64.50000 2.966
64.51000 5.071
64.52000 3.055
64.53000 5.015
64.54000 1.061
64.55000 3.954
64.56000 3.057
64.57000 3.126
64.58000 3.029
64.59000 2.977
64.60000 5.019
64.61000 1.977
64.62000 1.999
64.63000 2.031
64.64000 2.023
64.65000 5.063
64.66000 10.165
64.67000 5.075
64.68000 7.087
64.69000 0.000
64.70000 6.066
64.71000 3.066
64.72000 3.015
64.73000 1.040
64.74000 0.000
64.75000 4.982
64.76000 6.223
64.77000 5.086
64.78000 6.127
64.79000 2.055
64.80000 3.142
64.81000 6.078
64.82000 5.093
64.83000 5.017
64.84000 4.031
64.85000 1.036
64.86000 3.072
64.87000 6.009
64.88000 2.028
64.89000 2.032
64.90000 2.060
64.91000 2.042
64.92000 1.031
64.93000 3.048
64.94000 5.123
64.95000 4.994
64.96000 2.972
64.97000 4.114
64.98000 6.023
64.99000 2.057
65.00000 6.131
