20.00000 156.334
20.01000 157.175
20.02000 168.298
20.03000 153.538
20.04000 160.293
20.05000 164.540
20.06000 162.199
20.07000 146.580
20.08000 157.111
20.09000 153.828
20.10000 145.380
20.11000 163.508
20.12000 142.589
20.13000 154.628
20.14000 133.802
20.15000 142.416
20.16000 139.753
20.17000 151.180
20.18000 150.430
20.19000 170.788
20.20000 141.290
20.21000 160.825
20.22000 164.556
20.23000 149.622
20.24000 169.766
20.25000 141.546
20.26000 133.598
20.27000 143.673
20.28000 156.451
20.29000 157.464
20.30000 150.654
20.31000 166.855
20.32000 145.355
20.33000 148.693
20.34000 133.836
20.35000 145.138
20.36000 129.374
20.37000 143.130
20.38000 160.553
20.39000 135.696
20.40000 132.273
20.41000 143.079
20.42000 155.643
20.43000 126.967
20.44000 152.440
20.45000 149.908
20.46000 137.867
20.47000 148.158
20.48000 152.282
20.49000 117.133
20.50000 146.239
20.51000 156.517
20.52000 131.031
20.53000 155.796
20.54000 137.362
20.55000 133.336
20.56000 160.202
20.57000 123.479
20.58000 145.040
20.59000 116.848
20.60000 116.914
20.61000 142.120
20.62000 112.873
20.63000 135.362
20.64000 140.250
20.65000 133.684
20.66000 128.506
20.67000 117.262
20.68000 119.088
20.69000 124.344
20.70000 124.207
20.71000 124.205
20.72000 131.323
20.73000 128.149
20.74000 116.194
20.75000 149.750
20.76000 112.950
20.77000 145.698
20.78000 118.114
20.79000 129.635
20.80000 140.111
20.81000 106.908
20.82000 124.861
20.83000 118.935
20.84000 140.117
20.85000 130.070
20.86000 111.533
20.87000 105.176
20.88000 126.143
20.89000 132.546
20.90000 116.229
20.91000 107.922
20.92000 111.086
20.93000 99.810
20.94000 131.495
20.95000 120.796
20.96000 125.108
20.97000 121.260
20.98000 123.815
20.99000 109.706
21.00000 115.154
21.01000 114.823
21.02000 127.896
21.03000 109.999
21.04000 110.815
21.05000 115.105
21.06000 105.240
21.07000 110.549
21.08000 115.268
21.09000 100.961
21.10000 116.018
21.11000 109.779
21.12000 122.147
21.13000 110.808
21.14000 121.969
21.15000 125.049
21.16000 111.097
21.17000 89.748
21.18000 98.208
21.19000 101.341
21.20000 121.945
21.21000 103.998
21.22000 101.107
21.23000 108.064
21.24000 99.311
21.25000 117.999
21.26000 97.705
21.27000 101.757
21.28000 104.206
21.29000 110.557
21.30000 109.988
21.31000 108.159
21.32000 96.611
21.33000 106.950
21.34000 100.085
21.35000 103.086
21.36000 105.372
21.37000 81.850
21.38000 102.749
21.39000 104.045
21.40000 96.868
21.41000 93.777
21.42000 99.479
21.43000 100.565
21.44000 101.989
21.45000 97.168
21.46000 94.867
21.47000 89.599
21.48000 111.168
21.49000 90.962
21.50000 98.038
21.51000 100.196
21.52000 102.404
21.53000 87.757
21.54000 69.895
21.55000 83.040
21.56000 105.991
21.57000 73.850
21.58000 91.943
21.59000 103.916
21.60000 117.970
21.61000 80.734
21.62000 84.112
21.63000 99.903
21.64000 113.486
21.65000 103.109
21.66000 88.014
21.67000 108.393
21.68000 86.935
21.69000 92.244
21.70000 79.837
21.71000 84.991
21.72000 98.733
21.73000 86.716
21.74000 98.024
21.75000 113.050
21.76000 91.787
21.77000 77.851
21.78000 88.123
21.79000 81.376
21.80000 98.102
21.81000 83.979
21.82000 88.537
21.83000 92.795
21.84000 73.741
21.85000 94.767
21.86000 86.006
21.87000 93.932
21.88000 92.726
21.89000 75.802
21.90000 96.975
21.91000 88.845
21.92000 99.581
21.93000 78.773
21.94000 78.574
21.95000 76.675
21.96000 83.743
21.97000 75.791
21.98000 84.152
21.99000 91.575
22.00000 85.408
22.01000 80.636
22.02000 73.664
22.03000 76.736
22.04000 85.648
22.05000 68.596
22.06000 68.658
22.07000 77.940
22.08000 88.590
22.09000 72.090
22.10000 81.156
22.11000 58.747
22.12000 63.588
22.13000 94.820
22.14000 72.690
22.15000 91.017
22.16000 66.745
22.17000 65.682
22.18000 82.978
22.19000 55.623
22.20000 62.430
22.21000 78.724
22.22000 81.816
22.23000 80.947
22.24000 62.683
22.25000 65.693
22.26000 72.469
22.27000 87.866
22.28000 66.430
22.29000 54.662
22.30000 63.573
22.31000 77.846
22.32000 57.183
22.33000 53.698
22.34000 57.455
22.35000 53.235
22.36000 57.392
22.37000 70.734
22.38000 56.447
22.39000 67.582
22.40000 71.659
22.41000 62.523
22.42000 50.708
22.43000 54.753
22.44000 57.458
22.45000 67.671
22.46000 67.694
22.47000 73.028
22.48000 63.678
22.49000 58.630
22.50000 60.712
22.51000 68.698
22.52000 59.645
22.53000 57.782
22.54000 63.531
22.55000 58.749
22.56000 66.695
22.57000 60.575
22.58000 71.534
22.59000 65.403
22.60000 61.759
22.61000 54.653
22.62000 58.725
22.63000 47.674
22.64000 67.490
22.65000 60.411
22.66000 57.684
22.67000 59.664
22.68000 60.495
22.69000 62.662
22.70000 46.530
22.71000 63.630
22.72000 63.768
22.73000 54.272
22.74000 52.711
22.75000 61.567
22.76000 76.739
22.77000 55.473
22.78000 54.455
22.79000 59.921
22.80000 58.044
22.81000 58.588
22.82000 46.368
22.83000 60.508
22.84000 54.709
22.85000 57.521
22.86000 51.508
22.87000 54.828
22.88000 48.576
22.89000 55.836
22.90000 59.552
22.91000 47.196
22.92000 52.755
22.93000 41.425
22.94000 53.481
22.95000 55.253
22.96000 53.337
22.97000 48.498
22.98000 61.548
22.99000 57.461
23.00000 40.275
23.01000 47.269
23.02000 55.726
23.03000 45.696
23.04000 47.477
23.05000 63.783
23.06000 44.708
23.07000 49.366
23.08000 50.642
23.09000 48.481
23.10000 25.177
23.11000 50.547
23.12000 36.283
23.13000 44.308
23.14000 53.626
23.15000 46.507
23.16000 41.372
23.17000 55.679
23.18000 64.892
23.19000 36.459
23.20000 41.454
23.21000 57.520
23.22000 44.086
23.23000 45.494
23.24000 42.279
23.25000 48.554
23.26000 49.437
23.27000 48.401
23.28000 37.300
23.29000 50.714
23.30000 31.233
23.31000 38.281
23.32000 47.563
23.33000 48.821
23.34000 30.097
23.35000 43.498
23.36000 35.364
23.37000 34.214
23.38000 41.458
23.39000 40.259
23.40000 40.779
23.41000 36.371
23.42000 46.352
23.43000 48.260
23.44000 37.408
23.45000 31.490
23.46000 53.348
23.47000 39.204
23.48000 44.544
23.49000 42.393
23.50000 41.313
23.51000 33.365
23.52000 36.254
23.53000 42.315
23.54000 36.385
23.55000 31.500
23.56000 40.826
23.57000 40.459
23.58000 43.322
23.59000 36.288
23.60000 35.465
23.61000 42.126
23.62000 35.363
23.63000 37.477
23.64000 48.265
23.65000 32.180
23.66000 37.589
23.67000 37.395
23.68000 31.325
23.69000 39.250
23.70000 32.452
23.71000 37.395
23.72000 38.535
23.73000 34.133
23.74000 39.371
23.75000 40.521
23.76000 36.390
23.77000 41.733
23.78000 29.143
23.79000 36.422
23.80000 38.351
23.81000 34.282
23.82000 40.462
23.83000 43.617
23.84000 29.159
23.85000 23.110
23.86000 29.378
23.87000 33.512
23.88000 34.128
23.89000 33.203
23.90000 25.404
23.91000 33.400
23.92000 33.622
23.93000 37.544
23.94000 36.400
23.95000 38.395
23.96000 35.330
23.97000 33.407
23.98000 34.225
23.99000 34.269
24.00000 31.448
24.01000 35.312
24.02000 37.394
24.03000 37.365
24.04000 30.149
24.05000 35.451
24.06000 24.185
24.07000 30.189
24.08000 27.225
24.09000 31.239
24.10000 30.419
24.11000 39.533
24.12000 27.279
24.13000 29.362
24.14000 22.342
24.15000 26.273
24.16000 17.075
24.17000 22.240
24.18000 24.164
24.19000 39.297
24.20000 33.234
24.21000 34.417
24.22000 25.232
24.23000 28.295
24.24000 43.311
24.25000 26.233
24.26000 29.283
24.27000 24.189
24.28000 21.125
24.29000 21.190
24.30000 29.439
24.31000 35.380
24.32000 35.406
24.33000 28.347
24.34000 29.243
24.35000 33.298
24.36000 21.127
24.37000 23.188
24.38000 34.111
24.39000 29.338
24.40000 28.369
24.41000 29.492
24.42000 29.401
24.43000 20.213
24.44000 18.263
24.45000 27.497
24.46000 20.072
24.47000 21.220
24.48000 31.308
24.49000 34.274
24.50000 33.334
24.51000 16.124
24.52000 27.259
24.53000 27.255
24.54000 18.302
24.55000 31.247
24.56000 22.223
24.57000 12.046
24.58000 24.094
24.59000 17.105
24.60000 29.423
24.61000 17.022
24.62000 21.368
24.63000 25.590
24.64000 26.309
24.65000 28.374
24.66000 24.295
24.67000 23.122
24.68000 18.190
24.69000 18.238
24.70000 24.154
24.71000 23.147
24.72000 24.267
24.73000 25.130
24.74000 19.318
24.75000 28.468
24.76000 18.246
24.77000 25.092
24.78000 21.403
24.79000 17.201
24.80000 24.355
24.81000 31.280
24.82000 25.226
24.83000 22.136
24.84000 16.315
24.85000 28.165
24.86000 25.282
24.87000 19.272
24.88000 23.275
24.89000 26.277
24.90000 25.158
24.91000 16.114
24.92000 22.235
24.93000 25.256
24.94000 21.338
24.95000 25.214
24.96000 24.375
24.97000 20.124
24.98000 18.165
24.99000 12.210
25.00000 27.183
25.01000 15.273
25.02000 19.249
25.03000 22.242
25.04000 19.233
25.05000 25.378
25.06000 17.139
25.07000 19.132
25.08000 24.253
25.09000 18.266
25.10000 23.297
25.11000 29.444
25.12000 24.482
25.13000 20.187
25.14000 33.420
25.15000 19.243
25.16000 21.227
25.17000 22.416
25.18000 20.239
25.19000 20.254
25.20000 27.348
25.21000 15.256
25.22000 32.525
25.23000 22.101
25.24000 14.144
25.25000 23.204
25.26000 26.394
25.27000 19.149
25.28000 25.276
25.29000 19.081
25.30000 19.211
25.31000 8.211
25.32000 18.259
25.33000 11.084
25.34000 12.168
25.35000 13.226
25.36000 21.212
25.37000 19.162
25.38000 20.255
25.39000 20.219
25.40000 20.207
25.41000 16.261
25.42000 23.258
25.43000 15.279
25.44000 14.301
25.45000 16.132
25.46000 22.321
25.47000 20.060
25.48000 19.187
25.49000 18.983
25.50000 18.301
25.51000 13.144
25.52000 21.354
25.53000 18.245
25.54000 18.377
25.55000 14.245
25.56000 14.022
25.57000 21.288
25.58000 19.211
25.59000 19.259
25.60000 20.276
25.61000 22.171
25.62000 15.141
25.63000 28.482
25.64000 12.109
25.65000 24.254
25.66000 13.164
25.67000 18.279
25.68000 16.262
25.69000 23.230
25.70000 11.066
25.71000 21.104
25.72000 12.076
25.73000 21.222
25.74000 24.231
25.75000 18.311
25.76000 21.145
25.77000 11.050
25.78000 18.159
25.79000 18.080
25.80000 15.154
25.81000 19.169
25.82000 20.130
25.83000 9.238
25.84000 19.255
25.85000 15.219
25.86000 11.098
25.87000 19.254
25.88000 17.144
25.89000 24.520
25.90000 12.248
25.91000 14.215
25.92000 16.204
25.93000 21.200
25.94000 22.193
25.95000 17.286
25.96000 21.324
25.97000 19.184
25.98000 18.303
25.99000 14.211
26.00000 13.285
26.01000 7.117
26.02000 12.079
26.03000 17.128
26.04000 14.144
26.05000 21.204
26.06000 20.236
26.07000 11.276
26.08000 16.081
26.09000 18.168
26.10000 19.191
26.11000 12.117
26.12000 17.270
26.13000 8.137
26.14000 16.106
26.15000 11.218
26.16000 10.147
26.17000 13.038
26.18000 18.376
26.19000 10.138
26.20000 11.074
26.21000 23.333
26.22000 16.252
26.23000 17.269
26.24000 21.359
26.25000 10.139
26.26000 12.125
26.27000 20.379
26.28000 17.156
26.29000 10.128
26.30000 11.087
26.31000 14.312
26.32000 15.207
26.33000 12.234
26.34000 20.146
26.35000 12.114
26.36000 13.118
26.37000 11.062
26.38000 11.117
26.39000 10.014
26.40000 17.189
26.41000 8.098
26.42000 14.087
26.43000 11.243
26.44000 14.180
26.45000 14.046
26.46000 17.325
26.47000 15.057
26.48000 14.291
26.49000 18.161
26.50000 15.044
26.51000 18.029
26.52000 20.212
26.53000 15.260
26.54000 13.266
26.55000 13.133
26.56000 15.205
26.57000 9.053
26.58000 11.151
26.59000 18.235
26.60000 13.075
26.61000 13.213
26.62000 15.132
26.63000 16.194
26.64000 20.357
26.65000 19.231
26.66000 18.254
26.67000 12.208
26.68000 8.099
26.69000 16.303
26.70000 21.353
26.71000 24.299
26.72000 13.085
26.73000 16.012
26.74000 12.262
26.75000 16.312
26.76000 9.258
26.77000 15.049
26.78000 23.294
26.79000 17.262
26.80000 7.097
26.81000 13.276
26.82000 13.087
26.83000 16.122
26.84000 22.322
26.85000 15.179
26.86000 10.132
26.87000 13.172
26.88000 13.154
26.89000 12.212
26.90000 14.224
26.91000 12.204
26.92000 21.346
26.93000 10.086
26.94000 16.222
26.95000 12.220
26.96000 12.193
26.97000 13.090
26.98000 15.287
26.99000 9.189
27.00000 18.291
27.01000 6.006
27.02000 15.162
27.03000 8.081
27.04000 15.115
27.05000 11.167
27.06000 16.234
27.07000 12.279
27.08000 19.295
27.09000 16.356
27.10000 10.068
27.11000 18.226
27.12000 8.165
27.13000 11.157
27.14000 13.083
27.15000 20.278
27.16000 13.180
27.17000 17.104
27.18000 14.294
27.19000 9.126
27.20000 20.278
27.21000 13.204
27.22000 20.145
27.23000 11.096
27.24000 19.283
27.25000 12.326
27.26000 6.162
27.27000 13.997
27.28000 11.137
27.29000 14.213
27.30000 11.012
27.31000 13.192
27.32000 11.988
27.33000 13.089
27.34000 11.097
27.35000 14.178
27.36000 14.279
27.37000 11.471
27.38000 12.272
27.39000 15.191
27.40000 12.922
27.41000 7.135
27.42000 12.209
27.43000 11.046
27.44000 11.113
27.45000 21.192
27.46000 18.206
27.47000 9.124
27.48000 14.129
27.49000 17.367
27.50000 12.215
27.51000 7.094
27.52000 17.236
27.53000 13.167
27.54000 8.131
27.55000 12.218
27.56000 15.134
27.57000 13.245
27.58000 13.292
27.59000 16.154
27.60000 11.128
27.61000 17.154
27.62000 11.182
27.63000 17.029
27.64000 15.292
27.65000 8.161
27.66000 11.067
27.67000 8.051
27.68000 14.060
27.69000 16.170
27.70000 12.137
27.71000 18.202
27.72000 7.149
27.73000 11.225
27.74000 13.124
27.75000 10.039
27.76000 14.091
27.77000 9.131
27.78000 15.162
27.79000 9.204
27.80000 7.057
27.81000 16.230
27.82000 10.222
27.83000 15.214
27.84000 13.132
27.85000 13.105
27.86000 13.226
27.87000 12.278
27.88000 14.073
27.89000 14.283
27.90000 11.111
27.91000 15.081
27.92000 12.137
27.93000 8.029
27.94000 10.227
27.95000 8.113
27.96000 16.158
27.97000 14.252
27.98000 18.228
27.99000 12.158
28.00000 7.994
28.01000 10.142
28.02000 15.286
28.03000 13.294
28.04000 11.160
28.05000 8.001
28.06000 14.286
28.07000 13.239
28.08000 11.001
28.09000 17.244
28.10000 13.227
28.11000 8.169
28.12000 12.060
28.13000 14.205
28.14000 14.209
28.15000 16.312
28.16000 19.242
28.17000 8.161
28.18000 12.258
28.19000 11.120
28.20000 17.236
28.21000 11.073
28.22000 11.170
28.23000 12.152
28.24000 11.107
28.25000 17.218
28.26000 10.320
28.27000 12.286
28.28000 11.346
28.29000 14.100
28.30000 10.139
28.31000 10.196
28.32000 17.058
28.33000 16.093
28.34000 11.000
28.35000 19.381
28.36000 14.277
28.37000 10.163
28.38000 10.042
28.39000 13.148
28.40000 15.153
28.41000 12.127
28.42000 9.167
28.43000 16.175
28.44000 16.154
28.45000 8.013
28.46000 13.088
28.47000 14.205
28.48000 10.241
28.49000 8.093
28.50000 10.315
28.51000 8.072
28.52000 7.087
28.53000 8.193
28.54000 11.326
28.55000 11.158
28.56000 8.174
28.57000 4.064
28.58000 7.099
28.59000 9.141
28.60000 10.028
28.61000 8.041
28.62000 14.128
28.63000 6.071
28.64000 18.272
28.65000 7.172
28.66000 13.176
28.67000 9.162
28.68000 19.150
28.69000 8.209
28.70000 8.034
28.71000 12.059
28.72000 12.198
28.73000 17.448
28.74000 4.988
28.75000 4.069
28.76000 15.214
28.77000 14.065
28.78000 8.008
28.79000 11.061
28.80000 7.239
28.81000 5.061
28.82000 12.202
28.83000 14.085
28.84000 8.147
28.85000 9.019
28.86000 12.116
28.87000 6.084
28.88000 12.061
28.89000 10.054
28.90000 11.232
28.91000 19.305
28.92000 10.018
28.93000 13.135
28.94000 11.077
28.95000 13.067
28.96000 10.086
28.97000 6.148
28.98000 10.249
28.99000 12.179
29.00000 7.164
29.01000 10.312
29.02000 12.198
29.03000 14.217
29.04000 7.133
29.05000 8.072
29.06000 10.164
29.07000 9.109
29.08000 10.092
29.09000 11.114
29.10000 5.044
29.11000 7.186
29.12000 8.101
29.13000 7.019
29.14000 11.214
29.15000 11.094
29.16000 11.135
29.17000 12.141
29.18000 16.267
29.19000 9.032
29.20000 10.099
29.21000 7.200
29.22000 12.160
29.23000 14.121
29.24000 11.117
29.25000 4.037
29.26000 8.029
29.27000 4.973
29.28000 12.263
29.29000 7.045
29.30000 15.216
29.31000 9.144
29.32000 6.057
29.33000 9.118
29.34000 7.111
29.35000 15.264
29.36000 2.991
29.37000 9.106
29.38000 8.051
29.39000 9.162
29.40000 14.300
29.41000 16.343
29.42000 8.146
29.43000 2.043
29.44000 10.052
29.45000 9.148
29.46000 7.157
29.47000 17.127
29.48000 3.056
29.49000 15.280
29.50000 16.216
29.51000 12.142
29.52000 13.090
29.53000 11.124
29.54000 6.991
29.55000 8.961
29.56000 10.241
29.57000 7.211
29.58000 8.124
29.59000 10.157
29.60000 10.121
29.61000 6.155
29.62000 11.142
29.63000 11.049
29.64000 12.209
29.65000 8.069
29.66000 14.167
29.67000 14.278
29.68000 10.012
29.69000 11.264
29.70000 6.093
29.71000 16.305
29.72000 7.105
29.73000 8.146
29.74000 8.061
29.75000 13.191
29.76000 8.967
29.77000 8.077
29.78000 7.055
29.79000 11.220
29.80000 5.069
29.81000 11.124
29.82000 12.172
29.83000 11.253
29.84000 7.082
29.85000 12.131
29.86000 6.977
29.87000 4.095
29.88000 8.097
29.89000 7.966
29.90000 10.032
29.91000 11.189
29.92000 10.192
29.93000 12.120
29.94000 8.091
29.95000 7.078
29.96000 10.019
29.97000 6.990
29.98000 9.217
29.99000 8.057
30.00000 9.237
30.01000 10.129
30.02000 11.163
30.03000 8.017
30.04000 14.384
30.05000 8.023
30.06000 6.088
30.07000 9.098
30.08000 9.136
30.09000 8.150
30.10000 9.063
30.11000 10.141
30.12000 12.141
30.13000 10.041
30.14000 16.272
30.15000 17.191
30.16000 6.086
30.17000 5.991
30.18000 13.098
30.19000 13.224
30.20000 8.138
30.21000 10.113
30.22000 9.246
30.23000 4.045
30.24000 10.064
30.25000 11.192
30.26000 9.089
30.27000 13.109
30.28000 13.182
30.29000 6.082
30.30000 7.033
30.31000 8.057
30.32000 7.323
30.33000 7.089
30.34000 10.279
30.35000 10.106
30.36000 10.242
30.37000 17.201
30.38000 11.225
30.39000 11.364
30.40000 8.076
30.41000 10.159
30.42000 10.088
30.43000 8.004
30.44000 10.193
30.45000 7.080
30.46000 12.239
30.47000 11.070
30.48000 11.314
30.49000 9.091
30.50000 10.125
30.51000 13.095
30.52000 15.248
30.53000 13.968
30.54000 6.119
30.55000 9.104
30.56000 11.174
30.57000 7.099
30.58000 6.014
30.59000 9.144
30.60000 9.171
30.61000 11.142
30.62000 7.095
30.63000 3.988
30.64000 6.016
30.65000 7.151
30.66000 11.100
30.67000 13.172
30.68000 11.120
30.69000 9.033
30.70000 7.120
30.71000 9.886
30.72000 11.225
30.73000 13.211
30.74000 11.044
30.75000 4.969
30.76000 7.108
30.77000 12.060
30.78000 10.144
30.79000 8.174
30.80000 9.056
30.81000 12.186
30.82000 7.030
30.83000 9.077
30.84000 8.234
30.85000 5.110
30.86000 11.065
30.87000 10.161
30.88000 9.120
30.89000 2.019
30.90000 11.184
30.91000 4.089
30.92000 9.071
30.93000 6.057
30.94000 7.267
30.95000 10.111
30.96000 10.960
30.97000 10.119
30.98000 8.073
30.99000 8.124
31.00000 3.986
31.01000 12.285
31.02000 12.079
31.03000 5.072
31.04000 6.140
31.05000 4.067
31.06000 5.097
31.07000 9.211
31.08000 11.313
31.09000 14.163
31.10000 15.222
31.11000 5.030
31.12000 8.133
31.13000 8.007
31.14000 11.138
31.15000 12.101
31.16000 9.119
31.17000 6.190
31.18000 8.051
31.19000 10.130
31.20000 10.233
31.21000 11.181
31.22000 11.049
31.23000 13.152
31.24000 8.042
31.25000 11.169
31.26000 6.139
31.27000 5.006
31.28000 4.050
31.29000 9.283
31.30000 9.235
31.31000 11.036
31.32000 9.159
31.33000 16.134
31.34000 10.111
31.35000 6.008
31.36000 9.111
31.37000 8.109
31.38000 13.279
31.39000 3.024
31.40000 10.122
31.41000 9.130
31.42000 5.122
31.43000 9.137
31.44000 4.036
31.45000 11.247
31.46000 5.079
31.47000 8.115
31.48000 8.069
31.49000 7.113
31.50000 7.025
31.51000 3.048
31.52000 9.137
31.53000 12.136
31.54000 8.063
31.55000 7.120
31.56000 9.205
31.57000 6.155
31.58000 6.080
31.59000 12.098
31.60000 13.061
31.61000 14.114
31.62000 7.192
31.63000 9.125
31.64000 5.141
31.65000 1.955
31.66000 10.182
31.67000 6.048
31.68000 8.063
31.69000 15.226
31.70000 11.187
31.71000 4.078
31.72000 7.088
31.73000 4.976
31.74000 4.007
31.75000 6.056
31.76000 9.071
31.77000 7.050
31.78000 4.092
31.79000 4.000
31.80000 9.143
31.81000 13.135
31.82000 12.213
31.83000 7.015
31.84000 9.177
31.85000 11.235
31.86000 9.181
31.87000 7.079
31.88000 2.074
31.89000 6.154
31.90000 9.236
31.91000 6.026
31.92000 9.183
31.93000 15.080
31.94000 4.043
31.95000 8.214
31.96000 6.040
31.97000 7.057
31.98000 9.083
31.99000 8.091
32.00000 9.082
32.01000 9.028
32.02000 5.025
32.03000 6.173
32.04000 7.108
32.05000 6.053
32.06000 6.099
32.07000 10.160
32.08000 10.167
32.09000 13.106
32.10000 8.346
32.11000 10.078
32.12000 6.989
32.13000 9.082
32.14000 9.110
32.15000 4.036
32.16000 9.027
32.17000 11.170
32.18000 13.048
32.19000 7.030
32.20000 5.033
32.21000 6.057
32.22000 5.107
32.23000 7.091
32.24000 8.021
32.25000 6.209
32.26000 6.028
32.27000 4.977
32.28000 11.263
32.29000 5.109
32.30000 17.252
32.31000 10.229
32.32000 6.023
32.33000 11.017
32.34000 9.088
32.35000 7.011
32.36000 7.069
32.37000 6.111
32.38000 6.022
32.39000 9.101
32.40000 8.164
32.41000 3.022
32.42000 4.146
32.43000 11.125
32.44000 14.168
32.45000 6.058
32.46000 9.179
32.47000 7.138
32.48000 10.041
32.49000 10.116
32.50000 7.095
32.51000 2.998
32.52000 8.089
32.53000 4.044
32.54000 8.095
32.55000 7.014
32.56000 6.083
32.57000 9.110
32.58000 9.133
32.59000 9.061
32.60000 10.198
32.61000 2.107
32.62000 5.137
32.63000 15.202
32.64000 6.033
32.65000 10.129
32.66000 9.094
32.67000 9.122
32.68000 9.036
32.69000 6.954
32.70000 9.225
32.71000 5.080
32.72000 8.221
32.73000 9.071
32.74000 11.024
32.75000 11.012
32.76000 6.082
32.77000 12.154
32.78000 6.113
32.79000 8.077
32.80000 9.221
32.81000 7.186
32.82000 11.222
32.83000 7.082
32.84000 11.205
32.85000 7.117
32.86000 11.127
32.87000 3.926
32.88000 5.094
32.89000 8.148
32.90000 11.116
32.91000 7.059
32.92000 10.217
32.93000 10.195
32.94000 4.015
32.95000 11.190
32.96000 5.995
32.97000 4.032
32.98000 9.178
32.99000 3.057
33.00000 3.984
33.01000 6.044
33.02000 6.062
33.03000 8.114
33.04000 10.074
33.05000 5.120
33.06000 10.254
33.07000 9.124
33.08000 6.998
33.09000 8.032
33.10000 8.041
33.11000 2.069
33.12000 8.943
33.13000 9.144
33.14000 0.000
33.15000 4.086
33.16000 6.011
33.17000 5.074
33.18000 5.096
33.19000 6.078
33.20000 8.144
33.21000 10.063
33.22000 10.213
33.23000 10.094
33.24000 10.124
33.25000 8.199
33.26000 8.180
33.27000 7.120
33.28000 12.038
33.29000 6.068
33.30000 2.041
33.31000 7.058
33.32000 8.218
33.33000 13.171
33.34000 7.051
33.35000 7.008
33.36000 6.167
33.37000 8.176
33.38000 4.033
33.39000 5.065
33.40000 8.028
33.41000 5.019
33.42000 7.131
33.43000 4.031
33.44000 3.950
33.45000 13.174
33.46000 8.082
33.47000 5.990
33.48000 9.165
33.49000 9.175
33.50000 12.142
33.51000 10.052
33.52000 6.184
33.53000 4.030
33.54000 6.114
33.55000 9.177
33.56000 5.037
33.57000 7.994
33.58000 5.116
33.59000 9.285
33.60000 5.005
33.61000 4.952
33.62000 8.074
33.63000 12.328
33.64000 5.015
33.65000 7.155
33.66000 9.033
33.67000 10.326
33.68000 9.116
33.69000 9.114
33.70000 6.227
33.71000 10.190
33.72000 10.131
33.73000 9.067
33.74000 6.101
33.75000 4.074
33.76000 6.054
33.77000 7.082
33.78000 8.082
33.79000 6.089
33.80000 8.080
33.81000 6.043
33.82000 8.131
33.83000 3.032
33.84000 7.114
33.85000 6.142
33.86000 9.096
33.87000 7.261
33.88000 10.167
33.89000 6.088
33.90000 7.052
33.91000 7.015
33.92000 5.071
33.93000 10.090
33.94000 4.025
33.95000 8.089
33.96000 6.996
33.97000 8.093
33.98000 6.064
33.99000 10.292
34.00000 8.048
34.01000 5.058
34.02000 4.977
34.03000 5.013
34.04000 10.106
34.05000 7.034
34.06000 7.134
34.07000 6.068
34.08000 6.067
34.09000 7.966
34.10000 10.120
34.11000 8.020
34.12000 9.101
34.13000 8.097
34.14000 3.011
34.15000 4.117
34.16000 1.999
34.17000 10.122
34.18000 3.992
34.19000 4.129
34.20000 5.104
34.21000 4.034
34.22000 7.141
34.23000 14.173
34.24000 7.055
34.25000 6.084
34.26000 13.141
34.27000 4.048
34.28000 5.096
34.29000 6.115
34.30000 2.031
34.31000 11.141
34.32000 9.179
34.33000 2.073
34.34000 6.016
34.35000 6.030
34.36000 6.109
34.37000 9.214
34.38000 7.087
34.39000 7.052
34.40000 4.058
34.41000 4.026
34.42000 12.144
34.43000 5.099
34.44000 13.287
34.45000 6.119
34.46000 9.064
34.47000 5.048
34.48000 4.993
34.49000 10.094
34.50000 1.968
34.51000 6.113
34.52000 8.107
34.53000 9.286
34.54000 4.082
34.55000 5.964
34.56000 11.186
34.57000 12.136
34.58000 2.972
34.59000 4.067
34.60000 10.074
34.61000 6.118
34.62000 4.009
34.63000 5.088
34.64000 1.017
34.65000 5.060
34.66000 4.098
34.67000 7.117
34.68000 6.104
34.69000 13.094
34.70000 7.995
34.71000 4.070
34.72000 6.114
34.73000 11.236
34.74000 8.034
34.75000 4.149
34.76000 5.024
34.77000 4.023
34.78000 9.096
34.79000 5.130
34.80000 6.941
34.81000 4.051
34.82000 4.085
34.83000 9.169
34.84000 6.150
34.85000 9.154
34.86000 5.087
34.87000 12.202
34.88000 9.330
34.89000 8.125
34.90000 5.052
34.91000 7.073
34.92000 8.154
34.93000 6.070
34.94000 6.082
34.95000 6.047
34.96000 4.055
34.97000 9.155
34.98000 9.109
34.99000 5.003
35.00000 5.064
35.01000 13.337
35.02000 7.945
35.03000 7.038
35.04000 8.112
35.05000 7.051
35.06000 5.096
35.07000 6.034
35.08000 3.033
35.09000 3.045
35.10000 6.031
35.11000 4.000
35.12000 12.239
35.13000 8.029
35.14000 2.041
35.15000 7.163
35.16000 11.301
35.17000 11.110
35.18000 7.037
35.19000 5.997
35.20000 6.091
35.21000 4.039
35.22000 8.005
35.23000 5.025
35.24000 6.992
35.25000 4.935
35.26000 6.062
35.27000 6.075
35.28000 4.098
35.29000 9.063
35.30000 7.128
35.31000 9.176
35.32000 6.061
35.33000 4.010
35.34000 3.077
35.35000 5.059
35.36000 4.063
35.37000 4.069
35.38000 5.928
35.39000 2.068
35.40000 3.035
35.41000 7.118
35.42000 7.123
35.43000 6.111
35.44000 8.135
35.45000 4.022
35.46000 9.258
35.47000 2.025
35.48000 4.040
35.49000 11.270
35.50000 4.020
35.51000 10.187
35.52000 1.985
35.53000 6.105
35.54000 5.031
35.55000 7.129
35.56000 8.166
35.57000 5.927
35.58000 3.981
35.59000 3.111
35.60000 7.091
35.61000 8.044
35.62000 8.111
35.63000 8.051
35.64000 2.059
35.65000 5.075
35.66000 9.115
35.67000 5.109
35.68000 9.183
35.69000 6.094
35.70000 9.063
35.71000 2.972
35.72000 11.025
35.73000 8.115
35.74000 9.141
35.75000 7.136
35.76000 5.980
35.77000 4.121
35.78000 1.029
35.79000 7.039
35.80000 6.011
35.81000 5.055
35.82000 3.927
35.83000 7.119
35.84000 2.033
35.85000 1.996
35.86000 4.005
35.87000 5.953
35.88000 9.073
35.89000 5.043
35.90000 10.194
35.91000 5.091
35.92000 4.030
35.93000 10.055
35.94000 5.148
35.95000 8.137
35.96000 5.951
35.97000 9.057
35.98000 6.064
35.99000 4.048
36.00000 7.202
36.01000 4.063
36.02000 6.070
36.03000 6.016
36.04000 9.133
36.05000 6.118
36.06000 8.088
36.07000 6.003
36.08000 6.200
36.09000 8.152
36.10000 8.087
36.11000 4.992
36.12000 5.031
36.13000 6.157
36.14000 13.142
36.15000 6.118
36.16000 3.035
36.17000 4.041
36.18000 8.120
36.19000 9.175
36.20000 3.073
36.21000 3.962
36.22000 8.075
36.23000 8.044
36.24000 6.044
36.25000 7.136
36.26000 5.017
36.27000 0.970
36.28000 8.178
36.29000 6.104
36.30000 8.039
36.31000 6.970
36.32000 1.971
36.33000 6.112
36.34000 8.053
36.35000 8.164
36.36000 7.096
36.37000 3.009
36.38000 1.972
36.39000 5.063
36.40000 5.055
36.41000 8.029
36.42000 6.997
36.43000 3.095
36.44000 8.093
36.45000 3.026
36.46000 6.176
36.47000 8.087
36.48000 9.073
36.49000 2.978
36.50000 4.033
36.51000 6.088
36.52000 6.201
36.53000 9.079
36.54000 7.112
36.55000 4.980
36.56000 9.163
36.57000 5.033
36.58000 5.041
36.59000 6.061
36.60000 7.064
36.61000 6.095
36.62000 4.055
36.63000 2.011
36.64000 10.057
36.65000 8.035
36.66000 5.063
36.67000 6.189
36.68000 4.140
36.69000 8.978
36.70000 6.168
36.71000 10.968
36.72000 11.014
36.73000 7.153
36.74000 4.081
36.75000 10.106
36.76000 7.145
36.77000 5.113
36.78000 3.016
36.79000 2.981
36.80000 7.141
36.81000 1.957
36.82000 5.053
36.83000 5.044
36.84000 7.173
36.85000 6.047
36.86000 7.023
36.87000 5.102
36.88000 2.998
36.89000 12.192
36.90000 6.057
36.91000 6.043
36.92000 3.078
36.93000 10.164
36.94000 3.063
36.95000 6.036
36.96000 8.166
36.97000 8.133
36.98000 5.072
36.99000 6.081
37.00000 9.123
37.01000 5.133
37.02000 6.233
37.03000 8.128
37.04000 7.049
37.05000 5.089
37.06000 1.972
37.07000 5.134
37.08000 4.126
37.09000 3.086
37.10000 5.082
37.11000 4.146
37.12000 6.157
37.13000 6.035
37.14000 6.123
37.15000 11.084
37.16000 3.021
37.17000 7.090
37.18000 4.046
37.19000 9.154
37.20000 7.159
37.21000 10.062
37.22000 4.056
37.23000 2.011
37.24000 4.056
37.25000 5.039
37.26000 7.132
37.27000 4.982
37.28000 7.140
37.29000 7.064
37.30000 7.013
37.31000 7.139
37.32000 11.198
37.33000 11.194
37.34000 6.128
37.35000 8.121
37.36000 6.017
37.37000 10.146
37.38000 7.076
37.39000 5.117
37.40000 7.085
37.41000 4.065
37.42000 6.090
37.43000 8.168
37.44000 7.091
37.45000 6.074
37.46000 1.977
37.47000 4.116
37.48000 2.008
37.49000 11.094
37.50000 6.024
37.51000 5.118
37.52000 2.031
37.53000 4.085
37.54000 3.076
37.55000 3.015
37.56000 4.037
37.57000 8.170
37.58000 2.037
37.59000 8.186
37.60000 4.087
37.61000 7.085
37.62000 4.104
37.63000 3.056
37.64000 3.961
37.65000 4.056
37.66000 5.993
37.67000 7.088
37.68000 2.001
37.69000 3.046
37.70000 5.001
37.71000 8.092
37.72000 6.994
37.73000 6.051
37.74000 5.155
37.75000 4.999
37.76000 10.092
37.77000 9.304
37.78000 16.230
37.79000 5.023
37.80000 1.998
37.81000 5.050
37.82000 5.038
37.83000 6.056
37.84000 8.062
37.85000 6.085
37.86000 3.983
37.87000 6.076
37.88000 5.106
37.89000 3.015
37.90000 4.071
37.91000 3.990
37.92000 7.123
37.93000 4.046
37.94000 3.042
37.95000 9.105
37.96000 5.118
37.97000 5.058
37.98000 8.115
37.99000 4.035
38.00000 8.055
38.01000 12.210
38.02000 6.106
38.03000 12.157
38.04000 1.972
38.05000 3.021
38.06000 2.998
38.07000 5.148
38.08000 5.085
38.09000 5.015
38.10000 8.070
38.11000 6.054
38.12000 2.027
38.13000 4.981
38.14000 3.035
38.15000 1.037
38.16000 2.057
38.17000 5.066
38.18000 6.102
38.19000 1.976
38.20000 7.122
38.21000 4.116
38.22000 7.131
38.23000 4.120
38.24000 0.000
38.25000 3.032
38.26000 3.117
38.27000 6.130
38.28000 2.983
38.29000 2.002
38.30000 3.074
38.31000 2.955
38.32000 7.961
38.33000 6.020
38.34000 9.217
38.35000 6.175
38.36000 6.214
38.37000 1.991
38.38000 6.050
38.39000 3.095
38.40000 4.962
38.41000 5.090
38.42000 11.145
38.43000 8.185
38.44000 7.057
38.45000 8.039
38.46000 3.983
38.47000 5.038
38.48000 6.114
38.49000 8.153
38.50000 4.023
38.51000 3.957
38.52000 4.035
38.53000 3.990
38.54000 4.091
38.55000 7.109
38.56000 7.998
38.57000 5.088
38.58000 2.060
38.59000 4.990
38.60000 8.163
38.61000 6.107
38.62000 7.972
38.63000 5.162
38.64000 7.026
38.65000 7.128
38.66000 4.121
38.67000 7.071
38.68000 6.106
38.69000 2.040
38.70000 5.983
38.71000 3.994
38.72000 5.958
38.73000 1.982
38.74000 8.155
38.75000 9.113
38.76000 3.013
38.77000 0.000
38.78000 2.982
38.79000 7.144
38.80000 5.053
38.81000 4.034
38.82000 2.975
38.83000 5.088
38.84000 2.024
38.85000 1.982
38.86000 8.072
38.87000 4.137
38.88000 3.034
38.89000 5.998
38.90000 8.236
38.91000 8.089
38.92000 4.078
38.93000 3.077
38.94000 5.006
38.95000 5.980
38.96000 5.009
38.97000 7.119
38.98000 4.046
38.99000 2.020
39.00000 9.043
39.01000 4.091
39.02000 3.030
39.03000 7.060
39.04000 2.989
39.05000 4.120
39.06000 6.074
39.07000 4.087
39.08000 5.073
39.09000 6.006
39.10000 9.101
39.11000 6.061
39.12000 3.093
39.13000 3.950
39.14000 8.032
39.15000 6.020
39.16000 3.016
39.17000 8.044
39.18000 6.038
39.19000 5.081
39.20000 0.996
39.21000 3.055
39.22000 3.973
39.23000 1.015
39.24000 7.113
39.25000 8.016
39.26000 2.054
39.27000 5.038
39.28000 9.138
39.29000 10.048
39.30000 5.051
39.31000 5.035
39.32000 7.077
39.33000 6.036
39.34000 5.168
39.35000 5.105
39.36000 3.095
39.37000 4.995
39.38000 6.086
39.39000 3.984
39.40000 3.004
39.41000 9.085
39.42000 3.020
39.43000 4.015
39.44000 6.073
39.45000 1.984
39.46000 7.091
39.47000 6.138
39.48000 5.974
39.49000 4.054
39.50000 1.996
39.51000 6.014
39.52000 4.165
39.53000 3.019
39.54000 2.099
39.55000 6.043
39.56000 2.047
39.57000 3.996
39.58000 8.134
39.59000 7.099
39.60000 3.053
39.61000 4.025
39.62000 6.050
39.63000 4.031
39.64000 6.083
39.65000 9.075
39.66000 9.027
39.67000 7.082
39.68000 3.018
39.69000 5.011
39.70000 5.091
39.71000 7.079
39.72000 8.206
39.73000 5.117
39.74000 2.986
39.75000 3.024
39.76000 12.296
39.77000 6.141
39.78000 7.197
39.79000 1.014
39.80000 6.119
39.81000 2.981
39.82000 4.054
39.83000 6.050
39.84000 2.999
39.85000 8.054
39.86000 2.992
39.87000 0.972
39.88000 6.098
39.89000 5.101
39.90000 4.060
39.91000 9.136
39.92000 4.056
39.93000 8.064
39.94000 9.105
39.95000 3.050
39.96000 3.991
39.97000 5.152
39.98000 4.133
39.99000 7.077
40.00000 6.984
40.01000 4.068
40.02000 6.088
40.03000 2.038
40.04000 5.089
40.05000 9.117
40.06000 2.010
40.07000 1.986
40.08000 6.062
40.09000 3.031
40.10000 7.096
40.11000 3.109
40.12000 2.968
40.13000 3.018
40.14000 4.058
40.15000 4.060
40.16000 4.032
40.17000 4.104
40.18000 5.033
40.19000 6.109
40.20000 4.084
40.21000 7.032
40.22000 5.144
40.23000 4.039
40.24000 5.132
40.25000 5.095
40.26000 5.038
40.27000 3.045
40.28000 4.976
40.29000 5.978
40.30000 7.066
40.31000 4.023
40.32000 6.040
40.33000 9.022
40.34000 5.041
40.35000 6.145
40.36000 5.101
40.37000 7.025
40.38000 1.984
40.39000 2.005
40.40000 5.049
40.41000 7.126
40.42000 5.039
40.43000 3.042
40.44000 6.077
40.45000 5.052
40.46000 6.010
40.47000 3.021
40.48000 5.043
40.49000 6.043
40.50000 2.986
40.51000 3.058
40.52000 1.040
40.53000 10.006
40.54000 3.994
40.55000 8.226
40.56000 2.072
40.57000 7.078
40.58000 3.060
40.59000 4.966
40.60000 3.065
40.61000 7.089
40.62000 5.158
40.63000 5.046
40.64000 4.072
40.65000 0.000
40.66000 6.086
40.67000 7.041
40.68000 4.036
40.69000 5.086
40.70000 6.018
40.71000 4.035
40.72000 0.000
40.73000 5.090
40.74000 5.011
40.75000 0.994
40.76000 2.033
40.77000 5.097
40.78000 3.049
40.79000 6.081
40.80000 3.036
40.81000 4.081
40.82000 1.027
40.83000 5.112
40.84000 0.000
40.85000 2.987
40.86000 6.101
40.87000 5.009
40.88000 6.062
40.89000 5.024
40.90000 5.062
40.91000 3.037
40.92000 3.066
40.93000 6.028
40.94000 1.030
40.95000 1.055
40.96000 2.054
40.97000 8.081
40.98000 8.011
40.99000 5.104
41.00000 8.162
41.01000 2.121
41.02000 7.177
41.03000 4.021
41.04000 7.038
41.05000 6.054
41.06000 4.161
41.07000 6.026
41.08000 4.105
41.09000 4.097
41.10000 3.999
41.11000 6.178
41.12000 5.024
41.13000 3.997
41.14000 3.035
41.15000 4.002
41.16000 9.113
41.17000 2.031
41.18000 4.070
41.19000 4.986
41.20000 3.026
41.21000 6.031
41.22000 6.187
41.23000 1.007
41.24000 5.073
41.25000 6.044
41.26000 7.099
41.27000 5.010
41.28000 4.086
41.29000 5.079
41.30000 3.033
41.31000 2.008
41.32000 1.978
41.33000 5.075
41.34000 4.092
41.35000 5.107
41.36000 2.053
41.37000 0.000
41.38000 1.007
41.39000 3.000
41.40000 2.020
41.41000 6.051
41.42000 4.004
41.43000 6.025
41.44000 2.055
41.45000 3.015
41.46000 4.108
41.47000 7.143
41.48000 4.022
41.49000 4.050
41.50000 4.081
41.51000 1.046
41.52000 1.036
41.53000 5.988
41.54000 4.108
41.55000 6.032
41.56000 5.106
41.57000 3.055
41.58000 4.118
41.59000 0.993
41.60000 5.106
41.61000 9.178
41.62000 9.094
41.63000 4.037
41.64000 3.090
41.65000 3.034
41.66000 3.011
41.67000 1.969
41.68000 3.981
41.69000 4.027
41.70000 1.986
41.71000 1.019
41.72000 7.091
41.73000 5.044
41.74000 4.030
41.75000 5.123
41.76000 10.209
41.77000 3.995
41.78000 2.994
41.79000 6.993
41.80000 2.007
41.81000 6.080
41.82000 1.004
41.83000 5.029
41.84000 5.064
41.85000 5.113
41.86000 7.201
41.87000 1.992
41.88000 5.014
41.89000 5.012
41.90000 7.042
41.91000 2.993
41.92000 1.994
41.93000 4.036
41.94000 7.131
41.95000 4.101
41.96000 4.006
41.97000 5.030
41.98000 0.000
41.99000 2.935
42.00000 6.086
42.01000 6.056
42.02000 5.109
42.03000 3.039
42.04000 4.042
42.05000 5.059
42.06000 4.102
42.07000 3.090
42.08000 4.050
42.09000 1.031
42.10000 2.997
42.11000 3.026
42.12000 3.064
42.13000 1.066
42.14000 3.048
42.15000 2.018
42.16000 2.004
42.17000 3.053
42.18000 6.008
42.19000 5.053
42.20000 5.085
42.21000 8.097
42.22000 5.060
42.23000 2.051
42.24000 6.099
42.25000 2.030
42.26000 4.091
42.27000 9.126
42.28000 5.062
42.29000 1.997
42.30000 4.979
42.31000 3.028
42.32000 4.108
42.33000 2.993
42.34000 5.118
42.35000 2.020
42.36000 4.013
42.37000 2.034
42.38000 3.063
42.39000 3.091
42.40000 2.976
42.41000 2.056
42.42000 5.017
42.43000 6.159
42.44000 4.078
42.45000 4.109
42.46000 1.986
42.47000 4.105
42.48000 4.027
42.49000 5.041
42.50000 6.095
42.51000 4.057
42.52000 2.038
42.53000 3.009
42.54000 4.981
42.55000 8.066
42.56000 2.993
42.57000 10.013
42.58000 6.016
42.59000 2.018
42.60000 4.029
42.61000 4.067
42.62000 5.081
42.63000 3.006
42.64000 4.017
42.65000 5.174
42.66000 3.070
42.67000 7.042
42.68000 6.110
42.69000 6.119
42.70000 4.074
42.71000 3.016
42.72000 5.017
42.73000 1.015
42.74000 2.043
42.75000 1.019
42.76000 6.050
42.77000 1.949
42.78000 5.012
42.79000 5.151
42.80000 5.034
42.81000 3.978
42.82000 0.990
42.83000 1.013
42.84000 0.992
42.85000 5.199
42.86000 6.048
42.87000 4.082
42.88000 4.045
42.89000 5.067
42.90000 5.123
42.91000 5.048
42.92000 6.125
42.93000 8.231
42.94000 8.125
42.95000 0.983
42.96000 3.015
42.97000 7.161
42.98000 2.025
42.99000 6.050
43.00000 2.019
43.01000 3.114
43.02000 2.983
43.03000 4.031
43.04000 6.069
43.05000 3.028
43.06000 4.099
43.07000 3.049
43.08000 2.009
43.09000 7.096
43.10000 4.006
43.11000 5.145
43.12000 6.009
43.13000 5.103
43.14000 4.057
43.15000 3.024
43.16000 4.168
43.17000 3.066
43.18000 4.046
43.19000 4.077
43.20000 4.072
43.21000 4.105
43.22000 5.029
43.23000 3.036
43.24000 1.981
43.25000 6.158
43.26000 3.977
43.27000 2.048
43.28000 5.073
43.29000 1.014
43.30000 4.059
43.31000 6.138
43.32000 6.122
43.33000 2.032
43.34000 6.092
43.35000 3.995
43.36000 3.077
43.37000 2.079
43.38000 1.975
43.39000 5.013
43.40000 5.040
43.41000 4.013
43.42000 9.078
43.43000 2.074
43.44000 5.063
43.45000 6.944
43.46000 4.067
43.47000 1.994
43.48000 4.992
43.49000 2.034
43.50000 1.009
43.51000 3.999
43.52000 5.007
43.53000 2.008
43.54000 3.987
43.55000 4.047
43.56000 3.089
43.57000 6.134
43.58000 1.995
43.59000 3.118
43.60000 6.047
43.61000 6.034
43.62000 3.073
43.63000 5.082
43.64000 3.963
43.65000 3.972
43.66000 3.094
43.67000 5.108
43.68000 9.072
43.69000 6.114
43.70000 4.080
43.71000 1.016
43.72000 5.151
43.73000 2.994
43.74000 4.090
43.75000 3.976
43.76000 3.032
43.77000 4.112
43.78000 6.124
43.79000 1.013
43.80000 8.030
43.81000 9.172
43.82000 5.047
43.83000 2.047
43.84000 5.104
43.85000 0.000
43.86000 4.064
43.87000 5.070
43.88000 5.026
43.89000 4.022
43.90000 5.086
43.91000 4.017
43.92000 2.050
43.93000 4.994
43.94000 4.098
43.95000 6.060
43.96000 1.987
43.97000 3.032
43.98000 7.147
43.99000 1.985
44.00000 2.980
44.01000 0.000
44.02000 6.101
44.03000 0.989
44.04000 6.104
44.05000 2.000
44.06000 3.057
44.07000 3.021
44.08000 4.053
44.09000 7.122
44.10000 4.010
44.11000 5.165
44.12000 5.962
44.13000 3.989
44.14000 2.020
44.15000 6.126
44.16000 5.051
44.17000 0.977
44.18000 0.991
44.19000 4.088
44.20000 2.048
44.21000 3.033
44.22000 2.010
44.23000 3.004
44.24000 5.028
44.25000 7.131
44.26000 2.037
44.27000 5.122
44.28000 1.016
44.29000 4.054
44.30000 2.029
44.31000 7.176
44.32000 8.068
44.33000 6.981
44.34000 4.009
44.35000 4.108
44.36000 3.051
44.37000 5.115
44.38000 2.040
44.39000 5.059
44.40000 3.096
44.41000 3.071
44.42000 3.051
44.43000 4.000
44.44000 4.097
44.45000 4.120
44.46000 5.163
44.47000 2.002
44.48000 5.043
44.49000 3.005
44.50000 5.056
44.51000 4.066
44.52000 4.022
44.53000 6.117
44.54000 2.045
44.55000 5.065
44.56000 3.016
44.57000 2.957
44.58000 4.016
44.59000 0.000
44.60000 4.020
44.61000 2.021
44.62000 3.031
44.63000 2.995
44.64000 5.078
44.65000 2.010
44.66000 3.064
44.67000 4.976
44.68000 2.009
44.69000 1.994
44.70000 0.000
44.71000 5.115
44.72000 4.072
44.73000 3.058
44.74000 0.000
44.75000 3.050
44.76000 1.032
44.77000 4.038
44.78000 4.088
44.79000 3.073
44.80000 3.005
44.81000 7.094
44.82000 5.017
44.83000 2.021
44.84000 5.085
44.85000 4.067
44.86000 10.158
44.87000 0.989
44.88000 0.990
44.89000 1.993
44.90000 2.018
44.91000 6.021
44.92000 0.000
44.93000 6.041
44.94000 4.015
44.95000 2.067
44.96000 4.032
44.97000 5.140
44.98000 3.025
44.99000 2.027
45.00000 5.013
45.01000 7.139
45.02000 1.006
45.03000 1.027
45.04000 4.082
45.05000 4.081
45.06000 2.041
45.07000 2.977
45.08000 1.005
45.09000 4.058
45.10000 3.010
45.11000 3.035
45.12000 3.027
45.13000 0.996
45.14000 2.980
45.15000 2.017
45.16000 0.000
45.17000 2.989
45.18000 3.022
45.19000 5.028
45.20000 6.092
45.21000 2.038
45.22000 2.074
45.23000 3.031
45.24000 3.062
45.25000 4.053
45.26000 4.135
45.27000 1.006
45.28000 0.000
45.29000 3.004
45.30000 3.957
45.31000 1.039
45.32000 5.058
45.33000 2.088
45.34000 5.118
45.35000 6.107
45.36000 3.047
45.37000 4.034
45.38000 4.062
45.39000 5.098
45.40000 8.124
45.41000 2.967
45.42000 5.118
45.43000 6.032
45.44000 5.989
45.45000 0.995
45.46000 7.091
45.47000 3.048
45.48000 2.981
45.49000 6.144
45.50000 3.037
45.51000 9.194
45.52000 3.074
45.53000 1.965
45.54000 5.011
45.55000 6.186
45.56000 2.033
45.57000 4.075
45.58000 0.000
45.59000 6.095
45.60000 3.047
45.61000 4.017
45.62000 4.075
45.63000 2.017
45.64000 1.009
45.65000 4.038
45.66000 1.985
45.67000 5.188
45.68000 2.011
45.69000 1.005
45.70000 2.031
45.71000 2.017
45.72000 3.001
45.73000 2.009
45.74000 6.096
45.75000 6.087
45.76000 3.080
45.77000 2.046
45.78000 1.016
45.79000 7.197
45.80000 4.037
45.81000 5.001
45.82000 2.102
45.83000 0.000
45.84000 2.048
45.85000 4.090
45.86000 2.039
45.87000 7.036
45.88000 3.032
45.89000 6.075
45.90000 1.014
45.91000 6.025
45.92000 1.992
45.93000 3.089
45.94000 4.028
45.95000 0.998
45.96000 2.019
45.97000 0.978
45.98000 5.080
45.99000 3.031
46.00000 0.993
46.01000 3.007
46.02000 4.046
46.03000 1.010
46.04000 1.006
46.05000 5.029
46.06000 5.036
46.07000 1.992
46.08000 2.031
46.09000 2.026
46.10000 5.066
46.11000 1.051
46.12000 4.046
46.13000 2.084
46.14000 5.024
46.15000 2.063
46.16000 6.010
46.17000 1.980
46.18000 3.031
46.19000 5.064
46.20000 2.070
46.21000 2.058
46.22000 2.011
46.23000 1.002
46.24000 2.049
46.25000 1.005
46.26000 3.056
46.27000 3.020
46.28000 4.995
46.29000 2.045
46.30000 6.140
46.31000 6.078
46.32000 2.990
46.33000 1.013
46.34000 2.100
46.35000 0.971
46.36000 2.056
46.37000 5.062
46.38000 3.968
46.39000 5.009
46.40000 3.067
46.41000 4.060
46.42000 3.048
46.43000 5.037
46.44000 3.977
46.45000 3.024
46.46000 3.013
46.47000 8.046
46.48000 6.064
46.49000 3.004
46.50000 7.135
46.51000 3.030
46.52000 8.164
46.53000 3.961
46.54000 3.047
46.55000 2.012
46.56000 3.033
46.57000 1.025
46.58000 4.032
46.59000 4.049
46.60000 3.055
46.61000 4.071
46.62000 3.038
46.63000 0.990
46.64000 0.992
46.65000 1.979
46.66000 4.027
46.67000 5.001
46.68000 5.046
46.69000 6.195
46.70000 2.046
46.71000 0.983
46.72000 4.010
46.73000 4.017
46.74000 0.984
46.75000 2.035
46.76000 5.031
46.77000 1.016
46.78000 4.012
46.79000 5.005
46.80000 5.144
46.81000 2.026
46.82000 1.037
46.83000 1.982
46.84000 4.053
46.85000 2.006
46.86000 3.045
46.87000 5.058
46.88000 4.088
46.89000 9.018
46.90000 5.088
46.91000 0.000
46.92000 1.025
46.93000 3.043
46.94000 2.103
46.95000 4.044
46.96000 8.106
46.97000 2.068
46.98000 4.174
46.99000 1.025
47.00000 7.945
47.01000 8.071
47.02000 2.054
47.03000 0.980
47.04000 2.045
47.05000 2.989
47.06000 3.017
47.07000 3.124
47.08000 4.027
47.09000 1.968
47.10000 2.062
47.11000 0.988
47.12000 2.961
47.13000 2.033
47.14000 2.996
47.15000 4.002
47.16000 3.137
47.17000 2.997
47.18000 1.977
47.19000 3.018
47.20000 1.988
47.21000 3.059
47.22000 6.064
47.23000 3.061
47.24000 1.963
47.25000 1.030
47.26000 0.994
47.27000 4.039
47.28000 0.000
47.29000 7.203
47.30000 3.032
47.31000 1.989
47.32000 3.026
47.33000 5.181
47.34000 3.013
47.35000 5.123
47.36000 3.023
47.37000 3.134
47.38000 3.992
47.39000 2.970
47.40000 4.025
47.41000 3.070
47.42000 2.015
47.43000 5.068
47.44000 0.985
47.45000 6.095
47.46000 3.032
47.47000 3.076
47.48000 6.026
47.49000 2.041
47.50000 2.017
47.51000 2.016
47.52000 2.094
47.53000 5.077
47.54000 2.023
47.55000 2.028
47.56000 6.004
47.57000 5.033
47.58000 3.023
47.59000 4.947
47.60000 3.050
47.61000 0.996
47.62000 5.119
47.63000 5.017
47.64000 2.958
47.65000 1.000
47.66000 2.086
47.67000 7.035
47.68000 0.000
47.69000 4.044
47.70000 4.000
47.71000 0.000
47.72000 4.085
47.73000 0.971
47.74000 1.964
47.75000 2.034
47.76000 3.054
47.77000 2.051
47.78000 6.120
47.79000 2.063
47.80000 3.026
47.81000 4.038
47.82000 2.013
47.83000 4.021
47.84000 6.077
47.85000 1.004
47.86000 2.993
47.87000 4.118
47.88000 3.960
47.89000 3.074
47.90000 2.953
47.91000 2.993
47.92000 0.996
47.93000 5.051
47.94000 2.057
47.95000 3.998
47.96000 4.071
47.97000 1.030
47.98000 2.965
47.99000 0.000
48.00000 1.018
48.01000 5.050
48.02000 7.120
48.03000 4.007
48.04000 0.999
48.05000 0.986
48.06000 2.978
48.07000 4.058
48.08000 2.082
48.09000 4.034
48.10000 1.070
48.11000 4.032
48.12000 3.004
48.13000 5.102
48.14000 1.004
48.15000 2.011
48.16000 3.093
48.17000 5.045
48.18000 6.053
48.19000 3.991
48.20000 2.039
48.21000 4.060
48.22000 2.039
48.23000 4.046
48.24000 0.000
48.25000 4.031
48.26000 4.060
48.27000 0.000
48.28000 2.026
48.29000 3.055
48.30000 0.000
48.31000 1.971
48.32000 2.052
48.33000 2.054
48.34000 5.085
48.35000 1.043
48.36000 4.081
48.37000 0.978
48.38000 1.994
48.39000 2.017
48.40000 1.005
48.41000 1.011
48.42000 1.060
48.43000 3.084
48.44000 3.027
48.45000 4.096
48.46000 3.014
48.47000 4.060
48.48000 1.989
48.49000 2.051
48.50000 3.018
48.51000 2.003
48.52000 0.000
48.53000 5.157
48.54000 1.010
48.55000 1.017
48.56000 4.043
48.57000 1.009
48.58000 0.000
48.59000 1.995
48.60000 0.000
48.61000 3.106
48.62000 2.059
48.63000 3.964
48.64000 2.981
48.65000 0.000
48.66000 0.993
48.67000 1.068
48.68000 4.975
48.69000 0.000
48.70000 4.058
48.71000 2.001
48.72000 6.053
48.73000 1.976
48.74000 2.007
48.75000 1.987
48.76000 4.115
48.77000 7.028
48.78000 0.985
48.79000 1.010
48.80000 5.169
48.81000 2.055
48.82000 3.968
48.83000 4.069
48.84000 3.002
48.85000 6.325
48.86000 1.983
48.87000 2.080
48.88000 4.031
48.89000 3.004
48.90000 0.000
48.91000 2.017
48.92000 2.029
48.93000 3.059
48.94000 0.000
48.95000 5.134
48.96000 2.060
48.97000 2.038
48.98000 2.085
48.99000 3.994
49.00000 1.996
49.01000 1.029
49.02000 0.000
49.03000 4.142
49.04000 3.007
49.05000 4.011
49.06000 5.109
49.07000 3.049
49.08000 3.025
49.09000 5.074
49.10000 3.071
49.11000 1.032
49.12000 3.029
49.13000 3.045
49.14000 4.030
49.15000 4.015
49.16000 4.037
49.17000 2.998
49.18000 1.974
49.19000 2.037
49.20000 4.078
49.21000 2.005
49.22000 1.968
49.23000 5.033
49.24000 3.014
49.25000 3.022
49.26000 5.096
49.27000 4.068
49.28000 3.038
49.29000 2.001
49.30000 2.018
49.31000 3.033
49.32000 4.079
49.33000 2.035
49.34000 1.037
49.35000 0.976
49.36000 0.000
49.37000 1.987
49.38000 1.009
49.39000 6.051
49.40000 2.058
49.41000 3.029
49.42000 2.931
49.43000 1.961
49.44000 0.986
49.45000 0.991
49.46000 4.043
49.47000 2.058
49.48000 2.014
49.49000 0.978
49.50000 1.990
49.51000 3.094
49.52000 1.002
49.53000 2.021
49.54000 0.000
49.55000 8.117
49.56000 2.025
49.57000 3.015
49.58000 3.028
49.59000 3.982
49.60000 1.999
49.61000 3.066
49.62000 2.099
49.63000 6.014
49.64000 0.000
49.65000 1.961
49.66000 3.988
49.67000 1.000
49.68000 2.055
49.69000 5.040
49.70000 1.978
49.71000 3.007
49.72000 2.023
49.73000 1.009
49.74000 3.052
49.75000 5.024
49.76000 4.068
49.77000 2.084
49.78000 2.064
49.79000 1.038
49.80000 5.006
49.81000 1.990
49.82000 2.012
49.83000 1.028
49.84000 2.011
49.85000 3.029
49.86000 5.118
49.87000 1.042
49.88000 3.056
49.89000 2.062
49.90000 2.955
49.91000 3.052
49.92000 0.987
49.93000 4.047
49.94000 5.120
49.95000 2.040
49.96000 1.029
49.97000 5.124
49.98000 2.071
49.99000 7.050
50.00000 2.073
50.01000 0.000
50.02000 1.975
50.03000 3.012
50.04000 0.000
50.05000 5.203
50.06000 0.990
50.07000 2.990
50.08000 6.057
50.09000 1.009
50.10000 3.051
50.11000 0.996
50.12000 3.962
50.13000 4.026
50.14000 2.019
50.15000 2.051
50.16000 2.002
50.17000 1.015
50.18000 4.028
50.19000 3.028
50.20000 4.039
50.21000 1.101
50.22000 0.000
50.23000 3.039
50.24000 4.093
50.25000 1.016
50.26000 5.048
50.27000 4.063
50.28000 4.097
50.29000 3.067
50.30000 0.995
50.31000 2.000
50.32000 5.107
50.33000 1.051
50.34000 4.088
50.35000 3.037
50.36000 1.021
50.37000 3.016
50.38000 1.044
50.39000 3.001
50.40000 6.155
50.41000 1.980
50.42000 1.036
50.43000 7.076
50.44000 4.047
50.45000 2.050
50.46000 3.944
50.47000 0.978
50.48000 2.034
50.49000 2.000
50.50000 4.123
50.51000 2.993
50.52000 6.997
50.53000 0.979
50.54000 3.051
50.55000 2.957
50.56000 5.012
50.57000 0.999
50.58000 2.004
50.59000 2.965
50.60000 2.042
50.61000 2.029
50.62000 2.021
50.63000 9.048
50.64000 3.026
50.65000 5.030
50.66000 5.034
50.67000 5.076
50.68000 3.076
50.69000 3.110
50.70000 5.994
50.71000 4.014
50.72000 2.994
50.73000 0.981
50.74000 5.072
50.75000 5.080
50.76000 1.995
50.77000 0.000
50.78000 4.052
50.79000 2.053
50.80000 3.013
50.81000 3.023
50.82000 0.964
50.83000 3.005
50.84000 3.097
50.85000 6.173
50.86000 2.980
50.87000 2.989
50.88000 2.025
50.89000 0.980
50.90000 3.004
50.91000 3.039
50.92000 0.000
50.93000 7.159
50.94000 6.107
50.95000 5.071
50.96000 0.998
50.97000 2.045
50.98000 7.112
50.99000 1.978
51.00000 2.071
51.01000 3.112
51.02000 3.000
51.03000 5.045
51.04000 4.011
51.05000 3.125
51.06000 0.980
51.07000 7.107
51.08000 4.007
51.09000 1.056
51.10000 3.057
51.11000 4.041
51.12000 0.000
51.13000 4.098
51.14000 6.093
51.15000 1.990
51.16000 1.058
51.17000 3.003
51.18000 1.012
51.19000 0.000
51.20000 1.993
51.21000 2.023
51.22000 3.014
51.23000 4.064
51.24000 5.015
51.25000 2.012
51.26000 3.052
51.27000 2.052
51.28000 2.992
51.29000 4.928
51.30000 3.009
51.31000 0.000
51.32000 1.008
51.33000 6.245
51.34000 2.985
51.35000 2.973
51.36000 2.047
51.37000 5.031
51.38000 0.979
51.39000 3.049
51.40000 5.055
51.41000 2.025
51.42000 4.006
51.43000 1.980
51.44000 3.002
51.45000 3.990
51.46000 5.069
51.47000 2.025
51.48000 3.031
51.49000 2.994
51.50000 0.000
51.51000 5.039
51.52000 2.025
51.53000 3.050
51.54000 4.064
51.55000 1.059
51.56000 3.086
51.57000 3.017
51.58000 2.050
51.59000 2.023
51.60000 3.022
51.61000 3.060
51.62000 1.987
51.63000 4.050
51.64000 3.070
51.65000 8.037
51.66000 4.064
51.67000 4.196
51.68000 3.103
51.69000 0.000
51.70000 2.034
51.71000 4.059
51.72000 4.033
51.73000 1.997
51.74000 2.000
51.75000 3.007
51.76000 3.031
51.77000 5.982
51.78000 4.012
51.79000 0.000
51.80000 0.000
51.81000 2.977
51.82000 2.967
51.83000 4.125
51.84000 4.059
51.85000 0.000
51.86000 0.000
51.87000 6.091
51.88000 5.103
51.89000 1.980
51.90000 0.000
51.91000 3.006
51.92000 7.146
51.93000 1.024
51.94000 4.087
51.95000 1.035
51.96000 2.063
51.97000 2.049
51.98000 2.058
51.99000 3.027
52.00000 0.000
52.01000 7.056
52.02000 4.059
52.03000 2.108
52.04000 0.000
52.05000 5.098
52.06000 1.010
52.07000 6.046
52.08000 2.038
52.09000 3.019
52.10000 0.000
52.11000 6.032
52.12000 3.011
52.13000 4.022
52.14000 2.018
52.15000 1.012
52.16000 2.003
52.17000 2.021
52.18000 1.030
52.19000 1.000
52.20000 4.085
52.21000 2.106
52.22000 1.985
52.23000 1.986
52.24000 2.026
52.25000 6.018
52.26000 3.043
52.27000 3.017
52.28000 6.113
52.29000 1.024
52.30000 4.027
52.31000 0.998
52.32000 0.980
52.33000 1.018
52.34000 3.075
52.35000 2.022
52.36000 2.023
52.37000 1.989
52.38000 4.095
52.39000 1.026
52.40000 4.001
52.41000 4.036
52.42000 1.019
52.43000 2.948
52.44000 4.052
52.45000 3.064
52.46000 2.118
52.47000 3.057
52.48000 2.990
52.49000 5.032
52.50000 3.982
52.51000 2.006
52.52000 1.995
52.53000 2.037
52.54000 2.001
52.55000 2.010
52.56000 3.063
52.57000 3.070
52.58000 0.995
52.59000 1.033
52.60000 1.995
52.61000 3.015
52.62000 3.134
52.63000 3.013
52.64000 5.121
52.65000 4.071
52.66000 2.055
52.67000 3.034
52.68000 2.010
52.69000 2.072
52.70000 1.010
52.71000 2.070
52.72000 3.034
52.73000 0.000
52.74000 3.033
52.75000 6.119
52.76000 2.035
52.77000 4.972
52.78000 0.986
52.79000 2.055
52.80000 0.000
52.81000 2.054
52.82000 2.009
52.83000 7.065
52.84000 0.000
52.85000 1.018
52.86000 1.977
52.87000 1.030
52.88000 2.048
52.89000 2.014
52.90000 1.979
52.91000 3.057
52.92000 6.156
52.93000 2.091
52.94000 2.028
52.95000 2.119
52.96000 1.014
52.97000 2.048
52.98000 1.005
52.99000 3.007
53.00000 3.027
53.01000 1.038
53.02000 1.028
53.03000 1.028
53.04000 0.000
53.05000 3.065
53.06000 0.000
53.07000 0.998
53.08000 4.040
53.09000 3.028
53.10000 0.000
53.11000 1.005
53.12000 3.020
53.13000 3.127
53.14000 1.008
53.15000 1.033
53.16000 1.987
53.17000 6.142
53.18000 1.027
53.19000 3.053
53.20000 6.002
53.21000 2.027
53.22000 4.030
53.23000 1.994
53.24000 0.985
53.25000 7.138
53.26000 5.172
53.27000 4.042
53.28000 1.045
53.29000 2.046
53.30000 4.041
53.31000 2.018
53.32000 2.989
53.33000 1.979
53.34000 1.008
53.35000 3.015
53.36000 1.004
53.37000 2.054
53.38000 2.993
53.39000 0.000
53.40000 1.993
53.41000 3.099
53.42000 4.025
53.43000 0.000
53.44000 3.013
53.45000 0.000
53.46000 1.007
53.47000 0.000
53.48000 7.117
53.49000 6.076
53.50000 4.007
53.51000 0.985
53.52000 4.019
53.53000 3.022
53.54000 1.041
53.55000 1.993
53.56000 3.005
53.57000 3.992
53.58000 2.038
53.59000 1.982
53.60000 0.000
53.61000 1.034
53.62000 3.014
53.63000 0.996
53.64000 5.141
53.65000 4.098
53.66000 8.052
53.67000 3.011
53.68000 1.989
53.69000 0.000
53.70000 0.995
53.71000 2.027
53.72000 5.050
53.73000 2.014
53.74000 4.104
53.75000 3.039
53.76000 3.086
53.77000 2.022
53.78000 3.035
53.79000 2.045
53.80000 1.991
53.81000 4.016
53.82000 7.271
53.83000 3.109
53.84000 3.029
53.85000 3.039
53.86000 0.985
53.87000 2.010
53.88000 2.098
53.89000 2.063
53.90000 2.977
53.91000 2.013
53.92000 1.994
53.93000 0.986
53.94000 0.000
53.95000 1.015
53.96000 0.000
53.97000 0.000
53.98000 2.021
53.99000 3.074
54.00000 5.053
54.01000 4.156
54.02000 0.000
54.03000 2.072
54.04000 3.098
54.05000 1.090
54.06000 3.041
54.07000 1.012
54.08000 0.995
54.09000 1.989
54.10000 2.982
54.11000 3.031
54.12000 3.081
54.13000 1.008
54.14000 2.042
54.15000 8.019
54.16000 1.979
54.17000 1.032
54.18000 1.000
54.19000 3.073
54.20000 1.030
54.21000 0.000
54.22000 2.013
54.23000 1.031
54.24000 1.022
54.25000 5.055
54.26000 2.976
54.27000 3.029
54.28000 4.035
54.29000 2.954
54.30000 4.026
54.31000 2.991
54.32000 0.988
54.33000 2.035
54.34000 3.023
54.35000 2.069
54.36000 2.039
54.37000 1.012
54.38000 3.985
54.39000 3.050
54.40000 0.981
54.41000 1.013
54.42000 1.045
54.43000 3.006
54.44000 0.988
54.45000 1.004
54.46000 1.025
54.47000 5.023
54.48000 1.007
54.49000 3.020
54.50000 1.028
54.51000 0.994
54.52000 4.085
54.53000 2.046
54.54000 5.041
54.55000 2.061
54.56000 7.076
54.57000 1.046
54.58000 3.010
54.59000 3.061
54.60000 3.084
54.61000 6.072
54.62000 0.991
54.63000 0.989
54.64000 1.046
54.65000 2.063
54.66000 3.031
54.67000 2.019
54.68000 3.051
54.69000 4.979
54.70000 3.012
54.71000 4.050
54.72000 3.047
54.73000 1.065
54.74000 4.064
54.75000 0.994
54.76000 2.000
54.77000 5.038
54.78000 1.987
54.79000 0.000
54.80000 3.987
54.81000 7.117
54.82000 1.010
54.83000 2.048
54.84000 1.009
54.85000 3.965
54.86000 2.046
54.87000 4.004
54.88000 1.983
54.89000 5.034
54.90000 1.051
54.91000 0.000
54.92000 2.007
54.93000 3.054
54.94000 2.013
54.95000 3.028
54.96000 2.038
54.97000 2.000
54.98000 3.029
54.99000 2.987
55.00000 1.009
55.01000 3.003
55.02000 5.091
55.03000 0.997
55.04000 0.990
55.05000 5.061
55.06000 2.078
55.07000 3.081
55.08000 4.059
55.09000 2.095
55.10000 2.041
55.11000 2.005
55.12000 4.007
55.13000 0.000
55.14000 1.991
55.15000 3.038
55.16000 4.139
55.17000 1.003
55.18000 3.007
55.19000 4.047
55.20000 1.065
55.21000 1.011
55.22000 1.055
55.23000 2.014
55.24000 3.109
55.25000 5.120
55.26000 3.025
55.27000 2.001
55.28000 1.012
55.29000 2.030
55.30000 0.000
55.31000 0.000
55.32000 0.991
55.33000 2.010
55.34000 1.009
55.35000 0.000
55.36000 2.990
55.37000 0.987
55.38000 1.992
55.39000 1.029
55.40000 2.001
55.41000 4.022
55.42000 1.001
55.43000 4.143
55.44000 3.125
55.45000 0.991
55.46000 4.064
55.47000 2.051
55.48000 4.009
55.49000 2.034
55.50000 1.990
55.51000 2.010
55.52000 4.079
55.53000 2.008
55.54000 3.053
55.55000 1.024
55.56000 1.015
55.57000 5.044
55.58000 2.008
55.59000 1.006
55.60000 0.000
55.61000 0.000
55.62000 1.041
55.63000 5.104
55.64000 2.034
55.65000 3.014
55.66000 0.000
55.67000 1.998
55.68000 6.009
55.69000 1.025
55.70000 0.983
55.71000 3.007
55.72000 1.988
55.73000 1.052
55.74000 1.022
55.75000 3.023
55.76000 0.989
55.77000 2.041
55.78000 3.109
55.79000 1.010
55.80000 1.024
55.81000 1.013
55.82000 0.997
55.83000 3.009
55.84000 1.028
55.85000 4.009
55.86000 0.996
55.87000 5.030
55.88000 3.005
55.89000 2.009
55.90000 4.032
55.91000 0.000
55.92000 2.043
55.93000 2.007
55.94000 0.000
55.95000 3.020
55.96000 2.062
55.97000 3.024
55.98000 2.002
55.99000 3.009
56.00000 4.004
56.01000 4.057
56.02000 0.000
56.03000 0.000
56.04000 1.026
56.05000 2.043
56.06000 3.055
56.07000 2.031
56.08000 3.046
56.09000 0.966
56.10000 2.080
56.11000 3.037
56.12000 0.987
56.13000 5.032
56.14000 1.021
56.15000 0.000
56.16000 1.978
56.17000 3.063
56.18000 2.034
56.19000 1.024
56.20000 1.963
56.21000 2.058
56.22000 2.043
56.23000 4.060
56.24000 2.018
56.25000 1.040
56.26000 0.000
56.27000 0.000
56.28000 3.020
56.29000 2.021
56.30000 1.994
56.31000 3.039
56.32000 3.086
56.33000 3.069
56.34000 1.085
56.35000 1.017
56.36000 3.038
56.37000 0.987
56.38000 0.000
56.39000 0.000
56.40000 2.051
56.41000 0.995
56.42000 1.032
56.43000 0.000
56.44000 0.993
56.45000 2.044
56.46000 4.048
56.47000 1.005
56.48000 0.000
56.49000 1.010
56.50000 1.004
56.51000 0.981
56.52000 1.012
56.53000 0.984
56.54000 1.981
56.55000 1.009
56.56000 5.146
56.57000 2.014
56.58000 4.028
56.59000 2.036
56.60000 2.022
56.61000 7.093
56.62000 3.025
56.63000 3.047
56.64000 3.040
56.65000 0.990
56.66000 1.993
56.67000 2.988
56.68000 4.039
56.69000 3.073
56.70000 2.021
56.71000 4.008
56.72000 0.000
56.73000 0.000
56.74000 1.951
56.75000 1.048
56.76000 1.011
56.77000 9.079
56.78000 3.014
56.79000 2.965
56.80000 5.065
56.81000 2.066
56.82000 1.000
56.83000 1.007
56.84000 1.007
56.85000 1.030
56.86000 2.028
56.87000 1.023
56.88000 2.991
56.89000 2.060
56.90000 1.000
56.91000 2.024
56.92000 7.069
56.93000 2.004
56.94000 2.000
56.95000 6.058
56.96000 2.021
56.97000 1.012
56.98000 3.132
56.99000 2.123
57.00000 0.988
57.01000 1.994
57.02000 0.964
57.03000 2.993
57.04000 3.035
57.05000 5.074
57.06000 4.158
57.07000 5.015
57.08000 6.080
57.09000 0.000
57.10000 1.002
57.11000 2.013
57.12000 2.000
57.13000 0.000
57.14000 2.049
57.15000 2.011
57.16000 0.996
57.17000 3.988
57.18000 0.000
57.19000 2.102
57.20000 1.998
57.21000 3.047
57.22000 3.051
57.23000 2.003
57.24000 0.000
57.25000 2.012
57.26000 1.050
57.27000 1.013
57.28000 6.042
57.29000 0.999
57.30000 1.005
57.31000 3.090
57.32000 3.973
57.33000 4.052
57.34000 3.049
57.35000 3.075
57.36000 0.000
57.37000 2.067
57.38000 4.068
57.39000 3.074
57.40000 4.048
57.41000 1.001
57.42000 2.060
57.43000 2.033
57.44000 3.092
57.45000 3.040
57.46000 1.952
57.47000 1.982
57.48000 3.075
57.49000 6.039
57.50000 2.009
57.51000 1.021
57.52000 1.033
57.53000 1.023
57.54000 5.096
57.55000 1.976
57.56000 2.012
57.57000 4.988
57.58000 4.122
57.59000 2.043
57.60000 0.000
57.61000 1.028
57.62000 0.994
57.63000 3.013
57.64000 0.985
57.65000 6.008
57.66000 0.995
57.67000 1.023
57.68000 2.014
57.69000 0.000
57.70000 2.055
57.71000 6.124
57.72000 3.063
57.73000 1.994
57.74000 0.988
57.75000 4.050
57.76000 3.020
57.77000 1.998
57.78000 5.109
57.79000 3.056
57.80000 2.005
57.81000 1.062
57.82000 2.021
57.83000 5.141
57.84000 5.155
57.85000 0.997
57.86000 1.001
57.87000 2.029
57.88000 2.974
57.89000 0.974
57.90000 1.009
57.91000 3.073
57.92000 0.979
57.93000 3.080
57.94000 2.026
57.95000 0.000
57.96000 2.046
57.97000 2.059
57.98000 5.007
57.99000 4.101
58.00000 2.021
58.01000 4.027
58.02000 1.004
58.03000 1.009
58.04000 3.000
58.05000 3.020
58.06000 1.984
58.07000 0.975
58.08000 2.034
58.09000 3.039
58.10000 6.063
58.11000 2.060
58.12000 1.016
58.13000 0.000
58.14000 3.000
58.15000 1.985
58.16000 4.107
58.17000 3.080
58.18000 2.022
58.19000 4.074
58.20000 0.000
58.21000 1.014
58.22000 1.039
58.23000 2.012
58.24000 2.095
58.25000 4.061
58.26000 5.055
58.27000 3.966
58.28000 1.973
58.29000 2.069
58.30000 6.041
58.31000 5.033
58.32000 1.050
58.33000 2.072
58.34000 0.985
58.35000 2.979
58.36000 3.996
58.37000 0.998
58.38000 2.023
58.39000 0.000
58.40000 4.180
58.41000 3.019
58.42000 2.036
58.43000 4.032
58.44000 0.000
58.45000 1.007
58.46000 2.064
58.47000 3.006
58.48000 1.022
58.49000 1.042
58.50000 1.012
58.51000 2.052
58.52000 0.977
58.53000 2.055
58.54000 0.000
58.55000 2.969
58.56000 2.062
58.57000 1.051
58.58000 5.099
58.59000 2.027
58.60000 4.112
58.61000 2.051
58.62000 0.000
58.63000 3.076
58.64000 1.007
58.65000 2.037
58.66000 0.987
58.67000 3.029
58.68000 3.980
58.69000 0.985
58.70000 1.977
58.71000 1.012
58.72000 5.016
58.73000 0.000
58.74000 0.974
58.75000 1.991
58.76000 4.057
58.77000 2.004
58.78000 0.000
58.79000 2.030
58.80000 0.000
58.81000 1.000
58.82000 0.000
58.83000 1.000
58.84000 0.000
58.85000 4.076
58.86000 2.989
58.87000 1.008
58.88000 2.043
58.89000 1.009
58.90000 3.986
58.91000 3.124
58.92000 0.975
58.93000 1.970
58.94000 2.999
58.95000 3.011
58.96000 1.976
58.97000 3.068
58.98000 1.954
58.99000 2.053
59.00000 2.014
59.01000 3.058
59.02000 2.055
59.03000 1.007
59.04000 1.959
59.05000 2.990
59.06000 0.000
59.07000 3.056
59.08000 3.026
59.09000 4.054
59.10000 3.027
59.11000 3.053
59.12000 1.998
59.13000 1.998
59.14000 2.105
59.15000 1.011
59.16000 3.050
59.17000 1.035
59.18000 3.021
59.19000 4.126
59.20000 4.159
59.21000 3.077
59.22000 2.074
59.23000 1.006
59.24000 1.977
59.25000 3.032
59.26000 4.139
59.27000 1.985
59.28000 3.021
59.29000 4.075
59.30000 0.000
59.31000 1.003
59.32000 0.000
59.33000 1.040
59.34000 2.028
59.35000 2.115
59.36000 3.025
59.37000 5.138
59.38000 2.039
59.39000 0.000
59.40000 6.092
59.41000 1.044
59.42000 4.047
59.43000 2.027
59.44000 4.139
59.45000 3.052
59.46000 1.002
59.47000 5.102
59.48000 4.123
59.49000 0.000
59.50000 2.005
59.51000 2.017
59.52000 1.068
59.53000 3.048
59.54000 1.009
59.55000 0.983
59.56000 2.998
59.57000 1.077
59.58000 1.050
59.59000 3.002
59.60000 1.045
59.61000 1.031
59.62000 2.063
59.63000 4.962
59.64000 2.045
59.65000 0.000
59.66000 0.998
59.67000 2.129
59.68000 1.036
59.69000 2.016
59.70000 2.964
59.71000 3.021
59.72000 3.044
59.73000 0.968
59.74000 2.026
59.75000 4.053
59.76000 2.037
59.77000 0.994
59.78000 2.044
59.79000 3.032
59.80000 3.961
59.81000 2.012
59.82000 0.000
59.83000 0.998
59.84000 1.031
59.85000 2.015
59.86000 0.000
59.87000 5.066
59.88000 3.005
59.89000 1.024
59.90000 5.089
59.91000 1.008
59.92000 2.074
59.93000 4.096
59.94000 2.989
59.95000 0.000
59.96000 0.000
59.97000 2.021
59.98000 3.200
59.99000 3.083
60.00000 2.028
60.01000 1.016
60.02000 4.070
60.03000 3.048
60.04000 1.994
60.05000 0.967
60.06000 1.020
60.07000 4.092
60.08000 2.005
60.09000 0.000
60.10000 1.016
60.11000 1.004
60.12000 1.996
60.13000 4.092
60.14000 5.980
60.15000 1.013
60.16000 0.995
60.17000 0.988
60.18000 2.063
60.19000 2.003
60.20000 1.032
60.21000 4.020
60.22000 3.970
60.23000 0.000
60.24000 3.999
60.25000 4.059
60.26000 7.074
60.27000 1.999
60.28000 2.019
60.29000 0.999
60.30000 3.018
60.31000 0.000
60.32000 1.053
60.33000 1.992
60.34000 3.089
60.35000 3.976
60.36000 1.987
60.37000 0.000
60.38000 2.004
60.39000 4.022
60.40000 1.982
60.41000 1.023
60.42000 2.962
60.43000 3.010
60.44000 1.015
60.45000 1.015
60.46000 2.009
60.47000 2.023
60.48000 1.012
60.49000 1.069
60.50000 2.058
60.51000 2.049
60.52000 0.000
60.53000 4.060
60.54000 0.976
60.55000 2.031
60.56000 4.048
60.57000 0.972
60.58000 4.045
60.59000 6.057
60.60000 1.981
60.61000 3.084
60.62000 2.044
60.63000 0.000
60.64000 3.008
60.65000 3.983
60.66000 2.043
60.67000 2.023
60.68000 1.004
60.69000 3.054
60.70000 4.052
60.71000 0.985
60.72000 0.994
60.73000 2.004
60.74000 0.000
60.75000 3.051
60.76000 2.036
60.77000 2.046
60.78000 1.019
60.79000 2.080
60.80000 0.998
60.81000 0.000
60.82000 6.081
60.83000 1.990
60.84000 0.999
60.85000 3.018
60.86000 1.069
60.87000 5.060
60.88000 2.005
60.89000 0.000
60.90000 1.024
60.91000 0.000
60.92000 2.024
60.93000 0.990
60.94000 3.054
60.95000 0.000
60.96000 4.066
60.97000 2.052
60.98000 2.010
60.99000 0.000
61.00000 4.018
61.01000 0.000
61.02000 3.032
61.03000 2.024
61.04000 3.006
61.05000 2.007
61.06000 2.990
61.07000 1.021
61.08000 2.982
61.09000 0.000
61.10000 2.059
61.11000 0.000
61.12000 2.972
61.13000 0.000
61.14000 0.976
61.15000 0.990
61.16000 2.966
61.17000 0.990
61.18000 2.019
61.19000 2.004
61.20000 2.061
61.21000 1.002
61.22000 3.104
61.23000 0.987
61.24000 2.004
61.25000 5.023
61.26000 2.993
61.27000 2.056
61.28000 1.025
61.29000 0.995
61.30000 0.000
61.31000 2.067
61.32000 1.012
61.33000 2.018
61.34000 1.017
61.35000 2.034
61.36000 2.022
61.37000 2.029
61.38000 2.019
61.39000 1.034
61.40000 0.000
61.41000 1.977
61.42000 6.114
61.43000 3.008
61.44000 0.987
61.45000 4.090
61.46000 3.016
61.47000 2.006
61.48000 2.998
61.49000 9.048
61.50000 1.004
61.51000 1.018
61.52000 0.000
61.53000 0.979
61.54000 2.049
61.55000 1.014
61.56000 0.000
61.57000 2.034
61.58000 0.000
61.59000 3.028
61.60000 2.015
61.61000 2.015
61.62000 1.039
61.63000 3.006
61.64000 4.154
61.65000 0.000
61.66000 3.076
61.67000 0.000
61.68000 0.974
61.69000 2.052
61.70000 1.046
61.71000 1.038
61.72000 2.957
61.73000 2.021
61.74000 1.014
61.75000 1.042
61.76000 1.027
61.77000 4.083
61.78000 0.000
61.79000 2.001
61.80000 3.097
61.81000 1.012
61.82000 3.055
61.83000 0.985
61.84000 5.084
61.85000 2.012
61.86000 3.053
61.87000 0.000
61.88000 0.988
61.89000 0.994
61.90000 1.033
61.91000 2.003
61.92000 0.000
61.93000 1.022
61.94000 2.994
61.95000 3.096
61.96000 2.967
61.97000 0.000
61.98000 2.017
61.99000 0.986
62.00000 2.022
62.01000 2.056
62.02000 1.014
62.03000 2.009
62.04000 2.007
62.05000 1.962
62.06000 0.996
62.07000 2.982
62.08000 3.016
62.09000 4.064
62.10000 3.101
62.11000 1.006
62.12000 1.977
62.13000 5.046
62.14000 2.039
62.15000 2.012
62.16000 3.011
62.17000 5.039
62.18000 4.025
62.19000 3.054
62.20000 2.023
62.21000 2.958
62.22000 2.017
62.23000 0.000
62.24000 0.000
62.25000 3.053
62.26000 4.083
62.27000 2.034
62.28000 3.026
62.29000 3.043
62.30000 1.985
62.31000 0.000
62.32000 2.090
62.33000 0.989
62.34000 2.070
62.35000 1.010
62.36000 1.006
62.37000 2.056
62.38000 3.029
62.39000 0.000
62.40000 1.992
62.41000 2.019
62.42000 2.070
62.43000 0.000
62.44000 2.030
62.45000 5.061
62.46000 1.987
62.47000 6.053
62.48000 3.007
62.49000 1.057
62.50000 2.047
62.51000 1.031
62.52000 3.948
62.53000 0.000
62.54000 3.047
62.55000 1.004
62.56000 0.991
62.57000 3.024
62.58000 0.000
62.59000 0.994
62.60000 0.000
62.61000 1.036
62.62000 2.029
62.63000 0.981
62.64000 1.976
62.65000 0.000
62.66000 2.024
62.67000 2.007
62.68000 0.985
62.69000 0.980
62.70000 1.996
62.71000 4.049
62.72000 3.060
62.73000 4.109
62.74000 3.020
62.75000 2.966
62.76000 1.002
62.77000 3.042
62.78000 0.000
62.79000 2.008
62.80000 0.966
62.81000 1.978
62.82000 2.008
62.83000 0.991
62.84000 0.000
62.85000 3.097
62.86000 1.062
62.87000 0.000
62.88000 2.975
62.89000 1.009
62.90000 4.964
62.91000 1.019
62.92000 1.036
62.93000 1.003
62.94000 2.040
62.95000 0.999
62.96000 0.000
62.97000 6.988
62.98000 3.012
62.99000 1.022
63.00000 0.985
63.01000 3.035
63.02000 3.034
63.03000 4.017
63.04000 0.993
63.05000 3.079
63.06000 1.003
63.07000 1.020
63.08000 2.035
63.09000 2.017
63.10000 0.000
63.11000 1.972
63.12000 3.098
63.13000 1.996
63.14000 2.024
63.15000 2.027
63.16000 1.008
63.17000 2.988
63.18000 1.040
63.19000 3.014
63.20000 2.050
63.21000 2.002
63.22000 1.953
63.23000 2.088
63.24000 0.997
63.25000 4.072
63.26000 2.046
63.27000 4.026
63.28000 2.043
63.29000 2.967
63.30000 3.001
63.31000 3.024
63.32000 1.990
63.33000 2.021
63.34000 1.003
63.35000 4.033
63.36000 1.017
63.37000 3.037
63.38000 3.038
63.39000 2.026
63.40000 3.036
63.41000 1.988
63.42000 0.000
63.43000 1.002
63.44000 6.020
63.45000 2.013
63.46000 1.004
63.47000 1.006
63.48000 2.052
63.49000 3.035
63.50000 3.041
63.51000 1.058
63.52000 5.035
63.53000 2.058
63.54000 0.000
63.55000 2.049
63.56000 2.038
63.57000 1.039
63.58000 0.000
63.59000 4.052
63.60000 1.029
63.61000 0.976
63.62000 3.098
63.63000 5.014
63.64000 2.044
63.65000 3.001
63.66000 4.122
63.67000 2.994
63.68000 0.000
63.69000 0.000
63.70000 4.127
63.71000 2.028
63.72000 5.111
63.73000 0.999
63.74000 1.009
63.75000 0.980
63.76000 2.092
63.77000 0.000
63.78000 1.010
63.79000 2.054
63.80000 3.024
63.81000 2.051
63.82000 2.050
63.83000 1.013
63.84000 1.990
63.85000 3.044
63.86000 0.000
63.87000 2.106
63.88000 2.012
63.89000 2.026
63.90000 4.024
63.91000 1.008
63.92000 1.013
63.93000 3.056
63.94000 2.980
63.95000 2.007
63.96000 2.014
63.97000 0.000
63.98000 0.000
63.99000 2.014
64.00000 3.009
64.01000 0.992
64.02000 1.973
64.03000 2.022
64.04000 5.109
64.05000 2.995
64.06000 4.019
64.07000 4.083
64.08000 1.029
64.09000 2.054
64.10000 3.079
64.11000 3.008
64.12000 0.000
64.13000 0.000
64.14000 2.991
64.15000 3.125
64.16000 4.078
64.17000 2.044
64.18000 2.013
64.19000 3.090
64.20000 0.993
64.21000 1.040
64.22000 2.033
64.23000 3.048
64.24000 4.015
64.25000 0.000
64.26000 3.036
64.27000 4.041
64.28000 1.035
64.29000 3.066
64.30000 2.033
64.31000 2.019
64.32000 5.108
64.33000 2.018
64.34000 2.050
64.35000 1.010
64.36000 2.002
64.37000 2.049
64.38000 0.000
64.39000 5.059
64.40000 4.073
64.41000 1.021
64.42000 4.062
64.43000 4.990
64.44000 0.000
64.45000 2.022
64.46000 0.000
64.47000 0.000
64.48000 1.091
64.49000 2.050
64.50000 2.028
64.51000 6.066
64.52000 2.042
64.53000 0.989
64.54000 0.000
64.55000 2.014
64.56000 0.000
64.57000 5.029
64.58000 0.000
64.59000 3.032
64.60000 4.076
64.61000 4.110
64.62000 5.052
64.63000 0.993
64.64000 0.000
64.65000 1.018
64.66000 4.005
64.67000 3.011
64.68000 1.979
64.69000 6.068
64.70000 1.046
64.71000 1.973
64.72000 2.009
64.73000 1.019
64.74000 4.070
64.75000 3.011
64.76000 0.000
64.77000 3.099
64.78000 3.995
64.79000 1.017
64.80000 0.000
64.81000 4.099
64.82000 1.033
64.83000 2.075
64.84000 5.018
64.85000 5.042
64.86000 3.053
64.87000 3.083
64.88000 3.136
64.89000 0.000
64.90000 1.020
64.91000 2.000
64.92000 1.006
64.93000 2.979
64.94000 2.030
64.95000 4.042
64.96000 2.081
64.97000 1.001
64.98000 1.025
64.99000 2.067
65.00000 1.020
