20.00000 9.288
20.01000 11.277
20.02000 7.257
20.03000 9.251
20.04000 7.213
20.05000 5.197
20.06000 10.354
20.07000 10.135
20.08000 9.291
20.09000 8.297
20.10000 8.287
20.11000 8.204
20.12000 5.207
20.13000 9.291
20.14000 4.154
20.15000 8.165
20.16000 6.194
20.17000 12.375
20.18000 7.161
20.19000 8.156
20.20000 6.177
20.21000 15.551
20.22000 10.279
20.23000 4.133
20.24000 7.207
20.25000 8.213
20.26000 6.209
20.27000 11.359
20.28000 8.232
20.29000 11.257
20.30000 7.212
20.31000 3.123
20.32000 9.355
20.33000 7.100
20.34000 13.499
20.35000 5.096
20.36000 8.320
20.37000 9.343
20.38000 7.214
20.39000 16.677
20.40000 8.403
20.41000 11.461
20.42000 10.309
20.43000 11.270
20.44000 8.274
20.45000 8.177
20.46000 13.362
20.47000 11.293
20.48000 10.370
20.49000 14.356
20.50000 4.060
20.51000 7.243
20.52000 8.223
20.53000 7.197
20.54000 14.520
20.55000 5.103
20.56000 9.293
20.57000 3.107
20.58000 9.190
20.59000 9.332
20.60000 9.284
20.61000 6.148
20.62000 4.159
20.63000 10.294
20.64000 14.336
20.65000 13.552
20.66000 11.403
20.67000 9.267
20.68000 5.165
20.69000 7.205
20.70000 11.330
20.71000 8.274
20.72000 13.307
20.73000 11.377
20.74000 9.191
20.75000 6.328
20.76000 13.431
20.77000 8.183
20.78000 7.217
20.79000 8.195
20.80000 10.378
20.81000 10.260
20.82000 8.260
20.83000 6.110
20.84000 11.294
20.85000 7.337
20.86000 4.214
20.87000 4.168
20.88000 7.188
20.89000 3.053
20.90000 12.449
20.91000 7.115
20.92000 8.278
20.93000 10.526
20.94000 11.385
20.95000 11.331
20.96000 13.440
20.97000 9.475
20.98000 7.276
20.99000 6.137
21.00000 14.434
21.01000 10.298
21.02000 15.469
21.03000 6.187
21.04000 8.218
21.05000 4.193
21.06000 5.246
21.07000 12.374
21.08000 8.190
21.09000 8.373
21.10000 4.036
21.11000 10.477
21.12000 11.335
21.13000 12.233
21.14000 17.673
21.15000 5.144
21.16000 9.228
21.17000 8.273
21.18000 9.360
21.19000 8.193
21.20000 6.204
21.21000 5.156
21.22000 12.412
21.23000 5.236
21.24000 6.169
21.25000 7.092
21.26000 10.232
21.27000 5.164
21.28000 13.471
21.29000 10.361
21.30000 6.206
21.31000 8.384
21.32000 9.272
21.33000 13.436
21.34000 5.104
21.35000 10.281
21.36000 11.459
21.37000 11.369
21.38000 7.161
21.39000 10.274
21.40000 7.179
21.41000 10.364
21.42000 13.320
21.43000 17.520
21.44000 14.490
21.45000 6.228
21.46000 15.558
21.47000 11.189
21.48000 5.148
21.49000 8.281
21.50000 8.247
21.51000 12.390
21.52000 2.046
21.53000 12.405
21.54000 3.101
21.55000 10.211
21.56000 9.422
21.57000 9.334
21.58000 12.270
21.59000 6.223
21.60000 11.396
21.61000 8.227
21.62000 11.285
21.63000 8.217
21.64000 7.222
21.65000 11.348
21.66000 12.291
21.67000 9.362
21.68000 9.278
21.69000 10.337
21.70000 6.174
21.71000 18.470
21.72000 8.320
21.73000 9.382
21.74000 9.373
21.75000 13.343
21.76000 13.554
21.77000 10.322
21.78000 8.318
21.79000 7.152
21.80000 9.258
21.81000 5.232
21.82000 12.361
21.83000 10.200
21.84000 3.147
21.85000 9.224
21.86000 11.318
21.87000 5.204
21.88000 7.126
21.89000 9.302
21.90000 8.132
21.91000 6.183
21.92000 4.167
21.93000 8.263
21.94000 8.300
21.95000 14.558
21.96000 10.369
21.97000 15.419
21.98000 15.531
21.99000 11.356
22.00000 7.184
22.01000 10.268
22.02000 11.353
22.03000 13.341
22.04000 8.164
22.05000 14.413
22.06000 11.301
22.07000 5.151
22.08000 7.227
22.09000 11.474
22.10000 12.305
22.11000 9.327
22.12000 9.345
22.13000 13.272
22.14000 11.361
22.15000 6.228
22.16000 7.273
22.17000 5.218
22.18000 9.160
22.19000 13.459
22.20000 8.347
22.21000 15.636
22.22000 11.370
22.23000 11.331
22.24000 7.140
22.25000 10.281
22.26000 8.329
22.27000 10.203
22.28000 17.444
22.29000 14.612
22.30000 6.210
22.31000 10.257
22.32000 9.382
22.33000 9.204
22.34000 12.424
22.35000 10.292
22.36000 9.242
22.37000 13.433
22.38000 8.339
22.39000 9.197
22.40000 11.468
22.41000 8.184
22.42000 7.212
22.43000 9.284
22.44000 6.157
22.45000 7.259
22.46000 11.263
22.47000 13.433
22.48000 10.276
22.49000 8.366
22.50000 10.260
22.51000 15.429
22.52000 11.246
22.53000 11.454
22.54000 10.434
22.55000 10.333
22.56000 9.296
22.57000 10.332
22.58000 12.407
22.59000 10.296
22.60000 7.133
22.61000 13.478
22.62000 8.311
22.63000 7.168
22.64000 11.323
22.65000 10.146
22.66000 9.393
22.67000 11.426
22.68000 14.468
22.69000 6.172
22.70000 11.286
22.71000 11.307
22.72000 5.107
22.73000 7.232
22.74000 13.568
22.75000 9.289
22.76000 13.445
22.77000 8.263
22.78000 14.405
22.79000 9.213
22.80000 7.163
22.81000 3.076
22.82000 19.724
22.83000 11.331
22.84000 8.274
22.85000 5.185
22.86000 11.479
22.87000 12.446
22.88000 9.274
22.89000 11.291
22.90000 12.409
22.91000 11.341
22.92000 9.281
22.93000 10.348
22.94000 11.352
22.95000 8.292
22.96000 13.397
22.97000 14.348
22.98000 9.273
22.99000 11.389
23.00000 10.336
23.01000 8.331
23.02000 12.405
23.03000 14.677
23.04000 6.249
23.05000 12.328
23.06000 6.212
23.07000 10.212
23.08000 10.357
23.09000 10.363
23.10000 8.214
23.11000 8.241
23.12000 11.514
23.13000 10.330
23.14000 10.297
23.15000 8.392
23.16000 8.194
23.17000 14.362
23.18000 7.167
23.19000 7.172
23.20000 16.604
23.21000 5.125
23.22000 5.083
23.23000 7.286
23.24000 12.419
23.25000 12.352
23.26000 10.255
23.27000 11.331
23.28000 14.296
23.29000 13.275
23.30000 12.360
23.31000 16.303
23.32000 11.382
23.33000 14.416
23.34000 9.387
23.35000 13.360
23.36000 13.405
23.37000 9.195
23.38000 5.136
23.39000 19.593
23.40000 8.282
23.41000 11.371
23.42000 10.383
23.43000 14.365
23.44000 4.146
23.45000 18.471
23.46000 12.378
23.47000 7.232
23.48000 8.096
23.49000 10.392
23.50000 7.137
23.51000 8.219
23.52000 9.313
23.53000 14.404
23.54000 13.453
23.55000 11.337
23.56000 12.274
23.57000 9.313
23.58000 12.378
23.59000 10.399
23.60000 8.325
23.61000 6.262
23.62000 14.428
23.63000 7.353
23.64000 15.505
23.65000 9.333
23.66000 6.170
23.67000 7.216
23.68000 3.066
23.69000 19.692
23.70000 12.341
23.71000 9.297
23.72000 7.216
23.73000 14.432
23.74000 15.263
23.75000 12.209
23.76000 11.292
23.77000 13.304
23.78000 10.338
23.79000 9.342
23.80000 11.336
23.81000 15.496
23.82000 11.400
23.83000 14.552
23.84000 11.490
23.85000 20.623
23.86000 4.153
23.87000 9.338
23.88000 12.425
23.89000 10.176
23.90000 18.734
23.91000 13.623
23.92000 8.383
23.93000 13.558
23.94000 8.335
23.95000 21.714
23.96000 17.671
23.97000 15.567
23.98000 11.262
23.99000 13.433
24.00000 10.351
24.01000 5.160
24.02000 13.300
24.03000 18.471
24.04000 10.274
24.05000 12.466
24.06000 8.310
24.07000 11.352
24.08000 7.209
24.09000 10.372
24.10000 15.486
24.11000 9.361
24.12000 14.478
24.13000 9.370
24.14000 11.366
24.15000 10.284
24.16000 7.246
24.17000 14.517
24.18000 16.523
24.19000 10.333
24.20000 14.485
24.21000 14.402
24.22000 12.453
24.23000 11.292
24.24000 16.414
24.25000 12.415
24.26000 10.284
24.27000 12.332
24.28000 16.399
24.29000 14.335
24.30000 16.617
24.31000 10.311
24.32000 15.428
24.33000 19.563
24.34000 9.221
24.35000 10.324
24.36000 16.511
24.37000 9.287
24.38000 11.386
24.39000 11.237
24.40000 11.299
24.41000 9.278
24.42000 5.115
24.43000 14.489
24.44000 11.276
24.45000 14.558
24.46000 13.406
24.47000 15.455
24.48000 9.388
24.49000 14.500
24.50000 19.772
24.51000 10.163
24.52000 4.137
24.53000 20.651
24.54000 14.435
24.55000 14.375
24.56000 10.368
24.57000 10.218
24.58000 15.482
24.59000 12.307
24.60000 15.457
24.61000 14.309
24.62000 10.339
24.63000 20.567
24.64000 16.349
24.65000 6.147
24.66000 16.310
24.67000 10.257
24.68000 17.431
24.69000 10.388
24.70000 14.599
24.71000 14.444
24.72000 14.432
24.73000 10.328
24.74000 6.218
24.75000 9.259
24.76000 11.333
24.77000 9.216
24.78000 14.351
24.79000 11.334
24.80000 10.262
24.81000 14.597
24.82000 9.292
24.83000 12.382
24.84000 13.388
24.85000 17.601
24.86000 10.302
24.87000 9.249
24.88000 8.234
24.89000 11.275
24.90000 13.460
24.91000 15.431
24.92000 14.523
24.93000 15.442
24.94000 13.382
24.95000 14.353
24.96000 11.356
24.97000 11.152
24.98000 8.177
24.99000 17.622
25.00000 12.444
25.01000 11.319
25.02000 10.334
25.03000 14.517
25.04000 14.345
25.05000 19.833
25.06000 13.481
25.07000 11.378
25.08000 19.590
25.09000 19.669
25.10000 13.370
25.11000 16.442
25.12000 9.359
25.13000 17.568
25.14000 22.567
25.15000 13.374
25.16000 14.629
25.17000 5.249
25.18000 15.572
25.19000 11.254
25.20000 14.683
25.21000 12.354
25.22000 15.388
25.23000 19.627
25.24000 16.635
25.25000 14.323
25.26000 18.484
25.27000 14.494
25.28000 13.397
25.29000 12.415
25.30000 25.947
25.31000 19.561
25.32000 8.286
25.33000 14.298
25.34000 15.437
25.35000 13.661
25.36000 18.599
25.37000 15.475
25.38000 8.208
25.39000 14.363
25.40000 19.666
25.41000 16.497
25.42000 13.430
25.43000 14.445
25.44000 13.467
25.45000 14.429
25.46000 9.391
25.47000 18.479
25.48000 8.322
25.49000 10.387
25.50000 17.454
25.51000 10.427
25.52000 12.450
25.53000 16.459
25.54000 18.539
25.55000 9.198
25.56000 13.269
25.57000 18.644
25.58000 19.629
25.59000 19.520
25.60000 12.430
25.61000 13.399
25.62000 14.302
25.63000 13.334
25.64000 14.526
25.65000 20.574
25.66000 17.619
25.67000 12.375
25.68000 15.542
25.69000 13.476
25.70000 9.350
25.71000 8.179
25.72000 18.583
25.73000 9.317
25.74000 23.640
25.75000 17.483
25.76000 20.623
25.77000 17.632
25.78000 20.597
25.79000 15.516
25.80000 12.232
25.81000 8.364
25.82000 22.725
25.83000 15.405
25.84000 19.793
25.85000 14.403
25.86000 13.437
25.87000 16.421
25.88000 16.619
25.89000 17.439
25.90000 18.620
25.91000 12.306
25.92000 28.875
25.93000 15.370
25.94000 18.663
25.95000 15.453
25.96000 17.666
25.97000 15.578
25.98000 13.275
25.99000 17.579
26.00000 21.635
26.01000 13.507
26.02000 17.512
26.03000 4.117
26.04000 10.129
26.05000 18.746
26.06000 18.517
26.07000 16.382
26.08000 14.438
26.09000 24.756
26.10000 18.662
26.11000 24.989
26.12000 22.811
26.13000 14.337
26.14000 26.818
26.15000 13.496
26.16000 21.728
26.17000 13.357
26.18000 15.590
26.19000 10.309
26.20000 15.619
26.21000 14.473
26.22000 21.567
26.23000 13.350
26.24000 15.415
26.25000 20.678
26.26000 19.713
26.27000 17.574
26.28000 20.577
26.29000 13.223
26.30000 12.278
26.31000 16.604
26.32000 15.491
26.33000 8.418
26.34000 20.761
26.35000 14.529
26.36000 16.482
26.37000 15.383
26.38000 19.589
26.39000 13.296
26.40000 19.606
26.41000 9.166
26.42000 21.618
26.43000 16.465
26.44000 12.408
26.45000 25.900
26.46000 13.337
26.47000 13.331
26.48000 17.673
26.49000 12.427
26.50000 19.676
26.51000 22.907
26.52000 18.706
26.53000 16.574
26.54000 7.190
26.55000 12.422
26.56000 8.229
26.57000 20.698
26.58000 17.679
26.59000 18.424
26.60000 19.628
26.61000 23.695
26.62000 15.381
26.63000 11.496
26.64000 13.272
26.65000 17.434
26.66000 9.183
26.67000 19.617
26.68000 21.774
26.69000 26.790
26.70000 18.342
26.71000 21.558
26.72000 15.436
26.73000 21.693
26.74000 10.320
26.75000 24.552
26.76000 16.636
26.77000 18.335
26.78000 19.450
26.79000 18.466
26.80000 26.765
26.81000 19.380
26.82000 18.680
26.83000 11.356
26.84000 17.546
26.85000 14.582
26.86000 16.596
26.87000 19.776
26.88000 12.358
26.89000 22.703
26.90000 14.347
26.91000 17.440
26.92000 15.512
26.93000 16.493
26.94000 15.665
26.95000 15.422
26.96000 13.480
26.97000 18.303
26.98000 17.476
26.99000 17.671
27.00000 16.476
27.01000 25.918
27.02000 19.748
27.03000 22.828
27.04000 19.500
27.05000 19.440
27.06000 15.443
27.07000 12.366
27.08000 16.628
27.09000 24.691
27.10000 15.331
27.11000 21.864
27.12000 14.468
27.13000 23.758
27.14000 19.614
27.15000 10.462
27.16000 17.502
27.17000 18.580
27.18000 20.712
27.19000 20.742
27.20000 16.585
27.21000 26.792
27.22000 12.349
27.23000 13.399
27.24000 22.750
27.25000 13.357
27.26000 18.621
27.27000 16.661
27.28000 18.609
27.29000 16.640
27.30000 21.645
27.31000 15.496
27.32000 17.441
27.33000 15.460
27.34000 15.417
27.35000 18.544
27.36000 15.354
27.37000 18.791
27.38000 15.366
27.39000 19.642
27.40000 21.615
27.41000 27.751
27.42000 18.564
27.43000 18.764
27.44000 20.776
27.45000 15.428
27.46000 18.710
27.47000 17.454
27.48000 19.804
27.49000 18.682
27.50000 21.566
27.51000 19.616
27.52000 8.319
27.53000 27.636
27.54000 28.795
27.55000 19.531
27.56000 17.348
27.57000 19.456
27.58000 17.455
27.59000 14.313
27.60000 24.658
27.61000 18.690
27.62000 17.577
27.63000 17.428
27.64000 12.465
27.65000 20.696
27.66000 9.394
27.67000 19.462
27.68000 24.949
27.69000 17.537
27.70000 16.322
27.71000 16.550
27.72000 18.687
27.73000 17.564
27.74000 14.506
27.75000 11.480
27.76000 14.437
27.77000 24.795
27.78000 13.591
27.79000 19.472
27.80000 15.563
27.81000 18.605
27.82000 16.449
27.83000 17.535
27.84000 26.778
27.85000 15.602
27.86000 16.506
27.87000 20.818
27.88000 11.308
27.89000 18.673
27.90000 15.514
27.91000 10.228
27.92000 17.523
27.93000 16.581
27.94000 21.512
27.95000 16.477
27.96000 22.848
27.97000 16.555
27.98000 16.454
27.99000 17.623
28.00000 19.671
28.01000 11.432
28.02000 22.552
28.03000 14.513
28.04000 18.560
28.05000 18.389
28.06000 13.406
28.07000 21.787
28.08000 22.705
28.09000 17.583
28.10000 20.611
28.11000 12.408
28.12000 26.808
28.13000 14.546
28.14000 20.699
28.15000 10.281
28.16000 14.483
28.17000 20.681
28.18000 14.292
28.19000 24.820
28.20000 16.426
28.21000 16.610
28.22000 17.558
28.23000 22.541
28.24000 18.657
28.25000 18.646
28.26000 23.807
28.27000 20.664
28.28000 16.585
28.29000 19.660
28.30000 13.455
28.31000 23.446
28.32000 20.903
28.33000 16.680
28.34000 15.595
28.35000 14.503
28.36000 16.664
28.37000 24.628
28.38000 19.521
28.39000 12.243
28.40000 10.283
28.41000 16.511
28.42000 12.408
28.43000 14.439
28.44000 20.838
28.45000 11.439
28.46000 15.353
28.47000 19.632
28.48000 14.454
28.49000 12.278
28.50000 16.461
28.51000 15.441
28.52000 19.537
28.53000 10.344
28.54000 18.658
28.55000 19.606
28.56000 17.500
28.57000 18.505
28.58000 12.427
28.59000 10.444
28.60000 21.705
28.61000 22.896
28.62000 15.680
28.63000 14.433
28.64000 20.651
28.65000 9.261
28.66000 21.687
28.67000 21.669
28.68000 16.533
28.69000 17.341
28.70000 14.470
28.71000 14.531
28.72000 13.664
28.73000 21.731
28.74000 19.517
28.75000 11.381
28.76000 15.539
28.77000 14.437
28.78000 11.371
28.79000 11.360
28.80000 15.416
28.81000 23.766
28.82000 14.505
28.83000 24.729
28.84000 15.513
28.85000 15.412
28.86000 13.272
28.87000 18.528
28.88000 14.345
28.89000 21.733
28.90000 16.816
28.91000 12.315
28.92000 24.657
28.93000 11.254
28.94000 21.630
28.95000 15.455
28.96000 14.471
28.97000 17.517
28.98000 14.502
28.99000 18.638
29.00000 16.545
29.01000 8.133
29.02000 16.518
29.03000 22.650
29.04000 18.364
29.05000 15.336
29.06000 19.461
29.07000 15.467
29.08000 19.694
29.09000 11.464
29.10000 21.692
29.11000 13.662
29.12000 20.812
29.13000 20.596
29.14000 18.726
29.15000 25.708
29.16000 14.418
29.17000 9.363
29.18000 19.791
29.19000 16.574
29.20000 9.238
29.21000 15.496
29.22000 13.512
29.23000 16.488
29.24000 10.234
29.25000 11.277
29.26000 13.382
29.27000 19.675
29.28000 14.451
29.29000 17.534
29.30000 14.365
29.31000 8.199
29.32000 18.641
29.33000 11.396
29.34000 14.486
29.35000 18.631
29.36000 14.475
29.37000 13.365
29.38000 15.705
29.39000 18.556
29.40000 16.585
29.41000 16.628
29.42000 12.492
29.43000 5.166
29.44000 12.501
29.45000 21.680
29.46000 12.371
29.47000 13.373
29.48000 9.336
29.49000 11.456
29.50000 11.352
29.51000 11.288
29.52000 15.588
29.53000 10.315
29.54000 16.325
29.55000 9.165
29.56000 20.674
29.57000 13.336
29.58000 5.082
29.59000 10.375
29.60000 15.401
29.61000 17.581
29.62000 17.465
29.63000 15.669
29.64000 16.690
29.65000 18.489
29.66000 11.361
29.67000 18.578
29.68000 11.375
29.69000 12.436
29.70000 13.246
29.71000 17.397
29.72000 14.450
29.73000 10.371
29.74000 13.220
29.75000 20.452
29.76000 15.545
29.77000 17.398
29.78000 17.621
29.79000 22.795
29.80000 10.282
29.81000 15.396
29.82000 16.279
29.83000 9.276
29.84000 12.548
29.85000 20.715
29.86000 16.598
29.87000 10.302
29.88000 11.335
29.89000 14.525
29.90000 17.552
29.91000 10.469
29.92000 14.466
29.93000 13.453
29.94000 12.386
29.95000 16.440
29.96000 14.507
29.97000 16.699
29.98000 10.315
29.99000 19.608
30.00000 15.419
30.01000 12.368
30.02000 15.617
30.03000 11.535
30.04000 18.427
30.05000 9.312
30.06000 13.342
30.07000 11.255
30.08000 13.316
30.09000 16.531
30.10000 17.659
30.11000 15.350
30.12000 13.388
30.13000 13.457
30.14000 12.383
30.15000 7.325
30.16000 8.239
30.17000 7.147
30.18000 15.440
30.19000 19.618
30.20000 9.434
30.21000 17.508
30.22000 10.353
30.23000 6.176
30.24000 10.335
30.25000 14.418
30.26000 11.364
30.27000 7.226
30.28000 10.261
30.29000 12.426
30.30000 13.486
30.31000 15.548
30.32000 16.461
30.33000 17.503
30.34000 10.302
30.35000 13.274
30.36000 15.504
30.37000 12.412
30.38000 12.362
30.39000 10.364
30.40000 21.820
30.41000 9.191
30.42000 12.327
30.43000 10.208
30.44000 11.399
30.45000 16.443
30.46000 6.241
30.47000 4.097
30.48000 10.289
30.49000 14.373
30.50000 12.416
30.51000 11.210
30.52000 17.472
30.53000 16.496
30.54000 12.344
30.55000 11.345
30.56000 10.335
30.57000 12.407
30.58000 12.397
30.59000 8.195
30.60000 11.248
30.61000 7.293
30.62000 11.405
30.63000 8.437
30.64000 10.230
30.65000 11.235
30.66000 7.228
30.67000 8.245
30.68000 12.443
30.69000 8.162
30.70000 13.428
30.71000 13.514
30.72000 7.259
30.73000 9.483
30.74000 14.489
30.75000 16.667
30.76000 8.226
30.77000 21.628
30.78000 10.283
30.79000 15.382
30.80000 10.348
30.81000 16.572
30.82000 10.198
30.83000 5.117
30.84000 10.259
30.85000 9.351
30.86000 10.271
30.87000 8.162
30.88000 12.467
30.89000 12.510
30.90000 11.423
30.91000 11.253
30.92000 8.254
30.93000 7.127
30.94000 17.727
30.95000 10.452
30.96000 8.258
30.97000 7.207
30.98000 9.175
30.99000 14.440
31.00000 3.111
31.01000 14.651
31.02000 12.332
31.03000 10.286
31.04000 7.211
31.05000 12.454
31.06000 11.411
31.07000 14.639
31.08000 11.431
31.09000 13.375
31.10000 16.435
31.11000 14.405
31.12000 8.214
31.13000 13.402
31.14000 7.204
31.15000 15.633
31.16000 14.586
31.17000 4.110
31.18000 11.275
31.19000 12.353
31.20000 19.596
31.21000 11.496
31.22000 12.406
31.23000 14.436
31.24000 4.270
31.25000 8.330
31.26000 7.200
31.27000 8.186
31.28000 11.325
31.29000 12.528
31.30000 4.156
31.31000 12.475
31.32000 14.492
31.33000 15.564
31.34000 16.473
31.35000 7.330
31.36000 13.258
31.37000 13.454
31.38000 6.235
31.39000 20.472
31.40000 9.362
31.41000 8.231
31.42000 14.370
31.43000 11.554
31.44000 17.581
31.45000 14.495
31.46000 11.284
31.47000 11.378
31.48000 13.316
31.49000 11.337
31.50000 9.300
31.51000 9.291
31.52000 5.059
31.53000 11.265
31.54000 16.424
31.55000 6.201
31.56000 12.529
31.57000 10.317
31.58000 14.432
31.59000 15.625
31.60000 10.277
31.61000 12.397
31.62000 11.410
31.63000 8.320
31.64000 13.269
31.65000 14.346
31.66000 10.340
31.67000 12.492
31.68000 14.392
31.69000 8.394
31.70000 9.308
31.71000 16.391
31.72000 8.309
31.73000 11.350
31.74000 10.495
31.75000 7.277
31.76000 9.361
31.77000 10.266
31.78000 6.178
31.79000 7.247
31.80000 7.226
31.81000 8.260
31.82000 8.350
31.83000 12.375
31.84000 13.423
31.85000 7.153
31.86000 15.484
31.87000 8.103
31.88000 16.614
31.89000 16.377
31.90000 4.090
31.91000 6.160
31.92000 9.341
31.93000 8.336
31.94000 11.307
31.95000 10.212
31.96000 9.378
31.97000 18.693
31.98000 7.291
31.99000 7.222
32.00000 12.562
32.01000 13.454
32.02000 11.393
32.03000 5.265
32.04000 17.654
32.05000 10.260
32.06000 17.631
32.07000 12.429
32.08000 8.234
32.09000 11.283
32.10000 6.094
32.11000 11.376
32.12000 10.235
32.13000 10.324
32.14000 11.494
32.15000 11.233
32.16000 4.132
32.17000 14.256
32.18000 9.309
32.19000 11.297
32.20000 9.295
32.21000 6.100
32.22000 7.181
32.23000 18.605
32.24000 7.407
32.25000 8.197
32.26000 15.551
32.27000 11.287
32.28000 15.489
32.29000 8.213
32.30000 19.816
32.31000 13.361
32.32000 7.294
32.33000 13.526
32.34000 9.235
32.35000 6.221
32.36000 9.315
32.37000 11.227
32.38000 12.419
32.39000 8.251
32.40000 12.299
32.41000 13.586
32.42000 15.555
32.43000 9.200
32.44000 9.301
32.45000 7.168
32.46000 12.330
32.47000 4.161
32.48000 15.524
32.49000 14.435
32.50000 5.129
32.51000 10.312
32.52000 12.348
32.53000 14.449
32.54000 15.520
32.55000 16.513
32.56000 13.398
32.57000 11.292
32.58000 25.721
32.59000 15.594
32.60000 10.364
32.61000 12.312
32.62000 5.179
32.63000 14.374
32.64000 7.190
32.65000 1.050
32.66000 9.259
32.67000 12.491
32.68000 7.209
32.69000 11.285
32.70000 12.440
32.71000 9.289
32.72000 11.211
32.73000 10.401
32.74000 13.259
32.75000 9.205
32.76000 8.364
32.77000 9.219
32.78000 10.331
32.79000 6.154
32.80000 7.200
32.81000 0.000
32.82000 11.394
32.83000 4.120
32.84000 8.192
32.85000 4.183
32.86000 3.148
32.87000 3.187
32.88000 18.732
32.89000 7.229
32.90000 6.192
32.91000 9.268
32.92000 4.152
32.93000 4.080
32.94000 9.340
32.95000 0.993
32.96000 8.227
32.97000 9.334
32.98000 11.332
32.99000 10.245
33.00000 10.239
33.01000 10.275
33.02000 7.292
33.03000 10.358
33.04000 6.251
33.05000 16.337
33.06000 5.172
33.07000 12.428
33.08000 14.327
33.09000 7.241
33.10000 10.297
33.11000 8.272
33.12000 7.189
33.13000 6.187
33.14000 3.067
33.15000 11.261
33.16000 4.053
33.17000 6.143
33.18000 9.356
33.19000 12.274
33.20000 4.216
33.21000 4.068
33.22000 7.299
33.23000 4.134
33.24000 3.198
33.25000 7.208
33.26000 7.132
33.27000 4.192
33.28000 10.368
33.29000 5.166
33.30000 11.460
33.31000 9.317
33.32000 4.132
33.33000 8.152
33.34000 5.143
33.35000 7.203
33.36000 6.153
33.37000 7.173
33.38000 7.441
33.39000 7.271
33.40000 6.129
33.41000 7.232
33.42000 6.120
33.43000 5.165
33.44000 6.089
33.45000 7.160
33.46000 6.239
33.47000 4.174
33.48000 6.138
33.49000 5.058
33.50000 5.208
33.51000 6.161
33.52000 5.123
33.53000 6.267
33.54000 7.184
33.55000 8.420
33.56000 6.301
33.57000 6.110
33.58000 8.274
33.59000 8.250
33.60000 3.149
33.61000 0.994
33.62000 5.088
33.63000 7.156
33.64000 8.288
33.65000 4.079
33.66000 6.133
33.67000 5.194
33.68000 8.205
33.69000 6.232
33.70000 7.127
33.71000 7.243
33.72000 9.191
33.73000 6.212
33.74000 8.275
33.75000 8.247
33.76000 8.269
33.77000 10.448
33.78000 4.099
33.79000 8.177
33.80000 8.412
33.81000 5.061
33.82000 4.154
33.83000 4.103
33.84000 6.187
33.85000 1.036
33.86000 7.267
33.87000 8.210
33.88000 5.139
33.89000 6.239
33.90000 8.097
33.91000 9.191
33.92000 7.166
33.93000 9.278
33.94000 4.112
33.95000 4.156
33.96000 6.150
33.97000 8.148
33.98000 3.040
33.99000 10.360
34.00000 9.196
34.01000 12.445
34.02000 9.308
34.03000 4.131
34.04000 4.083
34.05000 5.115
34.06000 7.322
34.07000 8.283
34.08000 4.149
34.09000 4.183
34.10000 3.134
34.11000 7.190
34.12000 5.258
34.13000 9.450
34.14000 5.244
34.15000 8.296
34.16000 7.300
34.17000 1.032
34.18000 9.272
34.19000 5.090
34.20000 7.303
34.21000 5.195
34.22000 7.156
34.23000 5.157
34.24000 11.304
34.25000 10.321
34.26000 4.132
34.27000 3.109
34.28000 6.091
34.29000 6.273
34.30000 4.158
34.31000 5.209
34.32000 2.037
34.33000 10.278
34.34000 5.155
34.35000 8.198
34.36000 5.214
34.37000 4.119
34.38000 0.000
34.39000 4.058
34.40000 4.067
34.41000 12.250
34.42000 5.096
34.43000 6.289
34.44000 4.066
34.45000 6.224
34.46000 4.172
34.47000 7.221
34.48000 6.154
34.49000 6.195
34.50000 5.230
34.51000 3.047
34.52000 6.266
34.53000 4.147
34.54000 1.032
34.55000 4.121
34.56000 7.234
34.57000 6.177
34.58000 8.188
34.59000 3.075
34.60000 9.390
34.61000 3.071
34.62000 6.300
34.63000 5.303
34.64000 9.205
34.65000 5.066
34.66000 8.227
34.67000 6.194
34.68000 5.157
34.69000 3.057
34.70000 9.174
34.71000 8.303
34.72000 13.588
34.73000 6.090
34.74000 7.223
34.75000 6.197
34.76000 8.237
34.77000 4.099
34.78000 6.213
34.79000 9.340
34.80000 6.153
34.81000 5.180
34.82000 3.126
34.83000 14.482
34.84000 6.270
34.85000 8.383
34.86000 5.147
34.87000 3.061
34.88000 7.280
34.89000 4.146
34.90000 6.166
34.91000 7.065
34.92000 9.152
34.93000 11.299
34.94000 5.042
34.95000 5.147
34.96000 8.216
34.97000 2.102
34.98000 5.151
34.99000 1.035
35.00000 11.325
35.01000 3.129
35.02000 5.267
35.03000 6.176
35.04000 4.099
35.05000 3.120
35.06000 3.129
35.07000 4.108
35.08000 5.196
35.09000 5.140
35.10000 4.148
35.11000 7.222
35.12000 6.164
35.13000 10.432
35.14000 8.199
35.15000 9.264
35.16000 5.146
35.17000 4.107
35.18000 7.243
35.19000 7.212
35.20000 10.357
35.21000 6.254
35.22000 10.379
35.23000 9.371
35.24000 4.200
35.25000 7.300
35.26000 7.154
35.27000 14.430
35.28000 6.196
35.29000 6.101
35.30000 8.107
35.31000 5.137
35.32000 7.208
35.33000 4.122
35.34000 5.114
35.35000 7.157
35.36000 3.112
35.37000 1.033
35.38000 4.129
35.39000 3.139
35.40000 8.318
35.41000 4.026
35.42000 6.207
35.43000 5.183
35.44000 6.190
35.45000 6.109
35.46000 3.162
35.47000 4.100
35.48000 5.132
35.49000 6.162
35.50000 3.023
35.51000 3.080
35.52000 6.128
35.53000 5.296
35.54000 7.174
35.55000 8.305
35.56000 4.136
35.57000 5.213
35.58000 8.218
35.59000 4.140
35.60000 5.268
35.61000 5.221
35.62000 14.369
35.63000 5.028
35.64000 5.163
35.65000 4.079
35.66000 6.142
35.67000 8.244
35.68000 6.179
35.69000 7.231
35.70000 4.165
35.71000 8.323
35.72000 6.281
35.73000 8.207
35.74000 5.245
35.75000 8.187
35.76000 9.322
35.77000 8.139
35.78000 5.064
35.79000 7.166
35.80000 5.195
35.81000 1.012
35.82000 5.187
35.83000 7.129
35.84000 5.206
35.85000 5.214
35.86000 4.148
35.87000 5.262
35.88000 9.394
35.89000 9.345
35.90000 8.098
35.91000 9.232
35.92000 7.263
35.93000 5.138
35.94000 2.073
35.95000 7.187
35.96000 6.078
35.97000 9.162
35.98000 5.244
35.99000 9.157
36.00000 4.065
36.01000 6.079
36.02000 8.224
36.03000 5.138
36.04000 6.134
36.05000 3.151
36.06000 4.207
36.07000 4.080
36.08000 4.123
36.09000 7.230
36.10000 1.042
36.11000 6.296
36.12000 8.319
36.13000 5.089
36.14000 8.182
36.15000 7.246
36.16000 6.099
36.17000 7.245
36.18000 2.114
36.19000 5.092
36.20000 5.112
36.21000 10.313
36.22000 11.362
36.23000 6.223
36.24000 4.134
36.25000 9.314
36.26000 6.203
36.27000 5.183
36.28000 7.253
36.29000 7.186
36.30000 3.118
36.31000 5.279
36.32000 11.298
36.33000 3.057
36.34000 5.106
36.35000 8.313
36.36000 15.324
36.37000 4.177
36.38000 5.113
36.39000 8.247
36.40000 8.137
36.41000 9.320
36.42000 7.255
36.43000 5.290
36.44000 4.058
36.45000 7.287
36.46000 4.099
36.47000 9.357
36.48000 6.175
36.49000 7.089
36.50000 5.132
36.51000 6.193
36.52000 2.041
36.53000 7.196
36.54000 4.123
36.55000 5.121
36.56000 11.275
36.57000 7.129
36.58000 4.048
36.59000 5.214
36.60000 8.249
36.61000 8.352
36.62000 6.156
36.63000 4.082
36.64000 5.130
36.65000 10.182
36.66000 6.103
36.67000 7.143
36.68000 1.064
36.69000 5.177
36.70000 6.175
36.71000 7.325
36.72000 7.289
36.73000 5.052
36.74000 4.221
36.75000 5.121
36.76000 6.134
36.77000 8.168
36.78000 6.330
36.79000 1.059
36.80000 5.176
36.81000 10.248
36.82000 6.147
36.83000 6.202
36.84000 12.336
36.85000 10.324
36.86000 3.050
36.87000 5.259
36.88000 4.195
36.89000 4.217
36.90000 6.183
36.91000 6.115
36.92000 5.256
36.93000 4.194
36.94000 13.470
36.95000 13.473
36.96000 7.206
36.97000 10.304
36.98000 5.070
36.99000 5.167
37.00000 8.291
37.01000 10.328
37.02000 9.374
37.03000 4.152
37.04000 4.092
37.05000 8.425
37.06000 10.268
37.07000 2.094
37.08000 6.189
37.09000 11.188
37.10000 7.219
37.11000 6.308
37.12000 9.246
37.13000 8.293
37.14000 10.401
37.15000 8.192
37.16000 11.486
37.17000 9.270
37.18000 5.063
37.19000 12.516
37.20000 9.315
37.21000 9.422
37.22000 7.246
37.23000 6.220
37.24000 6.241
37.25000 8.272
37.26000 7.256
37.27000 12.404
37.28000 7.191
37.29000 6.124
37.30000 6.306
37.31000 9.256
37.32000 5.091
37.33000 4.058
37.34000 7.286
37.35000 5.111
37.36000 3.040
37.37000 6.277
37.38000 6.303
37.39000 13.544
37.40000 6.249
37.41000 3.143
37.42000 5.200
37.43000 6.268
37.44000 6.303
37.45000 9.328
37.46000 7.142
37.47000 8.151
37.48000 7.251
37.49000 8.211
37.50000 4.283
37.51000 5.121
37.52000 7.267
37.53000 8.221
37.54000 8.217
37.55000 9.181
37.56000 8.178
37.57000 9.155
37.58000 4.099
37.59000 6.068
37.60000 3.234
37.61000 1.019
37.62000 7.209
37.63000 7.200
37.64000 6.147
37.65000 12.364
37.66000 13.392
37.67000 4.225
37.68000 7.323
37.69000 6.214
37.70000 4.141
37.71000 7.137
37.72000 10.255
37.73000 6.184
37.74000 7.120
37.75000 10.363
37.76000 10.222
37.77000 5.229
37.78000 5.308
37.79000 6.200
37.80000 9.295
37.81000 7.185
37.82000 5.081
37.83000 7.140
37.84000 6.175
37.85000 9.390
37.86000 8.174
37.87000 5.197
37.88000 5.308
37.89000 7.163
37.90000 8.185
37.91000 4.172
37.92000 4.133
37.93000 10.334
37.94000 11.300
37.95000 13.439
37.96000 3.065
37.97000 5.079
37.98000 7.155
37.99000 4.144
38.00000 8.184
38.01000 6.312
38.02000 2.053
38.03000 5.199
38.04000 12.413
38.05000 4.104
38.06000 8.151
38.07000 3.128
38.08000 6.269
38.09000 5.174
38.10000 11.374
38.11000 9.247
38.12000 4.138
38.13000 5.102
38.14000 10.372
38.15000 13.514
38.16000 6.222
38.17000 4.097
38.18000 9.347
38.19000 7.163
38.20000 9.204
38.21000 6.201
38.22000 8.303
38.23000 4.108
38.24000 3.050
38.25000 4.175
38.26000 13.298
38.27000 9.145
38.28000 8.188
38.29000 9.386
38.30000 6.266
38.31000 8.239
38.32000 4.086
38.33000 12.245
38.34000 10.298
38.35000 6.185
38.36000 5.209
38.37000 6.138
38.38000 9.300
38.39000 6.169
38.40000 5.109
38.41000 7.281
38.42000 7.276
38.43000 8.233
38.44000 7.369
38.45000 5.268
38.46000 5.148
38.47000 3.145
38.48000 6.215
38.49000 5.147
38.50000 7.253
38.51000 6.242
38.52000 5.226
38.53000 6.334
38.54000 9.168
38.55000 6.232
38.56000 7.187
38.57000 8.121
38.58000 6.177
38.59000 3.060
38.60000 6.208
38.61000 9.303
38.62000 9.336
38.63000 7.218
38.64000 7.239
38.65000 9.361
38.66000 4.144
38.67000 4.181
38.68000 7.213
38.69000 5.209
38.70000 9.242
38.71000 5.197
38.72000 7.277
38.73000 4.066
38.74000 8.359
38.75000 6.084
38.76000 7.208
38.77000 6.266
38.78000 5.279
38.79000 11.515
38.80000 6.310
38.81000 9.395
38.82000 2.111
38.83000 4.091
38.84000 9.176
38.85000 12.348
38.86000 4.138
38.87000 16.453
38.88000 4.079
38.89000 7.185
38.90000 1.031
38.91000 4.127
38.92000 9.490
38.93000 7.176
38.94000 9.433
38.95000 9.154
38.96000 8.329
38.97000 4.079
38.98000 8.064
38.99000 8.346
39.00000 5.201
39.01000 14.618
39.02000 6.187
39.03000 9.179
39.04000 10.516
39.05000 9.334
39.06000 10.267
39.07000 5.174
39.08000 5.084
39.09000 7.178
39.10000 9.261
39.11000 4.081
39.12000 9.229
39.13000 10.223
39.14000 7.144
39.15000 4.130
39.16000 7.137
39.17000 3.099
39.18000 6.121
39.19000 10.279
39.20000 1.019
39.21000 9.255
39.22000 8.309
39.23000 5.234
39.24000 8.319
39.25000 4.094
39.26000 5.153
39.27000 10.313
39.28000 4.149
39.29000 5.122
39.30000 8.348
39.31000 5.176
39.32000 5.206
39.33000 7.234
39.34000 5.114
39.35000 9.339
39.36000 7.248
39.37000 9.256
39.38000 7.173
39.39000 8.142
39.40000 5.163
39.41000 9.280
39.42000 11.340
39.43000 10.238
39.44000 6.227
39.45000 5.169
39.46000 6.147
39.47000 5.145
39.48000 6.266
39.49000 4.131
39.50000 7.090
39.51000 10.448
39.52000 7.283
39.53000 6.286
39.54000 10.524
39.55000 6.185
39.56000 6.258
39.57000 10.365
39.58000 5.186
39.59000 4.158
39.60000 4.113
39.61000 11.263
39.62000 5.111
39.63000 9.180
39.64000 4.171
39.65000 6.151
39.66000 8.214
39.67000 7.220
39.68000 6.178
39.69000 7.231
39.70000 4.123
39.71000 9.337
39.72000 4.156
39.73000 4.176
39.74000 1.038
39.75000 5.054
39.76000 9.263
39.77000 5.148
39.78000 6.160
39.79000 13.313
39.80000 5.253
39.81000 2.063
39.82000 7.098
39.83000 10.191
39.84000 7.297
39.85000 7.327
39.86000 8.235
39.87000 10.355
39.88000 3.024
39.89000 9.282
39.90000 10.385
39.91000 4.117
39.92000 10.255
39.93000 7.242
39.94000 6.090
39.95000 6.323
39.96000 11.506
39.97000 5.190
39.98000 8.246
39.99000 4.076
40.00000 10.280
40.01000 4.113
40.02000 10.310
40.03000 8.369
40.04000 14.460
40.05000 7.222
40.06000 6.184
40.07000 8.328
40.08000 8.226
40.09000 7.182
40.10000 9.228
40.11000 10.217
40.12000 5.163
40.13000 5.090
40.14000 4.146
40.15000 10.227
40.16000 9.308
40.17000 7.206
40.18000 5.131
40.19000 1.011
40.20000 10.242
40.21000 4.146
40.22000 6.256
40.23000 8.202
40.24000 6.212
40.25000 6.233
40.26000 8.192
40.27000 5.153
40.28000 5.152
40.29000 8.222
40.30000 6.175
40.31000 4.171
40.32000 6.269
40.33000 9.295
40.34000 8.351
40.35000 5.068
40.36000 7.196
40.37000 7.226
40.38000 6.140
40.39000 5.056
40.40000 6.177
40.41000 11.338
40.42000 4.282
40.43000 2.017
40.44000 9.380
40.45000 5.204
40.46000 3.109
40.47000 4.110
40.48000 8.381
40.49000 9.262
40.50000 7.170
40.51000 11.209
40.52000 2.107
40.53000 6.132
40.54000 12.356
40.55000 6.235
40.56000 6.142
40.57000 7.294
40.58000 6.135
40.59000 6.219
40.60000 7.346
40.61000 5.150
40.62000 6.231
40.63000 4.169
40.64000 4.076
40.65000 7.204
40.66000 9.281
40.67000 3.105
40.68000 9.241
40.69000 4.074
40.70000 5.151
40.71000 8.238
40.72000 6.258
40.73000 7.334
40.74000 1.011
40.75000 13.547
40.76000 5.131
40.77000 5.105
40.78000 6.309
40.79000 7.146
40.80000 5.098
40.81000 7.256
40.82000 8.210
40.83000 7.236
40.84000 3.039
40.85000 4.088
40.86000 6.129
40.87000 11.291
40.88000 3.049
40.89000 8.544
40.90000 4.093
40.91000 7.155
40.92000 2.025
40.93000 12.625
40.94000 9.164
40.95000 6.015
40.96000 4.089
40.97000 10.258
40.98000 6.233
40.99000 10.302
41.00000 5.035
41.01000 7.183
41.02000 8.224
41.03000 7.180
41.04000 6.070
41.05000 8.310
41.06000 9.266
41.07000 8.193
41.08000 9.364
41.09000 7.283
41.10000 4.206
41.11000 4.132
41.12000 7.092
41.13000 6.231
41.14000 10.347
41.15000 4.115
41.16000 5.206
41.17000 2.015
41.18000 5.163
41.19000 9.304
41.20000 11.495
41.21000 5.196
41.22000 11.157
41.23000 6.257
41.24000 6.223
41.25000 5.193
41.26000 7.287
41.27000 7.292
41.28000 9.256
41.29000 6.288
41.30000 7.274
41.31000 5.181
41.32000 14.452
41.33000 11.308
41.34000 7.239
41.35000 7.275
41.36000 7.318
41.37000 6.206
41.38000 7.203
41.39000 11.348
41.40000 7.131
41.41000 3.107
41.42000 9.307
41.43000 10.350
41.44000 11.471
41.45000 9.203
41.46000 4.035
41.47000 5.136
41.48000 5.105
41.49000 7.186
41.50000 5.149
41.51000 5.102
41.52000 6.273
41.53000 5.086
41.54000 7.167
41.55000 3.030
41.56000 12.439
41.57000 6.109
41.58000 6.208
41.59000 9.475
41.60000 2.048
41.61000 8.350
41.62000 9.274
41.63000 7.198
41.64000 6.285
41.65000 9.252
41.66000 4.089
41.67000 5.127
41.68000 4.075
41.69000 4.164
41.70000 9.231
41.71000 7.193
41.72000 6.254
41.73000 8.231
41.74000 10.223
41.75000 8.281
41.76000 12.360
41.77000 8.204
41.78000 7.288
41.79000 7.339
41.80000 4.035
41.81000 6.238
41.82000 8.226
41.83000 5.154
41.84000 12.474
41.85000 4.142
41.86000 3.089
41.87000 5.257
41.88000 7.331
41.89000 9.401
41.90000 4.065
41.91000 5.211
41.92000 3.092
41.93000 3.082
41.94000 17.689
41.95000 11.414
41.96000 10.325
41.97000 12.252
41.98000 10.285
41.99000 6.223
42.00000 5.148
42.01000 7.125
42.02000 11.342
42.03000 9.256
42.04000 6.189
42.05000 5.121
42.06000 6.217
42.07000 10.251
42.08000 10.196
42.09000 9.399
42.10000 6.202
42.11000 7.166
42.12000 7.278
42.13000 6.211
42.14000 5.087
42.15000 8.295
42.16000 3.080
42.17000 4.102
42.18000 3.070
42.19000 9.198
42.20000 12.468
42.21000 4.046
42.22000 2.086
42.23000 8.266
42.24000 8.144
42.25000 9.366
42.26000 9.234
42.27000 5.171
42.28000 8.276
42.29000 9.263
42.30000 10.240
42.31000 8.288
42.32000 6.278
42.33000 14.404
42.34000 10.474
42.35000 4.144
42.36000 9.280
42.37000 12.429
42.38000 6.162
42.39000 6.230
42.40000 7.226
42.41000 9.163
42.42000 10.250
42.43000 7.298
42.44000 7.270
42.45000 4.090
42.46000 3.086
42.47000 10.196
42.48000 7.195
42.49000 5.145
42.50000 12.308
42.51000 11.322
42.52000 8.264
42.53000 8.200
42.54000 6.322
42.55000 9.200
42.56000 6.259
42.57000 9.363
42.58000 6.188
42.59000 7.160
42.60000 5.187
42.61000 4.077
42.62000 6.150
42.63000 7.219
42.64000 6.193
42.65000 5.148
42.66000 8.222
42.67000 6.229
42.68000 6.307
42.69000 5.135
42.70000 6.238
42.71000 10.334
42.72000 9.419
42.73000 10.447
42.74000 6.242
42.75000 5.119
42.76000 11.375
42.77000 7.160
42.78000 12.440
42.79000 5.221
42.80000 6.214
42.81000 5.170
42.82000 5.227
42.83000 9.165
42.84000 3.145
42.85000 5.076
42.86000 6.134
42.87000 9.299
42.88000 9.302
42.89000 10.421
42.90000 3.166
42.91000 2.055
42.92000 4.086
42.93000 7.220
42.94000 7.172
42.95000 7.183
42.96000 11.416
42.97000 9.220
42.98000 13.328
42.99000 8.186
43.00000 7.215
43.01000 4.116
43.02000 3.053
43.03000 6.164
43.04000 3.034
43.05000 4.186
43.06000 9.222
43.07000 9.278
43.08000 7.252
43.09000 4.117
43.10000 6.151
43.11000 10.522
43.12000 5.166
43.13000 7.218
43.14000 9.207
43.15000 4.084
43.16000 4.061
43.17000 4.122
43.18000 8.112
43.19000 5.090
43.20000 9.113
43.21000 3.059
43.22000 10.268
43.23000 7.195
43.24000 2.080
43.25000 4.144
43.26000 2.052
43.27000 6.285
43.28000 8.239
43.29000 4.144
43.30000 8.314
43.31000 8.199
43.32000 8.148
43.33000 4.191
43.34000 6.188
43.35000 7.242
43.36000 7.148
43.37000 6.246
43.38000 8.217
43.39000 7.236
43.40000 6.200
43.41000 4.147
43.42000 5.116
43.43000 5.118
43.44000 6.020
43.45000 4.140
43.46000 8.371
43.47000 8.213
43.48000 1.044
43.49000 3.086
43.50000 9.333
43.51000 3.180
43.52000 6.183
43.53000 4.050
43.54000 4.067
43.55000 0.000
43.56000 3.140
43.57000 9.258
43.58000 3.026
43.59000 7.090
43.60000 5.122
43.61000 3.118
43.62000 6.193
43.63000 9.303
43.64000 8.266
43.65000 7.362
43.66000 7.143
43.67000 10.319
43.68000 3.094
43.69000 7.184
43.70000 4.121
43.71000 8.239
43.72000 4.153
43.73000 5.187
43.74000 6.198
43.75000 10.109
43.76000 10.334
43.77000 9.312
43.78000 3.039
43.79000 7.195
43.80000 7.243
43.81000 10.491
43.82000 7.266
43.83000 9.260
43.84000 3.091
43.85000 6.214
43.86000 9.318
43.87000 9.387
43.88000 8.296
43.89000 12.367
43.90000 6.322
43.91000 3.090
43.92000 4.128
43.93000 5.217
43.94000 5.097
43.95000 6.211
43.96000 9.262
43.97000 7.273
43.98000 9.206
43.99000 4.153
44.00000 8.262
44.01000 5.171
44.02000 8.242
44.03000 11.208
44.04000 8.399
44.05000 6.230
44.06000 6.224
44.07000 7.238
44.08000 9.262
44.09000 5.167
44.10000 6.190
44.11000 9.329
44.12000 9.342
44.13000 8.297
44.14000 7.234
44.15000 7.318
44.16000 6.174
44.17000 2.083
44.18000 5.251
44.19000 11.248
44.20000 9.226
44.21000 5.205
44.22000 8.212
44.23000 8.212
44.24000 5.085
44.25000 8.266
44.26000 15.460
44.27000 3.078
44.28000 8.302
44.29000 6.190
44.30000 16.522
44.31000 13.433
44.32000 5.125
44.33000 7.258
44.34000 5.121
44.35000 6.224
44.36000 7.230
44.37000 8.311
44.38000 9.471
44.39000 9.339
44.40000 9.315
44.41000 2.079
44.42000 5.113
44.43000 13.352
44.44000 7.295
44.45000 11.197
44.46000 4.107
44.47000 9.181
44.48000 11.483
44.49000 4.067
44.50000 5.150
44.51000 2.125
44.52000 3.056
44.53000 7.123
44.54000 5.110
44.55000 3.111
44.56000 3.074
44.57000 12.580
44.58000 2.047
44.59000 8.282
44.60000 7.197
44.61000 3.070
44.62000 2.075
44.63000 9.356
44.64000 6.220
44.65000 7.251
44.66000 4.128
44.67000 9.271
44.68000 10.266
44.69000 8.174
44.70000 7.213
44.71000 8.214
44.72000 3.076
44.73000 11.304
44.74000 9.312
44.75000 8.296
44.76000 4.126
44.77000 5.186
44.78000 8.247
44.79000 9.264
44.80000 7.249
44.81000 8.242
44.82000 7.192
44.83000 13.455
44.84000 4.078
44.85000 4.154
44.86000 5.255
44.87000 5.116
44.88000 7.164
44.89000 10.261
44.90000 9.354
44.91000 9.241
44.92000 8.214
44.93000 3.045
44.94000 3.057
44.95000 7.154
44.96000 3.069
44.97000 4.075
44.98000 4.060
44.99000 5.170
45.00000 7.137
45.01000 8.253
45.02000 6.245
45.03000 7.212
45.04000 6.151
45.05000 10.210
45.06000 10.185
45.07000 9.366
45.08000 9.200
45.09000 6.060
45.10000 7.173
45.11000 7.226
45.12000 6.207
45.13000 3.080
45.14000 4.097
45.15000 8.210
45.16000 4.165
45.17000 14.420
45.18000 4.165
45.19000 6.270
45.20000 11.278
45.21000 2.068
45.22000 10.401
45.23000 10.231
45.24000 8.297
45.25000 10.350
45.26000 7.196
45.27000 10.325
45.28000 6.159
45.29000 4.088
45.30000 5.183
45.31000 7.190
45.32000 7.344
45.33000 9.312
45.34000 7.274
45.35000 6.247
45.36000 8.242
45.37000 7.154
45.38000 11.419
45.39000 7.255
45.40000 5.193
45.41000 7.266
45.42000 3.062
45.43000 8.313
45.44000 8.196
45.45000 3.155
45.46000 12.347
45.47000 7.250
45.48000 10.263
45.49000 7.185
45.50000 8.286
45.51000 9.301
45.52000 12.649
45.53000 5.293
45.54000 5.128
45.55000 7.323
45.56000 8.130
45.57000 5.129
45.58000 2.019
45.59000 7.161
45.60000 3.096
45.61000 3.050
45.62000 7.143
45.63000 1.091
45.64000 4.126
45.65000 1.022
45.66000 4.160
45.67000 10.260
45.68000 8.210
45.69000 4.069
45.70000 8.291
45.71000 12.416
45.72000 12.507
45.73000 6.154
45.74000 7.231
45.75000 9.236
45.76000 4.101
45.77000 6.206
45.78000 11.380
45.79000 9.495
45.80000 5.039
45.81000 4.068
45.82000 7.127
45.83000 5.203
45.84000 9.200
45.85000 12.400
45.86000 1.076
45.87000 3.143
45.88000 8.220
45.89000 6.203
45.90000 6.110
45.91000 9.284
45.92000 9.365
45.93000 6.113
45.94000 6.125
45.95000 8.330
45.96000 3.110
45.97000 5.215
45.98000 10.432
45.99000 4.160
46.00000 6.185
46.01000 10.082
46.02000 7.177
46.03000 11.333
46.04000 7.192
46.05000 8.267
46.06000 3.074
46.07000 4.196
46.08000 8.200
46.09000 7.228
46.10000 7.199
46.11000 7.160
46.12000 10.350
46.13000 9.320
46.14000 4.129
46.15000 6.203
46.16000 4.145
46.17000 7.181
46.18000 8.222
46.19000 8.220
46.20000 8.327
46.21000 6.156
46.22000 4.137
46.23000 6.161
46.24000 6.235
46.25000 8.287
46.26000 4.128
46.27000 6.183
46.28000 8.189
46.29000 5.200
46.30000 10.276
46.31000 8.195
46.32000 7.281
46.33000 7.121
46.34000 7.261
46.35000 10.366
46.36000 6.234
46.37000 7.117
46.38000 14.582
46.39000 3.093
46.40000 10.216
46.41000 5.144
46.42000 8.260
46.43000 14.472
46.44000 12.411
46.45000 14.330
46.46000 7.164
46.47000 5.259
46.48000 8.174
46.49000 8.267
46.50000 8.236
46.51000 4.098
46.52000 5.166
46.53000 11.340
46.54000 9.356
46.55000 14.435
46.56000 7.226
46.57000 5.017
46.58000 7.223
46.59000 13.516
46.60000 5.121
46.61000 3.107
46.62000 7.191
46.63000 5.144
46.64000 3.048
46.65000 8.344
46.66000 6.189
46.67000 9.323
46.68000 8.172
46.69000 8.383
46.70000 11.450
46.71000 8.308
46.72000 5.091
46.73000 13.399
46.74000 13.539
46.75000 6.130
46.76000 7.164
46.77000 6.264
46.78000 4.128
46.79000 4.172
46.80000 12.484
46.81000 8.260
46.82000 8.266
46.83000 6.134
46.84000 5.131
46.85000 6.149
46.86000 6.117
46.87000 4.127
46.88000 9.210
46.89000 6.265
46.90000 5.154
46.91000 9.222
46.92000 6.232
46.93000 5.105
46.94000 2.053
46.95000 11.346
46.96000 5.161
46.97000 7.264
46.98000 4.114
46.99000 11.313
47.00000 6.252
47.01000 6.119
47.02000 9.293
47.03000 8.248
47.04000 5.125
47.05000 8.209
47.06000 12.410
47.07000 8.419
47.08000 7.293
47.09000 3.147
47.10000 11.298
47.11000 4.159
47.12000 6.164
47.13000 7.206
47.14000 7.231
47.15000 5.065
47.16000 9.394
47.17000 8.363
47.18000 5.177
47.19000 12.190
47.20000 3.111
47.21000 10.245
47.22000 9.437
47.23000 7.353
47.24000 9.196
47.25000 7.267
47.26000 6.276
47.27000 10.291
47.28000 5.164
47.29000 5.137
47.30000 4.167
47.31000 5.118
47.32000 4.058
47.33000 3.102
47.34000 4.072
47.35000 8.338
47.36000 8.229
47.37000 7.235
47.38000 7.195
47.39000 8.211
47.40000 6.168
47.41000 6.165
47.42000 4.184
47.43000 6.203
47.44000 9.245
47.45000 6.183
47.46000 6.170
47.47000 3.095
47.48000 5.147
47.49000 3.080
47.50000 7.231
47.51000 9.431
47.52000 9.306
47.53000 7.203
47.54000 7.393
47.55000 6.226
47.56000 6.163
47.57000 9.293
47.58000 12.397
47.59000 9.335
47.60000 7.329
47.61000 6.201
47.62000 4.105
47.63000 7.295
47.64000 6.266
47.65000 10.132
47.66000 8.371
47.67000 5.245
47.68000 6.247
47.69000 6.188
47.70000 9.340
47.71000 7.249
47.72000 6.141
47.73000 7.168
47.74000 2.023
47.75000 9.209
47.76000 5.108
47.77000 6.247
47.78000 10.240
47.79000 8.238
47.80000 13.381
47.81000 8.339
47.82000 4.116
47.83000 2.060
47.84000 7.200
47.85000 4.112
47.86000 10.232
47.87000 6.116
47.88000 8.359
47.89000 6.210
47.90000 4.205
47.91000 13.483
47.92000 2.037
47.93000 9.377
47.94000 6.164
47.95000 8.137
47.96000 2.102
47.97000 7.317
47.98000 7.340
47.99000 9.237
48.00000 7.281
48.01000 6.166
48.02000 10.375
48.03000 4.168
48.04000 8.288
48.05000 12.477
48.06000 5.174
48.07000 7.237
48.08000 5.154
48.09000 3.166
48.10000 5.138
48.11000 6.103
48.12000 4.124
48.13000 2.046
48.14000 4.194
48.15000 2.079
48.16000 5.118
48.17000 5.211
48.18000 5.200
48.19000 5.128
48.20000 6.197
48.21000 5.081
48.22000 6.196
48.23000 2.052
48.24000 8.126
48.25000 6.144
48.26000 4.100
48.27000 6.171
48.28000 7.259
48.29000 10.327
48.30000 7.247
48.31000 6.239
48.32000 4.125
48.33000 7.248
48.34000 7.151
48.35000 8.251
48.36000 6.128
48.37000 10.362
48.38000 2.036
48.39000 3.152
48.40000 11.407
48.41000 8.191
48.42000 4.097
48.43000 8.291
48.44000 6.160
48.45000 6.193
48.46000 5.117
48.47000 4.180
48.48000 8.168
48.49000 5.054
48.50000 8.273
48.51000 7.222
48.52000 5.148
48.53000 7.142
48.54000 4.104
48.55000 3.099
48.56000 7.171
48.57000 3.120
48.58000 7.168
48.59000 7.226
48.60000 6.181
48.61000 1.003
48.62000 5.105
48.63000 4.026
48.64000 9.358
48.65000 5.069
48.66000 8.209
48.67000 6.109
48.68000 9.301
48.69000 2.055
48.70000 10.360
48.71000 1.064
48.72000 0.997
48.73000 4.095
48.74000 2.090
48.75000 5.189
48.76000 6.207
48.77000 3.070
48.78000 8.232
48.79000 5.203
48.80000 5.080
48.81000 6.269
48.82000 4.132
48.83000 2.089
48.84000 3.075
48.85000 6.186
48.86000 2.043
48.87000 8.254
48.88000 10.410
48.89000 4.142
48.90000 5.214
48.91000 4.075
48.92000 4.063
48.93000 8.259
48.94000 5.104
48.95000 7.263
48.96000 5.183
48.97000 8.188
48.98000 3.160
48.99000 10.346
49.00000 5.132
49.01000 6.209
49.02000 6.220
49.03000 6.192
49.04000 6.136
49.05000 5.159
49.06000 7.153
49.07000 9.334
49.08000 5.115
49.09000 8.193
49.10000 7.183
49.11000 5.147
49.12000 6.214
49.13000 10.129
49.14000 3.086
49.15000 9.177
49.16000 4.189
49.17000 8.161
49.18000 2.006
49.19000 7.196
49.20000 5.192
49.21000 8.262
49.22000 4.167
49.23000 13.328
49.24000 5.174
49.25000 6.057
49.26000 7.155
49.27000 6.099
49.28000 11.358
49.29000 10.194
49.30000 6.173
49.31000 6.244
49.32000 8.321
49.33000 8.219
49.34000 9.210
49.35000 4.156
49.36000 12.300
49.37000 13.482
49.38000 14.452
49.39000 9.219
49.40000 8.309
49.41000 5.246
49.42000 6.175
49.43000 8.294
49.44000 8.371
49.45000 3.098
49.46000 5.165
49.47000 3.112
49.48000 3.199
49.49000 6.142
49.50000 9.320
49.51000 4.059
49.52000 9.319
49.53000 4.068
49.54000 5.127
49.55000 6.098
49.56000 6.174
49.57000 11.279
49.58000 1.000
49.59000 4.075
49.60000 7.341
49.61000 4.184
49.62000 8.208
49.63000 9.255
49.64000 6.319
49.65000 7.191
49.66000 6.144
49.67000 7.148
49.68000 4.109
49.69000 9.211
49.70000 8.279
49.71000 7.103
49.72000 4.104
49.73000 4.106
49.74000 11.328
49.75000 6.072
49.76000 7.348
49.77000 6.270
49.78000 3.112
49.79000 4.143
49.80000 7.256
49.81000 7.182
49.82000 7.342
49.83000 6.256
49.84000 6.220
49.85000 7.317
49.86000 3.105
49.87000 3.060
49.88000 12.251
49.89000 5.124
49.90000 8.220
49.91000 6.140
49.92000 5.116
49.93000 8.231
49.94000 5.025
49.95000 8.129
49.96000 7.160
49.97000 8.197
49.98000 9.441
49.99000 4.071
50.00000 8.276
50.01000 7.245
50.02000 3.085
50.03000 6.254
50.04000 6.214
50.05000 10.319
50.06000 4.135
50.07000 6.095
50.08000 7.278
50.09000 3.143
50.10000 6.205
50.11000 10.246
50.12000 6.141
50.13000 10.280
50.14000 8.363
50.15000 6.188
50.16000 4.146
50.17000 10.433
50.18000 4.116
50.19000 9.236
50.20000 4.091
50.21000 8.230
50.22000 5.125
50.23000 5.169
50.24000 11.341
50.25000 3.108
50.26000 10.290
50.27000 11.406
50.28000 10.344
50.29000 2.061
50.30000 6.105
50.31000 6.091
50.32000 5.208
50.33000 1.016
50.34000 10.447
50.35000 2.090
50.36000 7.301
50.37000 14.416
50.38000 9.285
50.39000 3.049
50.40000 8.250
50.41000 5.235
50.42000 0.989
50.43000 7.347
50.44000 5.241
50.45000 4.188
50.46000 10.402
50.47000 4.071
50.48000 7.236
50.49000 7.249
50.50000 9.373
50.51000 8.186
50.52000 4.164
50.53000 9.266
50.54000 2.025
50.55000 2.049
50.56000 5.108
50.57000 7.179
50.58000 5.181
50.59000 8.197
50.60000 3.066
50.61000 7.249
50.62000 7.250
50.63000 6.269
50.64000 9.201
50.65000 6.175
50.66000 9.313
50.67000 4.151
50.68000 2.040
50.69000 3.055
50.70000 7.207
50.71000 4.117
50.72000 6.250
50.73000 9.224
50.74000 11.311
50.75000 6.233
50.76000 10.171
50.77000 7.177
50.78000 5.074
50.79000 6.194
50.80000 8.174
50.81000 8.225
50.82000 6.079
50.83000 5.067
50.84000 12.359
50.85000 9.371
50.86000 6.087
50.87000 1.058
50.88000 4.137
50.89000 7.255
50.90000 6.208
50.91000 2.069
50.92000 5.129
50.93000 5.232
50.94000 10.425
50.95000 5.352
50.96000 9.347
50.97000 4.073
50.98000 9.259
50.99000 9.278
51.00000 9.413
51.01000 7.075
51.02000 4.249
51.03000 12.344
51.04000 4.103
51.05000 6.160
51.06000 4.119
51.07000 1.079
51.08000 10.335
51.09000 10.244
51.10000 5.261
51.11000 9.357
51.12000 9.465
51.13000 7.205
51.14000 9.237
51.15000 4.100
51.16000 10.379
51.17000 6.153
51.18000 6.237
51.19000 9.313
51.20000 4.155
51.21000 8.275
51.22000 6.262
51.23000 5.150
51.24000 9.310
51.25000 9.322
51.26000 9.296
51.27000 10.343
51.28000 4.118
51.29000 5.106
51.30000 2.057
51.31000 10.246
51.32000 7.321
51.33000 4.132
51.34000 4.114
51.35000 6.204
51.36000 5.059
51.37000 8.201
51.38000 6.273
51.39000 5.114
51.40000 4.010
51.41000 9.273
51.42000 5.169
51.43000 8.246
51.44000 5.186
51.45000 7.136
51.46000 3.114
51.47000 8.316
51.48000 7.321
51.49000 5.093
51.50000 3.060
51.51000 8.276
51.52000 4.178
51.53000 4.154
51.54000 4.146
51.55000 5.125
51.56000 4.148
51.57000 6.232
51.58000 9.427
51.59000 7.187
51.60000 6.150
51.61000 8.185
51.62000 5.147
51.63000 9.217
51.64000 15.321
51.65000 4.201
51.66000 4.129
51.67000 7.200
51.68000 5.152
51.69000 4.167
51.70000 5.159
51.71000 3.063
51.72000 3.145
51.73000 5.075
51.74000 4.129
51.75000 7.266
51.76000 3.115
51.77000 6.176
51.78000 5.081
51.79000 11.304
51.80000 14.485
51.81000 6.129
51.82000 5.114
51.83000 2.051
51.84000 6.227
51.85000 7.240
51.86000 4.186
51.87000 8.197
51.88000 10.367
51.89000 9.374
51.90000 6.348
51.91000 11.433
51.92000 11.430
51.93000 4.088
51.94000 4.111
51.95000 9.258
51.96000 5.080
51.97000 8.328
51.98000 5.091
51.99000 9.243
52.00000 6.205
52.01000 10.256
52.02000 5.229
52.03000 8.249
52.04000 8.241
52.05000 9.293
52.06000 9.255
52.07000 6.176
52.08000 7.308
52.09000 8.273
52.10000 6.155
52.11000 6.194
52.12000 8.279
52.13000 10.217
52.14000 6.234
52.15000 7.256
52.16000 7.144
52.17000 10.339
52.18000 6.347
52.19000 10.238
52.20000 9.263
52.21000 4.155
52.22000 7.250
52.23000 4.141
52.24000 9.253
52.25000 5.151
52.26000 6.219
52.27000 8.246
52.28000 0.000
52.29000 3.111
52.30000 8.230
52.31000 5.167
52.32000 3.093
52.33000 3.100
52.34000 3.065
52.35000 10.307
52.36000 4.157
52.37000 7.195
52.38000 3.083
52.39000 9.244
52.40000 7.210
52.41000 9.334
52.42000 5.151
52.43000 8.238
52.44000 5.120
52.45000 6.155
52.46000 5.238
52.47000 5.142
52.48000 3.170
52.49000 8.246
52.50000 5.228
52.51000 12.398
52.52000 8.194
52.53000 12.279
52.54000 5.073
52.55000 7.166
52.56000 7.303
52.57000 8.240
52.58000 10.332
52.59000 1.037
52.60000 8.244
52.61000 7.293
52.62000 7.185
52.63000 3.095
52.64000 8.334
52.65000 4.129
52.66000 8.299
52.67000 6.170
52.68000 9.378
52.69000 4.115
52.70000 4.100
52.71000 6.194
52.72000 7.200
52.73000 5.200
52.74000 5.107
52.75000 5.171
52.76000 6.208
52.77000 8.261
52.78000 6.294
52.79000 5.222
52.80000 5.151
52.81000 5.111
52.82000 8.272
52.83000 8.228
52.84000 9.239
52.85000 7.297
52.86000 8.249
52.87000 6.190
52.88000 5.176
52.89000 12.363
52.90000 7.177
52.91000 11.217
52.92000 7.223
52.93000 7.210
52.94000 10.280
52.95000 2.038
52.96000 5.170
52.97000 7.254
52.98000 5.366
52.99000 5.140
53.00000 6.215
53.01000 5.029
53.02000 9.176
53.03000 3.116
53.04000 15.314
53.05000 6.253
53.06000 6.227
53.07000 8.222
53.08000 4.081
53.09000 4.129
53.10000 5.074
53.11000 6.223
53.12000 10.222
53.13000 7.164
53.14000 8.207
53.15000 11.350
53.16000 11.391
53.17000 5.085
53.18000 13.567
53.19000 11.454
53.20000 10.308
53.21000 10.342
53.22000 8.323
53.23000 10.499
53.24000 11.517
53.25000 5.174
53.26000 12.493
53.27000 6.135
53.28000 4.155
53.29000 8.209
53.30000 7.281
53.31000 3.155
53.32000 6.210
53.33000 8.350
53.34000 5.205
53.35000 7.109
53.36000 8.221
53.37000 6.179
53.38000 8.300
53.39000 7.228
53.40000 11.495
53.41000 10.284
53.42000 21.712
53.43000 10.347
53.44000 27.866
53.45000 18.550
53.46000 20.721
53.47000 38.065
53.48000 42.238
53.49000 55.733
53.50000 62.023
53.51000 103.371
53.52000 139.402
53.53000 125.287
53.54000 182.770
53.55000 205.053
53.56000 232.634
53.57000 259.156
53.58000 287.167
53.59000 321.507
53.60000 377.790
53.61000 382.900
53.62000 401.175
53.63000 399.688
53.64000 453.246
53.65000 495.466
53.66000 473.950
53.67000 481.529
53.68000 540.418
53.69000 559.372
53.70000 552.058
53.71000 533.095
53.72000 551.540
53.73000 577.597
53.74000 622.660
53.75000 575.125
53.76000 553.247
53.77000 562.062
53.78000 598.752
53.79000 502.289
53.80000 492.583
53.81000 572.093
53.82000 472.840
53.83000 473.412
53.84000 374.262
53.85000 406.917
53.86000 383.768
53.87000 332.943
53.88000 279.917
53.89000 287.377
53.90000 279.234
53.91000 227.623
53.92000 196.607
53.93000 207.942
53.94000 166.751
53.95000 129.355
53.96000 91.206
53.97000 65.894
53.98000 51.994
53.99000 29.806
54.00000 23.621
54.01000 17.593
54.02000 11.452
54.03000 13.584
54.04000 11.374
54.05000 15.529
54.06000 10.333
54.07000 10.291
54.08000 5.127
54.09000 4.203
54.10000 7.275
54.11000 7.228
54.12000 9.288
54.13000 5.174
54.14000 8.305
54.15000 6.113
54.16000 8.200
54.17000 10.320
54.18000 6.238
54.19000 6.269
54.20000 12.369
54.21000 10.342
54.22000 7.261
54.23000 10.346
54.24000 9.283
54.25000 10.365
54.26000 10.267
54.27000 12.354
54.28000 10.360
54.29000 7.178
54.30000 12.424
54.31000 6.128
54.32000 10.224
54.33000 10.202
54.34000 10.417
54.35000 7.179
54.36000 5.078
54.37000 8.341
54.38000 10.253
54.39000 6.177
54.40000 10.371
54.41000 7.288
54.42000 12.390
54.43000 5.207
54.44000 11.241
54.45000 7.235
54.46000 11.294
54.47000 5.131
54.48000 9.369
54.49000 12.439
54.50000 6.161
54.51000 9.381
54.52000 7.298
54.53000 11.342
54.54000 11.438
54.55000 8.230
54.56000 7.348
54.57000 6.184
54.58000 2.049
54.59000 8.378
54.60000 6.148
54.61000 7.244
54.62000 5.145
54.63000 14.377
54.64000 10.410
54.65000 11.528
54.66000 14.405
54.67000 10.368
54.68000 8.269
54.69000 13.213
54.70000 8.219
54.71000 7.206
54.72000 17.538
54.73000 14.431
54.74000 19.574
54.75000 14.455
54.76000 7.234
54.77000 11.450
54.78000 9.254
54.79000 7.231
54.80000 14.819
54.81000 13.595
54.82000 14.607
54.83000 20.621
54.84000 16.452
54.85000 19.457
54.86000 11.378
54.87000 15.478
54.88000 9.273
54.89000 19.711
54.90000 7.208
54.91000 9.195
54.92000 18.658
54.93000 16.669
54.94000 14.609
54.95000 23.640
54.96000 16.371
54.97000 11.282
54.98000 18.469
54.99000 11.277
55.00000 16.666
55.01000 22.700
55.02000 14.395
55.03000 16.545
55.04000 13.630
55.05000 21.787
55.06000 20.588
55.07000 14.500
55.08000 16.492
55.09000 12.478
55.10000 16.463
55.11000 8.229
55.12000 21.687
55.13000 10.162
55.14000 14.377
55.15000 19.682
55.16000 15.432
55.17000 14.474
55.18000 15.440
55.19000 17.419
55.20000 14.576
55.21000 16.483
55.22000 16.483
55.23000 9.239
55.24000 14.361
55.25000 9.250
55.26000 6.150
55.27000 7.110
55.28000 10.388
55.29000 19.518
55.30000 13.427
55.31000 9.289
55.32000 14.598
55.33000 18.593
55.34000 14.486
55.35000 14.498
55.36000 18.502
55.37000 17.679
55.38000 11.435
55.39000 21.716
55.40000 14.449
55.41000 8.285
55.42000 10.389
55.43000 16.398
55.44000 14.327
55.45000 13.481
55.46000 10.245
55.47000 13.482
55.48000 15.455
55.49000 21.658
55.50000 7.233
55.51000 18.660
55.52000 21.873
55.53000 14.388
55.54000 12.413
55.55000 15.412
55.56000 18.695
55.57000 12.257
55.58000 16.485
55.59000 10.429
55.60000 15.434
55.61000 12.396
55.62000 17.454
55.63000 17.557
55.64000 14.428
55.65000 21.674
55.66000 12.357
55.67000 11.487
55.68000 14.374
55.69000 19.748
55.70000 19.603
55.71000 16.543
55.72000 28.887
55.73000 25.958
55.74000 16.577
55.75000 17.508
55.76000 14.453
55.77000 14.532
55.78000 14.354
55.79000 11.390
55.80000 21.793
55.81000 12.302
55.82000 19.485
55.83000 13.460
55.84000 11.465
55.85000 8.267
55.86000 15.346
55.87000 12.393
55.88000 16.511
55.89000 15.489
55.90000 17.411
55.91000 17.708
55.92000 15.424
55.93000 19.689
55.94000 18.714
55.95000 16.625
55.96000 9.179
55.97000 19.536
55.98000 21.801
55.99000 16.449
56.00000 15.560
56.01000 21.527
56.02000 13.324
56.03000 10.171
56.04000 19.639
56.05000 21.775
56.06000 16.513
56.07000 9.352
56.08000 13.290
56.09000 14.510
56.10000 17.447
56.11000 10.341
56.12000 6.233
56.13000 8.205
56.14000 14.456
56.15000 18.529
56.16000 8.311
56.17000 11.510
56.18000 8.324
56.19000 21.590
56.20000 13.712
56.21000 9.327
56.22000 11.353
56.23000 14.441
56.24000 12.491
56.25000 14.388
56.26000 12.347
56.27000 10.393
56.28000 11.292
56.29000 16.495
56.30000 11.395
56.31000 13.336
56.32000 12.415
56.33000 8.268
56.34000 8.272
56.35000 17.537
56.36000 10.286
56.37000 16.448
56.38000 10.583
56.39000 11.291
56.40000 13.405
56.41000 11.305
56.42000 8.312
56.43000 7.088
56.44000 12.499
56.45000 10.328
56.46000 10.313
56.47000 13.374
56.48000 10.324
56.49000 9.244
56.50000 11.264
56.51000 9.353
56.52000 6.175
56.53000 12.360
56.54000 12.408
56.55000 9.355
56.56000 8.232
56.57000 11.231
56.58000 10.216
56.59000 10.279
56.60000 9.227
56.61000 5.268
56.62000 9.180
56.63000 13.416
56.64000 6.110
56.65000 11.425
56.66000 9.241
56.67000 13.477
56.68000 14.435
56.69000 14.457
56.70000 10.473
56.71000 10.232
56.72000 11.197
56.73000 5.160
56.74000 10.342
56.75000 14.462
56.76000 6.153
56.77000 8.324
56.78000 8.279
56.79000 14.417
56.80000 6.210
56.81000 8.398
56.82000 6.106
56.83000 9.297
56.84000 8.186
56.85000 7.194
56.86000 10.379
56.87000 9.217
56.88000 6.302
56.89000 6.244
56.90000 5.153
56.91000 10.345
56.92000 6.204
56.93000 9.308
56.94000 6.214
56.95000 10.297
56.96000 5.115
56.97000 9.270
56.98000 8.297
56.99000 8.302
57.00000 5.171
57.01000 4.136
57.02000 4.069
57.03000 2.064
57.04000 17.587
57.05000 10.455
57.06000 2.100
57.07000 6.248
57.08000 8.201
57.09000 10.404
57.10000 11.294
57.11000 9.256
57.12000 6.191
57.13000 5.124
57.14000 6.157
57.15000 13.400
57.16000 13.593
57.17000 5.165
57.18000 10.318
57.19000 10.438
57.20000 4.135
57.21000 12.360
57.22000 5.102
57.23000 8.370
57.24000 16.581
57.25000 8.244
57.26000 5.166
57.27000 12.295
57.28000 4.141
57.29000 8.318
57.30000 5.109
57.31000 7.188
57.32000 6.147
57.33000 4.149
57.34000 8.233
57.35000 7.223
57.36000 11.365
57.37000 5.237
57.38000 11.329
57.39000 7.257
57.40000 8.365
57.41000 5.140
57.42000 4.221
57.43000 4.044
57.44000 4.140
57.45000 6.281
57.46000 14.498
57.47000 6.255
57.48000 8.279
57.49000 11.397
57.50000 6.311
57.51000 4.071
57.52000 5.247
57.53000 11.426
57.54000 7.341
57.55000 9.306
57.56000 10.314
57.57000 8.271
57.58000 6.169
57.59000 12.335
57.60000 5.166
57.61000 5.169
57.62000 8.266
57.63000 6.203
57.64000 6.264
57.65000 6.101
57.66000 8.274
57.67000 5.243
57.68000 11.170
57.69000 6.168
57.70000 10.267
57.71000 5.175
57.72000 6.172
57.73000 7.212
57.74000 2.086
57.75000 8.287
57.76000 9.349
57.77000 7.251
57.78000 6.145
57.79000 5.095
57.80000 7.310
57.81000 6.259
57.82000 11.380
57.83000 7.255
57.84000 6.356
57.85000 8.283
57.86000 7.303
57.87000 8.297
57.88000 4.239
57.89000 9.350
57.90000 9.452
57.91000 9.328
57.92000 9.353
57.93000 6.147
57.94000 4.196
57.95000 5.131
57.96000 4.142
57.97000 8.152
57.98000 5.253
57.99000 7.157
58.00000 6.173
58.01000 6.177
58.02000 4.172
58.03000 6.191
58.04000 11.359
58.05000 4.073
58.06000 12.393
58.07000 9.180
58.08000 12.335
58.09000 11.345
58.10000 6.239
58.11000 5.150
58.12000 7.211
58.13000 2.026
58.14000 7.141
58.15000 5.193
58.16000 7.165
58.17000 3.177
58.18000 4.161
58.19000 7.194
58.20000 3.054
58.21000 4.071
58.22000 5.125
58.23000 3.124
58.24000 6.121
58.25000 10.363
58.26000 3.135
58.27000 2.057
58.28000 3.145
58.29000 6.184
58.30000 9.318
58.31000 7.087
58.32000 9.253
58.33000 6.196
58.34000 4.107
58.35000 5.180
58.36000 8.256
58.37000 3.151
58.38000 5.101
58.39000 6.266
58.40000 3.120
58.41000 3.122
58.42000 10.310
58.43000 4.184
58.44000 8.231
58.45000 11.322
58.46000 7.180
58.47000 5.224
58.48000 3.126
58.49000 6.268
58.50000 1.040
58.51000 6.216
58.52000 3.130
58.53000 9.331
58.54000 5.222
58.55000 4.094
58.56000 8.162
58.57000 7.158
58.58000 4.072
58.59000 2.093
58.60000 6.145
58.61000 6.186
58.62000 3.030
58.63000 4.107
58.64000 3.092
58.65000 6.318
58.66000 6.194
58.67000 7.210
58.68000 6.257
58.69000 3.070
58.70000 4.111
58.71000 6.240
58.72000 7.278
58.73000 6.217
58.74000 4.145
58.75000 7.204
58.76000 5.189
58.77000 8.246
58.78000 5.150
58.79000 7.222
58.80000 5.194
58.81000 3.091
58.82000 7.266
58.83000 6.211
58.84000 3.130
58.85000 6.175
58.86000 5.093
58.87000 4.066
58.88000 7.217
58.89000 5.102
58.90000 7.133
58.91000 4.097
58.92000 9.227
58.93000 4.133
58.94000 2.071
58.95000 10.367
58.96000 5.207
58.97000 7.230
58.98000 9.467
58.99000 4.068
59.00000 4.164
59.01000 2.104
59.02000 10.449
59.03000 0.000
59.04000 4.143
59.05000 7.257
59.06000 9.151
59.07000 6.154
59.08000 5.130
59.09000 2.020
59.10000 9.371
59.11000 3.108
59.12000 5.166
59.13000 1.012
59.14000 5.071
59.15000 4.225
59.16000 4.166
59.17000 4.112
59.18000 7.218
59.19000 8.228
59.20000 4.046
59.21000 4.134
59.22000 3.094
59.23000 3.117
59.24000 4.121
59.25000 3.008
59.26000 8.392
59.27000 5.106
59.28000 7.099
59.29000 5.099
59.30000 6.261
59.31000 1.012
59.32000 5.240
59.33000 8.286
59.34000 6.153
59.35000 7.250
59.36000 7.178
59.37000 12.452
59.38000 6.323
59.39000 2.064
59.40000 5.088
59.41000 7.227
59.42000 6.180
59.43000 3.068
59.44000 4.125
59.45000 5.162
59.46000 2.051
59.47000 6.135
59.48000 3.175
59.49000 5.245
59.50000 6.237
59.51000 1.000
59.52000 6.200
59.53000 4.119
59.54000 8.147
59.55000 5.139
59.56000 2.066
59.57000 2.071
59.58000 7.191
59.59000 8.302
59.60000 8.296
59.61000 8.249
59.62000 6.116
59.63000 2.084
59.64000 7.136
59.65000 5.171
59.66000 3.070
59.67000 8.144
59.68000 6.236
59.69000 8.265
59.70000 4.115
59.71000 3.083
59.72000 5.174
59.73000 6.188
59.74000 4.177
59.75000 2.026
59.76000 5.105
59.77000 2.031
59.78000 4.142
59.79000 2.042
59.80000 5.106
59.81000 9.120
59.82000 3.032
59.83000 6.150
59.84000 1.051
59.85000 3.035
59.86000 2.048
59.87000 8.310
59.88000 5.270
59.89000 3.083
59.90000 5.227
59.91000 5.021
59.92000 10.369
59.93000 3.081
59.94000 6.199
59.95000 6.134
59.96000 4.133
59.97000 8.352
59.98000 2.017
59.99000 4.099
60.00000 8.251
60.01000 4.078
60.02000 6.181
60.03000 6.239
60.04000 7.322
60.05000 4.161
60.06000 5.187
60.07000 2.053
60.08000 5.222
60.09000 7.286
60.10000 4.163
60.11000 6.193
60.12000 2.064
60.13000 4.091
60.14000 5.167
60.15000 5.171
60.16000 6.184
60.17000 0.998
60.18000 6.191
60.19000 4.248
60.20000 7.309
60.21000 1.048
60.22000 3.039
60.23000 4.097
60.24000 1.055
60.25000 2.096
60.26000 4.068
60.27000 6.201
60.28000 4.067
60.29000 9.171
60.30000 5.086
60.31000 7.272
60.32000 6.225
60.33000 2.024
60.34000 5.240
60.35000 3.142
60.36000 5.237
60.37000 5.138
60.38000 4.159
60.39000 4.070
60.40000 2.008
60.41000 5.254
60.42000 4.167
60.43000 1.060
60.44000 6.117
60.45000 3.077
60.46000 2.113
60.47000 6.200
60.48000 5.166
60.49000 3.121
60.50000 6.121
60.51000 6.241
60.52000 4.077
60.53000 6.234
60.54000 2.091
60.55000 4.235
60.56000 6.190
60.57000 5.063
60.58000 5.160
60.59000 3.121
60.60000 5.135
60.61000 4.110
60.62000 5.260
60.63000 7.150
60.64000 5.142
60.65000 4.038
60.66000 5.091
60.67000 6.310
60.68000 7.174
60.69000 4.123
60.70000 7.164
60.71000 2.139
60.72000 8.295
60.73000 4.121
60.74000 3.009
60.75000 1.024
60.76000 4.151
60.77000 6.164
60.78000 1.052
60.79000 8.225
60.80000 2.022
60.81000 5.092
60.82000 1.995
60.83000 5.257
60.84000 4.109
60.85000 5.127
60.86000 7.142
60.87000 3.122
60.88000 6.225
60.89000 7.298
60.90000 3.109
60.91000 1.017
60.92000 3.099
60.93000 4.116
60.94000 4.162
60.95000 5.146
60.96000 1.006
60.97000 5.166
60.98000 6.277
60.99000 5.109
61.00000 5.345
61.01000 3.093
61.02000 0.000
61.03000 7.268
61.04000 6.141
61.05000 4.053
61.06000 3.071
61.07000 1.052
61.08000 3.152
61.09000 3.094
61.10000 9.401
61.11000 2.072
61.12000 2.090
61.13000 8.404
61.14000 4.101
61.15000 2.076
61.16000 5.100
61.17000 11.208
61.18000 4.203
61.19000 6.253
61.20000 6.218
61.21000 1.025
61.22000 3.048
61.23000 5.101
61.24000 3.045
61.25000 8.352
61.26000 4.101
61.27000 7.244
61.28000 3.079
61.29000 7.185
61.30000 3.105
61.31000 4.067
61.32000 4.164
61.33000 7.310
61.34000 6.146
61.35000 4.121
61.36000 5.200
61.37000 8.290
61.38000 6.201
61.39000 3.095
61.40000 5.140
61.41000 3.088
61.42000 6.155
61.43000 4.129
61.44000 7.318
61.45000 8.228
61.46000 5.139
61.47000 2.056
61.48000 5.104
61.49000 3.110
61.50000 5.237
61.51000 3.079
61.52000 7.150
61.53000 1.084
61.54000 1.012
61.55000 6.120
61.56000 2.149
61.57000 10.446
61.58000 5.168
61.59000 5.151
61.60000 5.212
61.61000 2.059
61.62000 8.218
61.63000 4.135
61.64000 3.150
61.65000 2.041
61.66000 4.164
61.67000 5.116
61.68000 5.187
61.69000 4.176
61.70000 3.082
61.71000 4.032
61.72000 5.234
61.73000 5.036
61.74000 3.068
61.75000 6.172
61.76000 4.090
61.77000 3.133
61.78000 3.139
61.79000 5.261
61.80000 2.094
61.81000 2.027
61.82000 6.207
61.83000 6.239
61.84000 2.147
61.85000 9.329
61.86000 6.230
61.87000 4.151
61.88000 5.177
61.89000 2.068
61.90000 5.143
61.91000 6.225
61.92000 5.123
61.93000 5.269
61.94000 3.086
61.95000 3.118
61.96000 1.051
61.97000 5.129
61.98000 7.219
61.99000 8.231
62.00000 6.182
62.01000 4.074
62.02000 3.106
62.03000 7.208
62.04000 2.100
62.05000 8.282
62.06000 2.040
62.07000 5.172
62.08000 3.049
62.09000 6.180
62.10000 4.193
62.11000 5.222
62.12000 9.230
62.13000 3.155
62.14000 5.118
62.15000 4.143
62.16000 4.239
62.17000 7.245
62.18000 6.235
62.19000 5.143
62.20000 5.242
62.21000 5.140
62.22000 2.168
62.23000 1.032
62.24000 3.039
62.25000 8.197
62.26000 2.023
62.27000 3.096
62.28000 4.099
62.29000 5.116
62.30000 2.105
62.31000 5.111
62.32000 4.209
62.33000 4.114
62.34000 4.100
62.35000 3.090
62.36000 4.133
62.37000 6.239
62.38000 7.332
62.39000 2.071
62.40000 11.274
62.41000 5.152
62.42000 4.116
62.43000 5.150
62.44000 8.224
62.45000 4.164
62.46000 3.078
62.47000 8.319
62.48000 6.300
62.49000 6.201
62.50000 4.111
62.51000 5.100
62.52000 4.122
62.53000 5.179
62.54000 4.185
62.55000 8.153
62.56000 2.044
62.57000 1.014
62.58000 1.022
62.59000 2.021
62.60000 2.078
62.61000 3.122
62.62000 2.032
62.63000 4.124
62.64000 2.094
62.65000 2.062
62.66000 9.226
62.67000 2.034
62.68000 4.155
62.69000 5.096
62.70000 4.152
62.71000 8.269
62.72000 3.101
62.73000 3.131
62.74000 5.101
62.75000 4.141
62.76000 5.099
62.77000 3.078
62.78000 3.047
62.79000 3.072
62.80000 2.106
62.81000 2.028
62.82000 6.181
62.83000 4.162
62.84000 6.264
62.85000 6.202
62.86000 2.062
62.87000 8.270
62.88000 2.046
62.89000 1.036
62.90000 5.182
62.91000 2.102
62.92000 6.223
62.93000 5.193
62.94000 4.179
62.95000 5.189
62.96000 3.132
62.97000 6.168
62.98000 4.153
62.99000 4.100
63.00000 4.095
63.01000 2.056
63.02000 4.082
63.03000 3.084
63.04000 5.341
63.05000 3.071
63.06000 3.100
63.07000 3.095
63.08000 3.105
63.09000 2.067
63.10000 3.155
63.11000 5.068
63.12000 7.208
63.13000 4.167
63.14000 6.169
63.15000 5.285
63.16000 5.062
63.17000 7.213
63.18000 6.123
63.19000 4.069
63.20000 3.104
63.21000 3.108
63.22000 2.105
63.23000 3.065
63.24000 2.036
63.25000 6.238
63.26000 2.058
63.27000 2.021
63.28000 3.099
63.29000 2.086
63.30000 1.036
63.31000 6.271
63.32000 6.340
63.33000 4.174
63.34000 3.076
63.35000 4.138
63.36000 8.267
63.37000 5.167
63.38000 6.222
63.39000 0.000
63.40000 5.218
63.41000 6.276
63.42000 4.187
63.43000 6.149
63.44000 4.276
63.45000 2.080
63.46000 3.143
63.47000 3.125
63.48000 3.055
63.49000 2.101
63.50000 4.146
63.51000 3.055
63.52000 6.188
63.53000 5.155
63.54000 4.103
63.55000 7.213
63.56000 2.068
63.57000 10.332
63.58000 5.165
63.59000 9.281
63.60000 6.234
63.61000 3.058
63.62000 5.193
63.63000 6.319
63.64000 3.097
63.65000 6.193
63.66000 3.061
63.67000 1.029
63.68000 6.296
63.69000 4.106
63.70000 7.211
63.71000 3.135
63.72000 3.203
63.73000 2.046
63.74000 6.246
63.75000 2.059
63.76000 2.011
63.77000 6.263
63.78000 3.034
63.79000 4.202
63.80000 2.073
63.81000 5.186
63.82000 11.401
63.83000 4.119
63.84000 4.098
63.85000 7.221
63.86000 3.181
63.87000 6.117
63.88000 5.283
63.89000 4.122
63.90000 6.145
63.91000 5.218
63.92000 3.063
63.93000 2.074
63.94000 5.056
63.95000 3.071
63.96000 3.106
63.97000 3.092
63.98000 3.076
63.99000 5.128
64.00000 2.055
64.01000 5.167
64.02000 4.145
64.03000 1.037
64.04000 2.067
64.05000 0.000
64.06000 2.121
64.07000 3.055
64.08000 1.015
64.09000 1.003
64.10000 5.126
64.11000 2.046
64.12000 4.052
64.13000 4.058
64.14000 2.143
64.15000 3.105
64.16000 3.173
64.17000 8.227
64.18000 5.265
64.19000 7.270
64.20000 3.140
64.21000 2.036
64.22000 2.067
64.23000 2.040
64.24000 4.183
64.25000 7.287
64.26000 5.242
64.27000 2.014
64.28000 3.109
64.29000 2.067
64.30000 6.082
64.31000 4.128
64.32000 7.180
64.33000 2.092
64.34000 3.129
64.35000 4.181
64.36000 0.000
64.37000 5.059
64.38000 6.211
64.39000 6.259
64.40000 0.000
64.41000 3.043
64.42000 3.045
64.43000 2.128
64.44000 4.192
64.45000 5.155
64.46000 4.137
64.47000 5.201
64.48000 6.261
64.49000 2.021
64.50000 7.235
64.51000 0.000
64.52000 5.171
64.53000 6.329
64.54000 6.137
64.55000 3.077
64.56000 5.218
64.57000 3.092
64.58000 2.060
64.59000 2.053
64.60000 8.221
64.61000 3.049
64.62000 5.210
64.63000 5.068
64.64000 5.154
64.65000 1.019
64.66000 8.150
64.67000 4.118
64.68000 5.169
64.69000 1.074
64.70000 5.036
64.71000 9.293
64.72000 6.237
64.73000 3.109
64.74000 5.148
64.75000 7.253
64.76000 6.049
64.77000 3.148
64.78000 4.151
64.79000 5.143
64.80000 3.072
64.81000 5.169
64.82000 3.129
64.83000 7.203
64.84000 4.135
64.85000 5.210
64.86000 6.139
64.87000 7.219
64.88000 3.130
64.89000 3.047
64.90000 4.081
64.91000 5.161
64.92000 5.138
64.93000 6.160
64.94000 3.032
64.95000 5.104
64.96000 4.167
64.97000 4.166
64.98000 4.114
64.99000 1.046
65.00000 3.045
