20.00000 16.170
20.01000 18.180
20.02000 17.283
20.03000 21.309
20.04000 12.066
20.05000 18.272
20.06000 21.333
20.07000 20.306
20.08000 20.270
20.09000 17.289
20.10000 19.191
20.11000 18.443
20.12000 16.166
20.13000 15.126
20.14000 18.194
20.15000 18.159
20.16000 16.222
20.17000 16.186
20.18000 6.036
20.19000 17.211
20.20000 24.613
20.21000 13.250
20.22000 19.420
20.23000 22.259
20.24000 23.280
20.25000 20.254
20.26000 17.205
20.27000 14.041
20.28000 18.108
20.29000 22.375
20.30000 15.214
20.31000 23.332
20.32000 19.304
20.33000 16.021
20.34000 19.318
20.35000 17.328
20.36000 17.169
20.37000 13.114
20.38000 16.129
20.39000 18.281
20.40000 13.226
20.41000 11.049
20.42000 15.350
20.43000 25.390
20.44000 9.285
20.45000 21.203
20.46000 16.360
20.47000 15.286
20.48000 14.086
20.49000 17.300
20.50000 18.283
20.51000 15.051
20.52000 17.491
20.53000 17.227
20.54000 17.207
20.55000 14.118
20.56000 20.224
20.57000 17.191
20.58000 12.108
20.59000 17.133
20.60000 16.105
20.61000 17.161
20.62000 13.111
20.63000 14.138
20.64000 13.263
20.65000 16.232
20.66000 11.141
20.67000 26.412
20.68000 12.106
20.69000 15.177
20.70000 11.186
20.71000 18.195
20.72000 15.233
20.73000 16.342
20.74000 13.204
20.75000 14.278
20.76000 9.274
20.77000 8.064
20.78000 19.122
20.79000 9.009
20.80000 13.174
20.81000 14.141
20.82000 21.425
20.83000 16.221
20.84000 22.239
20.85000 22.343
20.86000 13.217
20.87000 21.287
20.88000 14.089
20.89000 19.421
20.90000 19.275
20.91000 19.323
20.92000 18.087
20.93000 14.135
20.94000 9.203
20.95000 16.131
20.96000 13.113
20.97000 12.090
20.98000 18.238
20.99000 20.247
21.00000 15.388
21.01000 16.148
21.02000 11.131
21.03000 8.217
21.04000 16.383
21.05000 17.203
21.06000 17.392
21.07000 12.277
21.08000 13.323
21.09000 13.218
21.10000 9.195
21.11000 15.140
21.12000 19.388
21.13000 13.093
21.14000 12.073
21.15000 16.105
21.16000 16.099
21.17000 21.144
21.18000 11.060
21.19000 16.160
21.20000 26.437
21.21000 16.166
21.22000 17.330
21.23000 15.307
21.24000 15.233
21.25000 17.222
21.26000 16.196
21.27000 14.203
21.28000 4.045
21.29000 18.268
21.30000 16.283
21.31000 9.047
21.32000 16.106
21.33000 13.069
21.34000 14.153
21.35000 16.249
21.36000 15.276
21.37000 19.104
21.38000 12.179
21.39000 17.077
21.40000 16.180
21.41000 15.283
21.42000 11.169
21.43000 21.466
21.44000 17.230
21.45000 18.337
21.46000 8.968
21.47000 12.224
21.48000 16.125
21.49000 20.245
21.50000 14.224
21.51000 19.415
21.52000 10.187
21.53000 13.175
21.54000 19.240
21.55000 15.244
21.56000 13.266
21.57000 11.158
21.58000 14.152
21.59000 22.384
21.60000 18.332
21.61000 17.203
21.62000 20.352
21.63000 21.182
21.64000 5.090
21.65000 15.246
21.66000 12.176
21.67000 22.332
21.68000 20.311
21.69000 21.396
21.70000 17.358
21.71000 11.106
21.72000 22.257
21.73000 18.235
21.74000 19.358
21.75000 13.132
21.76000 17.457
21.77000 14.177
21.78000 12.097
21.79000 14.125
21.80000 20.250
21.81000 11.076
21.82000 13.139
21.83000 15.395
21.84000 9.043
21.85000 16.334
21.86000 18.030
21.87000 17.137
21.88000 13.063
21.89000 14.102
21.90000 17.266
21.91000 15.297
21.92000 13.262
21.93000 20.232
21.94000 22.187
21.95000 12.266
21.96000 9.169
21.97000 17.283
21.98000 16.170
21.99000 12.098
22.00000 22.440
22.01000 13.060
22.02000 14.126
22.03000 12.122
22.04000 15.083
22.05000 13.098
22.06000 14.153
22.07000 7.119
22.08000 22.345
22.09000 17.161
22.10000 19.281
22.11000 16.271
22.12000 15.117
22.13000 16.187
22.14000 13.161
22.15000 14.160
22.16000 13.249
22.17000 9.127
22.18000 12.085
22.19000 19.337
22.20000 13.168
22.21000 12.121
22.22000 23.074
22.23000 10.200
22.24000 18.250
22.25000 16.107
22.26000 23.386
22.27000 12.126
22.28000 15.164
22.29000 14.295
22.30000 22.587
22.31000 12.204
22.32000 10.128
22.33000 13.305
22.34000 13.064
22.35000 18.141
22.36000 20.384
22.37000 10.013
22.38000 15.290
22.39000 14.230
22.40000 11.054
22.41000 12.127
22.42000 21.150
22.43000 10.144
22.44000 21.136
22.45000 15.158
22.46000 19.110
22.47000 12.141
22.48000 9.095
22.49000 17.207
22.50000 15.159
22.51000 19.281
22.52000 20.326
22.53000 15.247
22.54000 10.282
22.55000 19.187
22.56000 23.224
22.57000 15.335
22.58000 20.138
22.59000 11.191
22.60000 14.216
22.61000 16.211
22.62000 11.049
22.63000 19.292
22.64000 18.239
22.65000 17.314
22.66000 10.013
22.67000 16.308
22.68000 13.211
22.69000 10.133
22.70000 10.165
22.71000 15.011
22.72000 14.282
22.73000 15.235
22.74000 13.328
22.75000 10.142
22.76000 18.281
22.77000 15.124
22.78000 14.107
22.79000 21.299
22.80000 10.004
22.81000 9.042
22.82000 12.323
22.83000 15.114
22.84000 15.197
22.85000 6.954
22.86000 14.195
22.87000 12.212
22.88000 10.052
22.89000 19.213
22.90000 11.209
22.91000 8.040
22.92000 9.132
22.93000 12.131
22.94000 9.108
22.95000 24.287
22.96000 14.169
22.97000 15.164
22.98000 16.256
22.99000 12.157
23.00000 19.419
23.01000 18.337
23.02000 18.321
23.03000 9.148
23.04000 12.138
23.05000 11.149
23.06000 10.046
23.07000 12.167
23.08000 13.203
23.09000 12.219
23.10000 11.157
23.11000 18.148
23.12000 13.375
23.13000 16.316
23.14000 7.118
23.15000 6.030
23.16000 17.402
23.17000 13.208
23.18000 9.046
23.19000 11.187
23.20000 12.050
23.21000 16.195
23.22000 14.300
23.23000 15.364
23.24000 13.089
23.25000 13.328
23.26000 13.114
23.27000 8.110
23.28000 16.225
23.29000 10.150
23.30000 15.182
23.31000 10.097
23.32000 10.142
23.33000 12.138
23.34000 13.180
23.35000 14.280
23.36000 14.186
23.37000 17.168
23.38000 10.053
23.39000 12.136
23.40000 16.165
23.41000 9.201
23.42000 11.202
23.43000 17.257
23.44000 10.180
23.45000 17.128
23.46000 16.315
23.47000 20.319
23.48000 11.094
23.49000 7.141
23.50000 23.521
23.51000 15.172
23.52000 10.142
23.53000 13.148
23.54000 12.144
23.55000 13.139
23.56000 13.004
23.57000 5.057
23.58000 12.146
23.59000 11.173
23.60000 9.181
23.61000 12.204
23.62000 17.319
23.63000 20.240
23.64000 13.283
23.65000 16.217
23.66000 12.218
23.67000 10.130
23.68000 12.244
23.69000 14.140
23.70000 12.138
23.71000 20.242
23.72000 17.318
23.73000 9.091
23.74000 11.130
23.75000 17.290
23.76000 16.255
23.77000 13.249
23.78000 14.075
23.79000 12.178
23.80000 15.182
23.81000 13.199
23.82000 10.183
23.83000 12.136
23.84000 10.156
23.85000 13.244
23.86000 13.332
23.87000 14.312
23.88000 8.092
23.89000 16.269
23.90000 12.068
23.91000 12.170
23.92000 19.218
23.93000 12.220
23.94000 13.169
23.95000 20.236
23.96000 15.036
23.97000 10.254
23.98000 16.205
23.99000 16.238
24.00000 14.070
24.01000 17.325
24.02000 13.370
24.03000 14.180
24.04000 7.063
24.05000 18.192
24.06000 10.180
24.07000 20.454
24.08000 12.193
24.09000 22.480
24.10000 14.163
24.11000 12.198
24.12000 11.072
24.13000 12.239
24.14000 15.195
24.15000 9.061
24.16000 4.983
24.17000 14.236
24.18000 12.152
24.19000 16.216
24.20000 14.285
24.21000 17.344
24.22000 6.136
24.23000 9.138
24.24000 10.182
24.25000 13.239
24.26000 11.204
24.27000 8.966
24.28000 14.102
24.29000 10.086
24.30000 12.123
24.31000 9.098
24.32000 14.127
24.33000 10.180
24.34000 8.177
24.35000 12.158
24.36000 19.133
24.37000 12.137
24.38000 22.229
24.39000 9.125
24.40000 9.082
24.41000 9.162
24.42000 14.191
24.43000 9.105
24.44000 12.147
24.45000 6.016
24.46000 11.134
24.47000 14.104
24.48000 11.060
24.49000 15.087
24.50000 16.338
24.51000 5.123
24.52000 17.272
24.53000 16.206
24.54000 13.105
24.55000 11.015
24.56000 14.982
24.57000 7.138
24.58000 9.154
24.59000 6.123
24.60000 9.189
24.61000 9.124
24.62000 13.123
24.63000 10.116
24.64000 13.232
24.65000 13.171
24.66000 10.119
24.67000 15.289
24.68000 15.170
24.69000 14.332
24.70000 14.052
24.71000 10.951
24.72000 16.327
24.73000 15.087
24.74000 10.212
24.75000 14.108
24.76000 8.110
24.77000 18.174
24.78000 15.163
24.79000 5.041
24.80000 14.302
24.81000 9.070
24.82000 18.096
24.83000 11.122
24.84000 10.265
24.85000 16.285
24.86000 7.010
24.87000 11.200
24.88000 15.028
24.89000 11.191
24.90000 15.215
24.91000 10.047
24.92000 11.236
24.93000 15.197
24.94000 12.300
24.95000 19.395
24.96000 11.093
24.97000 8.014
24.98000 12.193
24.99000 20.128
25.00000 16.215
25.01000 11.097
25.02000 13.201
25.03000 12.206
25.04000 7.134
25.05000 13.266
25.06000 12.133
25.07000 9.096
25.08000 8.120
25.09000 4.131
25.10000 17.157
25.11000 15.182
25.12000 9.999
25.13000 9.100
25.14000 18.335
25.15000 10.142
25.16000 14.372
25.17000 8.107
25.18000 6.090
25.19000 14.056
25.20000 10.189
25.21000 14.245
25.22000 9.983
25.23000 19.294
25.24000 7.097
25.25000 11.253
25.26000 7.088
25.27000 15.218
25.28000 10.142
25.29000 5.019
25.30000 11.146
25.31000 8.300
25.32000 8.069
25.33000 8.034
25.34000 9.117
25.35000 6.141
25.36000 10.273
25.37000 13.039
25.38000 16.417
25.39000 10.138
25.40000 16.372
25.41000 18.164
25.42000 13.106
25.43000 5.077
25.44000 10.092
25.45000 12.198
25.46000 10.176
25.47000 17.344
25.48000 11.103
25.49000 20.404
25.50000 16.431
25.51000 12.319
25.52000 10.102
25.53000 10.109
25.54000 8.024
25.55000 10.300
25.56000 7.133
25.57000 20.154
25.58000 14.056
25.59000 7.221
25.60000 14.108
25.61000 15.105
25.62000 7.227
25.63000 9.028
25.64000 11.053
25.65000 6.103
25.66000 9.267
25.67000 10.129
25.68000 10.109
25.69000 7.146
25.70000 15.018
25.71000 11.122
25.72000 11.154
25.73000 11.039
25.74000 13.118
25.75000 15.301
25.76000 13.132
25.77000 18.321
25.78000 11.117
25.79000 15.205
25.80000 11.048
25.81000 5.074
25.82000 19.223
25.83000 11.143
25.84000 8.169
25.85000 8.009
25.86000 12.172
25.87000 15.276
25.88000 13.360
25.89000 12.123
25.90000 10.057
25.91000 8.210
25.92000 5.067
25.93000 13.187
25.94000 10.290
25.95000 6.097
25.96000 7.146
25.97000 14.012
25.98000 11.204
25.99000 5.083
26.00000 14.135
26.01000 7.191
26.02000 7.019
26.03000 4.047
26.04000 15.166
26.05000 9.205
26.06000 14.927
26.07000 9.038
26.08000 8.137
26.09000 14.218
26.10000 9.166
26.11000 12.193
26.12000 8.989
26.13000 16.186
26.14000 8.119
26.15000 12.151
26.16000 10.085
26.17000 11.196
26.18000 17.258
26.19000 13.992
26.20000 10.156
26.21000 10.111
26.22000 13.164
26.23000 7.140
26.24000 14.110
26.25000 9.091
26.26000 14.204
26.27000 13.316
26.28000 9.044
26.29000 7.123
26.30000 14.104
26.31000 7.105
26.32000 10.222
26.33000 7.001
26.34000 7.169
26.35000 9.114
26.36000 8.191
26.37000 14.352
26.38000 17.132
26.39000 9.136
26.40000 10.180
26.41000 17.462
26.42000 9.112
26.43000 14.283
26.44000 14.190
26.45000 11.095
26.46000 11.055
26.47000 14.338
26.48000 10.027
26.49000 8.147
26.50000 13.337
26.51000 12.326
26.52000 18.231
26.53000 8.021
26.54000 8.068
26.55000 6.088
26.56000 9.059
26.57000 7.013
26.58000 15.243
26.59000 11.204
26.60000 7.074
26.61000 15.340
26.62000 19.125
26.63000 8.983
26.64000 10.349
26.65000 8.110
26.66000 7.091
26.67000 14.112
26.68000 13.010
26.69000 6.037
26.70000 14.153
26.71000 10.048
26.72000 9.202
26.73000 16.338
26.74000 7.099
26.75000 12.253
26.76000 8.145
26.77000 12.167
26.78000 7.033
26.79000 7.089
26.80000 11.158
26.81000 11.161
26.82000 8.233
26.83000 10.032
26.84000 9.215
26.85000 6.051
26.86000 10.075
26.87000 10.098
26.88000 16.179
26.89000 11.133
26.90000 11.031
26.91000 8.114
26.92000 7.076
26.93000 12.138
26.94000 15.191
26.95000 13.129
26.96000 7.090
26.97000 5.046
26.98000 7.055
26.99000 11.103
27.00000 12.119
27.01000 9.053
27.02000 9.041
27.03000 10.116
27.04000 10.185
27.05000 9.212
27.06000 4.978
27.07000 6.055
27.08000 14.126
27.09000 6.048
27.10000 14.236
27.11000 10.268
27.12000 10.223
27.13000 9.188
27.14000 14.131
27.15000 7.987
27.16000 5.046
27.17000 8.020
27.18000 8.141
27.19000 5.144
27.20000 7.022
27.21000 12.137
27.22000 11.024
27.23000 14.182
27.24000 12.069
27.25000 6.997
27.26000 7.182
27.27000 11.123
27.28000 7.055
27.29000 14.235
27.30000 9.139
27.31000 10.174
27.32000 7.150
27.33000 13.115
27.34000 9.215
27.35000 10.152
27.36000 9.158
27.37000 8.242
27.38000 7.198
27.39000 14.104
27.40000 17.206
27.41000 9.148
27.42000 6.022
27.43000 11.033
27.44000 4.001
27.45000 11.368
27.46000 11.229
27.47000 7.178
27.48000 5.168
27.49000 10.103
27.50000 14.171
27.51000 13.155
27.52000 9.036
27.53000 7.087
27.54000 9.044
27.55000 9.298
27.56000 9.253
27.57000 7.123
27.58000 8.009
27.59000 11.239
27.60000 5.167
27.61000 12.182
27.62000 10.165
27.63000 4.102
27.64000 8.045
27.65000 13.138
27.66000 11.037
27.67000 10.092
27.68000 10.137
27.69000 13.169
27.70000 4.054
27.71000 7.142
27.72000 8.175
27.73000 7.110
27.74000 9.992
27.75000 6.075
27.76000 4.027
27.77000 12.283
27.78000 7.102
27.79000 6.216
27.80000 6.098
27.81000 13.140
27.82000 8.213
27.83000 6.018
27.84000 9.121
27.85000 9.142
27.86000 4.095
27.87000 10.016
27.88000 7.179
27.89000 9.061
27.90000 7.158
27.91000 9.149
27.92000 8.178
27.93000 3.063
27.94000 7.137
27.95000 5.010
27.96000 5.094
27.97000 10.156
27.98000 8.097
27.99000 5.024
28.00000 15.342
28.01000 10.189
28.02000 8.147
28.03000 2.016
28.04000 12.225
28.05000 8.080
28.06000 10.267
28.07000 4.086
28.08000 11.199
28.09000 10.216
28.10000 10.238
28.11000 10.044
28.12000 8.135
28.13000 10.060
28.14000 5.124
28.15000 5.064
28.16000 11.235
28.17000 10.153
28.18000 5.031
28.19000 8.076
28.20000 11.107
28.21000 10.252
28.22000 7.071
28.23000 6.101
28.24000 10.156
28.25000 16.196
28.26000 10.180
28.27000 9.219
28.28000 6.053
28.29000 9.104
28.30000 6.060
28.31000 7.162
28.32000 12.278
28.33000 5.018
28.34000 8.101
28.35000 6.109
28.36000 10.284
28.37000 10.115
28.38000 9.166
28.39000 10.047
28.40000 13.155
28.41000 13.165
28.42000 4.056
28.43000 5.078
28.44000 13.129
28.45000 5.976
28.46000 12.056
28.47000 10.193
28.48000 10.209
28.49000 10.110
28.50000 11.174
28.51000 5.008
28.52000 7.990
28.53000 12.270
28.54000 4.111
28.55000 15.228
28.56000 12.176
28.57000 8.106
28.58000 9.231
28.59000 10.144
28.60000 7.085
28.61000 12.128
28.62000 4.051
28.63000 9.205
28.64000 12.110
28.65000 6.054
28.66000 8.139
28.67000 10.180
28.68000 9.091
28.69000 15.249
28.70000 12.110
28.71000 9.184
28.72000 15.328
28.73000 13.235
28.74000 10.151
28.75000 7.077
28.76000 9.148
28.77000 6.115
28.78000 5.076
28.79000 7.028
28.80000 4.091
28.81000 11.085
28.82000 5.000
28.83000 7.995
28.84000 9.093
28.85000 10.974
28.86000 6.151
28.87000 7.156
28.88000 9.244
28.89000 9.217
28.90000 10.259
28.91000 9.122
28.92000 5.118
28.93000 11.283
28.94000 7.994
28.95000 14.243
28.96000 5.032
28.97000 14.289
28.98000 9.012
28.99000 4.113
29.00000 8.168
29.01000 8.053
29.02000 6.166
29.03000 8.070
29.04000 8.117
29.05000 8.215
29.06000 6.038
29.07000 12.060
29.08000 9.052
29.09000 7.117
29.10000 10.190
29.11000 11.024
29.12000 9.210
29.13000 10.113
29.14000 5.064
29.15000 7.075
29.16000 7.176
29.17000 5.053
29.18000 6.167
29.19000 8.186
29.20000 6.006
29.21000 15.248
29.22000 4.066
29.23000 5.017
29.24000 8.036
29.25000 8.297
29.26000 7.027
29.27000 6.038
29.28000 4.117
29.29000 9.205
29.30000 15.206
29.31000 13.286
29.32000 3.046
29.33000 16.260
29.34000 7.184
29.35000 10.170
29.36000 14.173
29.37000 10.167
29.38000 6.154
29.39000 5.041
29.40000 11.159
29.41000 5.152
29.42000 6.054
29.43000 7.112
29.44000 10.106
29.45000 5.012
29.46000 9.039
29.47000 6.107
29.48000 7.067
29.49000 11.279
29.50000 7.141
29.51000 8.188
29.52000 6.023
29.53000 9.183
29.54000 12.255
29.55000 3.029
29.56000 11.210
29.57000 12.218
29.58000 9.139
29.59000 11.174
29.60000 9.144
29.61000 8.072
29.62000 7.171
29.63000 5.113
29.64000 9.231
29.65000 6.120
29.66000 9.168
29.67000 2.162
29.68000 9.109
29.69000 6.053
29.70000 17.220
29.71000 10.238
29.72000 3.020
29.73000 8.077
29.74000 11.173
29.75000 7.028
29.76000 13.231
29.77000 8.122
29.78000 10.038
29.79000 8.098
29.80000 15.218
29.81000 9.033
29.82000 7.044
29.83000 4.063
29.84000 16.116
29.85000 7.066
29.86000 8.044
29.87000 7.208
29.88000 4.121
29.89000 12.197
29.90000 9.117
29.91000 5.067
29.92000 7.023
29.93000 7.027
29.94000 14.154
29.95000 10.086
29.96000 9.058
29.97000 10.157
29.98000 9.170
29.99000 4.127
30.00000 7.205
30.01000 9.176
30.02000 4.045
30.03000 9.096
30.04000 5.055
30.05000 9.947
30.06000 9.236
30.07000 12.275
30.08000 10.213
30.09000 7.024
30.10000 13.148
30.11000 10.194
30.12000 5.056
30.13000 6.115
30.14000 8.111
30.15000 6.078
30.16000 10.160
30.17000 11.251
30.18000 11.096
30.19000 5.982
30.20000 9.100
30.21000 7.023
30.22000 7.130
30.23000 8.117
30.24000 11.237
30.25000 8.073
30.26000 13.173
30.27000 6.142
30.28000 3.122
30.29000 9.125
30.30000 4.037
30.31000 10.225
30.32000 2.037
30.33000 12.157
30.34000 8.132
30.35000 7.021
30.36000 9.124
30.37000 9.137
30.38000 7.117
30.39000 7.129
30.40000 20.300
30.41000 8.039
30.42000 8.108
30.43000 4.077
30.44000 6.978
30.45000 5.084
30.46000 12.185
30.47000 9.151
30.48000 9.130
30.49000 5.161
30.50000 11.187
30.51000 12.114
30.52000 5.148
30.53000 10.259
30.54000 12.126
30.55000 4.052
30.56000 5.054
30.57000 8.110
30.58000 7.085
30.59000 7.989
30.60000 4.096
30.61000 10.113
30.62000 7.009
30.63000 11.098
30.64000 10.199
30.65000 8.119
30.66000 8.098
30.67000 8.221
30.68000 8.213
30.69000 6.084
30.70000 4.027
30.71000 10.178
30.72000 10.059
30.73000 9.019
30.74000 5.017
30.75000 13.078
30.76000 6.214
30.77000 2.025
30.78000 6.096
30.79000 6.057
30.80000 9.139
30.81000 12.173
30.82000 2.961
30.83000 2.987
30.84000 9.203
30.85000 7.127
30.86000 8.159
30.87000 9.115
30.88000 10.180
30.89000 6.003
30.90000 5.150
30.91000 7.043
30.92000 4.078
30.93000 5.104
30.94000 5.043
30.95000 2.998
30.96000 11.124
30.97000 9.069
30.98000 7.018
30.99000 13.145
31.00000 4.077
31.01000 12.189
31.02000 13.199
31.03000 11.150
31.04000 9.074
31.05000 9.210
31.06000 10.153
31.07000 5.134
31.08000 8.103
31.09000 3.992
31.10000 6.023
31.11000 7.192
31.12000 6.164
31.13000 6.158
31.14000 7.979
31.15000 8.108
31.16000 10.210
31.17000 6.098
31.18000 3.037
31.19000 7.138
31.20000 9.125
31.21000 5.034
31.22000 4.045
31.23000 10.061
31.24000 13.152
31.25000 10.116
31.26000 7.207
31.27000 3.029
31.28000 10.147
31.29000 3.989
31.30000 4.055
31.31000 6.038
31.32000 5.959
31.33000 5.157
31.34000 8.098
31.35000 5.080
31.36000 7.077
31.37000 3.058
31.38000 7.202
31.39000 15.385
31.40000 6.054
31.41000 4.004
31.42000 5.088
31.43000 4.034
31.44000 5.997
31.45000 6.095
31.46000 7.086
31.47000 12.255
31.48000 11.061
31.49000 7.047
31.50000 7.113
31.51000 6.263
31.52000 5.019
31.53000 14.215
31.54000 12.148
31.55000 6.076
31.56000 6.135
31.57000 12.213
31.58000 10.056
31.59000 11.083
31.60000 6.006
31.61000 6.116
31.62000 12.262
31.63000 6.065
31.64000 5.106
31.65000 5.998
31.66000 7.178
31.67000 9.020
31.68000 3.997
31.69000 6.035
31.70000 5.142
31.71000 3.078
31.72000 9.127
31.73000 4.179
31.74000 6.099
31.75000 12.159
31.76000 9.095
31.77000 7.083
31.78000 9.129
31.79000 9.122
31.80000 3.955
31.81000 4.042
31.82000 3.028
31.83000 3.017
31.84000 7.232
31.85000 5.159
31.86000 5.109
31.87000 6.100
31.88000 9.096
31.89000 6.130
31.90000 11.144
31.91000 4.054
31.92000 8.946
31.93000 6.143
31.94000 9.132
31.95000 8.111
31.96000 9.131
31.97000 6.171
31.98000 7.103
31.99000 3.045
32.00000 4.089
32.01000 5.054
32.02000 5.075
32.03000 5.082
32.04000 4.061
32.05000 5.058
32.06000 8.014
32.07000 7.198
32.08000 10.084
32.09000 3.014
32.10000 2.066
32.11000 4.051
32.12000 9.104
32.13000 9.175
32.14000 3.031
32.15000 7.050
32.16000 10.010
32.17000 8.163
32.18000 3.103
32.19000 6.150
32.20000 3.092
32.21000 4.109
32.22000 8.094
32.23000 5.192
32.24000 8.182
32.25000 4.008
32.26000 5.108
32.27000 7.076
32.28000 3.044
32.29000 6.070
32.30000 6.128
32.31000 4.948
32.32000 3.962
32.33000 4.146
32.34000 13.220
32.35000 5.123
32.36000 2.082
32.37000 10.221
32.38000 4.080
32.39000 6.040
32.40000 6.048
32.41000 6.099
32.42000 7.064
32.43000 8.167
32.44000 5.073
32.45000 5.081
32.46000 5.083
32.47000 2.994
32.48000 7.145
32.49000 4.060
32.50000 4.080
32.51000 2.998
32.52000 5.008
32.53000 6.996
32.54000 6.012
32.55000 5.022
32.56000 6.212
32.57000 8.102
32.58000 2.022
32.59000 9.084
32.60000 8.141
32.61000 9.066
32.62000 7.069
32.63000 11.125
32.64000 4.070
32.65000 1.039
32.66000 7.041
32.67000 6.086
32.68000 3.052
32.69000 7.104
32.70000 5.024
32.71000 10.012
32.72000 3.093
32.73000 5.078
32.74000 3.996
32.75000 5.072
32.76000 0.991
32.77000 6.194
32.78000 6.075
32.79000 8.114
32.80000 5.065
32.81000 1.998
32.82000 12.262
32.83000 4.061
32.84000 6.155
32.85000 6.057
32.86000 5.132
32.87000 9.134
32.88000 7.096
32.89000 5.095
32.90000 7.015
32.91000 4.215
32.92000 6.060
32.93000 5.990
32.94000 7.080
32.95000 6.043
32.96000 3.095
32.97000 7.162
32.98000 7.158
32.99000 6.976
33.00000 4.188
33.01000 8.263
33.02000 4.069
33.03000 5.021
33.04000 8.005
33.05000 5.049
33.06000 7.057
33.07000 12.038
33.08000 9.044
33.09000 5.048
33.10000 5.086
33.11000 6.085
33.12000 4.062
33.13000 5.062
33.14000 9.159
33.15000 7.036
33.16000 7.931
33.17000 9.192
33.18000 5.107
33.19000 14.333
33.20000 7.105
33.21000 8.065
33.22000 5.125
33.23000 8.026
33.24000 5.086
33.25000 2.987
33.26000 7.068
33.27000 3.033
33.28000 6.039
33.29000 6.058
33.30000 12.201
33.31000 4.034
33.32000 7.055
33.33000 4.014
33.34000 4.069
33.35000 9.152
33.36000 4.131
33.37000 2.024
33.38000 11.159
33.39000 5.980
33.40000 6.033
33.41000 7.050
33.42000 9.171
33.43000 8.066
33.44000 2.021
33.45000 5.037
33.46000 9.322
33.47000 7.159
33.48000 3.031
33.49000 6.145
33.50000 3.067
33.51000 9.152
33.52000 5.076
33.53000 7.070
33.54000 6.064
33.55000 3.014
33.56000 4.047
33.57000 3.060
33.58000 5.996
33.59000 10.157
33.60000 6.099
33.61000 3.013
33.62000 9.164
33.63000 4.059
33.64000 7.046
33.65000 10.096
33.66000 8.049
33.67000 7.287
33.68000 4.070
33.69000 4.011
33.70000 5.106
33.71000 3.047
33.72000 5.063
33.73000 5.115
33.74000 12.144
33.75000 4.976
33.76000 5.095
33.77000 5.051
33.78000 6.120
33.79000 3.061
33.80000 7.207
33.81000 7.235
33.82000 4.115
33.83000 5.082
33.84000 5.113
33.85000 7.030
33.86000 14.172
33.87000 4.122
33.88000 8.152
33.89000 2.037
33.90000 10.022
33.91000 6.155
33.92000 9.148
33.93000 3.076
33.94000 2.036
33.95000 7.054
33.96000 5.110
33.97000 1.975
33.98000 2.986
33.99000 5.132
34.00000 5.121
34.01000 8.114
34.02000 4.964
34.03000 8.139
34.04000 1.007
34.05000 4.996
34.06000 0.980
34.07000 2.026
34.08000 3.204
34.09000 2.995
34.10000 2.992
34.11000 16.220
34.12000 5.111
34.13000 7.138
34.14000 7.132
34.15000 5.024
34.16000 4.035
34.17000 6.030
34.18000 9.204
34.19000 5.077
34.20000 4.010
34.21000 1.977
34.22000 10.061
34.23000 7.191
34.24000 10.988
34.25000 6.128
34.26000 1.020
34.27000 6.073
34.28000 5.094
34.29000 5.056
34.30000 5.000
34.31000 4.103
34.32000 5.099
34.33000 8.105
34.34000 5.049
34.35000 3.025
34.36000 5.132
34.37000 7.129
34.38000 13.173
34.39000 4.006
34.40000 9.116
34.41000 1.006
34.42000 5.053
34.43000 5.080
34.44000 5.005
34.45000 7.084
34.46000 5.096
34.47000 5.964
34.48000 7.077
34.49000 7.087
34.50000 6.943
34.51000 8.035
34.52000 7.128
34.53000 2.012
34.54000 6.021
34.55000 7.009
34.56000 4.042
34.57000 9.241
34.58000 9.301
34.59000 4.086
34.60000 4.032
34.61000 8.109
34.62000 4.097
34.63000 2.032
34.64000 4.021
34.65000 3.032
34.66000 9.070
34.67000 5.102
34.68000 7.130
34.69000 6.072
34.70000 2.987
34.71000 5.956
34.72000 1.999
34.73000 6.013
34.74000 5.083
34.75000 9.156
34.76000 3.002
34.77000 10.184
34.78000 3.106
34.79000 4.137
34.80000 6.007
34.81000 5.135
34.82000 5.059
34.83000 7.080
34.84000 9.159
34.85000 5.111
34.86000 6.143
34.87000 3.112
34.88000 7.038
34.89000 7.050
34.90000 7.050
34.91000 4.078
34.92000 5.038
34.93000 4.131
34.94000 5.058
34.95000 1.004
34.96000 4.007
34.97000 4.029
34.98000 5.043
34.99000 5.972
35.00000 2.027
35.01000 1.996
35.02000 4.994
35.03000 5.020
35.04000 9.070
35.05000 4.119
35.06000 4.056
35.07000 4.118
35.08000 9.183
35.09000 7.087
35.10000 9.195
35.11000 4.040
35.12000 4.028
35.13000 3.062
35.14000 3.955
35.15000 6.118
35.16000 3.047
35.17000 7.179
35.18000 6.084
35.19000 7.201
35.20000 6.088
35.21000 7.059
35.22000 5.029
35.23000 10.176
35.24000 4.017
35.25000 7.097
35.26000 4.099
35.27000 4.032
35.28000 5.002
35.29000 3.082
35.30000 8.165
35.31000 9.154
35.32000 5.050
35.33000 6.103
35.34000 2.008
35.35000 2.944
35.36000 11.200
35.37000 11.008
35.38000 5.148
35.39000 4.025
35.40000 3.057
35.41000 7.062
35.42000 6.020
35.43000 10.058
35.44000 8.108
35.45000 4.013
35.46000 5.078
35.47000 7.087
35.48000 8.063
35.49000 8.114
35.50000 5.048
35.51000 8.246
35.52000 11.213
35.53000 2.032
35.54000 6.072
35.55000 2.022
35.56000 2.052
35.57000 4.159
35.58000 5.029
35.59000 4.014
35.60000 6.054
35.61000 4.074
35.62000 6.185
35.63000 7.135
35.64000 6.093
35.65000 7.023
35.66000 7.081
35.67000 3.010
35.68000 6.036
35.69000 3.978
35.70000 8.113
35.71000 3.046
35.72000 7.075
35.73000 3.035
35.74000 6.952
35.75000 3.081
35.76000 4.024
35.77000 6.096
35.78000 8.203
35.79000 2.991
35.80000 5.052
35.81000 4.080
35.82000 6.102
35.83000 5.040
35.84000 4.047
35.85000 4.092
35.86000 3.074
35.87000 3.006
35.88000 4.014
35.89000 2.063
35.90000 0.000
35.91000 7.149
35.92000 3.974
35.93000 5.991
35.94000 6.005
35.95000 5.088
35.96000 4.002
35.97000 6.066
35.98000 4.983
35.99000 6.076
36.00000 2.023
36.01000 1.021
36.02000 2.028
36.03000 5.982
36.04000 2.046
36.05000 5.030
36.06000 3.054
36.07000 5.000
36.08000 5.042
36.09000 6.036
36.10000 3.973
36.11000 6.053
36.12000 6.157
36.13000 10.064
36.14000 9.188
36.15000 11.102
36.16000 5.040
36.17000 6.193
36.18000 6.110
36.19000 7.113
36.20000 4.999
36.21000 3.097
36.22000 12.117
36.23000 8.106
36.24000 4.091
36.25000 7.160
36.26000 5.074
36.27000 4.020
36.28000 2.060
36.29000 8.285
36.30000 6.171
36.31000 6.087
36.32000 5.001
36.33000 5.040
36.34000 10.197
36.35000 4.067
36.36000 3.051
36.37000 6.171
36.38000 5.081
36.39000 7.038
36.40000 1.020
36.41000 3.132
36.42000 3.007
36.43000 2.049
36.44000 2.006
36.45000 4.063
36.46000 4.079
36.47000 9.141
36.48000 8.026
36.49000 6.074
36.50000 4.021
36.51000 8.066
36.52000 12.156
36.53000 3.179
36.54000 0.987
36.55000 5.012
36.56000 3.018
36.57000 7.068
36.58000 3.110
36.59000 3.032
36.60000 5.991
36.61000 7.999
36.62000 3.062
36.63000 5.110
36.64000 8.078
36.65000 1.001
36.66000 3.035
36.67000 5.061
36.68000 2.989
36.69000 7.100
36.70000 3.036
36.71000 1.994
36.72000 3.004
36.73000 5.028
36.74000 4.062
36.75000 7.066
36.76000 6.112
36.77000 1.986
36.78000 5.123
36.79000 6.087
36.80000 3.033
36.81000 5.034
36.82000 4.028
36.83000 3.008
36.84000 5.144
36.85000 6.082
36.86000 4.046
36.87000 9.124
36.88000 4.015
36.89000 5.060
36.90000 6.052
36.91000 5.052
36.92000 4.057
36.93000 5.078
36.94000 4.135
36.95000 1.999
36.96000 9.192
36.97000 7.084
36.98000 8.256
36.99000 4.031
37.00000 3.987
37.01000 4.028
37.02000 5.998
37.03000 4.028
37.04000 7.071
37.05000 5.121
37.06000 4.036
37.07000 5.071
37.08000 4.020
37.09000 4.045
37.10000 6.160
37.11000 10.156
37.12000 2.033
37.13000 4.102
37.14000 5.110
37.15000 1.052
37.16000 1.001
37.17000 1.993
37.18000 0.000
37.19000 4.005
37.20000 6.164
37.21000 7.074
37.22000 7.976
37.23000 4.032
37.24000 2.992
37.25000 5.002
37.26000 2.029
37.27000 3.038
37.28000 9.123
37.29000 6.140
37.30000 4.095
37.31000 7.076
37.32000 3.021
37.33000 4.042
37.34000 2.979
37.35000 1.967
37.36000 0.998
37.37000 3.045
37.38000 2.072
37.39000 8.060
37.40000 3.086
37.41000 10.127
37.42000 0.997
37.43000 4.014
37.44000 5.121
37.45000 7.069
37.46000 10.216
37.47000 1.993
37.48000 5.209
37.49000 5.056
37.50000 8.122
37.51000 5.076
37.52000 6.159
37.53000 5.063
37.54000 5.012
37.55000 3.028
37.56000 6.072
37.57000 2.035
37.58000 5.128
37.59000 4.058
37.60000 8.065
37.61000 4.996
37.62000 7.151
37.63000 4.962
37.64000 6.174
37.65000 6.075
37.66000 12.238
37.67000 2.068
37.68000 8.092
37.69000 11.268
37.70000 8.116
37.71000 6.127
37.72000 3.028
37.73000 3.073
37.74000 3.095
37.75000 2.005
37.76000 2.027
37.77000 1.012
37.78000 4.021
37.79000 1.004
37.80000 1.976
37.81000 3.082
37.82000 5.050
37.83000 6.069
37.84000 7.033
37.85000 0.000
37.86000 5.089
37.87000 3.025
37.88000 6.129
37.89000 6.108
37.90000 7.130
37.91000 2.000
37.92000 4.113
37.93000 3.079
37.94000 3.094
37.95000 5.077
37.96000 1.964
37.97000 6.157
37.98000 4.036
37.99000 2.048
38.00000 8.147
38.01000 3.088
38.02000 5.072
38.03000 6.064
38.04000 1.030
38.05000 8.185
38.06000 6.088
38.07000 1.056
38.08000 3.985
38.09000 7.062
38.10000 3.062
38.11000 1.001
38.12000 1.974
38.13000 0.981
38.14000 7.132
38.15000 4.072
38.16000 7.088
38.17000 6.101
38.18000 5.099
38.19000 1.966
38.20000 5.032
38.21000 6.176
38.22000 5.073
38.23000 8.087
38.24000 2.981
38.25000 5.103
38.26000 2.990
38.27000 7.175
38.28000 3.961
38.29000 0.998
38.30000 6.077
38.31000 3.094
38.32000 3.066
38.33000 3.075
38.34000 3.028
38.35000 2.051
38.36000 4.021
38.37000 4.021
38.38000 3.092
38.39000 4.045
38.40000 2.997
38.41000 3.097
38.42000 4.186
38.43000 3.014
38.44000 5.972
38.45000 2.026
38.46000 4.091
38.47000 0.996
38.48000 4.003
38.49000 2.039
38.50000 3.041
38.51000 1.984
38.52000 6.104
38.53000 5.994
38.54000 3.994
38.55000 4.989
38.56000 3.070
38.57000 4.034
38.58000 5.057
38.59000 6.125
38.60000 7.135
38.61000 3.039
38.62000 7.072
38.63000 6.087
38.64000 5.121
38.65000 4.015
38.66000 9.092
38.67000 3.088
38.68000 8.098
38.69000 7.146
38.70000 4.051
38.71000 3.028
38.72000 4.088
38.73000 6.099
38.74000 9.230
38.75000 4.094
38.76000 1.991
38.77000 8.047
38.78000 5.144
38.79000 8.162
38.80000 4.112
38.81000 0.999
38.82000 2.025
38.83000 1.031
38.84000 5.022
38.85000 7.190
38.86000 7.098
38.87000 0.000
38.88000 5.998
38.89000 6.087
38.90000 5.108
38.91000 8.082
38.92000 4.027
38.93000 2.969
38.94000 2.064
38.95000 2.045
38.96000 2.000
38.97000 2.018
38.98000 3.041
38.99000 2.000
39.00000 3.001
39.01000 1.026
39.02000 4.013
39.03000 3.069
39.04000 3.977
39.05000 4.018
39.06000 1.001
39.07000 5.154
39.08000 2.012
39.09000 5.135
39.10000 3.025
39.11000 4.017
39.12000 2.025
39.13000 5.059
39.14000 4.090
39.15000 7.221
39.16000 7.265
39.17000 4.064
39.18000 2.970
39.19000 6.043
39.20000 5.092
39.21000 4.076
39.22000 5.073
39.23000 0.000
39.24000 3.983
39.25000 3.054
39.26000 6.098
39.27000 4.083
39.28000 4.065
39.29000 4.046
39.30000 5.056
39.31000 2.016
39.32000 3.088
39.33000 4.095
39.34000 3.081
39.35000 8.078
39.36000 3.059
39.37000 4.035
39.38000 3.039
39.39000 3.000
39.40000 3.091
39.41000 5.122
39.42000 6.121
39.43000 2.021
39.44000 1.993
39.45000 5.065
39.46000 3.034
39.47000 5.976
39.48000 5.136
39.49000 6.168
39.50000 3.999
39.51000 4.007
39.52000 4.061
39.53000 5.999
39.54000 6.143
39.55000 5.145
39.56000 2.008
39.57000 5.113
39.58000 7.103
39.59000 5.151
39.60000 4.966
39.61000 5.021
39.62000 6.118
39.63000 7.059
39.64000 4.025
39.65000 3.128
39.66000 0.988
39.67000 0.000
39.68000 8.134
39.69000 2.063
39.70000 4.103
39.71000 6.092
39.72000 4.120
39.73000 2.040
39.74000 1.039
39.75000 5.070
39.76000 3.110
39.77000 4.049
39.78000 3.026
39.79000 1.981
39.80000 4.067
39.81000 8.145
39.82000 3.041
39.83000 4.029
39.84000 2.986
39.85000 1.007
39.86000 6.156
39.87000 5.037
39.88000 3.021
39.89000 6.019
39.90000 4.054
39.91000 5.058
39.92000 4.100
39.93000 9.142
39.94000 4.045
39.95000 8.063
39.96000 4.021
39.97000 5.201
39.98000 4.145
39.99000 3.012
40.00000 3.020
40.01000 2.012
40.02000 2.065
40.03000 5.117
40.04000 4.068
40.05000 6.067
40.06000 4.064
40.07000 4.041
40.08000 5.039
40.09000 3.003
40.10000 4.032
40.11000 3.012
40.12000 3.109
40.13000 3.099
40.14000 3.022
40.15000 3.065
40.16000 3.075
40.17000 4.078
40.18000 3.030
40.19000 7.109
40.20000 3.139
40.21000 2.063
40.22000 4.024
40.23000 2.073
40.24000 2.008
40.25000 3.022
40.26000 2.014
40.27000 1.035
40.28000 4.035
40.29000 5.058
40.30000 3.040
40.31000 3.997
40.32000 2.002
40.33000 4.045
40.34000 0.996
40.35000 6.135
40.36000 2.055
40.37000 7.160
40.38000 4.084
40.39000 2.052
40.40000 5.140
40.41000 8.157
40.42000 3.096
40.43000 5.067
40.44000 5.064
40.45000 4.023
40.46000 7.094
40.47000 6.095
40.48000 6.092
40.49000 1.981
40.50000 4.048
40.51000 5.112
40.52000 2.037
40.53000 1.017
40.54000 4.029
40.55000 3.079
40.56000 4.118
40.57000 3.028
40.58000 3.995
40.59000 3.077
40.60000 9.134
40.61000 1.036
40.62000 2.037
40.63000 2.004
40.64000 0.000
40.65000 6.206
40.66000 0.000
40.67000 2.994
40.68000 2.011
40.69000 5.056
40.70000 0.998
40.71000 3.012
40.72000 3.054
40.73000 3.095
40.74000 3.034
40.75000 2.014
40.76000 3.009
40.77000 0.987
40.78000 4.063
40.79000 3.112
40.80000 7.061
40.81000 4.056
40.82000 7.109
40.83000 6.085
40.84000 3.050
40.85000 2.018
40.86000 6.135
40.87000 4.084
40.88000 4.022
40.89000 1.043
40.90000 3.072
40.91000 6.091
40.92000 3.054
40.93000 4.062
40.94000 5.945
40.95000 3.080
40.96000 3.086
40.97000 4.017
40.98000 1.041
40.99000 0.000
41.00000 3.023
41.01000 5.019
41.02000 2.084
41.03000 5.032
41.04000 5.995
41.05000 0.000
41.06000 2.061
41.07000 4.081
41.08000 8.164
41.09000 6.022
41.10000 2.090
41.11000 2.041
41.12000 7.110
41.13000 1.978
41.14000 7.219
41.15000 8.148
41.16000 0.000
41.17000 1.990
41.18000 3.106
41.19000 3.060
41.20000 3.961
41.21000 3.020
41.22000 4.007
41.23000 0.972
41.24000 1.999
41.25000 3.100
41.26000 2.060
41.27000 4.066
41.28000 2.017
41.29000 2.015
41.30000 6.093
41.31000 3.061
41.32000 3.097
41.33000 5.022
41.34000 4.023
41.35000 5.143
41.36000 3.945
41.37000 2.997
41.38000 6.065
41.39000 4.027
41.40000 3.946
41.41000 5.130
41.42000 5.012
41.43000 4.065
41.44000 1.982
41.45000 4.139
41.46000 5.055
41.47000 2.122
41.48000 2.045
41.49000 3.054
41.50000 3.989
41.51000 3.093
41.52000 1.998
41.53000 1.047
41.54000 2.038
41.55000 6.057
41.56000 2.036
41.57000 0.000
41.58000 1.014
41.59000 5.075
41.60000 5.106
41.61000 4.033
41.62000 4.023
41.63000 1.025
41.64000 3.072
41.65000 1.995
41.66000 2.014
41.67000 5.031
41.68000 2.008
41.69000 4.103
41.70000 2.033
41.71000 6.028
41.72000 2.098
41.73000 3.054
41.74000 0.000
41.75000 3.018
41.76000 4.029
41.77000 5.045
41.78000 4.060
41.79000 2.003
41.80000 7.041
41.81000 5.166
41.82000 0.000
41.83000 1.040
41.84000 0.980
41.85000 3.041
41.86000 8.028
41.87000 2.052
41.88000 6.023
41.89000 6.056
41.90000 5.043
41.91000 3.004
41.92000 2.050
41.93000 2.018
41.94000 3.060
41.95000 3.046
41.96000 1.985
41.97000 2.091
41.98000 2.060
41.99000 3.113
42.00000 2.028
42.01000 2.046
42.02000 1.996
42.03000 5.014
42.04000 4.037
42.05000 3.044
42.06000 6.124
42.07000 1.996
42.08000 4.994
42.09000 1.059
42.10000 1.049
42.11000 2.058
42.12000 4.095
42.13000 5.013
42.14000 6.207
42.15000 3.054
42.16000 0.000
42.17000 1.014
42.18000 2.121
42.19000 6.027
42.20000 1.003
42.21000 2.031
42.22000 1.988
42.23000 7.045
42.24000 2.057
42.25000 4.122
42.26000 5.061
42.27000 1.004
42.28000 0.980
42.29000 5.137
42.30000 5.050
42.31000 3.096
42.32000 3.065
42.33000 2.011
42.34000 5.037
42.35000 9.073
42.36000 2.026
42.37000 2.035
42.38000 4.070
42.39000 2.031
42.40000 2.988
42.41000 6.086
42.42000 2.999
42.43000 3.024
42.44000 6.060
42.45000 3.093
42.46000 5.162
42.47000 4.041
42.48000 4.034
42.49000 4.018
42.50000 5.086
42.51000 1.020
42.52000 6.082
42.53000 1.990
42.54000 3.113
42.55000 1.997
42.56000 9.985
42.57000 3.037
42.58000 2.972
42.59000 5.987
42.60000 1.071
42.61000 4.034
42.62000 4.044
42.63000 1.047
42.64000 4.028
42.65000 2.994
42.66000 3.954
42.67000 2.070
42.68000 2.079
42.69000 5.089
42.70000 1.028
42.71000 2.005
42.72000 1.000
42.73000 2.021
42.74000 6.064
42.75000 1.996
42.76000 4.031
42.77000 4.058
42.78000 3.039
42.79000 1.095
42.80000 2.033
42.81000 1.028
42.82000 5.081
42.83000 2.049
42.84000 3.084
42.85000 2.026
42.86000 5.020
42.87000 5.042
42.88000 0.000
42.89000 2.009
42.90000 3.037
42.91000 7.151
42.92000 3.002
42.93000 6.114
42.94000 4.107
42.95000 1.028
42.96000 4.019
42.97000 2.046
42.98000 0.000
42.99000 2.017
43.00000 0.996
43.01000 2.024
43.02000 4.989
43.03000 3.035
43.04000 3.100
43.05000 4.128
43.06000 5.011
43.07000 3.086
43.08000 0.000
43.09000 4.072
43.10000 0.987
43.11000 5.010
43.12000 5.059
43.13000 3.096
43.14000 1.035
43.15000 0.983
43.16000 0.000
43.17000 3.034
43.18000 0.000
43.19000 3.093
43.20000 1.980
43.21000 2.050
43.22000 0.986
43.23000 1.991
43.24000 2.033
43.25000 2.009
43.26000 3.030
43.27000 0.000
43.28000 1.011
43.29000 1.038
43.30000 4.025
43.31000 0.981
43.32000 2.013
43.33000 4.017
43.34000 2.054
43.35000 2.017
43.36000 5.070
43.37000 7.035
43.38000 2.048
43.39000 1.992
43.40000 3.035
43.41000 5.023
43.42000 1.015
43.43000 4.131
43.44000 1.980
43.45000 2.971
43.46000 3.065
43.47000 5.053
43.48000 1.992
43.49000 3.028
43.50000 1.036
43.51000 3.054
43.52000 3.038
43.53000 2.024
43.54000 3.096
43.55000 4.030
43.56000 1.976
43.57000 7.052
43.58000 3.078
43.59000 1.035
43.60000 5.124
43.61000 2.030
43.62000 0.998
43.63000 4.024
43.64000 4.110
43.65000 0.000
43.66000 5.087
43.67000 4.026
43.68000 0.000
43.69000 7.057
43.70000 5.107
43.71000 6.141
43.72000 2.039
43.73000 0.993
43.74000 1.980
43.75000 6.110
43.76000 4.049
43.77000 2.010
43.78000 5.067
43.79000 3.053
43.80000 3.016
43.81000 3.104
43.82000 6.036
43.83000 4.042
43.84000 6.108
43.85000 0.000
43.86000 3.059
43.87000 3.087
43.88000 3.121
43.89000 2.060
43.90000 1.002
43.91000 4.127
43.92000 2.040
43.93000 5.017
43.94000 2.044
43.95000 7.165
43.96000 0.000
43.97000 5.119
43.98000 3.117
43.99000 3.033
44.00000 1.003
44.01000 3.069
44.02000 1.967
44.03000 6.041
44.04000 3.079
44.05000 2.038
44.06000 3.100
44.07000 1.031
44.08000 4.049
44.09000 1.012
44.10000 0.000
44.11000 3.992
44.12000 3.035
44.13000 4.078
44.14000 5.069
44.15000 6.094
44.16000 2.031
44.17000 1.022
44.18000 4.115
44.19000 5.968
44.20000 0.997
44.21000 2.967
44.22000 3.006
44.23000 6.142
44.24000 0.966
44.25000 2.076
44.26000 3.051
44.27000 5.088
44.28000 0.984
44.29000 4.036
44.30000 4.046
44.31000 3.018
44.32000 4.942
44.33000 1.085
44.34000 0.987
44.35000 4.065
44.36000 3.083
44.37000 3.051
44.38000 2.071
44.39000 4.027
44.40000 2.956
44.41000 2.972
44.42000 0.000
44.43000 1.037
44.44000 5.038
44.45000 2.107
44.46000 1.001
44.47000 6.015
44.48000 6.089
44.49000 1.019
44.50000 2.014
44.51000 6.034
44.52000 1.994
44.53000 1.991
44.54000 3.093
44.55000 2.087
44.56000 2.065
44.57000 4.077
44.58000 4.041
44.59000 3.072
44.60000 3.005
44.61000 1.034
44.62000 5.015
44.63000 0.990
44.64000 4.128
44.65000 2.995
44.66000 3.093
44.67000 1.031
44.68000 3.008
44.69000 2.069
44.70000 4.048
44.71000 5.081
44.72000 4.016
44.73000 3.971
44.74000 0.000
44.75000 3.057
44.76000 3.020
44.77000 2.012
44.78000 5.074
44.79000 3.976
44.80000 1.092
44.81000 4.027
44.82000 3.054
44.83000 2.095
44.84000 4.090
44.85000 1.054
44.86000 1.979
44.87000 0.995
44.88000 6.016
44.89000 2.055
44.90000 2.957
44.91000 2.029
44.92000 0.000
44.93000 3.077
44.94000 3.102
44.95000 2.053
44.96000 3.994
44.97000 6.041
44.98000 2.007
44.99000 0.000
45.00000 1.075
45.01000 2.055
45.02000 2.043
45.03000 2.025
45.04000 0.000
45.05000 6.041
45.06000 2.028
45.07000 1.016
45.08000 4.047
45.09000 4.101
45.10000 0.979
45.11000 1.035
45.12000 4.030
45.13000 2.981
45.14000 3.024
45.15000 1.000
45.16000 6.080
45.17000 1.983
45.18000 4.068
45.19000 1.026
45.20000 3.036
45.21000 0.998
45.22000 1.012
45.23000 1.992
45.24000 1.982
45.25000 1.994
45.26000 4.048
45.27000 8.085
45.28000 2.996
45.29000 3.031
45.30000 0.983
45.31000 1.021
45.32000 3.125
45.33000 3.038
45.34000 4.005
45.35000 0.000
45.36000 4.044
45.37000 3.014
45.38000 6.104
45.39000 2.041
45.40000 0.000
45.41000 4.047
45.42000 1.008
45.43000 1.990
45.44000 2.991
45.45000 2.024
45.46000 4.004
45.47000 0.999
45.48000 4.165
45.49000 4.021
45.50000 2.020
45.51000 2.053
45.52000 2.978
45.53000 2.987
45.54000 3.005
45.55000 2.025
45.56000 4.076
45.57000 5.112
45.58000 0.970
45.59000 3.037
45.60000 2.025
45.61000 2.027
45.62000 0.000
45.63000 4.076
45.64000 1.989
45.65000 2.040
45.66000 0.000
45.67000 2.981
45.68000 3.024
45.69000 1.023
45.70000 4.144
45.71000 0.967
45.72000 3.127
45.73000 3.055
45.74000 4.123
45.75000 3.119
45.76000 1.999
45.77000 2.032
45.78000 0.982
45.79000 0.987
45.80000 2.025
45.81000 2.063
45.82000 1.033
45.83000 3.022
45.84000 2.072
45.85000 1.002
45.86000 4.971
45.87000 3.022
45.88000 0.982
45.89000 2.065
45.90000 6.150
45.91000 3.065
45.92000 2.020
45.93000 3.056
45.94000 3.030
45.95000 5.059
45.96000 4.075
45.97000 0.000
45.98000 4.052
45.99000 2.009
46.00000 4.082
46.01000 0.000
46.02000 0.000
46.03000 3.080
46.04000 0.000
46.05000 2.035
46.06000 5.139
46.07000 2.055
46.08000 8.084
46.09000 4.078
46.10000 1.036
46.11000 0.000
46.12000 4.001
46.13000 0.000
46.14000 1.001
46.15000 2.015
46.16000 2.008
46.17000 5.090
46.18000 1.994
46.19000 2.060
46.20000 5.087
46.21000 4.002
46.22000 1.018
46.23000 3.062
46.24000 2.053
46.25000 7.098
46.26000 3.084
46.27000 3.044
46.28000 5.072
46.29000 2.024
46.30000 3.065
46.31000 3.053
46.32000 4.060
46.33000 1.001
46.34000 1.018
46.35000 1.010
46.36000 4.082
46.37000 3.075
46.38000 3.022
46.39000 5.189
46.40000 0.000
46.41000 3.066
46.42000 4.148
46.43000 2.020
46.44000 4.057
46.45000 4.021
46.46000 4.104
46.47000 3.044
46.48000 1.023
46.49000 0.000
46.50000 4.061
46.51000 3.030
46.52000 5.032
46.53000 4.126
46.54000 4.998
46.55000 2.113
46.56000 1.054
46.57000 1.042
46.58000 6.204
46.59000 3.072
46.60000 1.014
46.61000 0.000
46.62000 2.007
46.63000 3.017
46.64000 1.005
46.65000 2.026
46.66000 5.065
46.67000 1.024
46.68000 2.057
46.69000 3.063
46.70000 1.020
46.71000 3.017
46.72000 2.073
46.73000 4.137
46.74000 1.987
46.75000 1.015
46.76000 3.009
46.77000 2.038
46.78000 2.024
46.79000 4.017
46.80000 2.005
46.81000 0.978
46.82000 2.061
46.83000 4.101
46.84000 3.002
46.85000 3.082
46.86000 2.023
46.87000 3.064
46.88000 3.058
46.89000 7.130
46.90000 1.014
46.91000 5.067
46.92000 4.065
46.93000 0.995
46.94000 1.050
46.95000 0.000
46.96000 0.996
46.97000 0.000
46.98000 2.999
46.99000 2.997
47.00000 4.055
47.01000 2.026
47.02000 2.098
47.03000 0.000
47.04000 0.000
47.05000 1.026
47.06000 0.973
47.07000 2.028
47.08000 4.151
47.09000 2.007
47.10000 5.052
47.11000 5.045
47.12000 4.015
47.13000 2.030
47.14000 1.983
47.15000 5.083
47.16000 2.050
47.17000 2.059
47.18000 4.049
47.19000 3.004
47.20000 2.052
47.21000 3.012
47.22000 2.121
47.23000 3.018
47.24000 2.008
47.25000 5.029
47.26000 0.000
47.27000 0.000
47.28000 0.000
47.29000 2.046
47.30000 2.046
47.31000 2.933
47.32000 3.076
47.33000 7.107
47.34000 1.008
47.35000 1.976
47.36000 2.056
47.37000 4.155
47.38000 5.113
47.39000 3.966
47.40000 1.024
47.41000 1.036
47.42000 2.064
47.43000 4.089
47.44000 2.984
47.45000 3.142
47.46000 4.979
47.47000 4.047
47.48000 2.038
47.49000 4.011
47.50000 1.014
47.51000 0.000
47.52000 2.002
47.53000 3.043
47.54000 4.039
47.55000 4.024
47.56000 2.009
47.57000 6.079
47.58000 1.984
47.59000 1.983
47.60000 2.996
47.61000 0.000
47.62000 7.214
47.63000 1.991
47.64000 7.048
47.65000 3.014
47.66000 2.983
47.67000 1.077
47.68000 2.078
47.69000 6.021
47.70000 1.030
47.71000 3.977
47.72000 2.035
47.73000 0.000
47.74000 3.981
47.75000 3.070
47.76000 3.072
47.77000 1.011
47.78000 0.000
47.79000 1.998
47.80000 2.977
47.81000 2.130
47.82000 2.079
47.83000 0.000
47.84000 3.018
47.85000 2.041
47.86000 0.985
47.87000 0.000
47.88000 3.044
47.89000 4.014
47.90000 4.149
47.91000 1.043
47.92000 0.000
47.93000 1.005
47.94000 3.078
47.95000 1.983
47.96000 0.000
47.97000 0.991
47.98000 3.004
47.99000 1.041
48.00000 1.987
48.01000 2.036
48.02000 3.025
48.03000 2.058
48.04000 0.997
48.05000 1.994
48.06000 0.999
48.07000 1.002
48.08000 4.041
48.09000 1.003
48.10000 3.028
48.11000 2.052
48.12000 1.957
48.13000 2.050
48.14000 2.039
48.15000 3.051
48.16000 2.001
48.17000 7.115
48.18000 4.031
48.19000 3.047
48.20000 0.000
48.21000 1.988
48.22000 3.059
48.23000 3.082
48.24000 1.988
48.25000 5.086
48.26000 1.006
48.27000 2.991
48.28000 7.137
48.29000 2.031
48.30000 0.990
48.31000 1.020
48.32000 0.000
48.33000 2.024
48.34000 1.040
48.35000 8.199
48.36000 3.037
48.37000 6.070
48.38000 1.024
48.39000 1.002
48.40000 5.207
48.41000 3.013
48.42000 3.003
48.43000 2.003
48.44000 1.019
48.45000 1.999
48.46000 2.041
48.47000 3.054
48.48000 2.028
48.49000 2.041
48.50000 3.069
48.51000 3.056
48.52000 1.021
48.53000 1.976
48.54000 1.996
48.55000 1.005
48.56000 2.986
48.57000 1.003
48.58000 0.987
48.59000 2.043
48.60000 4.106
48.61000 1.020
48.62000 0.996
48.63000 2.054
48.64000 2.035
48.65000 4.083
48.66000 4.021
48.67000 4.097
48.68000 0.997
48.69000 0.991
48.70000 2.999
48.71000 3.045
48.72000 0.999
48.73000 0.995
48.74000 2.033
48.75000 5.144
48.76000 0.000
48.77000 5.120
48.78000 1.015
48.79000 1.993
48.80000 0.996
48.81000 0.000
48.82000 0.987
48.83000 5.168
48.84000 3.019
48.85000 0.000
48.86000 3.029
48.87000 4.048
48.88000 1.015
48.89000 3.034
48.90000 0.986
48.91000 1.036
48.92000 1.014
48.93000 2.030
48.94000 2.019
48.95000 3.013
48.96000 4.081
48.97000 5.184
48.98000 2.016
48.99000 2.006
49.00000 1.031
49.01000 1.007
49.02000 3.003
49.03000 3.015
49.04000 1.014
49.05000 1.010
49.06000 2.026
49.07000 0.988
49.08000 3.032
49.09000 3.042
49.10000 0.986
49.11000 3.037
49.12000 3.111
49.13000 2.042
49.14000 4.049
49.15000 5.163
49.16000 2.039
49.17000 3.042
49.18000 7.054
49.19000 3.026
49.20000 0.000
49.21000 2.003
49.22000 4.020
49.23000 4.138
49.24000 2.014
49.25000 1.020
49.26000 3.024
49.27000 1.017
49.28000 5.002
49.29000 3.012
49.30000 2.030
49.31000 1.013
49.32000 0.000
49.33000 1.040
49.34000 0.000
49.35000 2.021
49.36000 2.027
49.37000 2.098
49.38000 0.996
49.39000 2.002
49.40000 5.942
49.41000 1.047
49.42000 1.028
49.43000 1.019
49.44000 3.048
49.45000 2.014
49.46000 2.111
49.47000 2.999
49.48000 4.110
49.49000 5.057
49.50000 1.052
49.51000 3.033
49.52000 3.989
49.53000 3.091
49.54000 2.000
49.55000 2.084
49.56000 3.039
49.57000 1.002
49.58000 1.007
49.59000 2.016
49.60000 0.980
49.61000 2.050
49.62000 2.039
49.63000 0.000
49.64000 2.038
49.65000 5.099
49.66000 6.125
49.67000 3.042
49.68000 3.085
49.69000 3.048
49.70000 0.000
49.71000 4.016
49.72000 0.000
49.73000 0.000
49.74000 2.017
49.75000 1.013
49.76000 0.000
49.77000 1.035
49.78000 1.014
49.79000 0.997
49.80000 1.039
49.81000 2.010
49.82000 2.031
49.83000 2.107
49.84000 5.102
49.85000 7.056
49.86000 2.997
49.87000 0.000
49.88000 2.067
49.89000 2.016
49.90000 0.971
49.91000 2.056
49.92000 2.085
49.93000 0.000
49.94000 0.000
49.95000 0.989
49.96000 4.019
49.97000 2.966
49.98000 4.058
49.99000 0.000
50.00000 1.000
50.01000 4.015
50.02000 2.017
50.03000 4.027
50.04000 3.016
50.05000 1.058
50.06000 3.061
50.07000 0.997
50.08000 3.065
50.09000 3.120
50.10000 1.017
50.11000 1.063
50.12000 0.977
50.13000 4.068
50.14000 1.015
50.15000 2.062
50.16000 0.000
50.17000 2.049
50.18000 2.010
50.19000 5.166
50.20000 2.043
50.21000 2.984
50.22000 0.975
50.23000 0.000
50.24000 4.092
50.25000 2.027
50.26000 2.042
50.27000 2.060
50.28000 5.083
50.29000 3.032
50.30000 3.102
50.31000 1.038
50.32000 3.041
50.33000 2.026
50.34000 1.002
50.35000 3.052
50.36000 0.973
50.37000 3.064
50.38000 4.065
50.39000 0.990
50.40000 4.096
50.41000 1.021
50.42000 0.000
50.43000 2.022
50.44000 1.004
50.45000 1.008
50.46000 1.983
50.47000 1.046
50.48000 2.011
50.49000 3.975
50.50000 1.010
50.51000 0.997
50.52000 2.999
50.53000 1.027
50.54000 1.015
50.55000 0.000
50.56000 3.075
50.57000 4.076
50.58000 0.000
50.59000 3.070
50.60000 2.049
50.61000 1.009
50.62000 4.016
50.63000 6.117
50.64000 1.022
50.65000 0.000
50.66000 3.022
50.67000 0.989
50.68000 1.012
50.69000 2.078
50.70000 0.000
50.71000 4.027
50.72000 3.038
50.73000 2.150
50.74000 0.000
50.75000 1.973
50.76000 1.046
50.77000 3.081
50.78000 0.000
50.79000 0.000
50.80000 2.947
50.81000 2.972
50.82000 0.000
50.83000 1.036
50.84000 3.045
50.85000 3.018
50.86000 0.000
50.87000 8.140
50.88000 2.026
50.89000 0.000
50.90000 2.998
50.91000 1.043
50.92000 2.045
50.93000 0.982
50.94000 2.993
50.95000 2.058
50.96000 4.110
50.97000 3.052
50.98000 0.992
50.99000 2.978
51.00000 3.061
51.01000 2.051
51.02000 1.006
51.03000 1.027
51.04000 3.085
51.05000 0.997
51.06000 3.070
51.07000 4.065
51.08000 3.049
51.09000 1.019
51.10000 1.962
51.11000 3.069
51.12000 1.002
51.13000 2.016
51.14000 0.000
51.15000 0.997
51.16000 1.009
51.17000 0.000
51.18000 2.005
51.19000 1.027
51.20000 1.990
51.21000 0.000
51.22000 1.021
51.23000 1.029
51.24000 1.000
51.25000 0.991
51.26000 1.014
51.27000 1.980
51.28000 0.000
51.29000 2.978
51.30000 0.000
51.31000 2.984
51.32000 5.150
51.33000 1.992
51.34000 2.056
51.35000 2.033
51.36000 0.000
51.37000 0.000
51.38000 3.077
51.39000 4.156
51.40000 1.042
51.41000 0.000
51.42000 0.000
51.43000 1.054
51.44000 2.966
51.45000 0.000
51.46000 1.022
51.47000 2.000
51.48000 2.075
51.49000 2.008
51.50000 1.032
51.51000 3.033
51.52000 0.996
51.53000 2.040
51.54000 2.024
51.55000 4.091
51.56000 1.028
51.57000 4.094
51.58000 2.129
51.59000 2.032
51.60000 0.995
51.61000 1.003
51.62000 2.026
51.63000 2.043
51.64000 2.004
51.65000 3.021
51.66000 0.000
51.67000 2.114
51.68000 2.012
51.69000 2.003
51.70000 0.000
51.71000 2.986
51.72000 3.140
51.73000 2.068
51.74000 0.986
51.75000 1.986
51.76000 0.000
51.77000 2.099
51.78000 1.012
51.79000 0.000
51.80000 1.987
51.81000 3.069
51.82000 5.065
51.83000 1.028
51.84000 0.000
51.85000 1.039
51.86000 4.129
51.87000 0.997
51.88000 1.999
51.89000 2.985
51.90000 1.025
51.91000 3.116
51.92000 0.000
51.93000 0.000
51.94000 5.088
51.95000 2.024
51.96000 0.992
51.97000 3.041
51.98000 1.001
51.99000 3.063
52.00000 0.999
52.01000 2.049
52.02000 0.998
52.03000 3.035
52.04000 4.064
52.05000 2.006
52.06000 0.999
52.07000 4.046
52.08000 1.038
52.09000 5.048
52.10000 4.044
52.11000 1.026
52.12000 0.991
52.13000 1.036
52.14000 3.006
52.15000 6.068
52.16000 2.055
52.17000 2.047
52.18000 0.990
52.19000 3.113
52.20000 1.950
52.21000 1.015
52.22000 3.010
52.23000 0.000
52.24000 4.020
52.25000 0.000
52.26000 1.999
52.27000 1.983
52.28000 3.001
52.29000 3.028
52.30000 0.981
52.31000 6.092
52.32000 1.992
52.33000 0.000
52.34000 0.000
52.35000 4.030
52.36000 1.001
52.37000 2.022
52.38000 5.126
52.39000 1.008
52.40000 0.000
52.41000 2.036
52.42000 0.000
52.43000 0.000
52.44000 1.009
52.45000 1.990
52.46000 0.990
52.47000 3.033
52.48000 2.012
52.49000 1.014
52.50000 1.988
52.51000 2.050
52.52000 7.026
52.53000 0.000
52.54000 0.985
52.55000 3.002
52.56000 1.003
52.57000 1.992
52.58000 3.007
52.59000 1.043
52.60000 0.000
52.61000 0.000
52.62000 0.000
52.63000 0.000
52.64000 1.012
52.65000 2.045
52.66000 0.000
52.67000 3.081
52.68000 1.032
52.69000 2.052
52.70000 3.984
52.71000 2.082
52.72000 3.061
52.73000 3.032
52.74000 0.987
52.75000 1.000
52.76000 1.014
52.77000 0.000
52.78000 5.078
52.79000 1.997
52.80000 3.068
52.81000 2.043
52.82000 0.995
52.83000 2.002
52.84000 3.049
52.85000 1.982
52.86000 2.038
52.87000 4.065
52.88000 0.000
52.89000 2.016
52.90000 2.007
52.91000 0.999
52.92000 0.976
52.93000 3.096
52.94000 3.071
52.95000 2.068
52.96000 3.119
52.97000 0.997
52.98000 4.124
52.99000 0.000
53.00000 0.000
53.01000 1.965
53.02000 3.008
53.03000 0.984
53.04000 0.000
53.05000 2.020
53.06000 2.051
53.07000 1.963
53.08000 3.054
53.09000 2.994
53.10000 0.000
53.11000 3.020
53.12000 2.003
53.13000 1.041
53.14000 1.033
53.15000 2.027
53.16000 2.094
53.17000 0.000
53.18000 2.079
53.19000 0.999
53.20000 2.022
53.21000 2.045
53.22000 1.060
53.23000 3.066
53.24000 1.974
53.25000 2.045
53.26000 3.009
53.27000 0.985
53.28000 2.019
53.29000 3.042
53.30000 1.992
53.31000 0.000
53.32000 1.982
53.33000 6.139
53.34000 1.046
53.35000 2.018
53.36000 0.000
53.37000 5.006
53.38000 2.027
53.39000 5.068
53.40000 3.068
53.41000 4.097
53.42000 0.000
53.43000 2.057
53.44000 0.000
53.45000 4.127
53.46000 0.000
53.47000 0.990
53.48000 2.048
53.49000 0.000
53.50000 0.976
53.51000 0.000
53.52000 2.086
53.53000 4.000
53.54000 1.000
53.55000 0.000
53.56000 2.073
53.57000 3.105
53.58000 1.998
53.59000 0.000
53.60000 0.000
53.61000 2.012
53.62000 0.000
53.63000 4.087
53.64000 1.010
53.65000 2.105
53.66000 0.000
53.67000 2.073
53.68000 3.094
53.69000 2.962
53.70000 0.990
53.71000 3.056
53.72000 2.025
53.73000 1.985
53.74000 5.040
53.75000 3.032
53.76000 0.000
53.77000 3.084
53.78000 1.007
53.79000 2.061
53.80000 2.040
53.81000 1.046
53.82000 1.000
53.83000 0.000
53.84000 2.037
53.85000 0.992
53.86000 3.077
53.87000 2.045
53.88000 0.000
53.89000 0.000
53.90000 2.032
53.91000 2.009
53.92000 1.011
53.93000 1.015
53.94000 1.996
53.95000 1.984
53.96000 3.027
53.97000 2.100
53.98000 2.034
53.99000 2.015
54.00000 0.000
54.01000 2.027
54.02000 3.963
54.03000 1.006
54.04000 0.000
54.05000 1.031
54.06000 1.026
54.07000 1.028
54.08000 0.992
54.09000 0.000
54.10000 4.063
54.11000 2.024
54.12000 0.000
54.13000 1.001
54.14000 3.007
54.15000 2.036
54.16000 0.000
54.17000 1.007
54.18000 0.000
54.19000 2.028
54.20000 0.000
54.21000 2.021
54.22000 0.993
54.23000 5.099
54.24000 2.025
54.25000 2.019
54.26000 0.000
54.27000 4.051
54.28000 0.993
54.29000 1.006
54.30000 3.083
54.31000 1.010
54.32000 1.013
54.33000 2.012
54.34000 0.000
54.35000 3.062
54.36000 0.000
54.37000 0.000
54.38000 2.015
54.39000 4.048
54.40000 3.011
54.41000 0.000
54.42000 1.998
54.43000 2.057
54.44000 0.000
54.45000 3.991
54.46000 0.000
54.47000 2.984
54.48000 1.987
54.49000 2.016
54.50000 2.035
54.51000 0.978
54.52000 3.001
54.53000 0.000
54.54000 1.988
54.55000 3.019
54.56000 2.084
54.57000 0.997
54.58000 0.000
54.59000 3.053
54.60000 1.009
54.61000 0.980
54.62000 0.000
54.63000 1.012
54.64000 1.041
54.65000 0.000
54.66000 1.009
54.67000 1.997
54.68000 3.094
54.69000 1.970
54.70000 1.025
54.71000 2.018
54.72000 0.974
54.73000 1.015
54.74000 0.994
54.75000 5.015
54.76000 1.100
54.77000 2.064
54.78000 0.000
54.79000 1.000
54.80000 1.027
54.81000 2.026
54.82000 0.000
54.83000 1.024
54.84000 2.080
54.85000 2.052
54.86000 2.012
54.87000 1.035
54.88000 2.005
54.89000 0.000
54.90000 3.077
54.91000 1.976
54.92000 1.995
54.93000 1.007
54.94000 1.046
54.95000 0.994
54.96000 0.982
54.97000 1.983
54.98000 0.985
54.99000 0.000
55.00000 0.000
55.01000 0.000
55.02000 1.077
55.03000 2.025
55.04000 0.000
55.05000 4.068
55.06000 1.024
55.07000 2.012
55.08000 7.012
55.09000 4.066
55.10000 3.077
55.11000 2.005
55.12000 0.000
55.13000 2.066
55.14000 0.998
55.15000 0.994
55.16000 2.006
55.17000 0.000
55.18000 0.000
55.19000 0.000
55.20000 1.013
55.21000 0.000
55.22000 1.004
55.23000 2.030
55.24000 2.972
55.25000 1.016
55.26000 1.049
55.27000 2.025
55.28000 0.992
55.29000 1.028
55.30000 0.981
55.31000 2.029
55.32000 0.000
55.33000 3.053
55.34000 1.024
55.35000 1.012
55.36000 3.035
55.37000 1.994
55.38000 0.000
55.39000 3.098
55.40000 3.058
55.41000 2.063
55.42000 2.047
55.43000 0.999
55.44000 1.991
55.45000 0.000
55.46000 1.005
55.47000 0.997
55.48000 0.000
55.49000 3.041
55.50000 0.000
55.51000 0.981
55.52000 2.025
55.53000 5.076
55.54000 4.138
55.55000 0.000
55.56000 1.055
55.57000 0.000
55.58000 1.003
55.59000 1.001
55.60000 1.006
55.61000 2.064
55.62000 2.063
55.63000 2.062
55.64000 5.118
55.65000 3.056
55.66000 0.000
55.67000 1.022
55.68000 0.000
55.69000 2.013
55.70000 2.082
55.71000 1.049
55.72000 2.029
55.73000 3.016
55.74000 1.021
55.75000 2.062
55.76000 5.101
55.77000 1.009
55.78000 2.034
55.79000 0.972
55.80000 1.026
55.81000 2.060
55.82000 3.010
55.83000 0.000
55.84000 0.000
55.85000 0.000
55.86000 1.012
55.87000 1.036
55.88000 1.030
55.89000 0.000
55.90000 1.033
55.91000 1.978
55.92000 0.973
55.93000 2.967
55.94000 0.980
55.95000 4.077
55.96000 3.024
55.97000 1.989
55.98000 2.013
55.99000 2.069
56.00000 2.024
56.01000 1.029
56.02000 2.067
56.03000 0.996
56.04000 1.992
56.05000 2.088
56.06000 1.036
56.07000 1.100
56.08000 0.000
56.09000 0.000
56.10000 0.000
56.11000 4.048
56.12000 2.063
56.13000 0.000
56.14000 5.088
56.15000 0.000
56.16000 1.975
56.17000 0.974
56.18000 0.985
56.19000 1.062
56.20000 2.000
56.21000 0.996
56.22000 3.020
56.23000 0.993
56.24000 3.026
56.25000 0.000
56.26000 1.988
56.27000 0.992
56.28000 4.028
56.29000 1.023
56.30000 1.002
56.31000 2.017
56.32000 0.997
56.33000 1.039
56.34000 0.000
56.35000 1.060
56.36000 1.989
56.37000 3.057
56.38000 1.022
56.39000 0.985
56.40000 1.012
56.41000 0.000
56.42000 0.000
56.43000 2.020
56.44000 1.008
56.45000 1.991
56.46000 0.000
56.47000 4.998
56.48000 2.052
56.49000 1.997
56.50000 4.031
56.51000 1.038
56.52000 1.047
56.53000 0.000
56.54000 0.000
56.55000 1.000
56.56000 2.044
56.57000 0.000
56.58000 0.990
56.59000 1.041
56.60000 3.103
56.61000 0.980
56.62000 0.973
56.63000 2.027
56.64000 2.005
56.65000 0.000
56.66000 0.000
56.67000 1.015
56.68000 2.145
56.69000 1.999
56.70000 3.006
56.71000 1.003
56.72000 2.001
56.73000 2.029
56.74000 0.000
56.75000 3.071
56.76000 1.028
56.77000 1.019
56.78000 1.027
56.79000 1.052
56.80000 1.023
56.81000 1.045
56.82000 0.997
56.83000 1.045
56.84000 2.010
56.85000 2.030
56.86000 0.000
56.87000 1.019
56.88000 0.999
56.89000 3.009
56.90000 0.000
56.91000 2.033
56.92000 3.014
56.93000 4.125
56.94000 0.000
56.95000 1.012
56.96000 1.011
56.97000 0.000
56.98000 1.016
56.99000 0.000
57.00000 3.039
57.01000 2.005
57.02000 2.014
57.03000 1.012
57.04000 2.057
57.05000 4.063
57.06000 2.997
57.07000 3.023
57.08000 1.997
57.09000 2.049
57.10000 0.978
57.11000 0.000
57.12000 0.000
57.13000 0.981
57.14000 0.000
57.15000 0.000
57.16000 3.967
57.17000 0.983
57.18000 0.000
57.19000 1.049
57.20000 0.000
57.21000 0.000
57.22000 3.060
57.23000 0.991
57.24000 0.000
57.25000 3.017
57.26000 0.998
57.27000 0.991
57.28000 1.014
57.29000 2.050
57.30000 2.064
57.31000 2.050
57.32000 0.967
57.33000 0.990
57.34000 0.996
57.35000 1.039
57.36000 0.000
57.37000 0.000
57.38000 1.033
57.39000 1.040
57.40000 1.011
57.41000 2.060
57.42000 0.000
57.43000 0.000
57.44000 1.029
57.45000 2.015
57.46000 1.010
57.47000 1.018
57.48000 4.036
57.49000 2.032
57.50000 2.042
57.51000 5.007
57.52000 1.081
57.53000 3.071
57.54000 2.054
57.55000 0.000
57.56000 1.000
57.57000 1.044
57.58000 2.013
57.59000 2.026
57.60000 0.000
57.61000 3.038
57.62000 0.000
57.63000 1.015
57.64000 2.094
57.65000 2.015
57.66000 0.000
57.67000 1.007
57.68000 4.016
57.69000 0.000
57.70000 2.053
57.71000 1.979
57.72000 0.997
57.73000 0.000
57.74000 2.027
57.75000 2.094
57.76000 0.000
57.77000 2.026
57.78000 0.000
57.79000 3.084
57.80000 2.066
57.81000 0.000
57.82000 2.043
57.83000 3.151
57.84000 1.028
57.85000 1.992
57.86000 1.018
57.87000 2.009
57.88000 4.063
57.89000 2.041
57.90000 0.000
57.91000 0.000
57.92000 3.042
57.93000 0.000
57.94000 1.978
57.95000 2.100
57.96000 2.007
57.97000 1.036
57.98000 1.036
57.99000 0.000
58.00000 1.032
58.01000 0.000
58.02000 0.000
58.03000 0.000
58.04000 0.000
58.05000 5.078
58.06000 2.069
58.07000 3.052
58.08000 0.986
58.09000 1.006
58.10000 2.008
58.11000 0.000
58.12000 3.026
58.13000 1.025
58.14000 1.018
58.15000 1.986
58.16000 2.006
58.17000 1.017
58.18000 0.980
58.19000 2.001
58.20000 1.023
58.21000 0.000
58.22000 3.005
58.23000 0.985
58.24000 2.980
58.25000 2.039
58.26000 0.997
58.27000 1.020
58.28000 0.000
58.29000 0.000
58.30000 1.048
58.31000 2.989
58.32000 1.007
58.33000 2.011
58.34000 2.029
58.35000 1.980
58.36000 1.087
58.37000 2.004
58.38000 0.975
58.39000 0.000
58.40000 1.041
58.41000 0.000
58.42000 1.036
58.43000 0.997
58.44000 2.032
58.45000 1.987
58.46000 1.027
58.47000 0.000
58.48000 2.009
58.49000 1.018
58.50000 1.002
58.51000 2.047
58.52000 3.092
58.53000 1.046
58.54000 1.025
58.55000 4.065
58.56000 1.002
58.57000 3.057
58.58000 0.984
58.59000 2.052
58.60000 0.000
58.61000 1.023
58.62000 0.986
58.63000 0.000
58.64000 0.983
58.65000 0.000
58.66000 0.986
58.67000 2.008
58.68000 2.009
58.69000 1.049
58.70000 0.000
58.71000 2.058
58.72000 1.992
58.73000 1.023
58.74000 2.985
58.75000 0.000
58.76000 5.112
58.77000 3.021
58.78000 1.065
58.79000 1.009
58.80000 0.000
58.81000 0.000
58.82000 1.985
58.83000 1.983
58.84000 2.103
58.85000 0.000
58.86000 1.025
58.87000 4.102
58.88000 1.991
58.89000 3.079
58.90000 0.993
58.91000 0.980
58.92000 0.000
58.93000 2.082
58.94000 0.996
58.95000 0.000
58.96000 2.073
58.97000 0.000
58.98000 5.140
58.99000 1.012
59.00000 1.014
59.01000 2.067
59.02000 3.998
59.03000 0.000
59.04000 3.074
59.05000 0.996
59.06000 1.028
59.07000 3.081
59.08000 1.021
59.09000 0.000
59.10000 3.098
59.11000 0.997
59.12000 1.028
59.13000 1.003
59.14000 2.026
59.15000 2.011
59.16000 2.070
59.17000 0.993
59.18000 1.003
59.19000 3.043
59.20000 2.038
59.21000 0.000
59.22000 4.010
59.23000 0.991
59.24000 0.979
59.25000 2.039
59.26000 0.982
59.27000 2.003
59.28000 0.000
59.29000 2.027
59.30000 0.000
59.31000 3.032
59.32000 2.015
59.33000 0.000
59.34000 2.004
59.35000 1.003
59.36000 0.989
59.37000 2.049
59.38000 3.063
59.39000 3.996
59.40000 0.000
59.41000 0.000
59.42000 4.067
59.43000 1.007
59.44000 1.027
59.45000 1.009
59.46000 2.004
59.47000 0.992
59.48000 2.023
59.49000 1.041
59.50000 1.023
59.51000 0.000
59.52000 3.007
59.53000 0.000
59.54000 4.137
59.55000 3.994
59.56000 2.040
59.57000 3.963
59.58000 0.000
59.59000 4.042
59.60000 1.006
59.61000 1.006
59.62000 0.000
59.63000 3.064
59.64000 3.998
59.65000 0.000
59.66000 2.030
59.67000 0.000
59.68000 1.953
59.69000 0.984
59.70000 0.000
59.71000 0.000
59.72000 0.000
59.73000 0.983
59.74000 3.041
59.75000 4.035
59.76000 1.981
59.77000 5.029
59.78000 3.101
59.79000 0.987
59.80000 0.000
59.81000 5.088
59.82000 3.019
59.83000 2.071
59.84000 2.086
59.85000 0.982
59.86000 1.991
59.87000 2.049
59.88000 0.000
59.89000 3.023
59.90000 1.011
59.91000 0.000
59.92000 2.017
59.93000 2.020
59.94000 0.990
59.95000 2.159
59.96000 2.044
59.97000 3.030
59.98000 3.075
59.99000 0.980
60.00000 0.000
60.01000 2.012
60.02000 1.978
60.03000 1.989
60.04000 0.000
60.05000 0.998
60.06000 0.000
60.07000 1.013
60.08000 2.003
60.09000 0.000
60.10000 4.074
60.11000 0.000
60.12000 0.982
60.13000 2.025
60.14000 2.043
60.15000 1.007
60.16000 1.011
60.17000 1.038
60.18000 0.000
60.19000 0.996
60.20000 0.998
60.21000 1.008
60.22000 3.074
60.23000 2.046
60.24000 3.086
60.25000 3.066
60.26000 2.079
60.27000 0.000
60.28000 2.015
60.29000 1.003
60.30000 0.990
60.31000 1.990
60.32000 0.000
60.33000 4.135
60.34000 4.074
60.35000 2.023
60.36000 2.010
60.37000 1.047
60.38000 0.000
60.39000 1.008
60.40000 2.005
60.41000 2.041
60.42000 0.985
60.43000 0.000
60.44000 0.000
60.45000 0.976
60.46000 1.054
60.47000 0.992
60.48000 1.979
60.49000 0.000
60.50000 2.036
60.51000 1.026
60.52000 0.000
60.53000 1.041
60.54000 4.059
60.55000 0.000
60.56000 1.007
60.57000 0.000
60.58000 1.037
60.59000 1.977
60.60000 2.086
60.61000 1.007
60.62000 0.000
60.63000 2.092
60.64000 2.026
60.65000 0.975
60.66000 0.998
60.67000 0.999
60.68000 1.001
60.69000 0.000
60.70000 0.000
60.71000 0.991
60.72000 3.018
60.73000 0.000
60.74000 0.987
60.75000 0.000
60.76000 2.039
60.77000 1.038
60.78000 0.984
60.79000 1.023
60.80000 0.000
60.81000 1.070
60.82000 2.028
60.83000 1.005
60.84000 0.000
60.85000 2.046
60.86000 1.006
60.87000 0.000
60.88000 3.087
60.89000 2.046
60.90000 1.999
60.91000 0.000
60.92000 1.978
60.93000 2.006
60.94000 2.038
60.95000 1.997
60.96000 0.998
60.97000 4.010
60.98000 1.028
60.99000 0.995
61.00000 3.062
61.01000 1.004
61.02000 2.970
61.03000 5.079
61.04000 3.087
61.05000 2.055
61.06000 4.121
61.07000 1.018
61.08000 1.990
61.09000 0.000
61.10000 1.988
61.11000 1.024
61.12000 2.003
61.13000 2.040
61.14000 0.000
61.15000 0.000
61.16000 2.012
61.17000 0.000
61.18000 2.016
61.19000 4.046
61.20000 1.006
61.21000 3.034
61.22000 2.009
61.23000 3.079
61.24000 3.023
61.25000 0.000
61.26000 0.983
61.27000 1.013
61.28000 0.000
61.29000 2.991
61.30000 0.980
61.31000 1.016
61.32000 2.086
61.33000 0.000
61.34000 0.000
61.35000 0.000
61.36000 1.005
61.37000 1.050
61.38000 1.048
61.39000 1.041
61.40000 0.000
61.41000 1.042
61.42000 3.033
61.43000 1.991
61.44000 3.011
61.45000 0.000
61.46000 3.049
61.47000 2.021
61.48000 0.000
61.49000 2.046
61.50000 0.995
61.51000 2.030
61.52000 0.986
61.53000 5.133
61.54000 0.990
61.55000 0.000
61.56000 1.003
61.57000 1.029
61.58000 0.000
61.59000 0.990
61.60000 0.000
61.61000 0.992
61.62000 0.997
61.63000 0.000
61.64000 1.026
61.65000 0.993
61.66000 1.074
61.67000 2.011
61.68000 0.991
61.69000 0.000
61.70000 0.977
61.71000 2.038
61.72000 0.000
61.73000 1.023
61.74000 0.000
61.75000 2.020
61.76000 3.055
61.77000 1.045
61.78000 0.000
61.79000 2.030
61.80000 1.045
61.81000 0.993
61.82000 1.006
61.83000 2.031
61.84000 2.002
61.85000 3.112
61.86000 3.011
61.87000 1.036
61.88000 1.028
61.89000 2.068
61.90000 1.036
61.91000 0.000
61.92000 1.994
61.93000 3.997
61.94000 2.048
61.95000 0.000
61.96000 0.998
61.97000 0.997
61.98000 3.971
61.99000 2.008
62.00000 3.985
62.01000 1.987
62.02000 0.000
62.03000 0.000
62.04000 0.986
62.05000 2.015
62.06000 3.094
62.07000 3.030
62.08000 2.105
62.09000 1.017
62.10000 0.000
62.11000 1.023
62.12000 1.067
62.13000 1.016
62.14000 2.038
62.15000 0.000
62.16000 1.060
62.17000 2.028
62.18000 0.000
62.19000 1.067
62.20000 1.013
62.21000 1.996
62.22000 0.982
62.23000 4.114
62.24000 0.000
62.25000 0.000
62.26000 3.143
62.27000 0.000
62.28000 4.024
62.29000 1.998
62.30000 1.007
62.31000 1.986
62.32000 3.100
62.33000 1.017
62.34000 2.024
62.35000 2.011
62.36000 2.081
62.37000 2.019
62.38000 2.016
62.39000 3.056
62.40000 3.095
62.41000 0.985
62.42000 0.000
62.43000 0.000
62.44000 2.007
62.45000 2.009
62.46000 2.002
62.47000 0.000
62.48000 2.060
62.49000 1.050
62.50000 0.989
62.51000 2.034
62.52000 1.008
62.53000 3.071
62.54000 1.069
62.55000 1.967
62.56000 0.000
62.57000 0.000
62.58000 2.102
62.59000 0.998
62.60000 1.019
62.61000 2.038
62.62000 0.989
62.63000 0.995
62.64000 3.023
62.65000 3.026
62.66000 0.000
62.67000 0.000
62.68000 1.018
62.69000 2.028
62.70000 1.003
62.71000 0.973
62.72000 1.040
62.73000 1.016
62.74000 2.157
62.75000 0.000
62.76000 0.000
62.77000 0.995
62.78000 1.000
62.79000 4.067
62.80000 1.972
62.81000 1.993
62.82000 0.985
62.83000 1.082
62.84000 0.996
62.85000 0.000
62.86000 3.044
62.87000 4.017
62.88000 2.005
62.89000 2.056
62.90000 1.019
62.91000 2.056
62.92000 0.000
62.93000 2.033
62.94000 0.000
62.95000 0.000
62.96000 1.009
62.97000 0.000
62.98000 2.039
62.99000 0.000
63.00000 2.036
63.01000 2.061
63.02000 0.986
63.03000 0.978
63.04000 1.032
63.05000 2.098
63.06000 0.000
63.07000 1.014
63.08000 0.996
63.09000 0.000
63.10000 1.975
63.11000 0.000
63.12000 0.000
63.13000 0.990
63.14000 1.016
63.15000 2.012
63.16000 2.004
63.17000 0.993
63.18000 2.005
63.19000 2.100
63.20000 0.000
63.21000 1.015
63.22000 0.994
63.23000 4.039
63.24000 3.056
63.25000 1.049
63.26000 3.050
63.27000 0.987
63.28000 3.073
63.29000 0.000
63.30000 1.022
63.31000 0.987
63.32000 1.031
63.33000 0.000
63.34000 1.999
63.35000 2.992
63.36000 0.989
63.37000 0.982
63.38000 0.000
63.39000 2.022
63.40000 0.981
63.41000 1.034
63.42000 4.111
63.43000 2.076
63.44000 2.056
63.45000 0.000
63.46000 0.992
63.47000 2.036
63.48000 1.009
63.49000 1.002
63.50000 2.020
63.51000 0.000
63.52000 3.992
63.53000 1.038
63.54000 0.000
63.55000 1.018
63.56000 1.992
63.57000 1.992
63.58000 1.025
63.59000 3.011
63.60000 3.032
63.61000 1.013
63.62000 0.000
63.63000 2.019
63.64000 3.009
63.65000 1.995
63.66000 0.997
63.67000 1.006
63.68000 0.980
63.69000 3.004
63.70000 4.167
63.71000 0.000
63.72000 1.019
63.73000 1.983
63.74000 1.030
63.75000 0.992
63.76000 0.000
63.77000 0.988
63.78000 0.000
63.79000 3.030
63.80000 2.057
63.81000 0.000
63.82000 0.000
63.83000 4.038
63.84000 1.027
63.85000 3.968
63.86000 0.995
63.87000 0.986
63.88000 1.030
63.89000 0.000
63.90000 1.039
63.91000 1.049
63.92000 0.000
63.93000 3.081
63.94000 0.000
63.95000 0.986
63.96000 0.000
63.97000 2.052
63.98000 1.035
63.99000 1.046
64.00000 0.000
64.01000 3.029
64.02000 0.965
64.03000 3.013
64.04000 0.981
64.05000 1.043
64.06000 0.000
64.07000 0.975
64.08000 1.982
64.09000 0.989
64.10000 0.000
64.11000 0.000
64.12000 1.047
64.13000 1.020
64.14000 2.949
64.15000 4.167
64.16000 2.024
64.17000 2.045
64.18000 1.985
64.19000 3.069
64.20000 0.000
64.21000 0.979
64.22000 2.012
64.23000 0.000
64.24000 0.000
64.25000 2.051
64.26000 2.009
64.27000 0.981
64.28000 3.027
64.29000 1.010
64.30000 1.037
64.31000 1.012
64.32000 2.037
64.33000 2.022
64.34000 3.077
64.35000 0.000
64.36000 0.000
64.37000 1.013
64.38000 0.000
64.39000 1.044
64.40000 0.000
64.41000 0.000
64.42000 1.013
64.43000 2.049
64.44000 1.033
64.45000 0.983
64.46000 2.068
64.47000 0.000
64.48000 2.036
64.49000 0.987
64.50000 3.975
64.51000 1.022
64.52000 0.000
64.53000 1.042
64.54000 0.000
64.55000 0.000
64.56000 0.000
64.57000 1.027
64.58000 0.000
64.59000 0.981
64.60000 3.065
64.61000 0.000
64.62000 2.017
64.63000 1.986
64.64000 1.998
64.65000 0.982
64.66000 3.070
64.67000 1.027
64.68000 1.019
64.69000 0.995
64.70000 0.990
64.71000 1.995
64.72000 0.000
64.73000 2.025
64.74000 0.000
64.75000 0.000
64.76000 1.015
64.77000 1.980
64.78000 0.000
64.79000 3.037
64.80000 2.044
64.81000 2.013
64.82000 0.000
64.83000 1.023
64.84000 3.055
64.85000 0.000
64.86000 0.999
64.87000 2.078
64.88000 0.000
64.89000 0.000
64.90000 1.979
64.91000 1.018
64.92000 0.000
64.93000 1.048
64.94000 0.000
64.95000 1.007
64.96000 0.987
64.97000 2.981
64.98000 1.992
64.99000 0.993
65.00000 0.000
