20.00000 568.564
20.01000 574.076
20.02000 580.377
20.03000 584.694
20.04000 581.083
20.05000 576.647
20.06000 573.347
20.07000 564.018
20.08000 556.490
20.09000 552.990
20.10000 557.157
20.11000 561.508
20.12000 563.150
20.13000 561.268
20.14000 559.373
20.15000 559.771
20.16000 562.132
20.17000 564.455
20.18000 564.567
20.19000 563.394
20.20000 562.237
20.21000 561.411
20.22000 560.719
20.23000 560.072
20.24000 562.535
20.25000 565.554
20.26000 567.622
20.27000 563.253
20.28000 557.679
20.29000 553.351
20.30000 554.569
20.31000 556.449
20.32000 557.887
20.33000 566.784
20.34000 574.207
20.35000 578.009
20.36000 574.184
20.37000 570.115
20.38000 568.008
20.39000 568.745
20.40000 569.505
20.41000 574.593
20.42000 583.848
20.43000 592.989
20.44000 592.096
20.45000 584.727
20.46000 577.345
20.47000 569.625
20.48000 561.754
20.49000 554.319
20.50000 555.739
20.51000 559.545
20.52000 563.620
20.53000 569.756
20.54000 576.324
20.55000 581.364
20.56000 578.812
20.57000 575.225
20.58000 572.412
20.59000 574.970
20.60000 577.365
20.61000 577.122
20.62000 570.735
20.63000 564.098
20.64000 560.391
20.65000 561.400
20.66000 562.472
20.67000 563.029
20.68000 560.405
20.69000 558.639
20.70000 558.008
20.71000 558.193
20.72000 558.376
20.73000 558.535
20.74000 558.682
20.75000 558.822
20.76000 555.817
20.77000 552.032
20.78000 548.213
20.79000 544.092
20.80000 539.900
20.81000 536.641
20.82000 538.573
20.83000 541.306
20.84000 543.503
20.85000 547.586
20.86000 551.040
20.87000 553.383
20.88000 552.864
20.89000 552.200
20.90000 552.496
20.91000 554.503
20.92000 556.543
20.93000 557.662
20.94000 547.118
20.95000 539.878
20.96000 543.366
20.97000 555.430
20.98000 567.342
20.99000 572.181
21.00000 573.166
21.01000 574.115
21.02000 570.460
21.03000 565.400
21.04000 560.937
21.05000 562.506
21.06000 565.643
21.07000 566.516
21.08000 553.218
21.09000 537.456
21.10000 524.505
21.11000 535.332
21.12000 546.365
21.13000 553.878
21.14000 551.369
21.15000 548.244
21.16000 548.473
21.17000 555.322
21.18000 562.349
21.19000 566.398
21.20000 553.903
21.21000 545.096
21.22000 540.228
21.23000 538.881
21.24000 537.562
21.25000 538.139
21.26000 539.861
21.27000 541.531
21.28000 546.787
21.29000 553.187
21.30000 559.166
21.31000 560.188
21.32000 559.779
21.33000 559.677
21.34000 561.741
21.35000 564.226
21.36000 566.312
21.37000 559.193
21.38000 552.307
21.39000 547.953
21.40000 551.578
21.41000 555.787
21.42000 558.306
21.43000 557.134
21.44000 555.833
21.45000 555.048
21.46000 545.117
21.47000 537.984
21.48000 539.380
21.49000 549.342
21.50000 559.224
21.51000 560.718
21.52000 556.593
21.53000 552.562
21.54000 548.917
21.55000 545.597
21.56000 542.468
21.57000 541.983
21.58000 542.343
21.59000 543.072
21.60000 546.776
21.61000 551.127
21.62000 554.848
21.63000 561.146
21.64000 566.767
21.65000 569.750
21.66000 563.522
21.67000 556.502
21.68000 552.388
21.69000 555.289
21.70000 558.500
21.71000 560.520
21.72000 563.741
21.73000 566.084
21.74000 566.493
21.75000 564.720
21.76000 562.934
21.77000 559.065
21.78000 553.642
21.79000 548.313
21.80000 552.777
21.81000 561.925
21.82000 570.694
21.83000 573.229
21.84000 573.561
21.85000 575.129
21.86000 588.105
21.87000 603.850
21.88000 617.560
21.89000 626.074
21.90000 632.631
21.91000 636.376
21.92000 629.211
21.93000 620.956
21.94000 618.040
21.95000 629.379
21.96000 641.492
21.97000 649.414
21.98000 657.519
21.99000 663.475
22.00000 666.891
22.01000 667.106
22.02000 667.324
22.03000 674.295
22.04000 686.884
22.05000 699.321
22.06000 703.804
22.07000 703.793
22.08000 703.769
22.09000 703.503
22.10000 703.142
22.11000 703.057
22.12000 705.921
22.13000 709.580
22.14000 712.820
22.15000 706.718
22.16000 699.977
22.17000 694.341
22.18000 693.477
22.19000 693.161
22.20000 692.929
22.21000 692.943
22.22000 692.974
22.23000 692.995
22.24000 687.446
22.25000 683.184
22.26000 679.545
22.27000 676.781
22.28000 674.020
22.29000 665.692
22.30000 652.178
22.31000 638.770
22.32000 640.605
22.33000 651.790
22.34000 662.216
22.35000 653.746
22.36000 637.104
22.37000 621.032
22.38000 612.052
22.39000 605.194
22.40000 599.028
22.41000 595.954
22.42000 593.811
22.43000 591.908
22.44000 591.159
22.45000 590.560
22.46000 588.679
22.47000 582.605
22.48000 576.205
22.49000 571.716
22.50000 555.840
22.51000 543.495
22.52000 542.014
22.53000 557.490
22.54000 573.165
22.55000 578.230
22.56000 572.183
22.57000 566.162
22.58000 555.347
22.59000 541.351
22.60000 527.722
22.61000 525.757
22.62000 529.372
22.63000 532.746
22.64000 532.592
22.65000 531.270
22.66000 530.064
22.67000 529.785
22.68000 529.723
22.69000 530.229
22.70000 533.791
22.71000 537.808
22.72000 540.302
22.73000 537.273
22.74000 533.742
22.75000 531.187
22.76000 526.932
22.77000 523.603
22.78000 525.300
22.79000 535.697
22.80000 546.248
22.81000 550.398
22.82000 547.036
22.83000 543.669
22.84000 540.859
22.85000 538.494
22.86000 536.162
22.87000 535.234
22.88000 535.050
22.89000 534.515
22.90000 527.815
22.91000 518.853
22.92000 510.574
22.93000 511.382
22.94000 514.164
22.95000 516.530
22.96000 516.378
22.97000 515.804
22.98000 515.560
22.99000 516.650
23.00000 517.880
23.01000 518.797
23.02000 525.413
23.03000 530.823
23.04000 534.305
23.05000 534.090
23.06000 533.783
23.07000 530.482
23.08000 523.255
23.09000 516.015
23.10000 514.223
23.11000 517.142
23.12000 520.099
23.13000 525.392
23.14000 532.054
23.15000 538.295
23.16000 535.449
23.17000 528.920
23.18000 522.815
23.19000 519.274
23.20000 516.711
23.21000 514.776
23.22000 517.123
23.23000 520.280
23.24000 521.718
23.25000 515.449
23.26000 508.250
23.27000 502.735
23.28000 503.495
23.29000 504.440
23.30000 507.321
23.31000 514.305
23.32000 521.423
23.33000 522.774
23.34000 515.712
23.35000 508.578
23.36000 507.262
23.37000 511.593
23.38000 515.890
23.39000 517.128
23.40000 516.376
23.41000 515.510
23.42000 511.550
23.43000 506.201
23.44000 501.146
23.45000 500.214
23.46000 500.534
23.47000 500.744
23.48000 500.096
23.49000 499.268
23.50000 500.314
23.51000 510.753
23.52000 522.484
23.53000 531.703
23.54000 523.332
23.55000 515.473
23.56000 510.350
23.57000 511.644
23.58000 513.205
23.59000 515.014
23.60000 517.227
23.61000 519.445
23.62000 520.603
23.63000 521.649
23.64000 522.357
23.65000 523.104
23.66000 523.879
23.67000 524.534
23.68000 520.986
23.69000 515.354
23.70000 509.977
23.71000 508.593
23.72000 508.582
23.73000 509.927
23.74000 523.286
23.75000 539.474
23.76000 553.386
23.77000 554.530
23.78000 553.687
23.79000 553.008
23.80000 540.540
23.81000 529.508
23.82000 522.357
23.83000 525.273
23.84000 528.707
23.85000 531.755
23.86000 534.112
23.87000 536.454
23.88000 537.744
23.89000 534.996
23.90000 533.108
23.91000 535.006
23.92000 539.957
23.93000 544.804
23.94000 544.747
23.95000 541.999
23.96000 539.353
23.97000 534.000
23.98000 528.009
23.99000 522.892
24.00000 526.715
24.01000 532.877
24.02000 538.574
24.03000 541.331
24.04000 543.572
24.05000 545.417
24.06000 542.772
24.07000 540.189
24.08000 538.781
24.09000 540.745
24.10000 542.918
24.11000 541.817
24.12000 534.206
24.13000 526.416
24.14000 521.913
24.15000 523.067
24.16000 523.900
24.17000 526.740
24.18000 531.390
24.19000 535.897
24.20000 530.557
24.21000 519.229
24.22000 508.233
24.23000 507.363
24.24000 510.575
24.25000 513.611
24.26000 514.544
24.27000 514.866
24.28000 514.865
24.29000 512.557
24.30000 509.795
24.31000 507.475
24.32000 500.826
24.33000 494.831
24.34000 492.048
24.35000 499.464
24.36000 507.636
24.37000 510.378
24.38000 501.177
24.39000 491.551
24.40000 485.728
24.41000 482.376
24.42000 480.005
24.43000 482.027
24.44000 488.497
24.45000 494.908
24.46000 494.812
24.47000 490.323
24.48000 485.935
24.49000 484.082
24.50000 483.434
24.51000 482.777
24.52000 481.986
24.53000 481.152
24.54000 481.031
24.55000 486.712
24.56000 493.667
24.57000 499.623
24.58000 506.478
24.59000 512.371
24.60000 515.707
24.61000 510.036
24.62000 503.583
24.63000 496.921
24.64000 489.755
24.65000 482.566
24.66000 478.032
24.67000 484.541
24.68000 489.382
24.69000 490.878
24.70000 488.570
24.71000 486.270
24.72000 486.215
24.73000 487.847
24.74000 489.451
24.75000 487.479
24.76000 483.795
24.77000 480.426
24.78000 482.338
24.79000 486.131
24.80000 489.576
24.81000 489.781
24.82000 489.194
24.83000 488.682
24.84000 487.852
24.85000 487.098
24.86000 486.509
24.87000 486.566
24.88000 486.688
24.89000 488.206
24.90000 493.477
24.91000 498.954
24.92000 502.546
24.93000 497.079
24.94000 492.908
24.95000 490.137
24.96000 489.144
24.97000 488.156
24.98000 486.408
24.99000 484.023
25.00000 481.666
25.01000 485.587
25.02000 492.897
25.03000 499.853
25.04000 499.591
25.05000 496.485
25.06000 493.095
25.07000 486.642
25.08000 479.357
25.09000 472.900
25.10000 470.082
25.11000 468.218
25.12000 466.647
25.13000 466.349
25.14000 466.199
25.15000 467.980
25.16000 475.505
25.17000 483.412
25.18000 488.788
25.19000 481.920
25.20000 476.516
25.21000 475.417
25.22000 480.410
25.23000 485.445
25.24000 484.419
25.25000 477.698
25.26000 471.028
25.27000 467.259
25.28000 465.353
25.29000 463.542
25.30000 464.114
25.31000 465.725
25.32000 467.102
25.33000 465.530
25.34000 463.070
25.35000 460.855
25.36000 468.102
25.37000 476.151
25.38000 481.689
25.39000 475.048
25.40000 466.792
25.41000 461.626
25.42000 466.638
25.43000 472.450
25.44000 476.537
25.45000 475.129
25.46000 473.900
25.47000 469.444
25.48000 459.912
25.49000 450.319
25.50000 447.431
25.51000 451.624
25.52000 455.800
25.53000 461.387
25.54000 467.895
25.55000 474.040
25.56000 468.404
25.57000 457.093
25.58000 447.103
25.59000 456.765
25.60000 472.987
25.61000 487.795
25.62000 488.210
25.63000 485.664
25.64000 483.060
25.65000 480.148
25.66000 477.190
25.67000 474.444
25.68000 472.474
25.69000 470.576
25.70000 469.198
25.71000 481.805
25.72000 492.014
25.73000 495.199
25.74000 486.131
25.75000 476.841
25.76000 469.431
25.77000 464.244
25.78000 459.072
25.79000 455.447
25.80000 453.044
25.81000 450.608
25.82000 446.734
25.83000 442.094
25.84000 438.192
25.85000 447.506
25.86000 461.700
25.87000 474.826
25.88000 471.519
25.89000 464.800
25.90000 459.468
25.91000 462.599
25.92000 467.164
25.93000 471.278
25.94000 473.557
25.95000 475.642
25.96000 477.200
25.97000 464.995
25.98000 454.848
25.99000 450.179
26.00000 456.087
26.01000 462.263
26.02000 463.879
26.03000 459.473
26.04000 455.041
26.05000 452.966
26.06000 452.949
26.07000 452.928
26.08000 452.721
26.09000 452.405
26.10000 452.412
26.11000 459.514
26.12000 469.514
26.13000 478.871
26.14000 464.910
26.15000 446.247
26.16000 431.185
26.17000 440.949
26.18000 455.436
26.19000 466.188
26.20000 460.057
26.21000 451.869
26.22000 445.584
26.23000 451.228
26.24000 456.355
26.25000 461.379
26.26000 466.182
26.27000 470.978
26.28000 472.709
26.29000 469.935
26.30000 467.122
26.31000 466.002
26.32000 466.540
26.33000 467.061
26.34000 465.971
26.35000 463.828
26.36000 461.606
26.37000 457.229
26.38000 451.880
26.39000 446.820
26.40000 445.253
26.41000 444.815
26.42000 443.837
26.43000 438.625
26.44000 432.512
26.45000 428.902
26.46000 437.931
26.47000 448.713
26.48000 457.203
26.49000 465.458
26.50000 472.058
26.51000 473.081
26.52000 460.931
26.53000 448.225
26.54000 441.882
26.55000 445.926
26.56000 450.117
26.57000 452.313
26.58000 452.767
26.59000 453.064
26.60000 451.606
26.61000 448.869
26.62000 446.170
26.63000 444.794
26.64000 444.079
26.65000 443.395
26.66000 438.624
26.67000 432.872
26.68000 428.835
26.69000 440.141
26.70000 455.087
26.71000 467.672
26.72000 466.905
26.73000 464.040
26.74000 461.731
26.75000 455.367
26.76000 449.880
26.77000 445.453
26.78000 443.797
26.79000 442.285
26.80000 442.964
26.81000 447.607
26.82000 452.332
26.83000 454.943
26.84000 455.904
26.85000 456.544
26.86000 449.419
26.87000 435.988
26.88000 422.773
26.89000 420.041
26.90000 423.106
26.91000 426.059
26.92000 430.924
26.93000 436.184
26.94000 440.893
26.95000 439.924
26.96000 437.458
26.97000 435.669
26.98000 438.197
26.99000 441.487
27.00000 444.198
27.01000 444.201
27.02000 443.954
27.03000 443.612
27.04000 442.995
27.05000 442.361
27.06000 441.841
27.07000 441.552
27.08000 441.270
27.09000 441.106
27.10000 436.486
27.11000 433.228
27.12000 433.031
27.13000 435.617
27.14000 438.224
27.15000 442.321
27.16000 447.330
27.17000 452.195
27.18000 451.218
27.19000 447.941
27.20000 444.918
27.21000 444.932
27.22000 445.834
27.23000 446.483
27.24000 445.298
27.25000 443.749
27.26000 442.446
27.27000 439.751
27.28000 437.356
27.29000 436.035
27.30000 438.147
27.31000 440.516
27.32000 440.352
27.33000 434.573
27.34000 428.591
27.35000 424.962
27.36000 431.583
27.37000 436.385
27.38000 441.175
27.39000 445.951
27.40000 450.695
27.41000 451.689
27.42000 450.134
27.43000 448.613
27.44000 444.023
27.45000 438.245
27.46000 432.883
27.47000 433.416
27.48000 435.861
27.49000 438.164
27.50000 439.301
27.51000 440.180
27.52000 440.934
27.53000 444.328
27.54000 447.520
27.55000 449.134
27.56000 445.160
27.57000 440.694
27.58000 437.089
27.59000 435.594
27.60000 434.195
27.61000 433.310
27.62000 425.954
27.63000 420.545
27.64000 419.740
27.65000 424.213
27.66000 428.704
27.67000 436.031
27.68000 445.506
27.69000 454.825
27.70000 454.768
27.71000 450.013
27.72000 445.288
27.73000 441.059
27.74000 437.008
27.75000 433.456
27.76000 434.605
27.77000 436.913
27.78000 438.927
27.79000 436.070
27.80000 432.943
27.81000 430.294
27.82000 429.533
27.83000 428.965
27.84000 429.531
27.85000 433.170
27.86000 436.981
27.87000 439.487
27.88000 438.803
27.89000 438.245
27.90000 433.578
27.91000 423.650
27.92000 413.724
27.93000 416.291
27.94000 429.417
27.95000 442.393
27.96000 443.595
27.97000 438.178
27.98000 433.096
27.99000 434.948
28.00000 439.550
28.01000 444.139
28.02000 448.583
28.03000 452.987
28.04000 456.896
28.05000 450.568
28.06000 443.451
28.07000 437.044
28.08000 433.746
28.09000 430.813
28.10000 429.560
28.11000 433.339
28.12000 437.456
28.13000 440.262
28.14000 439.502
28.15000 438.852
28.16000 436.632
28.17000 432.174
28.18000 427.701
28.19000 430.808
28.20000 441.094
28.21000 451.304
28.22000 445.412
28.23000 429.547
28.24000 414.303
28.25000 415.010
28.26000 422.718
28.27000 430.099
28.28000 433.330
28.29000 435.302
28.30000 437.078
28.31000 435.113
28.32000 432.714
28.33000 431.112
28.34000 433.412
28.35000 436.234
28.36000 437.369
28.37000 432.902
28.38000 427.990
28.39000 424.528
28.40000 427.773
28.41000 430.435
28.42000 428.990
28.43000 421.036
28.44000 413.001
28.45000 410.432
28.46000 413.684
28.47000 416.924
28.48000 415.210
28.49000 410.050
28.50000 405.159
28.51000 409.183
28.52000 417.531
28.53000 425.492
28.54000 427.609
28.55000 427.762
28.56000 427.901
28.57000 425.376
28.58000 422.590
28.59000 421.091
28.60000 426.644
28.61000 433.266
28.62000 437.856
28.63000 434.968
28.64000 431.385
28.65000 428.780
28.66000 422.740
28.67000 417.964
28.68000 415.314
28.69000 416.403
28.70000 417.562
28.71000 416.862
28.72000 413.948
28.73000 411.034
28.74000 412.000
28.75000 415.999
28.76000 419.911
28.77000 419.951
28.78000 417.911
28.79000 415.758
28.80000 411.553
28.81000 406.584
28.82000 401.985
28.83000 407.074
28.84000 413.878
28.85000 419.766
28.86000 420.023
28.87000 419.317
28.88000 419.370
28.89000 422.525
28.90000 426.012
28.91000 428.622
28.92000 422.376
28.93000 417.088
28.94000 415.608
28.95000 421.534
28.96000 427.651
28.97000 429.629
28.98000 426.097
28.99000 422.541
29.00000 422.480
29.01000 425.490
29.02000 428.439
29.03000 427.555
29.04000 424.392
29.05000 421.095
29.06000 414.806
29.07000 407.288
29.08000 400.246
29.09000 402.750
29.10000 407.494
29.11000 411.311
29.12000 408.683
29.13000 404.819
29.14000 404.027
29.15000 417.236
29.16000 432.167
29.17000 443.649
29.18000 436.195
29.19000 429.228
29.20000 424.437
29.21000 424.329
29.22000 424.381
29.23000 424.904
29.24000 426.125
29.25000 427.352
29.26000 424.205
29.27000 416.738
29.28000 409.381
29.29000 412.730
29.30000 423.147
29.31000 432.973
29.32000 426.255
29.33000 412.012
29.34000 398.528
29.35000 399.538
29.36000 404.667
29.37000 409.157
29.38000 408.605
29.39000 406.971
29.40000 405.409
29.41000 404.213
29.42000 403.068
29.43000 402.165
29.44000 414.971
29.45000 426.167
29.46000 431.340
29.47000 422.181
29.48000 412.408
29.49000 408.292
29.50000 413.476
29.51000 418.797
29.52000 421.597
29.53000 422.630
29.54000 423.305
29.55000 419.693
29.56000 412.934
29.57000 406.186
29.58000 399.864
29.59000 393.755
29.60000 387.916
29.61000 395.955
29.62000 407.935
29.63000 418.751
29.64000 419.049
29.65000 416.832
29.66000 415.448
29.67000 418.814
29.68000 422.932
29.69000 426.257
29.70000 418.831
29.71000 411.939
29.72000 405.767
29.73000 401.489
29.74000 397.312
29.75000 396.780
29.76000 402.894
29.77000 409.148
29.78000 412.615
29.79000 405.853
29.80000 401.184
29.81000 404.960
29.82000 415.650
29.83000 426.230
29.84000 431.314
29.85000 433.339
29.86000 435.290
29.87000 432.480
29.88000 428.109
29.89000 423.881
29.90000 421.141
29.91000 418.795
29.92000 417.575
29.93000 423.592
29.94000 430.899
29.95000 436.930
29.96000 433.795
29.97000 430.361
29.98000 429.733
29.99000 437.273
30.00000 445.334
30.01000 449.665
30.02000 446.473
30.03000 443.066
30.04000 441.083
30.05000 439.125
30.06000 437.751
30.07000 438.539
30.08000 441.309
30.09000 444.043
30.10000 444.147
30.11000 442.628
30.12000 441.151
30.13000 437.670
30.14000 433.549
30.15000 429.711
30.16000 429.310
30.17000 429.923
30.18000 430.237
30.19000 428.378
30.20000 426.084
30.21000 424.151
30.22000 426.858
30.23000 429.616
30.24000 431.851
30.25000 432.402
30.26000 432.826
30.27000 433.329
30.28000 434.011
30.29000 434.699
30.30000 435.118
30.31000 418.534
30.32000 406.554
30.33000 404.464
30.34000 412.558
30.35000 420.582
30.36000 420.300
30.37000 414.323
30.38000 408.476
30.39000 410.042
30.40000 414.899
30.41000 419.545
30.42000 421.171
30.43000 421.812
30.44000 422.843
30.45000 427.105
30.46000 432.087
30.47000 436.365
30.48000 432.802
30.49000 428.818
30.50000 424.181
30.51000 417.211
30.52000 410.032
30.53000 408.684
30.54000 421.714
30.55000 435.411
30.56000 444.100
30.57000 443.334
30.58000 442.662
30.59000 441.676
30.60000 440.327
30.61000 438.978
30.62000 437.945
30.63000 437.154
30.64000 436.374
30.65000 435.942
30.66000 435.699
30.67000 435.428
30.68000 434.691
30.69000 433.785
30.70000 433.126
30.71000 434.820
30.72000 437.099
30.73000 439.090
30.74000 442.584
30.75000 445.789
30.76000 448.723
30.77000 450.583
30.78000 452.331
30.79000 451.553
30.80000 443.882
30.81000 435.820
30.82000 430.506
30.83000 442.278
30.84000 451.252
30.85000 460.009
30.86000 468.488
30.87000 476.958
30.88000 480.320
30.89000 479.331
30.90000 478.352
30.91000 478.640
30.92000 479.636
30.93000 480.788
30.94000 485.188
30.95000 490.888
30.96000 496.879
30.97000 506.086
30.98000 516.179
30.99000 525.145
31.00000 538.484
31.01000 550.757
31.02000 561.882
31.03000 567.937
31.04000 573.392
31.05000 581.944
31.06000 599.843
31.07000 618.378
31.08000 631.042
31.09000 653.643
31.10000 670.785
31.11000 692.194
31.12000 719.736
31.13000 747.328
31.14000 787.385
31.15000 839.348
31.16000 890.940
31.17000 940.849
31.18000 988.897
31.19000 1037.662
31.20000 1105.168
31.21000 1180.957
31.22000 1256.589
31.23000 1330.206
31.24000 1403.206
31.25000 1469.047
31.26000 1542.570
31.27000 1608.530
31.28000 1679.299
31.29000 1773.772
31.30000 1871.446
31.31000 1965.115
31.32000 2045.395
31.33000 2124.598
31.34000 2180.544
31.35000 2279.706
31.36000 2356.303
31.37000 2404.603
31.38000 2407.728
31.39000 2410.266
31.40000 2438.121
31.41000 2493.159
31.42000 2547.983
31.43000 2552.873
31.44000 2522.506
31.45000 2492.265
31.46000 2466.285
31.47000 2442.387
31.48000 2416.069
31.49000 2352.807
31.50000 2277.033
31.51000 2207.730
31.52000 2125.886
31.53000 2050.551
31.54000 1973.584
31.55000 1887.608
31.56000 1800.254
31.57000 1713.470
31.58000 1628.801
31.59000 1544.331
31.60000 1482.787
31.61000 1395.183
31.62000 1326.716
31.63000 1257.521
31.64000 1187.037
31.65000 1116.529
31.66000 1059.510
31.67000 1018.710
31.68000 978.018
31.69000 935.362
31.70000 891.354
31.71000 847.374
31.72000 804.655
31.73000 762.618
31.74000 722.020
31.75000 707.881
31.76000 703.655
31.77000 699.741
31.78000 679.705
31.79000 657.940
31.80000 636.713
31.81000 618.818
31.82000 601.498
31.83000 585.091
31.84000 572.445
31.85000 560.207
31.86000 551.029
31.87000 538.030
31.88000 527.696
31.89000 518.632
31.90000 512.056
31.91000 505.545
31.92000 498.690
31.93000 491.372
31.94000 484.056
31.95000 477.570
31.96000 471.830
31.97000 466.167
31.98000 465.508
31.99000 467.848
32.00000 469.803
32.01000 463.054
32.02000 452.699
32.03000 442.993
32.04000 439.316
32.05000 437.540
32.06000 435.806
32.07000 434.363
32.08000 432.976
32.09000 431.217
32.10000 427.749
32.11000 424.068
32.12000 421.232
32.13000 427.722
32.14000 433.395
32.15000 433.446
32.16000 421.307
32.17000 408.748
32.18000 402.067
32.19000 404.159
32.20000 406.335
32.21000 407.680
32.22000 408.198
32.23000 408.698
32.24000 407.398
32.25000 404.903
32.26000 402.444
32.27000 401.034
32.28000 400.105
32.29000 399.225
32.30000 400.286
32.31000 401.831
32.32000 403.169
32.33000 402.860
32.34000 402.195
32.35000 400.507
32.36000 393.575
32.37000 385.901
32.38000 379.838
32.39000 388.822
32.40000 397.062
32.41000 401.964
32.42000 398.867
32.43000 395.420
32.44000 392.786
32.45000 391.498
32.46000 390.230
32.47000 389.560
32.48000 394.714
32.49000 398.187
32.50000 396.293
32.51000 390.427
32.52000 384.736
32.53000 385.535
32.54000 389.624
32.55000 393.534
32.56000 390.986
32.57000 386.502
32.58000 382.863
32.59000 386.945
32.60000 392.887
32.61000 397.313
32.62000 393.020
32.63000 387.334
32.64000 382.736
32.65000 383.420
32.66000 384.402
32.67000 384.167
32.68000 380.705
32.69000 377.069
32.70000 372.322
32.71000 365.533
32.72000 358.701
32.73000 354.899
32.74000 368.333
32.75000 377.646
32.76000 381.407
32.77000 380.588
32.78000 379.827
32.79000 382.038
32.80000 385.917
32.81000 389.659
32.82000 392.168
32.83000 394.077
32.84000 395.825
32.85000 395.865
32.86000 395.448
32.87000 394.548
32.88000 390.520
32.89000 385.931
32.90000 382.137
32.91000 393.293
32.92000 403.896
32.93000 409.788
32.94000 401.869
32.95000 393.057
32.96000 389.013
32.97000 394.656
32.98000 400.581
32.99000 404.040
33.00000 403.010
33.01000 402.264
33.02000 403.181
33.03000 405.634
33.04000 407.986
33.05000 402.796
33.06000 392.915
33.07000 383.309
33.08000 373.355
33.09000 363.748
33.10000 355.164
33.11000 359.173
33.12000 366.922
33.13000 373.279
33.14000 369.423
33.15000 363.511
33.16000 358.524
33.17000 352.346
33.18000 347.055
33.19000 342.229
33.20000 338.907
33.21000 335.701
33.22000 335.611
33.23000 342.520
33.24000 349.692
33.25000 354.070
33.26000 350.767
33.27000 348.342
33.28000 346.740
33.29000 345.991
33.30000 345.218
33.31000 341.645
33.32000 336.137
33.33000 330.746
33.34000 334.790
33.35000 342.977
33.36000 351.049
33.37000 357.468
33.38000 363.343
33.39000 368.472
33.40000 367.363
33.41000 364.852
33.42000 362.693
33.43000 356.736
33.44000 351.221
33.45000 346.001
33.46000 341.845
33.47000 337.784
33.48000 335.315
33.49000 336.800
33.50000 338.471
33.51000 339.534
33.52000 340.538
33.53000 341.267
33.54000 341.721
33.55000 341.855
33.56000 341.982
33.57000 340.579
33.58000 337.998
33.59000 335.458
33.60000 335.108
33.61000 335.884
33.62000 336.537
33.63000 335.031
33.64000 332.739
33.65000 330.780
33.66000 332.015
33.67000 334.050
33.68000 335.830
33.69000 335.859
33.70000 335.634
33.71000 334.576
33.72000 330.186
33.73000 325.449
33.74000 324.451
33.75000 333.724
33.76000 343.588
33.77000 350.108
33.78000 337.440
33.79000 327.752
33.80000 324.600
33.81000 329.949
33.82000 335.331
33.83000 338.059
33.84000 338.508
33.85000 338.953
33.86000 330.821
33.87000 317.998
33.88000 306.015
33.89000 311.881
33.90000 324.932
33.91000 337.587
33.92000 345.827
33.93000 352.840
33.94000 359.078
33.95000 348.757
33.96000 337.107
33.97000 328.601
33.98000 334.085
33.99000 341.241
34.00000 347.703
34.01000 352.051
34.02000 356.255
34.03000 359.134
34.04000 354.109
34.05000 350.156
34.06000 345.845
34.07000 341.014
34.08000 336.179
34.09000 334.794
34.10000 336.731
34.11000 338.655
34.12000 340.286
34.13000 341.705
34.14000 343.140
34.15000 344.991
34.16000 347.025
34.17000 348.678
34.18000 345.353
34.19000 340.494
34.20000 336.108
34.21000 333.327
34.22000 331.178
34.23000 329.952
34.24000 333.307
34.25000 337.287
34.26000 341.690
34.27000 347.518
34.28000 353.462
34.29000 357.671
34.30000 348.370
34.31000 340.883
34.32000 335.521
34.33000 333.577
34.34000 331.679
34.35000 332.575
34.36000 336.495
34.37000 340.401
34.38000 342.771
34.39000 344.027
34.40000 345.286
34.41000 346.660
34.42000 348.090
34.43000 348.941
34.44000 340.820
34.45000 329.638
34.46000 319.402
34.47000 319.797
34.48000 322.359
34.49000 325.483
34.50000 331.740
34.51000 338.480
34.52000 343.488
34.53000 342.025
34.54000 339.948
34.55000 338.432
34.56000 326.616
34.57000 317.104
34.58000 314.886
34.59000 325.675
34.60000 336.718
34.61000 342.073
34.62000 340.534
34.63000 338.981
34.64000 335.883
34.65000 331.568
34.66000 327.374
34.67000 328.836
34.68000 333.379
34.69000 337.601
34.70000 335.830
34.71000 331.798
34.72000 328.060
34.73000 327.821
34.74000 328.426
34.75000 329.472
34.76000 333.284
34.77000 337.577
34.78000 339.394
34.79000 330.928
34.80000 321.335
34.81000 314.127
34.82000 313.688
34.83000 313.670
34.84000 316.046
34.85000 323.146
34.86000 330.373
34.87000 333.433
34.88000 330.859
34.89000 328.256
34.90000 326.068
34.91000 324.254
34.92000 322.471
34.93000 322.706
34.94000 324.160
34.95000 325.494
34.96000 324.098
34.97000 321.561
34.98000 319.181
34.99000 322.121
35.00000 326.197
35.01000 329.209
35.02000 324.691
35.03000 318.705
35.04000 314.616
35.05000 319.304
35.06000 325.093
35.07000 329.561
35.08000 319.403
35.09000 310.503
35.10000 305.951
35.11000 310.896
35.12000 316.174
35.13000 319.574
35.14000 320.149
35.15000 320.696
35.16000 320.971
35.17000 326.085
35.18000 329.457
35.19000 328.738
35.20000 325.277
35.21000 321.832
35.22000 318.866
35.23000 316.120
35.24000 313.518
35.25000 316.476
35.26000 320.840
35.27000 324.401
35.28000 321.505
35.29000 317.203
35.30000 314.053
35.31000 316.865
35.32000 320.527
35.33000 323.425
35.34000 321.699
35.35000 319.992
35.36000 318.245
35.37000 316.398
35.38000 314.546
35.39000 313.636
35.40000 314.297
35.41000 314.981
35.42000 315.345
35.43000 310.826
35.44000 307.759
35.45000 306.317
35.46000 306.088
35.47000 305.902
35.48000 307.363
35.49000 309.665
35.50000 311.868
35.51000 312.304
35.52000 312.128
35.53000 311.860
35.54000 310.754
35.55000 309.444
35.56000 308.217
35.57000 307.469
35.58000 306.797
35.59000 306.253
35.60000 311.046
35.61000 315.385
35.62000 317.791
35.63000 315.041
35.64000 312.009
35.65000 310.040
35.66000 310.035
35.67000 310.073
35.68000 310.094
35.69000 310.436
35.70000 310.664
35.71000 306.867
35.72000 299.721
35.73000 292.744
35.74000 294.613
35.75000 301.481
35.76000 308.111
35.77000 309.883
35.78000 309.762
35.79000 309.996
35.80000 314.003
35.81000 319.029
35.82000 323.914
35.83000 327.875
35.84000 331.668
35.85000 334.809
35.86000 325.414
35.87000 316.470
35.88000 309.377
35.89000 307.748
35.90000 306.478
35.91000 306.305
35.92000 308.379
35.93000 310.520
35.94000 311.774
35.95000 314.655
35.96000 316.692
35.97000 315.800
35.98000 312.180
35.99000 308.621
36.00000 309.739
36.01000 313.788
36.02000 317.726
36.03000 314.690
36.04000 308.931
36.05000 303.376
36.06000 300.348
36.07000 298.076
36.08000 296.288
36.09000 298.083
36.10000 300.605
36.11000 302.735
36.12000 300.548
36.13000 298.246
36.14000 298.217
36.15000 305.627
36.16000 313.614
36.17000 317.476
36.18000 311.998
36.19000 306.163
36.20000 302.590
36.21000 308.387
36.22000 312.616
36.23000 313.454
36.24000 310.741
36.25000 308.021
36.26000 304.577
36.27000 300.628
36.28000 296.762
36.29000 303.046
36.30000 313.749
36.31000 323.716
36.32000 322.861
36.33000 318.418
36.34000 314.148
36.35000 311.331
36.36000 308.842
36.37000 306.700
36.38000 299.570
36.39000 292.900
36.40000 288.896
36.41000 294.552
36.42000 301.088
36.43000 304.720
36.44000 301.089
36.45000 297.111
36.46000 294.573
36.47000 293.271
36.48000 292.340
36.49000 291.215
36.50000 289.863
36.51000 288.538
36.52000 294.040
36.53000 304.833
36.54000 315.461
36.55000 319.795
36.56000 320.766
36.57000 321.560
36.58000 319.211
36.59000 315.710
36.60000 312.456
36.61000 311.597
36.62000 311.342
36.63000 311.118
36.64000 305.996
36.65000 300.894
36.66000 298.639
36.67000 307.850
36.68000 318.267
36.69000 323.785
36.70000 315.748
36.71000 306.920
36.72000 301.070
36.73000 295.551
36.74000 291.481
36.75000 289.478
36.76000 290.186
36.77000 290.902
36.78000 289.161
36.79000 285.291
36.80000 281.462
36.81000 279.891
36.82000 279.648
36.83000 279.631
36.84000 284.511
36.85000 291.376
36.86000 297.513
36.87000 295.470
36.88000 291.137
36.89000 287.279
36.90000 292.141
36.91000 297.795
36.92000 302.291
36.93000 301.593
36.94000 300.267
36.95000 298.669
36.96000 296.237
36.97000 293.747
36.98000 292.037
36.99000 302.683
37.00000 310.967
37.01000 314.807
37.02000 312.161
37.03000 309.460
37.04000 308.738
37.05000 309.938
37.06000 311.129
37.07000 310.637
37.08000 309.074
37.09000 307.596
37.10000 308.408
37.11000 310.247
37.12000 311.873
37.13000 310.687
37.14000 308.629
37.15000 306.769
37.16000 306.290
37.17000 306.126
37.18000 305.644
37.19000 303.567
37.20000 301.270
37.21000 299.515
37.22000 299.594
37.23000 299.825
37.24000 299.988
37.25000 301.138
37.26000 302.043
37.27000 303.067
37.28000 304.283
37.29000 305.502
37.30000 302.116
37.31000 293.703
37.32000 285.318
37.33000 283.196
37.34000 285.581
37.35000 288.008
37.36000 291.947
37.37000 296.635
37.38000 300.832
37.39000 297.340
37.40000 291.207
37.41000 285.587
37.42000 285.559
37.43000 286.705
37.44000 286.860
37.45000 281.446
37.46000 275.166
37.47000 271.360
37.48000 276.868
37.49000 283.269
37.50000 287.953
37.51000 288.967
37.52000 289.605
37.53000 290.528
37.54000 291.966
37.55000 293.414
37.56000 294.015
37.57000 293.579
37.58000 293.142
37.59000 291.715
37.60000 289.497
37.61000 287.308
37.62000 286.442
37.63000 286.304
37.64000 286.111
37.65000 284.895
37.66000 283.290
37.67000 281.800
37.68000 290.143
37.69000 299.981
37.70000 307.421
37.71000 299.717
37.72000 289.359
37.73000 282.504
37.74000 290.309
37.75000 299.737
37.76000 306.835
37.77000 302.174
37.78000 297.954
37.79000 292.866
37.80000 286.054
37.81000 279.195
37.82000 278.835
37.83000 287.330
37.84000 295.874
37.85000 298.986
37.86000 297.203
37.87000 295.497
37.88000 299.058
37.89000 305.823
37.90000 312.343
37.91000 313.160
37.92000 311.579
37.93000 310.095
37.94000 307.028
37.95000 303.812
37.96000 300.632
37.97000 297.713
37.98000 294.845
37.99000 292.290
38.00000 291.197
38.01000 290.289
38.02000 289.587
38.03000 292.336
38.04000 294.720
38.05000 296.244
38.06000 295.876
38.07000 295.440
38.08000 295.277
38.09000 295.526
38.10000 295.780
38.11000 295.907
38.12000 293.689
38.13000 292.233
38.14000 293.563
38.15000 296.774
38.16000 299.902
38.17000 300.583
38.18000 300.127
38.19000 299.694
38.20000 302.385
38.21000 305.795
38.22000 308.929
38.23000 309.813
38.24000 310.205
38.25000 309.944
38.26000 306.286
38.27000 302.139
38.28000 298.852
38.29000 309.165
38.30000 318.412
38.31000 324.437
38.32000 322.624
38.33000 320.459
38.34000 320.847
38.35000 325.526
38.36000 330.274
38.37000 332.801
38.38000 336.859
38.39000 339.615
38.40000 340.849
38.41000 340.940
38.42000 341.254
38.43000 350.263
38.44000 363.743
38.45000 376.654
38.46000 384.437
38.47000 389.992
38.48000 396.662
38.49000 413.719
38.50000 433.316
38.51000 453.165
38.52000 474.488
38.53000 496.049
38.54000 513.545
38.55000 536.451
38.56000 555.570
38.57000 577.067
38.58000 604.954
38.59000 633.194
38.60000 664.121
38.61000 700.053
38.62000 736.099
38.63000 756.302
38.64000 807.838
38.65000 843.619
38.66000 869.187
38.67000 886.193
38.68000 903.413
38.69000 932.155
38.70000 967.455
38.71000 1001.553
38.72000 1024.727
38.73000 1042.514
38.74000 1059.213
38.75000 1064.189
38.76000 1065.979
38.77000 1068.371
38.78000 1074.733
38.79000 1081.819
38.80000 1087.694
38.81000 1057.178
38.82000 1028.476
38.83000 1000.649
38.84000 975.423
38.85000 950.370
38.86000 924.358
38.87000 896.368
38.88000 868.319
38.89000 851.832
38.90000 812.734
38.91000 785.049
38.92000 751.277
38.93000 711.787
38.94000 672.411
38.95000 642.063
38.96000 617.414
38.97000 593.425
38.98000 560.995
38.99000 526.611
39.00000 493.289
39.01000 473.336
39.02000 457.413
39.03000 441.019
39.04000 421.107
39.05000 400.474
39.06000 383.019
39.07000 375.632
39.08000 370.566
39.09000 365.396
39.10000 359.877
39.11000 354.331
39.12000 348.378
39.13000 341.497
39.14000 334.580
39.15000 330.332
39.16000 322.589
39.17000 317.008
39.18000 310.455
39.19000 302.875
39.20000 295.365
39.21000 297.052
39.22000 305.190
39.23000 313.162
39.24000 312.213
39.25000 307.167
39.26000 301.919
39.27000 293.676
39.28000 284.433
39.29000 276.818
39.30000 283.091
39.31000 292.534
39.32000 300.674
39.33000 295.954
39.34000 290.313
39.35000 286.414
39.36000 288.883
39.37000 291.938
39.38000 293.519
39.39000 291.387
39.40000 289.075
39.41000 287.596
39.42000 282.202
39.43000 278.223
39.44000 275.578
39.45000 274.511
39.46000 273.451
39.47000 273.343
39.48000 273.978
39.49000 274.604
39.50000 272.517
39.51000 269.088
39.52000 265.803
39.53000 265.096
39.54000 265.341
39.55000 265.791
39.56000 268.248
39.57000 271.213
39.58000 273.815
39.59000 271.998
39.60000 269.795
39.61000 268.391
39.62000 270.233
39.63000 272.421
39.64000 273.644
39.65000 272.182
39.66000 270.561
39.67000 269.485
39.68000 260.831
39.69000 254.291
39.70000 253.207
39.71000 259.330
39.72000 265.484
39.73000 268.565
39.74000 268.964
39.75000 269.359
39.76000 272.173
39.77000 276.323
39.78000 280.223
39.79000 278.615
39.80000 274.759
39.81000 271.239
39.82000 271.545
39.83000 272.930
39.84000 274.164
39.85000 274.758
39.86000 275.168
39.87000 274.938
39.88000 271.812
39.89000 268.334
39.90000 265.461
39.91000 264.456
39.92000 263.582
39.93000 262.982
39.94000 267.677
39.95000 271.332
39.96000 270.909
39.97000 264.489
39.98000 258.015
39.99000 253.773
40.00000 251.716
40.01000 249.673
40.02000 254.260
40.03000 263.061
40.04000 271.670
40.05000 274.960
40.06000 275.849
40.07000 276.652
40.08000 276.300
40.09000 275.588
40.10000 274.944
40.11000 273.973
40.12000 273.056
40.13000 271.964
40.14000 269.990
40.15000 267.892
40.16000 266.022
40.17000 264.930
40.18000 263.901
40.19000 263.170
40.20000 261.038
40.21000 259.370
40.22000 255.508
40.23000 248.065
40.24000 240.570
40.25000 239.738
40.26000 246.238
40.27000 252.719
40.28000 255.916
40.29000 256.713
40.30000 257.462
40.31000 256.452
40.32000 254.564
40.33000 253.027
40.34000 257.057
40.35000 263.013
40.36000 268.476
40.37000 267.737
40.38000 265.767
40.39000 263.615
40.40000 260.438
40.41000 257.099
40.42000 255.417
40.43000 260.016
40.44000 265.224
40.45000 269.043
40.46000 270.135
40.47000 270.868
40.48000 270.207
40.49000 267.023
40.50000 263.787
40.51000 261.396
40.52000 260.046
40.53000 258.701
40.54000 257.164
40.55000 255.478
40.56000 253.814
40.57000 253.237
40.58000 253.259
40.59000 253.313
40.60000 253.972
40.61000 254.863
40.62000 255.691
40.63000 254.447
40.64000 252.832
40.65000 251.754
40.66000 254.091
40.67000 257.032
40.68000 258.845
40.69000 255.898
40.70000 252.420
40.71000 249.796
40.72000 251.812
40.73000 253.621
40.74000 256.439
40.75000 261.278
40.76000 266.174
40.77000 266.192
40.78000 259.511
40.79000 252.791
40.80000 250.816
40.81000 253.153
40.82000 255.415
40.83000 252.393
40.84000 246.132
40.85000 240.043
40.86000 238.016
40.87000 237.710
40.88000 237.422
40.89000 244.221
40.90000 252.317
40.91000 258.868
40.92000 254.285
40.93000 247.496
40.94000 242.357
40.95000 244.979
40.96000 248.592
40.97000 251.391
40.98000 250.382
40.99000 249.354
41.00000 248.442
41.01000 247.790
41.02000 247.146
41.03000 247.031
41.04000 247.724
41.05000 248.425
41.06000 248.779
41.07000 256.135
41.08000 261.031
41.09000 263.106
41.10000 263.261
41.11000 263.378
41.12000 262.363
41.13000 260.818
41.14000 259.352
41.15000 252.291
41.16000 244.101
41.17000 237.116
41.18000 240.034
41.19000 245.142
41.20000 249.333
41.21000 248.696
41.22000 247.360
41.23000 246.298
41.24000 246.402
41.25000 246.568
41.26000 248.876
41.27000 256.430
41.28000 264.223
41.29000 265.948
41.30000 257.394
41.31000 248.672
41.32000 244.012
41.33000 242.663
41.34000 241.753
41.35000 242.451
41.36000 244.366
41.37000 246.243
41.38000 246.633
41.39000 246.252
41.40000 245.888
41.41000 243.506
41.42000 240.608
41.43000 238.001
41.44000 238.143
41.45000 238.961
41.46000 240.056
41.47000 242.785
41.48000 245.781
41.49000 248.216
41.50000 245.374
41.51000 242.616
41.52000 240.849
41.53000 241.770
41.54000 242.841
41.55000 243.904
41.56000 244.955
41.57000 246.005
41.58000 246.596
41.59000 240.797
41.60000 236.761
41.61000 236.606
41.62000 239.729
41.63000 242.825
41.64000 244.451
41.65000 245.232
41.66000 245.988
41.67000 245.980
41.68000 245.686
41.69000 245.612
41.70000 247.923
41.71000 250.887
41.72000 253.074
41.73000 250.096
41.74000 246.167
41.75000 242.904
41.76000 238.846
41.77000 235.413
41.78000 234.044
41.79000 238.858
41.80000 244.088
41.81000 248.232
41.82000 250.123
41.83000 251.945
41.84000 253.019
41.85000 243.438
41.86000 236.618
41.87000 236.866
41.88000 243.808
41.89000 250.682
41.90000 251.977
41.91000 249.723
41.92000 247.529
41.93000 248.496
41.94000 250.740
41.95000 252.530
41.96000 248.537
41.97000 242.789
41.98000 238.078
41.99000 241.195
42.00000 245.927
42.01000 249.935
42.02000 245.360
42.03000 240.566
42.04000 236.859
42.05000 236.762
42.06000 236.953
42.07000 236.961
42.08000 236.553
42.09000 236.129
42.10000 235.867
42.11000 241.674
42.12000 245.896
42.13000 248.013
42.14000 247.890
42.15000 247.749
42.16000 245.166
42.17000 240.858
42.18000 236.635
42.19000 237.256
42.20000 240.115
42.21000 242.766
42.22000 242.291
42.23000 240.765
42.24000 238.861
42.25000 233.705
42.26000 227.802
42.27000 222.706
42.28000 228.799
42.29000 235.410
42.30000 241.520
42.31000 245.786
42.32000 249.881
42.33000 251.338
42.34000 246.096
42.35000 240.525
42.36000 236.951
42.37000 228.477
42.38000 222.233
42.39000 221.197
42.40000 226.372
42.41000 231.552
42.42000 234.492
42.43000 235.669
42.44000 236.829
42.45000 235.003
42.46000 231.672
42.47000 228.461
42.48000 227.430
42.49000 227.210
42.50000 227.543
42.51000 233.349
42.52000 240.556
42.53000 246.885
42.54000 243.097
42.55000 238.355
42.56000 234.833
42.57000 236.304
42.58000 238.311
42.59000 239.959
42.60000 240.597
42.61000 241.175
42.62000 241.560
42.63000 234.960
42.64000 229.942
42.65000 227.025
42.66000 226.906
42.67000 226.799
42.68000 225.790
42.69000 223.986
42.70000 222.201
42.71000 224.107
42.72000 228.122
42.73000 232.054
42.74000 234.108
42.75000 235.389
42.76000 236.453
42.77000 235.014
42.78000 232.863
42.79000 230.944
42.80000 231.756
42.81000 232.920
42.82000 233.680
42.83000 232.606
42.84000 231.307
42.85000 228.918
42.86000 223.143
42.87000 217.127
42.88000 212.976
42.89000 224.420
42.90000 233.414
42.91000 238.319
42.92000 237.165
42.93000 235.955
42.94000 233.682
42.95000 230.357
42.96000 227.054
42.97000 227.626
42.98000 230.712
42.99000 233.735
43.00000 234.977
43.01000 235.410
43.02000 235.780
43.03000 235.315
43.04000 234.587
43.05000 233.928
43.06000 231.204
43.07000 228.413
43.08000 226.372
43.09000 228.145
43.10000 230.452
43.11000 232.319
43.12000 232.673
43.13000 232.899
43.14000 233.060
43.15000 232.469
43.16000 231.994
43.17000 232.703
43.18000 235.359
43.19000 238.044
43.20000 237.887
43.21000 234.576
43.22000 231.274
43.23000 231.858
43.24000 235.268
43.25000 238.590
43.26000 238.704
43.27000 237.203
43.28000 235.544
43.29000 231.351
43.30000 226.274
43.31000 221.613
43.32000 227.332
43.33000 234.646
43.34000 239.748
43.35000 232.223
43.36000 222.699
43.37000 216.152
43.38000 220.986
43.39000 226.934
43.40000 231.305
43.41000 228.518
43.42000 226.070
43.43000 226.529
43.44000 232.287
43.45000 238.156
43.46000 239.725
43.47000 235.956
43.48000 232.177
43.49000 231.068
43.50000 232.142
43.51000 233.121
43.52000 229.346
43.53000 222.923
43.54000 216.747
43.55000 215.385
43.56000 215.880
43.57000 216.341
43.58000 219.306
43.59000 222.584
43.60000 226.040
43.61000 230.640
43.62000 235.445
43.63000 238.436
43.64000 233.719
43.65000 228.133
43.66000 223.910
43.67000 225.286
43.68000 226.646
43.69000 227.517
43.70000 227.403
43.71000 227.261
43.72000 227.718
43.73000 229.002
43.74000 230.291
43.75000 230.482
43.76000 229.667
43.77000 228.842
43.78000 227.305
43.79000 225.329
43.80000 223.379
43.81000 222.039
43.82000 220.961
43.83000 219.947
43.84000 221.642
43.85000 223.920
43.86000 225.490
43.87000 221.912
43.88000 217.306
43.89000 214.135
43.90000 217.763
43.91000 222.267
43.92000 225.763
43.93000 229.007
43.94000 231.570
43.95000 232.597
43.96000 230.196
43.97000 227.668
43.98000 226.265
43.99000 226.594
44.00000 226.942
44.01000 227.119
44.02000 223.762
44.03000 221.536
44.04000 221.961
44.05000 224.203
44.06000 226.217
44.07000 221.210
44.08000 212.892
44.09000 204.989
44.10000 208.112
44.11000 214.323
44.12000 219.934
44.13000 220.569
44.14000 220.094
44.15000 220.155
44.16000 223.058
44.17000 226.377
44.18000 229.017
44.19000 221.820
44.20000 215.314
44.21000 212.442
44.22000 218.532
44.23000 225.038
44.24000 228.069
44.25000 225.169
44.26000 222.170
44.27000 220.562
44.28000 221.724
44.29000 222.514
44.30000 221.836
44.31000 220.038
44.32000 218.303
44.33000 219.108
44.34000 221.237
44.35000 223.278
44.36000 225.185
44.37000 226.920
44.38000 228.469
44.39000 228.255
44.40000 227.602
44.41000 226.842
44.42000 225.442
44.43000 223.936
44.44000 222.710
44.45000 219.856
44.46000 217.388
44.47000 217.346
44.48000 223.920
44.49000 230.870
44.50000 237.243
44.51000 242.524
44.52000 247.779
44.53000 250.745
44.54000 239.712
44.55000 232.015
44.56000 229.683
44.57000 231.923
44.58000 234.118
44.59000 233.772
44.60000 231.958
44.61000 230.204
44.62000 229.940
44.63000 230.253
44.64000 230.834
44.65000 234.361
44.66000 238.701
44.67000 242.609
44.68000 243.613
44.69000 244.079
44.70000 244.466
44.71000 245.053
44.72000 245.559
44.73000 245.827
44.74000 245.380
44.75000 244.884
44.76000 247.694
44.77000 257.421
44.78000 267.365
44.79000 273.248
44.80000 266.042
44.81000 260.877
44.82000 258.114
44.83000 257.648
44.84000 257.203
44.85000 258.627
44.86000 261.247
44.87000 263.800
44.88000 264.399
44.89000 264.147
44.90000 264.529
44.91000 273.092
44.92000 284.157
44.93000 293.754
44.94000 292.170
44.95000 288.263
44.96000 284.948
44.97000 285.683
44.98000 286.757
44.99000 289.607
45.00000 298.396
45.01000 307.663
45.02000 313.497
45.03000 311.393
45.04000 308.971
45.05000 307.474
45.06000 314.236
45.07000 319.171
45.08000 319.707
45.09000 315.518
45.10000 311.368
45.11000 313.144
45.12000 319.139
45.13000 325.017
45.14000 325.803
45.15000 324.162
45.16000 322.560
45.17000 321.534
45.18000 320.702
45.19000 319.561
45.20000 315.722
45.21000 311.258
45.22000 307.399
45.23000 308.042
45.24000 309.173
45.25000 310.644
45.26000 313.376
45.27000 316.227
45.28000 317.407
45.29000 314.313
45.30000 311.005
45.31000 308.877
45.32000 298.550
45.33000 290.900
45.34000 289.571
45.35000 295.845
45.36000 302.106
45.37000 299.599
45.38000 290.136
45.39000 280.805
45.40000 281.202
45.41000 286.698
45.42000 291.854
45.43000 290.758
45.44000 287.320
45.45000 283.973
45.46000 281.533
45.47000 279.329
45.48000 277.390
45.49000 277.008
45.50000 276.911
45.51000 277.389
45.52000 280.239
45.53000 283.346
45.54000 286.423
45.55000 289.415
45.56000 292.402
45.57000 294.398
45.58000 282.866
45.59000 274.057
45.60000 267.884
45.61000 265.245
45.62000 262.627
45.63000 262.023
45.64000 263.204
45.65000 264.375
45.66000 258.929
45.67000 249.713
45.68000 240.978
45.69000 243.114
45.70000 249.755
45.71000 255.993
45.72000 257.548
45.73000 257.763
45.74000 257.956
45.75000 252.928
45.76000 247.670
45.77000 243.275
45.78000 242.851
45.79000 242.919
45.80000 242.416
45.81000 240.123
45.82000 237.701
45.83000 236.026
45.84000 240.385
45.85000 243.819
45.86000 246.208
45.87000 247.037
45.88000 247.850
45.89000 245.436
45.90000 239.807
45.91000 234.211
45.92000 232.993
45.93000 234.664
45.94000 236.299
45.95000 236.896
45.96000 237.018
45.97000 236.739
45.98000 230.991
45.99000 223.507
46.00000 216.723
46.01000 216.865
46.02000 218.312
46.03000 219.985
46.04000 222.821
46.05000 225.821
46.06000 226.967
46.07000 221.679
46.08000 215.842
46.09000 211.673
46.10000 217.773
46.11000 222.770
46.12000 224.643
46.13000 221.341
46.14000 217.961
46.15000 214.544
46.16000 211.085
46.17000 207.637
46.18000 206.951
46.19000 208.299
46.20000 209.664
46.21000 211.636
46.22000 213.916
46.23000 215.908
46.24000 213.216
46.25000 208.880
46.26000 204.895
46.27000 207.261
46.28000 210.740
46.29000 213.640
46.30000 213.218
46.31000 212.265
46.32000 210.667
46.33000 206.587
46.34000 202.261
46.35000 199.076
46.36000 205.482
46.37000 210.839
46.38000 213.859
46.39000 212.589
46.40000 211.226
46.41000 212.715
46.42000 217.770
46.43000 222.831
46.44000 221.592
46.45000 215.176
46.46000 208.849
46.47000 207.102
46.48000 207.924
46.49000 208.580
46.50000 205.947
46.51000 202.035
46.52000 198.397
46.53000 204.123
46.54000 211.562
46.55000 217.229
46.56000 211.409
46.57000 203.525
46.58000 197.093
46.59000 196.880
46.60000 197.375
46.61000 197.751
46.62000 203.052
46.63000 207.464
46.64000 209.154
46.65000 205.313
46.66000 201.312
46.67000 198.456
46.68000 197.198
46.69000 195.951
46.70000 195.188
46.71000 194.873
46.72000 194.596
46.73000 197.214
46.74000 201.631
46.75000 206.034
46.76000 210.068
46.77000 213.943
46.78000 217.590
46.79000 215.666
46.80000 212.395
46.81000 209.345
46.82000 207.920
46.83000 206.822
46.84000 205.879
46.85000 205.681
46.86000 205.579
46.87000 205.500
46.88000 202.426
46.89000 199.796
46.90000 196.737
46.91000 192.713
46.92000 188.653
46.93000 186.975
46.94000 188.989
46.95000 191.045
46.96000 192.093
46.97000 201.535
46.98000 207.827
46.99000 208.857
47.00000 206.251
47.01000 203.741
47.02000 204.188
47.03000 206.040
47.04000 207.801
47.05000 208.599
47.06000 209.045
47.07000 209.407
47.08000 209.066
47.09000 208.567
47.10000 206.709
47.11000 197.595
47.12000 187.409
47.13000 179.292
47.14000 182.252
47.15000 185.443
47.16000 188.812
47.17000 192.625
47.18000 196.458
47.19000 197.967
47.20000 195.480
47.21000 192.924
47.22000 191.548
47.23000 188.300
47.24000 186.097
47.25000 188.362
47.26000 194.064
47.27000 199.604
47.28000 198.402
47.29000 193.659
47.30000 189.107
47.31000 186.751
47.32000 185.295
47.33000 183.968
47.34000 183.867
47.35000 184.072
47.36000 185.230
47.37000 192.100
47.38000 199.922
47.39000 206.300
47.40000 196.775
47.41000 187.633
47.42000 182.526
47.43000 188.506
47.44000 195.123
47.45000 198.037
47.46000 193.903
47.47000 189.598
47.48000 187.160
47.49000 193.274
47.50000 197.547
47.51000 197.766
47.52000 194.502
47.53000 191.246
47.54000 188.419
47.55000 185.842
47.56000 183.349
47.57000 185.722
47.58000 189.813
47.59000 193.601
47.60000 194.008
47.61000 193.476
47.62000 192.759
47.63000 190.792
47.64000 188.592
47.65000 186.759
47.66000 187.821
47.67000 188.988
47.68000 189.700
47.69000 189.030
47.70000 188.264
47.71000 187.251
47.72000 185.719
47.73000 184.170
47.74000 183.251
47.75000 187.606
47.76000 190.718
47.77000 190.940
47.78000 188.378
47.79000 185.812
47.80000 182.999
47.81000 180.025
47.82000 177.126
47.83000 175.431
47.84000 174.323
47.85000 173.848
47.86000 181.607
47.87000 191.902
47.88000 200.573
47.89000 196.763
47.90000 190.338
47.91000 184.880
47.92000 176.887
47.93000 169.888
47.94000 166.704
47.95000 176.365
47.96000 187.071
47.97000 193.557
47.98000 190.213
47.99000 186.467
48.00000 184.146
48.01000 185.881
48.02000 187.168
48.03000 187.363
48.04000 186.374
48.05000 185.396
48.06000 186.212
48.07000 188.314
48.08000 190.377
48.09000 190.643
48.10000 190.047
48.11000 189.300
48.12000 186.207
48.13000 182.314
48.14000 179.059
48.15000 181.396
48.16000 185.041
48.17000 188.194
48.18000 189.224
48.19000 189.820
48.20000 189.525
48.21000 185.897
48.22000 181.953
48.23000 179.708
48.24000 181.838
48.25000 184.191
48.26000 185.708
48.27000 183.803
48.28000 182.363
48.29000 181.392
48.30000 180.989
48.31000 180.595
48.32000 182.704
48.33000 186.814
48.34000 190.868
48.35000 189.178
48.36000 184.492
48.37000 180.032
48.38000 179.781
48.39000 181.117
48.40000 182.352
48.41000 182.548
48.42000 182.475
48.43000 182.410
48.44000 185.706
48.45000 189.047
48.46000 191.496
48.47000 190.243
48.48000 188.583
48.49000 187.512
48.50000 188.116
48.51000 188.823
48.52000 189.296
48.53000 190.011
48.54000 190.546
48.55000 188.486
48.56000 182.917
48.57000 177.332
48.58000 176.788
48.59000 180.751
48.60000 184.678
48.61000 184.878
48.62000 182.870
48.63000 180.928
48.64000 180.523
48.65000 180.760
48.66000 180.823
48.67000 178.841
48.68000 176.270
48.69000 173.971
48.70000 175.995
48.71000 178.495
48.72000 179.854
48.73000 175.927
48.74000 171.337
48.75000 169.238
48.76000 174.994
48.77000 181.325
48.78000 185.715
48.79000 179.592
48.80000 174.704
48.81000 171.812
48.82000 171.921
48.83000 172.060
48.84000 173.363
48.85000 175.835
48.86000 178.293
48.87000 176.581
48.88000 172.132
48.89000 167.915
48.90000 170.419
48.91000 176.024
48.92000 181.188
48.93000 180.250
48.94000 177.361
48.95000 174.740
48.96000 178.321
48.97000 182.675
48.98000 186.860
48.99000 190.170
49.00000 193.355
49.01000 194.204
49.02000 186.887
49.03000 178.868
49.04000 173.126
49.05000 176.592
49.06000 179.550
49.07000 181.844
49.08000 183.026
49.09000 184.191
49.10000 183.096
49.11000 179.449
49.12000 175.812
49.13000 176.614
49.14000 180.696
49.15000 184.661
49.16000 184.161
49.17000 181.381
49.18000 178.628
49.19000 176.322
49.20000 174.174
49.21000 172.198
49.22000 173.431
49.23000 175.229
49.24000 176.725
49.25000 176.464
49.26000 175.921
49.27000 175.276
49.28000 174.235
49.29000 173.154
49.30000 172.357
49.31000 172.953
49.32000 173.474
49.33000 173.771
49.34000 173.652
49.35000 173.525
49.36000 174.795
49.37000 177.828
49.38000 180.862
49.39000 184.273
49.40000 187.984
49.41000 191.603
49.42000 190.401
49.43000 186.475
49.44000 182.726
49.45000 182.512
49.46000 183.683
49.47000 184.773
49.48000 183.825
49.49000 182.472
49.50000 181.723
49.51000 184.932
49.52000 188.857
49.53000 191.683
49.54000 189.765
49.55000 187.301
49.56000 185.431
49.57000 178.499
49.58000 172.792
49.59000 170.558
49.60000 175.434
49.61000 180.521
49.62000 183.211
49.63000 182.533
49.64000 181.832
49.65000 180.062
49.66000 177.299
49.67000 174.549
49.68000 172.858
49.69000 171.829
49.70000 170.919
49.71000 172.971
49.72000 176.303
49.73000 179.441
49.74000 181.598
49.75000 183.303
49.76000 184.444
49.77000 181.412
49.78000 177.533
49.79000 174.674
49.80000 176.727
49.81000 179.425
49.82000 181.527
49.83000 180.483
49.84000 179.456
49.85000 177.693
49.86000 174.261
49.87000 170.765
49.88000 168.386
49.89000 167.750
49.90000 167.135
49.91000 166.821
49.92000 171.400
49.93000 174.470
49.94000 176.616
49.95000 178.118
49.96000 179.609
49.97000 180.732
49.98000 181.680
49.99000 182.581
50.00000 181.832
50.01000 180.633
50.02000 179.712
50.03000 181.131
50.04000 183.081
50.05000 184.788
50.06000 185.187
50.07000 185.391
50.08000 185.554
50.09000 178.521
50.10000 172.314
50.11000 168.626
50.12000 171.241
50.13000 174.157
50.14000 174.553
50.15000 170.583
50.16000 166.535
50.17000 164.348
50.18000 173.474
50.19000 179.713
50.20000 181.037
50.21000 178.550
50.22000 176.142
50.23000 177.105
50.24000 179.851
50.25000 182.488
50.26000 186.963
50.27000 191.779
50.28000 196.255
50.29000 197.422
50.30000 197.756
50.31000 197.574
50.32000 194.275
50.33000 190.451
50.34000 187.329
50.35000 184.661
50.36000 182.517
50.37000 182.577
50.38000 188.734
50.39000 195.247
50.40000 197.235
50.41000 190.545
50.42000 183.641
50.43000 179.717
50.44000 181.815
50.45000 183.294
50.46000 184.346
50.47000 185.030
50.48000 185.755
50.49000 188.990
50.50000 193.696
50.51000 198.251
50.52000 199.241
50.53000 198.810
50.54000 198.630
50.55000 201.283
50.56000 204.729
50.57000 208.689
50.58000 216.171
50.59000 224.317
50.60000 231.111
50.61000 227.299
50.62000 223.075
50.63000 221.526
50.64000 228.169
50.65000 235.384
50.66000 239.250
50.67000 236.012
50.68000 232.541
50.69000 230.475
50.70000 236.037
50.71000 240.024
50.72000 241.120
50.73000 239.409
50.74000 237.764
50.75000 242.095
50.76000 250.312
50.77000 258.325
50.78000 257.904
50.79000 253.891
50.80000 250.040
50.81000 248.321
50.82000 247.264
50.83000 245.916
50.84000 242.305
50.85000 238.217
50.86000 234.740
50.87000 245.411
50.88000 256.010
50.89000 261.575
50.90000 250.059
50.91000 237.138
50.92000 228.047
50.93000 227.943
50.94000 228.213
50.95000 228.380
50.96000 223.163
50.97000 219.353
50.98000 214.058
50.99000 207.143
51.00000 200.268
51.01000 199.874
51.02000 204.167
51.03000 208.379
51.04000 207.906
51.05000 205.211
51.06000 202.405
51.07000 197.864
51.08000 192.728
51.09000 187.787
51.10000 184.576
51.11000 181.773
51.12000 179.344
51.13000 180.147
51.14000 181.258
51.15000 183.472
51.16000 189.841
51.17000 196.608
51.18000 198.329
51.19000 186.962
51.20000 174.922
51.21000 167.133
51.22000 168.808
51.23000 170.172
51.24000 170.482
51.25000 169.504
51.26000 168.536
51.27000 172.094
51.28000 179.302
51.29000 186.412
51.30000 185.688
51.31000 180.801
51.32000 176.231
51.33000 177.645
51.34000 181.335
51.35000 184.251
51.36000 179.264
51.37000 172.207
51.38000 165.988
51.39000 171.227
51.40000 177.474
51.41000 182.765
51.42000 184.054
51.43000 184.901
51.44000 184.004
51.45000 178.102
51.46000 171.889
51.47000 167.718
51.48000 169.883
51.49000 171.620
51.50000 172.184
51.51000 171.150
51.52000 170.107
51.53000 169.754
51.54000 170.021
51.55000 170.286
51.56000 168.856
51.57000 166.442
51.58000 164.034
51.59000 161.780
51.60000 159.590
51.61000 157.989
51.62000 163.395
51.63000 170.837
51.64000 177.499
51.65000 172.629
51.66000 166.400
51.67000 161.903
51.68000 165.483
51.69000 170.084
51.70000 172.654
51.71000 168.768
51.72000 164.404
51.73000 161.371
51.74000 158.817
51.75000 156.905
51.76000 157.668
51.77000 162.483
51.78000 167.340
51.79000 169.691
51.80000 169.505
51.81000 169.320
51.82000 168.431
51.83000 167.085
51.84000 165.773
51.85000 165.484
51.86000 165.671
51.87000 165.739
51.88000 164.146
51.89000 162.019
51.90000 160.086
51.91000 162.891
51.92000 166.289
51.93000 168.658
51.94000 165.668
51.95000 161.907
51.96000 159.258
51.97000 160.527
51.98000 162.138
51.99000 163.293
52.00000 163.912
52.01000 164.366
52.02000 163.647
52.03000 160.955
52.04000 158.232
52.05000 158.145
52.06000 161.057
52.07000 163.963
52.08000 166.613
52.09000 169.053
52.10000 171.429
52.11000 171.375
52.12000 170.070
52.13000 168.772
52.14000 167.586
52.15000 166.439
52.16000 165.383
52.17000 161.211
52.18000 156.799
52.19000 153.374
52.20000 155.725
52.21000 159.015
52.22000 161.701
52.23000 162.022
52.24000 162.104
52.25000 162.165
52.26000 158.355
52.27000 155.235
52.28000 153.540
52.29000 154.503
52.30000 155.526
52.31000 156.855
52.32000 158.574
52.33000 160.291
52.34000 159.780
52.35000 157.407
52.36000 155.093
52.37000 155.975
52.38000 158.677
52.39000 161.281
52.40000 161.904
52.41000 161.746
52.42000 161.598
52.43000 162.757
52.44000 164.126
52.45000 165.435
52.46000 166.349
52.47000 167.191
52.48000 167.629
52.49000 166.312
52.50000 164.792
52.51000 163.636
52.52000 162.048
52.53000 160.777
52.54000 160.226
52.55000 161.161
52.56000 162.141
52.57000 163.130
52.58000 164.132
52.59000 165.134
52.60000 164.700
52.61000 162.917
52.62000 161.109
52.63000 157.261
52.64000 152.126
52.65000 147.286
52.66000 149.941
52.67000 155.860
52.68000 161.440
52.69000 165.942
52.70000 169.766
52.71000 172.829
52.72000 170.195
52.73000 166.396
52.74000 163.190
52.75000 162.859
52.76000 162.910
52.77000 162.949
52.78000 167.287
52.79000 171.015
52.80000 171.564
52.81000 164.868
52.82000 157.889
52.83000 155.653
52.84000 160.876
52.85000 166.191
52.86000 168.921
52.87000 161.662
52.88000 156.810
52.89000 156.335
52.90000 158.929
52.91000 161.495
52.92000 163.154
52.93000 164.376
52.94000 165.540
52.95000 165.478
52.96000 165.042
52.97000 164.492
52.98000 162.974
52.99000 161.236
53.00000 159.797
53.01000 159.990
53.02000 160.429
53.03000 160.779
53.04000 155.766
53.05000 151.316
53.06000 149.543
53.07000 154.517
53.08000 159.818
53.09000 162.808
53.10000 161.764
53.11000 160.647
53.12000 160.041
53.13000 157.286
53.14000 155.399
53.15000 154.474
53.16000 154.300
53.17000 154.116
53.18000 153.492
53.19000 152.633
53.20000 151.809
53.21000 151.902
53.22000 152.307
53.23000 152.463
53.24000 150.174
53.25000 147.263
53.26000 145.692
53.27000 152.296
53.28000 160.287
53.29000 166.822
53.30000 166.158
53.31000 164.987
53.32000 163.734
53.33000 162.250
53.34000 160.752
53.35000 158.909
53.36000 156.400
53.37000 153.875
53.38000 152.434
53.39000 157.346
53.40000 160.791
53.41000 162.443
53.42000 162.529
53.43000 162.656
53.44000 165.200
53.45000 169.172
53.46000 173.020
53.47000 169.444
53.48000 163.192
53.49000 157.480
53.50000 157.898
53.51000 160.046
53.52000 162.074
53.53000 163.271
53.54000 164.309
53.55000 165.177
53.56000 162.203
53.57000 159.346
53.58000 156.517
53.59000 153.775
53.60000 151.039
53.61000 149.657
53.62000 151.168
53.63000 152.775
53.64000 153.736
53.65000 153.789
53.66000 153.821
53.67000 153.239
53.68000 152.056
53.69000 150.929
53.70000 155.111
53.71000 162.770
53.72000 170.243
53.73000 167.838
53.74000 161.275
53.75000 155.054
53.76000 153.395
53.77000 153.162
53.78000 153.342
53.79000 156.756
53.80000 160.859
53.81000 164.354
53.82000 162.848
53.83000 160.997
53.84000 160.649
53.85000 165.438
53.86000 170.655
53.87000 172.433
53.88000 166.084
53.89000 159.391
53.90000 155.218
53.91000 159.390
53.92000 162.482
53.93000 163.373
53.94000 161.841
53.95000 160.314
53.96000 159.960
53.97000 160.460
53.98000 160.950
53.99000 158.047
54.00000 153.611
54.01000 149.415
54.02000 149.035
54.03000 149.977
54.04000 151.214
54.05000 155.099
54.06000 159.614
54.07000 163.530
54.08000 161.762
54.09000 159.495
54.10000 156.990
54.11000 153.579
54.12000 150.080
54.13000 149.146
54.14000 154.915
54.15000 161.034
54.16000 165.003
54.17000 161.521
54.18000 158.859
54.19000 156.036
54.20000 153.013
54.21000 149.997
54.22000 150.114
54.23000 152.777
54.24000 155.404
54.25000 154.342
54.26000 151.323
54.27000 148.516
54.28000 149.770
54.29000 152.579
54.30000 155.459
54.31000 159.079
54.32000 162.894
54.33000 166.260
54.34000 159.854
54.35000 152.839
54.36000 147.351
54.37000 148.305
54.38000 149.978
54.39000 151.588
54.40000 153.014
54.41000 154.429
54.42000 155.381
54.43000 151.319
54.44000 148.195
54.45000 149.671
54.46000 157.462
54.47000 165.289
54.48000 166.366
54.49000 161.308
54.50000 156.294
54.51000 153.869
54.52000 153.046
54.53000 152.228
54.54000 151.508
54.55000 150.829
54.56000 150.276
54.57000 151.229
54.58000 152.623
54.59000 153.872
54.60000 159.990
54.61000 166.177
54.62000 171.092
54.63000 170.026
54.64000 168.196
54.65000 166.131
54.66000 163.311
54.67000 160.435
54.68000 158.431
54.69000 154.649
54.70000 151.747
54.71000 149.213
54.72000 147.241
54.73000 145.276
54.74000 145.385
54.75000 147.612
54.76000 149.827
54.77000 150.538
54.78000 150.230
54.79000 150.004
54.80000 152.267
54.81000 155.694
54.82000 158.895
54.83000 158.890
54.84000 157.844
54.85000 156.894
54.86000 156.860
54.87000 157.009
54.88000 157.043
54.89000 156.476
54.90000 155.821
54.91000 155.274
54.92000 155.105
54.93000 154.970
54.94000 154.873
54.95000 157.487
54.96000 159.583
54.97000 160.120
54.98000 158.015
54.99000 155.866
55.00000 153.240
55.01000 150.066
55.02000 146.899
55.03000 148.105
55.04000 152.592
55.05000 156.982
55.06000 157.537
55.07000 156.106
55.08000 154.784
55.09000 155.310
55.10000 156.500
55.11000 157.596
55.12000 163.045
55.13000 168.883
55.14000 172.931
55.15000 166.422
55.16000 158.183
55.17000 151.584
55.18000 151.448
55.19000 151.970
55.20000 152.358
55.21000 155.399
55.22000 157.875
55.23000 160.217
55.24000 162.309
55.25000 164.396
55.26000 165.510
55.27000 165.382
55.28000 165.248
55.29000 163.585
55.30000 160.636
55.31000 157.826
55.32000 162.720
55.33000 172.031
55.34000 180.846
55.35000 179.411
55.36000 173.908
55.37000 168.775
55.38000 170.688
55.39000 174.168
55.40000 177.549
55.41000 180.268
55.42000 182.865
55.43000 184.587
55.44000 182.475
55.45000 179.913
55.46000 177.962
55.47000 172.456
55.48000 167.934
55.49000 167.008
55.50000 173.549
55.51000 180.320
55.52000 182.356
55.53000 177.634
55.54000 172.862
55.55000 173.726
55.56000 179.928
55.57000 186.129
55.58000 192.339
55.59000 198.555
55.60000 204.775
55.61000 211.098
55.62000 217.466
55.63000 223.473
55.64000 228.323
55.65000 232.445
55.66000 236.034
55.67000 235.609
55.68000 234.357
55.69000 235.067
55.70000 245.377
55.71000 256.972
55.72000 266.037
55.73000 271.362
55.74000 275.374
55.75000 282.211
55.76000 295.536
55.77000 309.117
55.78000 319.151
55.79000 323.560
55.80000 327.898
55.81000 330.136
55.82000 347.066
55.83000 358.481
55.84000 371.072
55.85000 384.493
55.86000 398.026
55.87000 415.224
55.88000 434.201
55.89000 452.282
55.90000 466.703
55.91000 478.927
55.92000 491.010
55.93000 501.879
55.94000 512.468
55.95000 522.152
55.96000 526.881
55.97000 530.859
55.98000 534.045
55.99000 534.996
56.00000 535.597
56.01000 536.405
56.02000 537.736
56.03000 539.092
56.04000 543.381
56.05000 552.824
56.06000 562.362
56.07000 567.556
56.08000 549.394
56.09000 536.906
56.10000 526.356
56.11000 517.330
56.12000 508.247
56.13000 496.645
56.14000 483.690
56.15000 471.235
56.16000 457.201
56.17000 443.501
56.18000 430.629
56.19000 425.952
56.20000 423.374
56.21000 419.443
56.22000 407.186
56.23000 393.505
56.24000 382.299
56.25000 369.667
56.26000 359.185
56.27000 349.810
56.28000 343.544
56.29000 337.465
56.30000 329.044
56.31000 316.070
56.32000 302.978
56.33000 295.485
56.34000 290.598
56.35000 287.187
56.36000 276.893
56.37000 260.542
56.38000 244.302
56.39000 235.098
56.40000 230.079
56.41000 225.216
56.42000 221.875
56.43000 219.304
56.44000 216.695
56.45000 213.633
56.46000 210.443
56.47000 207.488
56.48000 206.161
56.49000 205.148
56.50000 204.300
56.51000 202.459
56.52000 200.828
56.53000 198.453
56.54000 193.765
56.55000 188.912
56.56000 184.641
56.57000 181.624
56.58000 178.649
56.59000 176.867
56.60000 182.636
56.61000 186.783
56.62000 189.979
56.63000 192.237
56.64000 194.477
56.65000 195.050
56.66000 194.523
56.67000 194.008
56.68000 190.679
56.69000 186.271
56.70000 181.812
56.71000 176.650
56.72000 171.267
56.73000 166.123
56.74000 162.866
56.75000 160.014
56.76000 157.581
56.77000 162.069
56.78000 166.662
56.79000 168.592
56.80000 161.354
56.81000 153.343
56.82000 147.748
56.83000 147.901
56.84000 148.301
56.85000 148.551
56.86000 162.303
56.87000 172.371
56.88000 172.884
56.89000 162.795
56.90000 152.726
56.91000 147.463
56.92000 145.728
56.93000 144.023
56.94000 143.890
56.95000 144.524
56.96000 145.070
56.97000 144.201
56.98000 142.839
56.99000 141.879
57.00000 144.563
57.01000 148.118
57.02000 151.206
57.03000 145.996
57.04000 140.434
57.05000 137.281
57.06000 143.337
57.07000 150.294
57.08000 156.030
57.09000 158.551
57.10000 160.902
57.11000 162.431
57.12000 150.348
57.13000 141.281
57.14000 136.337
57.15000 136.510
57.16000 136.703
57.17000 139.315
57.18000 143.907
57.19000 148.441
57.20000 148.824
57.21000 146.946
57.22000 145.212
57.23000 146.290
57.24000 148.451
57.25000 150.135
57.26000 146.837
57.27000 142.214
57.28000 138.131
57.29000 136.247
57.30000 134.959
57.31000 134.465
57.32000 137.346
57.33000 140.608
57.34000 143.462
57.35000 145.126
57.36000 146.714
57.37000 147.785
57.38000 144.179
57.39000 141.396
57.40000 139.298
57.41000 138.146
57.42000 137.001
57.43000 137.385
57.44000 139.173
57.45000 140.946
57.46000 143.196
57.47000 145.695
57.48000 148.000
57.49000 145.644
57.50000 141.300
57.51000 137.416
57.52000 139.120
57.53000 142.472
57.54000 145.479
57.55000 141.546
57.56000 136.895
57.57000 133.117
57.58000 133.476
57.59000 134.369
57.60000 136.899
57.61000 144.708
57.62000 152.918
57.63000 158.650
57.64000 152.069
57.65000 146.755
57.66000 142.566
57.67000 140.109
57.68000 137.670
57.69000 138.690
57.70000 143.273
57.71000 147.832
57.72000 149.052
57.73000 147.995
57.74000 146.975
57.75000 147.086
57.76000 147.731
57.77000 148.099
57.78000 144.500
57.79000 139.604
57.80000 135.148
57.81000 132.095
57.82000 129.669
57.83000 129.044
57.84000 137.963
57.85000 148.280
57.86000 154.395
57.87000 145.494
57.88000 135.258
57.89000 127.879
57.90000 134.163
57.91000 139.463
57.92000 141.971
57.93000 139.712
57.94000 137.374
57.95000 137.411
57.96000 140.193
57.97000 142.972
57.98000 141.378
57.99000 136.478
58.00000 131.722
58.01000 132.786
58.02000 136.887
58.03000 140.829
58.04000 142.037
58.05000 142.257
58.06000 142.459
58.07000 137.760
58.08000 132.460
58.09000 128.299
58.10000 130.912
58.11000 134.646
58.12000 137.844
58.13000 138.913
58.14000 139.762
58.15000 140.393
58.16000 142.974
58.17000 145.067
58.18000 145.439
58.19000 142.560
58.20000 139.604
58.21000 138.505
58.22000 139.803
58.23000 141.108
58.24000 141.739
58.25000 141.794
58.26000 141.809
58.27000 139.534
58.28000 135.937
58.29000 132.617
58.30000 135.095
58.31000 139.890
58.32000 144.367
58.33000 143.462
58.34000 141.295
58.35000 139.510
58.36000 140.282
58.37000 141.530
58.38000 142.182
58.39000 140.203
58.40000 137.912
58.41000 136.164
58.42000 139.849
58.43000 143.045
58.44000 144.280
58.45000 141.414
58.46000 138.419
58.47000 136.861
58.48000 137.368
58.49000 137.891
58.50000 138.716
58.51000 139.830
58.52000 140.947
58.53000 142.251
58.54000 143.677
58.55000 144.963
58.56000 142.600
58.57000 138.623
58.58000 134.869
58.59000 131.406
58.60000 128.312
58.61000 125.771
58.62000 127.451
58.63000 130.007
58.64000 132.428
58.65000 134.179
58.66000 135.839
58.67000 137.140
58.68000 132.524
58.69000 128.457
58.70000 125.986
58.71000 127.210
58.72000 128.582
58.73000 130.463
58.74000 133.156
58.75000 135.860
58.76000 137.260
58.77000 134.755
58.78000 133.078
58.79000 133.319
58.80000 134.927
58.81000 136.479
58.82000 136.178
58.83000 134.973
58.84000 133.823
58.85000 133.308
58.86000 133.030
58.87000 133.286
58.88000 138.186
58.89000 144.163
58.90000 149.115
58.91000 148.410
58.92000 146.840
58.93000 145.580
58.94000 136.731
58.95000 128.989
58.96000 125.605
58.97000 133.367
58.98000 141.686
58.99000 145.946
59.00000 143.019
59.01000 139.955
59.02000 138.281
59.03000 135.707
59.04000 133.944
59.05000 134.453
59.06000 136.765
59.07000 139.036
59.08000 139.492
59.09000 138.965
59.10000 138.458
59.11000 137.512
59.12000 136.470
59.13000 135.753
59.14000 138.275
59.15000 141.633
59.16000 143.768
59.17000 138.302
59.18000 131.526
59.19000 125.966
59.20000 126.097
59.21000 126.710
59.22000 128.340
59.23000 132.843
59.24000 137.520
59.25000 139.187
59.26000 134.951
59.27000 130.559
59.28000 128.037
59.29000 135.653
59.30000 141.011
59.31000 142.641
59.32000 140.963
59.33000 139.237
59.34000 134.451
59.35000 127.830
59.36000 121.409
59.37000 122.271
59.38000 125.946
59.39000 129.346
59.40000 129.543
59.41000 128.823
59.42000 128.376
59.43000 129.846
59.44000 131.686
59.45000 133.228
59.46000 134.571
59.47000 135.667
59.48000 136.647
59.49000 137.265
59.50000 137.857
59.51000 137.529
59.52000 135.205
59.53000 132.813
59.54000 131.374
59.55000 132.588
59.56000 133.470
59.57000 133.129
59.58000 131.573
59.59000 130.029
59.60000 129.794
59.61000 130.429
59.62000 131.050
59.63000 131.515
59.64000 131.892
59.65000 131.910
59.66000 127.016
59.67000 120.563
59.68000 115.278
59.69000 119.310
59.70000 125.358
59.71000 130.523
59.72000 134.580
59.73000 137.866
59.74000 140.560
59.75000 141.200
59.76000 141.664
59.77000 141.061
59.78000 137.901
59.79000 134.629
59.80000 132.577
59.81000 133.575
59.82000 134.329
59.83000 133.010
59.84000 129.370
59.85000 125.745
59.86000 125.107
59.87000 126.680
59.88000 128.225
59.89000 129.510
59.90000 130.625
59.91000 131.616
59.92000 130.593
59.93000 128.864
59.94000 127.440
59.95000 128.809
59.96000 130.851
59.97000 132.628
59.98000 134.353
59.99000 135.818
60.00000 137.236
60.01000 138.475
60.02000 139.696
60.03000 138.959
60.04000 133.031
60.05000 126.825
60.06000 122.777
60.07000 124.837
60.08000 126.446
60.09000 128.057
60.10000 129.671
60.11000 131.285
60.12000 133.109
60.13000 135.107
60.14000 137.080
60.15000 137.354
60.16000 136.691
60.17000 136.177
60.18000 138.614
60.19000 142.197
60.20000 145.583
60.21000 146.887
60.22000 147.634
60.23000 148.294
60.24000 142.848
60.25000 137.193
60.26000 132.920
60.27000 134.565
60.28000 136.884
60.29000 138.678
60.30000 138.929
60.31000 139.080
60.32000 139.182
60.33000 136.403
60.34000 134.271
60.35000 133.095
60.36000 133.253
60.37000 133.420
60.38000 132.611
60.39000 130.900
60.40000 129.203
60.41000 129.117
60.42000 130.018
60.43000 130.944
60.44000 132.495
60.45000 134.315
60.46000 135.995
60.47000 135.946
60.48000 135.383
60.49000 134.878
60.50000 129.949
60.51000 124.856
60.52000 121.015
60.53000 123.156
60.54000 126.076
60.55000 127.818
60.56000 125.732
60.57000 123.352
60.58000 121.687
60.59000 132.477
60.60000 140.989
60.61000 144.447
60.62000 140.073
60.63000 135.609
60.64000 134.510
60.65000 136.906
60.66000 139.292
60.67000 138.706
60.68000 136.098
60.69000 133.528
60.70000 132.127
60.71000 131.281
60.72000 130.463
60.73000 130.051
60.74000 129.772
60.75000 129.518
60.76000 130.048
60.77000 130.674
60.78000 130.636
60.79000 127.050
60.80000 122.940
60.81000 120.430
60.82000 123.680
60.83000 127.447
60.84000 130.169
60.85000 130.999
60.86000 131.567
60.87000 132.149
60.88000 132.753
60.89000 133.357
60.90000 134.027
60.91000 134.774
60.92000 135.519
60.93000 133.717
60.94000 129.980
60.95000 126.320
60.96000 125.842
60.97000 127.037
60.98000 128.210
60.99000 129.013
61.00000 129.682
61.01000 130.299
61.02000 131.762
61.03000 133.264
61.04000 135.013
61.05000 138.243
61.06000 141.720
61.07000 144.099
61.08000 142.093
61.09000 139.629
61.10000 137.796
61.11000 133.718
61.12000 130.446
61.13000 128.608
61.14000 129.504
61.15000 130.466
61.16000 133.300
61.17000 138.569
61.18000 143.844
61.19000 147.070
61.20000 148.532
61.21000 149.930
61.22000 147.636
61.23000 143.194
61.24000 138.888
61.25000 137.466
61.26000 137.204
61.27000 136.961
61.28000 137.372
61.29000 137.910
61.30000 138.525
61.31000 139.661
61.32000 140.895
61.33000 141.696
61.34000 140.569
61.35000 139.211
61.36000 138.173
61.37000 139.191
61.38000 140.107
61.39000 140.553
61.40000 140.009
61.41000 139.434
61.42000 139.326
61.43000 139.894
61.44000 140.468
61.45000 142.963
61.46000 147.309
61.47000 151.620
61.48000 152.891
61.49000 152.201
61.50000 151.703
61.51000 156.330
61.52000 163.238
61.53000 169.764
61.54000 179.907
61.55000 190.240
61.56000 200.320
61.57000 208.458
61.58000 216.189
61.59000 223.960
61.60000 231.929
61.61000 239.925
61.62000 246.198
61.63000 248.744
61.64000 250.537
61.65000 253.405
61.66000 258.781
61.67000 264.259
61.68000 269.002
61.69000 272.564
61.70000 276.109
61.71000 277.953
61.72000 275.502
61.73000 273.845
61.74000 272.173
61.75000 270.490
61.76000 268.543
61.77000 257.500
61.78000 241.978
61.79000 227.171
61.80000 221.090
61.81000 218.210
61.82000 214.519
61.83000 203.705
61.84000 191.227
61.85000 180.009
61.86000 175.813
61.87000 172.700
61.88000 170.199
61.89000 161.954
61.90000 154.829
61.91000 150.320
61.92000 152.551
61.93000 155.124
61.94000 154.893
61.95000 149.661
61.96000 144.331
61.97000 141.407
61.98000 146.130
61.99000 149.376
62.00000 147.835
62.01000 142.467
62.02000 137.188
62.03000 136.089
62.04000 137.268
62.05000 138.404
62.06000 141.443
62.07000 144.970
62.08000 148.287
62.09000 149.471
62.10000 150.101
62.11000 150.186
62.12000 146.855
62.13000 142.932
62.14000 139.707
62.15000 141.629
62.16000 143.672
62.17000 144.690
62.18000 142.791
62.19000 140.712
62.20000 140.919
62.21000 145.636
62.22000 150.475
62.23000 153.263
62.24000 146.241
62.25000 141.290
62.26000 140.194
62.27000 142.546
62.28000 144.876
62.29000 145.779
62.30000 145.821
62.31000 145.862
62.32000 150.586
62.33000 156.920
62.34000 162.445
62.35000 158.461
62.36000 151.735
62.37000 146.055
62.38000 147.788
62.39000 150.967
62.40000 153.634
62.41000 147.634
62.42000 141.735
62.43000 136.865
62.44000 135.240
62.45000 133.853
62.46000 133.947
62.47000 137.273
62.48000 140.712
62.49000 142.786
62.50000 141.583
62.51000 140.703
62.52000 139.564
62.53000 138.165
62.54000 136.815
62.55000 140.534
62.56000 147.650
62.57000 154.603
62.58000 155.588
62.59000 153.893
62.60000 152.136
62.61000 149.525
62.62000 146.639
62.63000 143.871
62.64000 142.046
62.65000 140.425
62.66000 139.039
62.67000 139.622
62.68000 140.350
62.69000 140.989
62.70000 141.316
62.71000 141.617
62.72000 141.236
62.73000 139.213
62.74000 137.117
62.75000 135.799
62.76000 139.165
62.77000 141.652
62.78000 143.620
62.79000 145.004
62.80000 146.387
62.81000 147.764
62.82000 149.137
62.83000 150.486
62.84000 151.050
62.85000 151.206
62.86000 151.161
62.87000 147.778
62.88000 143.215
62.89000 139.164
62.90000 139.837
62.91000 141.657
62.92000 143.242
62.93000 145.534
62.94000 147.588
62.95000 149.051
62.96000 148.214
62.97000 147.149
62.98000 146.622
62.99000 147.537
63.00000 148.529
63.01000 149.179
63.02000 146.591
63.03000 144.637
63.04000 141.883
63.05000 138.118
63.06000 134.361
63.07000 135.667
63.08000 141.186
63.09000 146.638
63.10000 148.538
63.11000 148.434
63.12000 148.302
63.13000 147.636
63.14000 146.761
63.15000 146.100
63.16000 147.718
63.17000 149.951
63.18000 151.928
63.19000 155.736
63.20000 159.316
63.21000 161.008
63.22000 154.550
63.23000 147.153
63.24000 142.194
63.25000 144.438
63.26000 147.154
63.27000 148.996
63.28000 147.947
63.29000 147.101
63.30000 146.177
63.31000 145.146
63.32000 144.115
63.33000 146.327
63.34000 151.563
63.35000 156.757
63.36000 154.590
63.37000 147.928
63.38000 141.434
63.39000 139.137
63.40000 138.655
63.41000 138.206
63.42000 138.183
63.43000 138.287
63.44000 138.380
63.45000 139.233
63.46000 140.115
63.47000 140.113
63.48000 135.853
63.49000 131.034
63.50000 128.811
63.51000 135.080
63.52000 142.010
63.53000 146.871
63.54000 151.493
63.55000 154.983
63.56000 155.076
63.57000 149.864
63.58000 144.588
63.59000 143.433
63.60000 146.594
63.61000 149.741
63.62000 150.640
63.63000 149.982
63.64000 149.416
63.65000 151.783
63.66000 155.552
63.67000 158.868
63.68000 155.506
63.69000 149.931
63.70000 144.846
63.71000 144.766
63.72000 145.701
63.73000 146.422
63.74000 145.990
63.75000 145.387
63.76000 145.696
63.77000 149.311
63.78000 153.228
63.79000 156.063
63.80000 152.887
63.81000 150.229
63.82000 149.442
63.83000 151.896
63.84000 154.408
63.85000 158.243
63.86000 163.631
63.87000 169.010
63.88000 167.887
63.89000 161.758
63.90000 155.741
63.91000 154.509
63.92000 155.810
63.93000 157.095
63.94000 158.120
63.95000 159.049
63.96000 159.908
63.97000 157.487
63.98000 154.572
63.99000 152.129
64.00000 152.549
64.01000 153.451
64.02000 154.951
64.03000 158.867
64.04000 163.037
64.05000 166.146
64.06000 156.693
64.07000 148.761
64.08000 145.163
64.09000 149.878
64.10000 154.798
64.11000 158.525
64.12000 160.689
64.13000 162.844
64.14000 161.403
64.15000 156.855
64.16000 152.365
64.17000 151.287
64.18000 152.211
64.19000 153.020
64.20000 151.344
64.21000 148.660
64.22000 146.151
64.23000 151.742
64.24000 158.878
64.25000 164.947
64.26000 163.724
64.27000 161.124
64.28000 158.736
64.29000 157.293
64.30000 155.964
64.31000 154.945
64.32000 155.817
64.33000 156.609
64.34000 158.601
64.35000 163.143
64.36000 167.767
64.37000 168.826
64.38000 164.681
64.39000 160.492
64.40000 158.063
64.41000 157.345
64.42000 156.642
64.43000 157.433
64.44000 159.195
64.45000 160.946
64.46000 162.406
64.47000 163.735
64.48000 164.991
64.49000 166.047
64.50000 166.959
64.51000 167.657
64.52000 166.695
64.53000 165.382
64.54000 164.546
64.55000 166.096
64.56000 167.975
64.57000 169.452
64.58000 168.715
64.59000 167.979
64.60000 168.394
64.61000 171.510
64.62000 174.737
64.63000 175.804
64.64000 173.369
64.65000 170.886
64.66000 169.589
64.67000 177.872
64.68000 183.438
64.69000 182.912
64.70000 177.980
64.71000 173.169
64.72000 172.635
64.73000 174.223
64.74000 175.739
64.75000 174.741
64.76000 173.011
64.77000 171.291
64.78000 169.655
64.79000 168.039
64.80000 166.949
64.81000 168.812
64.82000 171.136
64.83000 173.006
64.84000 183.189
64.85000 192.098
64.86000 196.434
64.87000 188.905
64.88000 180.766
64.89000 174.942
64.90000 173.279
64.91000 171.699
64.92000 170.829
64.93000 171.096
64.94000 171.289
64.95000 173.740
64.96000 178.012
64.97000 182.263
64.98000 185.524
64.99000 188.243
65.00000 190.861
65.01000 187.817
65.02000 182.939
65.03000 178.822
65.04000 182.493
65.05000 188.205
65.06000 193.192
65.07000 193.609
65.08000 193.224
65.09000 192.907
65.10000 199.782
65.11000 206.089
65.12000 210.087
65.13000 207.459
65.14000 204.417
65.15000 202.675
65.16000 203.518
65.17000 204.432
65.18000 204.961
65.19000 202.337
65.20000 200.487
65.21000 200.226
65.22000 201.400
65.23000 202.649
65.24000 209.063
65.25000 218.618
65.26000 227.894
65.27000 230.753
65.28000 230.907
65.29000 231.023
65.30000 230.701
65.31000 230.252
65.32000 230.672
65.33000 237.307
65.34000 245.164
65.35000 251.764
65.36000 251.083
65.37000 249.747
65.38000 251.640
65.39000 263.791
65.40000 276.703
65.41000 285.393
65.42000 284.798
65.43000 283.870
65.44000 283.309
65.45000 289.337
65.46000 293.682
65.47000 297.628
65.48000 301.172
65.49000 304.704
65.50000 306.983
65.51000 308.416
65.52000 309.816
65.53000 323.812
65.54000 342.835
65.55000 360.885
65.56000 365.333
65.57000 365.400
65.58000 365.427
65.59000 365.130
65.60000 364.761
65.61000 364.444
65.62000 370.905
65.63000 377.180
65.64000 385.497
65.65000 401.003
65.66000 417.135
65.67000 434.114
65.68000 453.154
65.69000 472.287
65.70000 484.355
65.71000 540.846
65.72000 582.264
65.73000 625.237
65.74000 669.975
65.75000 714.699
65.76000 756.078
65.77000 794.943
65.78000 833.159
65.79000 885.301
65.80000 942.662
65.81000 998.332
65.82000 1025.732
65.83000 1043.057
65.84000 1058.979
65.85000 1061.810
65.86000 1061.438
65.87000 1061.115
65.88000 1070.379
65.89000 1079.632
65.90000 1085.122
65.91000 1075.906
65.92000 1065.204
65.93000 1051.633
65.94000 1030.347
65.95000 1008.635
65.96000 994.396
65.97000 895.173
65.98000 820.790
65.99000 750.740
66.00000 686.199
66.01000 621.698
66.02000 568.092
66.03000 523.623
66.04000 479.676
66.05000 445.369
66.06000 417.256
66.07000 389.874
66.08000 377.340
66.09000 370.659
66.10000 364.052
66.11000 358.241
66.12000 352.646
66.13000 347.687
66.14000 340.431
66.15000 333.786
66.16000 328.097
66.17000 326.561
66.18000 325.508
66.19000 323.444
66.20000 318.371
66.21000 313.097
66.22000 309.512
66.23000 306.310
66.24000 303.928
66.25000 310.686
66.26000 330.387
66.27000 350.180
66.28000 359.607
66.29000 359.295
66.30000 358.986
66.31000 362.923
66.32000 369.429
66.33000 376.383
66.34000 394.677
66.35000 417.914
66.36000 439.396
66.37000 438.790
66.38000 431.526
66.39000 424.988
66.40000 428.617
66.41000 433.621
66.42000 437.770
66.43000 437.766
66.44000 437.212
66.45000 436.876
66.46000 437.262
66.47000 437.704
66.48000 438.015
66.49000 427.773
66.50000 419.702
66.51000 409.748
66.52000 396.830
66.53000 383.876
66.54000 375.141
66.55000 370.862
66.56000 366.602
66.57000 353.378
66.58000 334.071
66.59000 315.235
66.60000 311.701
66.61000 315.540
66.62000 319.081
66.63000 318.183
66.64000 315.804
66.65000 313.631
66.66000 306.990
66.67000 300.191
66.68000 294.662
66.69000 296.026
66.70000 298.427
66.71000 301.095
66.72000 304.738
66.73000 308.471
66.74000 311.179
66.75000 312.547
66.76000 313.548
66.77000 313.194
66.78000 310.476
66.79000 307.714
66.80000 307.628
66.81000 310.710
66.82000 313.791
66.83000 317.657
66.84000 322.112
66.85000 326.484
66.86000 327.280
66.87000 326.170
66.88000 325.055
66.89000 323.863
66.90000 322.641
66.91000 321.511
66.92000 322.945
66.93000 324.818
66.94000 326.853
66.95000 329.886
66.96000 333.088
66.97000 335.193
66.98000 332.843
66.99000 330.019
67.00000 327.910
67.01000 334.937
67.02000 340.836
67.03000 345.721
67.04000 348.647
67.05000 351.524
67.06000 352.247
67.07000 350.125
67.08000 347.991
67.09000 348.949
67.10000 352.602
67.11000 356.246
67.12000 359.339
67.13000 362.106
67.14000 364.729
67.15000 364.195
67.16000 362.372
67.17000 360.665
67.18000 366.018
67.19000 372.692
67.20000 377.982
67.21000 373.726
67.22000 367.653
67.23000 363.121
67.24000 365.554
67.25000 368.837
67.26000 371.357
67.27000 377.585
67.28000 382.715
67.29000 385.529
67.30000 383.392
67.31000 381.092
67.32000 382.634
67.33000 389.826
67.34000 397.068
67.35000 404.811
67.36000 413.042
67.37000 421.105
67.38000 413.359
67.39000 395.252
67.40000 378.013
67.41000 384.685
67.42000 402.157
67.43000 418.685
67.44000 416.256
67.45000 408.573
67.46000 402.360
67.47000 407.658
67.48000 415.406
67.49000 421.630
67.50000 420.161
67.51000 417.624
67.52000 415.627
67.53000 416.850
67.54000 418.045
67.55000 420.455
67.56000 425.735
67.57000 431.137
67.58000 434.287
67.59000 433.760
67.60000 433.180
67.61000 432.877
67.62000 428.314
67.63000 425.252
67.64000 427.128
67.65000 432.603
67.66000 438.211
67.67000 448.578
67.68000 461.321
67.69000 473.494
67.70000 471.097
67.71000 464.179
67.72000 457.491
67.73000 452.868
67.74000 448.736
67.75000 446.552
67.76000 455.397
67.77000 465.974
67.78000 474.502
67.79000 475.107
67.80000 474.975
67.81000 475.719
67.82000 478.755
67.83000 481.909
67.84000 484.334
67.85000 485.438
67.86000 486.514
67.87000 487.109
67.88000 496.593
67.89000 503.133
67.90000 502.913
67.91000 497.202
67.92000 491.543
67.93000 488.421
67.94000 486.704
67.95000 485.048
67.96000 489.180
67.97000 495.145
67.98000 500.894
67.99000 504.412
68.00000 507.341
68.01000 510.401
68.02000 514.291
68.03000 518.328
68.04000 521.655
68.05000 531.468
68.06000 540.140
68.07000 548.261
68.08000 554.788
68.09000 561.214
68.10000 565.559
68.11000 565.732
68.12000 565.789
68.13000 565.822
68.14000 562.704
68.15000 560.507
68.16000 567.305
68.17000 582.281
68.18000 597.087
68.19000 599.989
68.20000 595.595
68.21000 591.326
68.22000 596.154
68.23000 604.395
68.24000 612.204
68.25000 614.820
68.26000 615.917
68.27000 616.092
68.28000 609.632
68.29000 601.856
68.30000 595.315
68.31000 599.086
68.32000 603.330
68.33000 609.385
68.34000 621.235
68.35000 633.520
68.36000 647.127
68.37000 663.663
68.38000 680.305
68.39000 690.404
68.40000 697.602
68.41000 702.715
68.42000 703.725
68.43000 700.545
68.44000 697.458
68.45000 704.990
68.46000 719.749
68.47000 734.181
68.48000 741.606
68.49000 745.579
68.50000 750.646
68.51000 771.207
68.52000 796.792
68.53000 821.180
68.54000 835.743
68.55000 848.130
68.56000 858.753
68.57000 887.245
68.58000 913.505
68.59000 938.939
68.60000 961.441
68.61000 983.686
68.62000 1007.999
68.63000 1037.381
68.64000 1066.995
68.65000 1085.730
68.66000 1169.438
68.67000 1230.893
68.68000 1290.494
68.69000 1347.969
68.70000 1405.444
68.71000 1463.464
68.72000 1521.897
68.73000 1579.376
68.74000 1619.747
68.75000 1650.242
68.76000 1680.919
68.77000 1714.668
68.78000 1749.519
68.79000 1788.429
68.80000 1865.541
68.81000 1952.070
68.82000 2027.605
68.83000 2102.026
68.84000 2165.546
68.85000 2246.835
68.86000 2398.109
68.87000 2556.528
68.88000 2743.958
68.89000 3009.981
68.90000 3280.403
68.91000 3458.219
68.92000 4459.043
68.93000 5209.884
68.94000 6482.002
68.95000 8421.865
68.96000 10365.845
68.97000 13254.528
68.98000 16941.932
68.99000 20587.270
69.00000 25126.676
69.01000 30058.121
69.02000 34963.148
69.03000 39322.738
69.04000 43465.816
69.05000 47478.188
69.06000 50067.063
69.07000 52266.078
69.08000 54217.523
69.09000 55112.965
69.10000 55720.273
69.11000 56292.594
69.12000 56711.559
69.13000 57112.523
69.14000 57588.926
69.15000 58291.438
69.16000 59009.152
69.17000 59498.352
69.18000 60015.211
69.19000 60402.129
69.20000 60064.336
69.21000 58692.547
69.22000 57312.770
69.23000 55073.629
69.24000 52020.285
69.25000 48989.461
69.26000 45789.547
69.27000 42536.590
69.28000 39317.164
69.29000 36960.977
69.30000 34983.664
69.31000 33062.918
69.32000 31862.379
69.33000 30880.572
69.34000 29995.941
69.35000 29352.070
69.36000 28830.738
69.37000 28218.172
69.38000 27159.352
69.39000 26040.795
69.40000 24711.168
69.41000 22680.891
69.42000 20594.879
69.43000 19124.678
69.44000 15941.301
69.45000 13475.630
69.46000 11240.067
69.47000 9369.244
69.48000 7503.015
69.49000 6047.551
69.50000 5029.625
69.51000 4016.102
69.52000 3342.791
69.53000 2914.310
69.54000 2490.464
69.55000 2220.063
69.56000 2024.140
69.57000 1833.044
69.58000 1714.745
69.59000 1620.928
69.60000 1535.202
69.61000 1473.660
69.62000 1423.944
69.63000 1373.620
69.64000 1319.961
69.65000 1265.797
69.66000 1212.276
69.67000 1161.120
69.68000 1110.184
69.69000 1073.148
69.70000 1045.430
69.71000 1024.456
69.72000 1000.939
69.73000 972.949
69.74000 944.876
69.75000 924.191
69.76000 912.321
69.77000 900.491
69.78000 887.678
69.79000 874.157
69.80000 860.581
69.81000 844.553
69.82000 827.207
69.83000 810.160
69.84000 798.528
69.85000 788.911
69.86000 780.010
69.87000 773.922
69.88000 769.097
69.89000 763.466
69.90000 752.873
69.91000 741.431
69.92000 731.728
69.93000 729.140
69.94000 727.315
69.95000 725.950
69.96000 700.502
69.97000 679.520
69.98000 668.142
69.99000 675.452
70.00000 683.243
