20.00000 557.702
20.01000 562.683
20.02000 568.376
20.03000 574.719
20.04000 583.661
20.05000 592.873
20.06000 599.727
20.07000 591.933
20.08000 585.215
20.09000 577.893
20.10000 569.421
20.11000 560.921
20.12000 555.600
20.13000 554.415
20.14000 553.248
20.15000 552.930
20.16000 553.339
20.17000 553.855
20.18000 560.600
20.19000 570.970
20.20000 580.767
20.21000 578.397
20.22000 571.130
20.23000 564.341
20.24000 560.585
20.25000 557.942
20.26000 555.748
20.27000 556.585
20.28000 557.991
20.29000 559.377
20.30000 560.678
20.31000 561.969
20.32000 562.957
20.33000 549.861
20.34000 538.765
20.35000 534.707
20.36000 545.470
20.37000 556.707
20.38000 563.681
20.39000 564.482
20.40000 565.232
20.41000 567.404
20.42000 570.943
20.43000 574.386
20.44000 569.395
20.45000 558.961
20.46000 548.829
20.47000 546.769
20.48000 548.300
20.49000 549.747
20.50000 549.043
20.51000 547.790
20.52000 546.587
20.53000 545.772
20.54000 545.038
20.55000 545.395
20.56000 551.168
20.57000 557.679
20.58000 562.787
20.59000 565.705
20.60000 567.896
20.61000 564.578
20.62000 548.433
20.63000 531.764
20.64000 526.065
20.65000 538.010
20.66000 550.190
20.67000 556.522
20.68000 550.000
20.69000 545.612
20.70000 544.253
20.71000 545.068
20.72000 545.926
20.73000 548.267
20.74000 551.338
20.75000 554.267
20.76000 557.161
20.77000 559.837
20.78000 562.513
20.79000 565.200
20.80000 567.888
20.81000 568.866
20.82000 560.318
20.83000 550.301
20.84000 542.252
20.85000 546.661
20.86000 551.192
20.87000 553.200
20.88000 548.710
20.89000 543.890
20.90000 541.276
20.91000 542.591
20.92000 543.984
20.93000 544.747
20.94000 553.621
20.95000 559.722
20.96000 560.466
20.97000 556.927
20.98000 553.414
20.99000 551.076
21.00000 549.379
21.01000 547.745
21.02000 555.939
21.03000 567.106
21.04000 577.066
21.05000 574.829
21.06000 569.424
21.07000 563.842
21.08000 557.158
21.09000 550.282
21.10000 544.633
21.11000 548.681
21.12000 552.879
21.13000 557.705
21.14000 564.322
21.15000 571.048
21.16000 573.239
21.17000 566.476
21.18000 559.473
21.19000 555.438
21.20000 559.994
21.21000 563.211
21.22000 561.243
21.23000 554.636
21.24000 548.172
21.25000 551.145
21.26000 559.814
21.27000 568.224
21.28000 569.903
21.29000 568.831
21.30000 567.274
21.31000 560.016
21.32000 551.115
21.33000 543.281
21.34000 543.006
21.35000 544.205
21.36000 545.211
21.37000 543.705
21.38000 542.189
21.39000 542.030
21.40000 546.148
21.41000 550.579
21.42000 553.440
21.43000 552.872
21.44000 552.184
21.45000 551.770
21.46000 561.161
21.47000 567.914
21.48000 573.314
21.49000 577.354
21.50000 581.291
21.51000 574.529
21.52000 560.596
21.53000 546.985
21.54000 549.200
21.55000 558.314
21.56000 567.144
21.57000 572.042
21.58000 575.685
21.59000 578.437
21.60000 574.012
21.61000 568.025
21.62000 562.904
21.63000 563.505
21.64000 564.699
21.65000 567.457
21.66000 575.678
21.67000 584.369
21.68000 587.313
21.69000 576.387
21.70000 564.846
21.71000 557.589
21.72000 570.095
21.73000 579.361
21.74000 585.867
21.75000 589.262
21.76000 592.626
21.77000 590.806
21.78000 585.121
21.79000 579.534
21.80000 584.666
21.81000 594.914
21.82000 605.236
21.83000 616.778
21.84000 628.751
21.85000 640.102
21.86000 645.712
21.87000 649.929
21.88000 653.601
21.89000 669.587
21.90000 684.934
21.91000 697.903
21.92000 701.648
21.93000 704.471
21.94000 706.744
21.95000 707.550
21.96000 708.275
21.97000 708.749
21.98000 715.214
21.99000 720.059
22.00000 731.824
22.01000 752.310
22.02000 772.805
22.03000 783.291
22.04000 785.454
22.05000 787.590
22.06000 789.299
22.07000 790.729
22.08000 791.609
22.09000 781.471
22.10000 767.024
22.11000 753.632
22.12000 751.490
22.13000 752.382
22.14000 753.172
22.15000 753.609
22.16000 753.932
22.17000 753.446
22.18000 749.468
22.19000 745.089
22.20000 740.968
22.21000 737.613
22.22000 734.309
22.23000 732.068
22.24000 716.866
22.25000 705.243
22.26000 696.923
22.27000 693.243
22.28000 689.594
22.29000 685.257
22.30000 680.277
22.31000 675.337
22.32000 657.866
22.33000 632.990
22.34000 609.270
22.35000 614.332
22.36000 631.842
22.37000 647.221
22.38000 636.091
22.39000 617.030
22.40000 599.893
22.41000 592.046
22.42000 586.824
22.43000 581.278
22.44000 574.165
22.45000 566.846
22.46000 562.001
22.47000 565.247
22.48000 569.122
22.49000 571.839
22.50000 558.571
22.51000 548.068
22.52000 545.523
22.53000 555.401
22.54000 565.425
22.55000 570.452
22.56000 570.245
22.57000 570.039
22.58000 559.290
22.59000 541.403
22.60000 523.889
22.61000 518.233
22.62000 518.249
22.63000 518.567
22.64000 523.333
22.65000 529.573
22.66000 535.263
22.67000 531.623
22.68000 526.522
22.69000 521.818
22.70000 519.251
22.71000 517.003
22.72000 516.162
22.73000 520.428
22.74000 525.158
22.75000 528.582
22.76000 532.354
22.77000 535.262
22.78000 536.320
22.79000 534.175
22.80000 531.973
22.81000 524.510
22.82000 510.872
22.83000 497.254
22.84000 497.899
22.85000 509.530
22.86000 520.975
22.87000 524.521
22.88000 523.886
22.89000 523.112
22.90000 519.874
22.91000 515.733
22.92000 511.908
22.93000 518.674
22.94000 527.141
22.95000 533.946
22.96000 530.698
22.97000 525.760
22.98000 521.720
22.99000 521.293
23.00000 521.247
23.01000 521.213
23.02000 513.862
23.03000 507.806
23.04000 505.590
23.05000 510.736
23.06000 516.064
23.07000 514.412
23.08000 503.610
23.09000 492.775
23.10000 492.686
23.11000 501.882
23.12000 510.975
23.13000 513.932
23.14000 513.292
23.15000 512.857
23.16000 516.847
23.17000 522.630
23.18000 528.038
23.19000 521.938
23.20000 513.474
23.21000 506.899
23.22000 513.222
23.23000 521.979
23.24000 528.675
23.25000 526.126
23.26000 522.461
23.27000 519.654
23.28000 516.240
23.29000 513.512
23.30000 511.483
23.31000 510.940
23.32000 510.445
23.33000 511.346
23.34000 514.285
23.35000 517.242
23.36000 512.241
23.37000 499.513
23.38000 486.914
23.39000 486.004
23.40000 492.693
23.41000 499.255
23.42000 502.390
23.43000 503.987
23.44000 505.497
23.45000 510.321
23.46000 515.696
23.47000 519.821
23.48000 514.241
23.49000 506.612
23.50000 499.395
23.51000 494.244
23.52000 489.376
23.53000 485.550
23.54000 499.923
23.55000 512.626
23.56000 519.662
23.57000 513.406
23.58000 506.598
23.59000 504.063
23.60000 508.452
23.61000 512.936
23.62000 515.277
23.63000 515.587
23.64000 515.785
23.65000 514.084
23.66000 511.012
23.67000 507.945
23.68000 505.055
23.69000 502.254
23.70000 499.580
23.71000 501.757
23.72000 505.328
23.73000 508.097
23.74000 503.768
23.75000 497.767
23.76000 494.906
23.77000 509.656
23.78000 527.148
23.79000 541.226
23.80000 533.618
23.81000 525.758
23.82000 520.958
23.83000 524.092
23.84000 527.634
23.85000 529.368
23.86000 527.856
23.87000 526.278
23.88000 525.410
23.89000 522.178
23.90000 519.954
23.91000 519.609
23.92000 520.779
23.93000 522.010
23.94000 526.130
23.95000 531.837
23.96000 537.332
23.97000 533.126
23.98000 525.714
23.99000 518.336
24.00000 511.297
24.01000 504.347
24.02000 498.964
24.03000 503.473
24.04000 509.716
24.05000 514.853
24.06000 515.947
24.07000 516.479
24.08000 516.584
24.09000 515.462
24.10000 514.263
24.11000 510.468
24.12000 501.511
24.13000 492.411
24.14000 487.151
24.15000 492.820
24.16000 496.837
24.17000 499.018
24.18000 499.545
24.19000 500.064
24.20000 500.007
24.21000 499.601
24.22000 499.208
24.23000 501.315
24.24000 504.313
24.25000 506.679
24.26000 501.543
24.27000 494.228
24.28000 488.786
24.29000 496.723
24.30000 507.289
24.31000 516.166
24.32000 512.670
24.33000 508.453
24.34000 504.940
24.35000 503.661
24.36000 502.548
24.37000 501.961
24.38000 502.529
24.39000 503.139
24.40000 503.508
24.41000 494.576
24.42000 488.143
24.43000 485.844
24.44000 487.731
24.45000 489.603
24.46000 489.791
24.47000 488.843
24.48000 487.916
24.49000 492.472
24.50000 499.279
24.51000 505.633
24.52000 505.653
24.53000 503.633
24.54000 502.135
24.55000 504.867
24.56000 508.528
24.57000 511.663
24.58000 500.801
24.59000 489.935
24.60000 481.227
24.61000 480.113
24.62000 479.660
24.63000 478.266
24.64000 474.582
24.65000 470.795
24.66000 468.407
24.67000 475.181
24.68000 480.192
24.69000 484.753
24.70000 488.802
24.71000 492.836
24.72000 493.878
24.73000 492.673
24.74000 491.488
24.75000 490.342
24.76000 489.254
24.77000 488.610
24.78000 495.404
24.79000 504.848
24.80000 512.178
24.81000 499.822
24.82000 482.652
24.83000 467.683
24.84000 467.547
24.85000 469.491
24.86000 473.195
24.87000 483.776
24.88000 495.052
24.89000 501.646
24.90000 495.649
24.91000 488.957
24.92000 484.569
24.93000 483.434
24.94000 482.653
24.95000 481.577
24.96000 480.125
24.97000 478.677
24.98000 480.286
24.99000 484.458
25.00000 488.581
25.01000 490.345
25.02000 490.755
25.03000 490.964
25.04000 487.071
25.05000 481.562
25.06000 475.811
25.07000 467.457
25.08000 458.397
25.09000 450.366
25.10000 455.032
25.11000 461.078
25.12000 466.512
25.13000 469.282
25.14000 471.742
25.15000 473.975
25.16000 475.530
25.17000 477.040
25.18000 478.067
25.19000 473.469
25.20000 469.910
25.21000 470.098
25.22000 475.592
25.23000 481.123
25.24000 482.424
25.25000 479.750
25.26000 477.097
25.27000 471.737
25.28000 464.789
25.29000 457.943
25.30000 453.690
25.31000 450.567
25.32000 448.241
25.33000 455.937
25.34000 466.654
25.35000 476.299
25.36000 469.581
25.37000 460.759
25.38000 453.898
25.39000 456.557
25.40000 460.477
25.41000 464.637
25.42000 469.585
25.43000 474.595
25.44000 478.117
25.45000 478.489
25.46000 478.677
25.47000 475.906
25.48000 468.480
25.49000 460.998
25.50000 463.249
25.51000 475.778
25.52000 488.254
25.53000 487.121
25.54000 476.559
25.55000 466.356
25.56000 467.790
25.57000 474.832
25.58000 480.904
25.59000 472.557
25.60000 459.398
25.61000 447.385
25.62000 450.763
25.63000 456.877
25.64000 463.104
25.65000 469.942
25.66000 476.872
25.67000 481.003
25.68000 474.913
25.69000 467.884
25.70000 462.784
25.71000 462.446
25.72000 462.364
25.73000 462.987
25.74000 464.840
25.75000 466.715
25.76000 470.503
25.77000 476.556
25.78000 482.600
25.79000 484.278
25.80000 482.557
25.81000 480.818
25.82000 478.334
25.83000 475.453
25.84000 472.595
25.85000 470.158
25.86000 467.877
25.87000 465.767
25.88000 463.784
25.89000 462.034
25.90000 461.299
25.91000 466.763
25.92000 473.278
25.93000 476.069
25.94000 463.750
25.95000 449.824
25.96000 439.422
25.97000 446.869
25.98000 453.496
25.99000 459.084
26.00000 462.667
26.01000 466.199
26.02000 468.893
26.03000 470.480
26.04000 472.061
26.05000 470.933
26.06000 467.447
26.07000 463.986
26.08000 462.081
26.09000 461.094
26.10000 460.051
26.11000 457.768
26.12000 454.980
26.13000 452.371
26.14000 452.961
26.15000 454.316
26.16000 455.104
26.17000 451.977
26.18000 448.105
26.19000 444.219
26.20000 440.269
26.21000 436.312
26.22000 433.275
26.23000 443.293
26.24000 451.940
26.25000 459.886
26.26000 466.335
26.27000 472.735
26.28000 475.061
26.29000 471.400
26.30000 467.685
26.31000 469.237
26.32000 475.946
26.33000 482.523
26.34000 476.759
26.35000 462.908
26.36000 449.451
26.37000 446.828
26.38000 449.097
26.39000 451.243
26.40000 451.947
26.41000 452.181
26.42000 452.208
26.43000 450.626
26.44000 448.701
26.45000 447.314
26.46000 448.639
26.47000 450.340
26.48000 451.679
26.49000 447.124
26.50000 443.081
26.51000 441.928
26.52000 447.604
26.53000 453.568
26.54000 456.495
26.55000 454.465
26.56000 452.364
26.57000 451.264
26.58000 451.310
26.59000 451.338
26.60000 450.810
26.61000 449.876
26.62000 448.778
26.63000 441.770
26.64000 431.812
26.65000 422.299
26.66000 429.235
26.67000 440.976
26.68000 451.429
26.69000 450.356
26.70000 446.550
26.71000 443.645
26.72000 445.846
26.73000 448.849
26.74000 451.270
26.75000 441.352
26.76000 432.326
26.77000 426.269
26.78000 427.965
26.79000 430.065
26.80000 432.464
26.81000 435.402
26.82000 438.352
26.83000 439.981
26.84000 447.998
26.85000 453.518
26.86000 451.075
26.87000 442.163
26.88000 433.449
26.89000 434.370
26.90000 440.616
26.91000 446.635
26.92000 448.872
26.93000 449.614
26.94000 450.174
26.95000 448.853
26.96000 447.037
26.97000 445.290
26.98000 443.985
26.99000 442.758
27.00000 441.748
27.01000 442.698
27.02000 443.660
27.03000 445.589
27.04000 450.310
27.05000 455.208
27.06000 455.963
27.07000 448.421
27.08000 440.648
27.09000 436.139
27.10000 448.555
27.11000 457.334
27.12000 456.610
27.13000 447.248
27.14000 437.939
27.15000 432.422
27.16000 429.226
27.17000 426.123
27.18000 431.927
27.19000 441.017
27.20000 449.335
27.21000 448.365
27.22000 444.676
27.23000 441.116
27.24000 438.492
27.25000 436.053
27.26000 434.001
27.27000 432.787
27.28000 431.865
27.29000 429.928
27.30000 424.741
27.31000 419.311
27.32000 415.995
27.33000 417.364
27.34000 418.902
27.35000 419.835
27.36000 425.260
27.37000 429.164
27.38000 433.872
27.39000 439.403
27.40000 444.892
27.41000 445.641
27.42000 443.165
27.43000 440.744
27.44000 440.273
27.45000 440.698
27.46000 441.225
27.47000 443.212
27.48000 445.672
27.49000 446.922
27.50000 438.251
27.51000 427.383
27.52000 418.064
27.53000 419.043
27.54000 421.132
27.55000 425.695
27.56000 439.026
27.57000 453.129
27.58000 459.259
27.59000 445.860
27.60000 431.571
27.61000 422.532
27.62000 434.525
27.63000 443.467
27.64000 447.880
27.65000 447.102
27.66000 446.295
27.67000 440.474
27.68000 430.859
27.69000 421.400
27.70000 421.618
27.71000 426.677
27.72000 431.564
27.73000 433.521
27.74000 434.427
27.75000 434.921
27.76000 431.548
27.77000 427.222
27.78000 423.446
27.79000 427.634
27.80000 432.334
27.81000 436.642
27.82000 439.408
27.83000 442.017
27.84000 442.814
27.85000 438.706
27.86000 434.324
27.87000 431.443
27.88000 433.347
27.89000 434.830
27.90000 437.138
27.91000 440.502
27.92000 443.860
27.93000 441.621
27.94000 434.651
27.95000 427.760
27.96000 427.443
27.97000 430.811
27.98000 433.920
27.99000 431.690
28.00000 427.340
28.01000 423.718
28.02000 428.015
28.03000 434.480
28.04000 440.216
28.05000 442.014
28.06000 442.944
28.07000 443.011
28.08000 439.301
28.09000 435.148
28.10000 431.574
28.11000 429.733
28.12000 428.009
28.13000 426.833
28.14000 426.117
28.15000 425.592
28.16000 425.987
28.17000 427.696
28.18000 429.413
28.19000 425.779
28.20000 417.077
28.21000 408.439
28.22000 414.296
28.23000 429.121
28.24000 443.526
28.25000 447.106
28.26000 445.936
28.27000 444.507
28.28000 439.780
28.29000 434.052
28.30000 428.891
28.31000 428.837
28.32000 429.713
28.33000 429.359
28.34000 422.994
28.35000 415.824
28.36000 411.444
28.37000 416.324
28.38000 421.939
28.39000 425.896
28.40000 425.717
28.41000 425.457
28.42000 428.812
28.43000 437.894
28.44000 447.049
28.45000 448.537
28.46000 441.862
28.47000 435.214
28.48000 430.644
28.49000 427.573
28.50000 424.553
28.51000 423.185
28.52000 422.619
28.53000 422.110
28.54000 422.457
28.55000 423.092
28.56000 423.672
28.57000 430.193
28.58000 437.199
28.59000 442.215
28.60000 436.334
28.61000 428.800
28.62000 424.228
28.63000 430.558
28.64000 437.899
28.65000 443.237
28.66000 428.456
28.67000 416.323
28.68000 410.374
28.69000 415.288
28.70000 420.405
28.71000 424.271
28.72000 426.645
28.73000 429.012
28.74000 428.742
28.75000 426.410
28.76000 424.206
28.77000 427.707
28.78000 434.271
28.79000 440.195
28.80000 434.511
28.81000 424.509
28.82000 415.251
28.83000 414.369
28.84000 415.503
28.85000 415.843
28.86000 411.295
28.87000 405.912
28.88000 403.380
28.89000 412.507
28.90000 422.885
28.91000 430.653
28.92000 428.974
28.93000 427.224
28.94000 421.648
28.95000 408.631
28.96000 395.422
28.97000 390.786
28.98000 397.562
28.99000 404.391
29.00000 408.797
29.01000 411.068
29.02000 413.409
29.03000 420.156
29.04000 429.523
29.05000 438.438
29.06000 437.282
29.07000 431.984
29.08000 427.022
29.09000 423.744
29.10000 421.199
29.11000 419.573
29.12000 424.340
29.13000 430.334
29.14000 434.957
29.15000 433.337
29.16000 430.949
29.17000 429.112
29.18000 421.146
29.19000 414.498
29.20000 413.518
29.21000 424.739
29.22000 436.373
29.23000 440.609
29.24000 433.888
29.25000 427.066
29.26000 424.387
29.27000 425.799
29.28000 427.174
29.29000 424.842
29.30000 420.063
29.31000 415.485
29.32000 416.514
29.33000 420.093
29.34000 423.482
29.35000 417.995
29.36000 410.374
29.37000 403.640
29.38000 403.911
29.39000 405.684
29.40000 406.907
29.41000 405.333
29.42000 403.367
29.43000 401.816
29.44000 410.384
29.45000 417.939
29.46000 423.214
29.47000 423.067
29.48000 422.688
29.49000 420.778
29.50000 416.351
29.51000 411.887
29.52000 409.539
29.53000 399.701
29.54000 393.082
29.55000 396.313
29.56000 406.775
29.57000 416.951
29.58000 416.678
29.59000 411.151
29.60000 405.866
29.61000 409.444
29.62000 415.646
29.63000 420.512
29.64000 413.289
29.65000 403.176
29.66000 394.021
29.67000 390.332
29.68000 387.507
29.69000 385.226
29.70000 402.368
29.71000 417.847
29.72000 428.157
29.73000 424.861
29.74000 420.846
29.75000 420.892
29.76000 428.340
29.77000 435.943
29.78000 440.159
29.79000 431.759
29.80000 425.938
29.81000 422.273
29.82000 420.373
29.83000 418.569
29.84000 421.569
29.85000 427.243
29.86000 432.715
29.87000 429.934
29.88000 424.326
29.89000 420.329
29.90000 433.133
29.91000 450.402
29.92000 463.664
29.93000 451.181
29.94000 434.111
29.95000 420.020
29.96000 434.620
29.97000 449.314
29.98000 459.486
29.99000 456.499
30.00000 452.671
30.01000 450.740
30.02000 452.637
30.03000 454.644
30.04000 455.811
30.05000 454.841
30.06000 454.150
30.07000 452.791
30.08000 450.820
30.09000 448.846
30.10000 446.565
30.11000 444.095
30.12000 441.695
30.13000 439.617
30.14000 437.773
30.15000 436.132
30.16000 436.964
30.17000 438.524
30.18000 440.035
30.19000 441.188
30.20000 442.270
30.21000 443.181
30.22000 442.088
30.23000 440.961
30.24000 440.359
30.25000 441.451
30.26000 442.671
30.27000 441.588
30.28000 435.367
30.29000 428.956
30.30000 425.055
30.31000 428.789
30.32000 431.516
30.33000 430.391
30.34000 425.300
30.35000 420.252
30.36000 420.309
30.37000 423.866
30.38000 427.345
30.39000 431.915
30.40000 436.794
30.41000 441.354
30.42000 441.337
30.43000 439.826
30.44000 438.178
30.45000 435.400
30.46000 432.371
30.47000 429.769
30.48000 438.087
30.49000 446.472
30.50000 452.367
30.51000 449.369
30.52000 445.580
30.53000 442.715
30.54000 442.131
30.55000 441.652
30.56000 441.348
30.57000 445.580
30.58000 448.707
30.59000 452.555
30.60000 457.238
30.61000 461.899
30.62000 461.322
30.63000 456.749
30.64000 452.248
30.65000 450.938
30.66000 451.280
30.67000 451.693
30.68000 453.315
30.69000 455.375
30.70000 457.688
30.71000 462.402
30.72000 467.714
30.73000 472.355
30.74000 471.950
30.75000 470.888
30.76000 470.141
30.77000 470.643
30.78000 471.273
30.79000 472.198
30.80000 473.931
30.81000 475.710
30.82000 476.882
30.83000 481.566
30.84000 485.079
30.85000 492.255
30.86000 504.157
30.87000 516.073
30.88000 524.328
30.89000 529.465
30.90000 534.544
30.91000 536.692
30.92000 537.136
30.93000 537.942
30.94000 546.342
30.95000 557.776
30.96000 569.181
30.97000 580.268
30.98000 591.267
30.99000 601.038
31.00000 613.912
31.01000 625.577
31.02000 640.962
31.03000 672.772
31.04000 706.528
31.05000 738.012
31.06000 762.641
31.07000 786.804
31.08000 803.312
31.09000 834.631
31.10000 858.409
31.11000 897.655
31.12000 959.132
31.13000 1020.785
31.14000 1089.843
31.15000 1165.974
31.16000 1241.562
31.17000 1308.779
31.18000 1369.644
31.19000 1431.900
31.20000 1530.541
31.21000 1645.261
31.22000 1761.157
31.23000 1892.183
31.24000 2027.836
31.25000 2150.186
31.26000 2268.360
31.27000 2371.366
31.28000 2476.733
31.29000 2593.743
31.30000 2712.324
31.31000 2823.934
31.32000 2912.237
31.33000 2998.666
31.34000 3059.715
31.35000 3149.680
31.36000 3218.858
31.37000 3284.236
31.38000 3343.546
31.39000 3402.777
31.40000 3425.377
31.41000 3408.647
31.42000 3391.973
31.43000 3346.380
31.44000 3280.838
31.45000 3214.568
31.46000 3123.760
31.47000 3020.961
31.48000 2918.582
31.49000 2822.625
31.50000 2728.843
31.51000 2643.071
31.52000 2509.011
31.53000 2379.897
31.54000 2254.827
31.55000 2152.083
31.56000 2052.754
31.57000 1947.845
31.58000 1822.249
31.59000 1694.711
31.60000 1601.788
31.61000 1502.322
31.62000 1425.471
31.63000 1347.039
31.64000 1265.812
31.65000 1184.531
31.66000 1111.388
31.67000 1048.028
31.68000 984.804
31.69000 934.955
31.70000 895.900
31.71000 856.976
31.72000 824.022
31.73000 794.297
31.74000 764.705
31.75000 737.565
31.76000 711.342
31.77000 687.050
31.78000 665.062
31.79000 645.815
31.80000 627.294
31.81000 613.276
31.82000 600.034
31.83000 587.546
31.84000 578.169
31.85000 569.129
31.86000 562.349
31.87000 557.395
31.88000 553.613
31.89000 546.706
31.90000 533.679
31.91000 520.491
31.92000 507.559
31.93000 494.971
31.94000 482.391
31.95000 477.643
31.96000 479.837
31.97000 481.966
31.98000 479.850
31.99000 475.188
32.00000 470.372
32.01000 462.040
32.02000 452.252
32.03000 443.078
32.04000 439.020
32.05000 436.659
32.06000 434.568
32.07000 434.370
32.08000 434.538
32.09000 434.201
32.10000 431.544
32.11000 428.600
32.12000 426.331
32.13000 430.601
32.14000 434.356
32.15000 435.855
32.16000 432.462
32.17000 428.902
32.18000 428.469
32.19000 432.706
32.20000 436.988
32.21000 437.388
32.22000 433.924
32.23000 430.451
32.24000 426.220
32.25000 421.484
32.26000 417.085
32.27000 422.272
32.28000 431.851
32.29000 440.926
32.30000 433.533
32.31000 421.915
32.32000 411.014
32.33000 405.831
32.34000 401.885
32.35000 398.748
32.36000 399.758
32.37000 401.355
32.38000 402.617
32.39000 408.224
32.40000 413.023
32.41000 412.976
32.42000 401.314
32.43000 389.147
32.44000 383.465
32.45000 388.529
32.46000 393.754
32.47000 396.514
32.48000 398.780
32.49000 400.282
32.50000 395.210
32.51000 385.274
32.52000 375.430
32.53000 369.035
32.54000 364.388
32.55000 359.942
32.56000 365.056
32.57000 372.943
32.58000 380.781
32.59000 388.171
32.60000 395.453
32.61000 401.197
32.62000 398.092
32.63000 393.572
32.64000 389.917
32.65000 388.508
32.66000 387.542
32.67000 388.207
32.68000 393.194
32.69000 398.412
32.70000 400.790
32.71000 397.953
32.72000 395.004
32.73000 393.363
32.74000 397.704
32.75000 400.714
32.76000 401.707
32.77000 401.036
32.78000 400.391
32.79000 401.062
32.80000 402.471
32.81000 403.831
32.82000 403.323
32.83000 402.164
32.84000 401.439
32.85000 405.303
32.86000 410.395
32.87000 414.398
32.88000 411.336
32.89000 407.004
32.90000 403.423
32.91000 405.776
32.92000 408.273
32.93000 408.610
32.94000 402.612
32.95000 396.204
32.96000 392.657
32.97000 394.922
32.98000 397.356
32.99000 398.778
33.00000 403.807
33.01000 407.360
33.02000 404.683
33.03000 396.252
33.04000 387.915
33.05000 386.637
33.06000 389.750
33.07000 392.777
33.08000 387.239
33.09000 378.476
33.10000 370.388
33.11000 370.612
33.12000 373.305
33.13000 375.466
33.14000 373.726
33.15000 371.201
33.16000 369.071
33.17000 365.084
33.18000 361.552
33.19000 359.008
33.20000 359.676
33.21000 360.590
33.22000 361.446
33.23000 362.173
33.24000 362.895
33.25000 363.336
33.26000 363.977
33.27000 364.438
33.28000 362.688
33.29000 358.644
33.30000 354.620
33.31000 353.168
33.32000 353.493
33.33000 353.811
33.34000 352.797
33.35000 351.217
33.36000 349.606
33.37000 347.546
33.38000 345.338
33.39000 343.704
33.40000 346.875
33.41000 351.125
33.42000 354.779
33.43000 352.073
33.44000 348.988
33.45000 346.290
33.46000 344.984
33.47000 343.803
33.48000 343.609
33.49000 345.866
33.50000 348.239
33.51000 349.748
33.52000 354.560
33.53000 358.097
33.54000 358.989
33.55000 356.800
33.56000 354.611
33.57000 353.570
33.58000 353.410
33.59000 353.254
33.60000 351.739
33.61000 349.580
33.62000 347.093
33.63000 338.901
33.64000 328.631
33.65000 319.961
33.66000 326.646
33.67000 337.174
33.68000 346.386
33.69000 351.989
33.70000 356.277
33.71000 357.007
33.72000 343.517
33.73000 328.547
33.74000 319.995
33.75000 329.080
33.76000 339.179
33.77000 345.854
33.78000 350.348
33.79000 353.625
33.80000 356.977
33.81000 360.427
33.82000 363.867
33.83000 359.496
33.84000 348.418
33.85000 337.459
33.86000 338.375
33.87000 346.021
33.88000 353.459
33.89000 356.476
33.90000 357.714
33.91000 358.401
33.92000 352.968
33.93000 345.835
33.94000 339.490
33.95000 337.940
33.96000 337.374
33.97000 336.654
33.98000 335.250
33.99000 333.765
34.00000 333.790
34.01000 338.410
34.02000 343.347
34.03000 346.728
34.04000 353.216
34.05000 358.149
34.06000 356.986
34.07000 346.995
34.08000 336.931
34.09000 332.023
34.10000 332.082
34.11000 332.140
34.12000 337.856
34.13000 347.079
34.14000 356.077
34.15000 359.087
34.16000 359.431
34.17000 359.263
34.18000 352.421
34.19000 343.523
34.20000 335.489
34.21000 333.640
34.22000 333.152
34.23000 334.090
34.24000 342.104
34.25000 351.083
34.26000 356.277
34.27000 348.724
34.28000 340.135
34.29000 334.054
34.30000 337.935
34.31000 341.193
34.32000 342.054
34.33000 339.059
34.34000 336.012
34.35000 334.984
34.36000 336.141
34.37000 337.295
34.38000 336.858
34.39000 335.294
34.40000 333.719
34.41000 331.733
34.42000 329.546
34.43000 327.239
34.44000 323.086
34.45000 318.304
34.46000 313.925
34.47000 321.889
34.48000 331.539
34.49000 340.154
34.50000 343.012
34.51000 344.981
34.52000 345.514
34.53000 340.681
34.54000 335.339
34.55000 331.439
34.56000 337.137
34.57000 341.904
34.58000 342.997
34.59000 337.539
34.60000 331.951
34.61000 330.031
34.62000 332.555
34.63000 335.084
34.64000 337.343
34.65000 339.377
34.66000 341.303
34.67000 338.175
34.68000 332.295
34.69000 326.320
34.70000 318.586
34.71000 310.188
34.72000 302.402
34.73000 301.328
34.74000 301.932
34.75000 303.271
34.76000 309.216
34.77000 315.961
34.78000 320.935
34.79000 318.553
34.80000 315.367
34.81000 312.972
34.82000 311.078
34.83000 309.622
34.84000 310.150
34.85000 314.595
34.86000 319.145
34.87000 324.283
34.88000 330.215
34.89000 336.149
34.90000 338.150
34.91000 336.635
34.92000 335.162
34.93000 336.450
34.94000 339.407
34.95000 342.047
34.96000 337.429
34.97000 329.782
34.98000 322.609
34.99000 321.473
35.00000 322.025
35.01000 322.522
35.02000 322.630
35.03000 322.661
35.04000 322.719
35.05000 322.896
35.06000 323.087
35.07000 323.235
35.08000 318.325
35.09000 314.139
35.10000 315.781
35.11000 330.146
35.12000 344.958
35.13000 347.809
35.14000 332.670
35.15000 317.353
35.16000 309.678
35.17000 313.159
35.18000 315.490
35.19000 318.686
35.20000 322.460
35.21000 325.938
35.22000 320.774
35.23000 311.623
35.24000 302.948
35.25000 308.478
35.26000 317.757
35.27000 325.328
35.28000 319.138
35.29000 309.951
35.30000 302.620
35.31000 304.891
35.32000 308.531
35.33000 311.412
35.34000 316.461
35.35000 320.668
35.36000 320.005
35.37000 307.587
35.38000 294.648
35.39000 291.585
35.40000 305.003
35.41000 318.677
35.42000 325.927
35.43000 312.604
35.44000 303.578
35.45000 303.349
35.46000 309.677
35.47000 315.960
35.48000 320.495
35.49000 324.139
35.50000 327.626
35.51000 322.234
35.52000 314.282
35.53000 307.379
35.54000 310.139
35.55000 315.245
35.56000 319.015
35.57000 315.031
35.58000 309.798
35.59000 305.559
35.60000 303.527
35.61000 302.052
35.62000 302.984
35.63000 310.338
35.64000 318.042
35.65000 321.243
35.66000 316.119
35.67000 310.811
35.68000 307.846
35.69000 311.564
35.70000 314.142
35.71000 311.168
35.72000 303.577
35.73000 296.106
35.74000 294.931
35.75000 297.315
35.76000 299.615
35.77000 301.655
35.78000 303.481
35.79000 305.270
35.80000 306.673
35.81000 307.972
35.82000 309.283
35.83000 310.668
35.84000 312.067
35.85000 313.225
35.86000 303.257
35.87000 293.974
35.88000 289.311
35.89000 298.295
35.90000 308.174
35.91000 314.462
35.92000 313.401
35.93000 312.122
35.94000 311.373
35.95000 315.362
35.96000 318.193
35.97000 318.557
35.98000 316.624
35.99000 314.678
36.00000 311.763
36.01000 308.242
36.02000 304.817
36.03000 301.066
36.04000 297.362
36.05000 294.199
36.06000 297.766
36.07000 303.346
36.08000 308.153
36.09000 307.229
36.10000 305.142
36.11000 303.379
36.12000 299.422
36.13000 295.873
36.14000 294.984
36.15000 302.794
36.16000 311.280
36.17000 316.070
36.18000 312.494
36.19000 308.600
36.20000 306.214
36.21000 310.536
36.22000 313.687
36.23000 312.937
36.24000 308.101
36.25000 303.276
36.26000 299.799
36.27000 297.262
36.28000 294.778
36.29000 296.458
36.30000 299.988
36.31000 303.390
36.32000 304.915
36.33000 305.819
36.34000 306.366
36.35000 303.906
36.36000 300.763
36.37000 298.058
36.38000 298.140
36.39000 298.561
36.40000 299.403
36.41000 301.773
36.42000 304.282
36.43000 306.350
36.44000 307.314
36.45000 308.225
36.46000 308.806
36.47000 299.605
36.48000 292.786
36.49000 290.260
36.50000 292.775
36.51000 295.296
36.52000 297.501
36.53000 299.460
36.54000 301.389
36.55000 301.614
36.56000 300.957
36.57000 300.395
36.58000 301.513
36.59000 303.247
36.60000 304.736
36.61000 303.861
36.62000 302.389
36.63000 301.100
36.64000 303.225
36.65000 305.540
36.66000 307.207
36.67000 306.260
36.68000 305.039
36.69000 304.827
36.70000 307.412
36.71000 310.159
36.72000 311.979
36.73000 314.110
36.74000 315.690
36.75000 314.182
36.76000 308.626
36.77000 303.062
36.78000 304.917
36.79000 313.194
36.80000 321.384
36.81000 320.696
36.82000 314.935
36.83000 309.290
36.84000 306.165
36.85000 304.060
36.86000 302.001
36.87000 300.448
36.88000 299.036
36.89000 297.780
36.90000 297.167
36.91000 296.740
36.92000 296.446
36.93000 296.749
36.94000 297.124
36.95000 297.550
36.96000 298.130
36.97000 298.721
36.98000 299.126
36.99000 300.900
37.00000 302.263
37.01000 303.285
37.02000 303.809
37.03000 304.328
37.04000 302.643
37.05000 298.815
37.06000 295.013
37.07000 294.935
37.08000 297.242
37.09000 299.541
37.10000 301.597
37.11000 303.543
37.12000 305.348
37.13000 305.276
37.14000 304.623
37.15000 304.033
37.16000 302.991
37.17000 301.991
37.18000 301.197
37.19000 301.436
37.20000 301.817
37.21000 303.135
37.22000 307.635
37.23000 312.397
37.24000 315.775
37.25000 303.594
37.26000 293.836
37.27000 288.013
37.28000 288.566
37.29000 289.206
37.30000 292.943
37.31000 300.058
37.32000 307.148
37.33000 304.866
37.34000 295.887
37.35000 287.123
37.36000 285.866
37.37000 288.332
37.38000 290.799
37.39000 293.281
37.40000 295.768
37.41000 298.047
37.42000 289.951
37.43000 280.566
37.44000 273.342
37.45000 278.239
37.46000 285.024
37.47000 290.339
37.48000 290.126
37.49000 289.382
37.50000 288.838
37.51000 285.578
37.52000 282.954
37.53000 283.031
37.54000 287.958
37.55000 292.982
37.56000 295.694
37.57000 295.583
37.58000 295.464
37.59000 297.888
37.60000 302.342
37.61000 306.740
37.62000 308.469
37.63000 308.734
37.64000 309.041
37.65000 310.149
37.66000 311.563
37.67000 312.875
37.68000 309.989
37.69000 306.397
37.70000 302.821
37.71000 299.348
37.72000 295.893
37.73000 292.626
37.74000 290.150
37.75000 287.761
37.76000 285.962
37.77000 294.295
37.78000 301.310
37.79000 303.401
37.80000 295.701
37.81000 287.732
37.82000 283.073
37.83000 282.921
37.84000 282.796
37.85000 284.695
37.86000 288.414
37.87000 292.075
37.88000 291.767
37.89000 289.045
37.90000 286.531
37.91000 288.877
37.92000 293.266
37.93000 297.386
37.94000 293.674
37.95000 288.215
37.96000 284.211
37.97000 290.605
37.98000 299.041
37.99000 306.397
38.00000 308.708
38.01000 310.381
38.02000 311.674
38.03000 305.731
38.04000 300.590
38.05000 298.064
38.06000 301.290
38.07000 304.721
38.08000 303.098
38.09000 293.817
38.10000 284.458
38.11000 279.748
38.12000 282.515
38.13000 284.362
38.14000 285.987
38.15000 287.463
38.16000 289.138
38.17000 296.734
38.18000 307.081
38.19000 316.897
38.20000 321.430
38.21000 324.042
38.22000 325.785
38.23000 320.471
38.24000 313.606
38.25000 308.241
38.26000 310.691
38.27000 314.266
38.28000 317.100
38.29000 319.820
38.30000 321.998
38.31000 325.379
38.32000 331.683
38.33000 338.118
38.34000 342.081
38.35000 341.890
38.36000 341.632
38.37000 341.495
38.38000 360.313
38.39000 373.114
38.40000 381.003
38.41000 385.203
38.42000 389.418
38.43000 394.252
38.44000 399.404
38.45000 404.338
38.46000 418.562
38.47000 434.913
38.48000 451.493
38.49000 470.202
38.50000 489.432
38.51000 509.115
38.52000 531.452
38.53000 554.221
38.54000 572.696
38.55000 606.214
38.56000 634.776
38.57000 664.147
38.58000 695.692
38.59000 727.356
38.60000 759.635
38.61000 793.056
38.62000 826.503
38.63000 845.249
38.64000 895.634
38.65000 930.613
38.66000 952.604
38.67000 963.706
38.68000 974.950
38.69000 993.844
38.70000 1017.093
38.71000 1039.550
38.72000 1037.786
38.73000 1027.128
38.74000 1017.771
38.75000 1022.430
38.76000 1030.898
38.77000 1034.681
38.78000 1007.556
38.79000 974.785
38.80000 947.613
38.81000 931.484
38.82000 919.221
38.83000 900.996
38.84000 865.036
38.85000 827.899
38.86000 793.634
38.87000 765.288
38.88000 737.121
38.89000 720.565
38.90000 680.476
38.91000 652.088
38.92000 624.782
38.93000 598.494
38.94000 572.297
38.95000 553.396
38.96000 539.102
38.97000 525.190
38.98000 498.581
38.99000 467.976
39.00000 438.283
39.01000 420.080
39.02000 405.340
39.03000 391.725
39.04000 386.524
39.05000 383.044
39.06000 380.100
39.07000 369.332
39.08000 359.450
39.09000 348.768
39.10000 335.445
39.11000 321.916
39.12000 314.156
39.13000 319.550
39.14000 325.455
39.15000 329.083
39.16000 318.861
39.17000 311.414
39.18000 305.999
39.19000 302.731
39.20000 299.457
39.21000 295.224
39.22000 290.320
39.23000 285.516
39.24000 289.922
39.25000 298.427
39.26000 306.231
39.27000 303.616
39.28000 297.523
39.29000 291.885
39.30000 290.132
39.31000 289.266
39.32000 288.519
39.33000 291.316
39.34000 294.139
39.35000 295.477
39.36000 291.391
39.37000 286.806
39.38000 282.616
39.39000 279.422
39.40000 276.276
39.41000 274.263
39.42000 282.411
39.43000 288.478
39.44000 289.362
39.45000 284.112
39.46000 278.871
39.47000 278.956
39.48000 283.202
39.49000 287.385
39.50000 285.926
39.51000 281.594
39.52000 277.206
39.53000 271.824
39.54000 266.077
39.55000 261.610
39.56000 269.709
39.57000 280.998
39.58000 290.901
39.59000 287.546
39.60000 282.735
39.61000 278.378
39.62000 275.868
39.63000 273.555
39.64000 273.438
39.65000 279.445
39.66000 285.814
39.67000 290.046
39.68000 287.338
39.69000 285.206
39.70000 284.471
39.71000 285.579
39.72000 286.691
39.73000 283.277
39.74000 275.912
39.75000 268.621
39.76000 268.316
39.77000 272.053
39.78000 275.607
39.79000 275.133
39.80000 273.013
39.81000 271.141
39.82000 272.078
39.83000 273.807
39.84000 275.348
39.85000 268.440
39.86000 261.035
39.87000 255.816
39.88000 260.481
39.89000 266.351
39.90000 270.946
39.91000 271.606
39.92000 271.988
39.93000 272.251
39.94000 267.583
39.95000 263.957
39.96000 263.840
39.97000 268.882
39.98000 273.970
39.99000 272.793
40.00000 265.479
40.01000 258.212
40.02000 256.708
40.03000 258.947
40.04000 261.198
40.05000 263.791
40.06000 266.539
40.07000 269.069
40.08000 268.698
40.09000 267.421
40.10000 266.265
40.11000 265.201
40.12000 264.281
40.13000 262.945
40.14000 259.507
40.15000 255.777
40.16000 254.322
40.17000 260.639
40.18000 267.603
40.19000 272.555
40.20000 266.465
40.21000 261.473
40.22000 258.077
40.23000 257.287
40.24000 256.535
40.25000 256.767
40.26000 258.083
40.27000 259.395
40.28000 260.477
40.29000 261.385
40.30000 262.214
40.31000 260.199
40.32000 256.765
40.33000 253.511
40.34000 253.120
40.35000 253.719
40.36000 254.268
40.37000 260.402
40.38000 267.049
40.39000 272.272
40.40000 269.442
40.41000 265.347
40.42000 262.323
40.43000 263.358
40.44000 264.786
40.45000 265.833
40.46000 265.824
40.47000 265.775
40.48000 262.798
40.49000 254.526
40.50000 246.144
40.51000 244.829
40.52000 252.216
40.53000 259.615
40.54000 259.856
40.55000 254.303
40.56000 248.939
40.57000 252.775
40.58000 261.698
40.59000 270.069
40.60000 267.838
40.61000 261.548
40.62000 255.706
40.63000 252.647
40.64000 250.549
40.65000 248.390
40.66000 245.831
40.67000 243.201
40.68000 241.591
40.69000 244.276
40.70000 247.441
40.71000 249.829
40.72000 255.690
40.73000 260.453
40.74000 262.284
40.75000 258.244
40.76000 254.039
40.77000 254.052
40.78000 259.854
40.79000 265.690
40.80000 263.281
40.81000 253.385
40.82000 243.610
40.83000 242.291
40.84000 246.152
40.85000 250.023
40.86000 254.103
40.87000 258.272
40.88000 262.189
40.89000 257.646
40.90000 251.242
40.91000 245.682
40.92000 246.210
40.93000 247.944
40.94000 249.624
40.95000 251.048
40.96000 252.440
40.97000 253.518
40.98000 250.410
40.99000 247.692
41.00000 246.449
41.01000 248.474
41.02000 250.617
41.03000 253.805
41.04000 258.586
41.05000 263.385
41.06000 265.810
41.07000 262.476
41.08000 260.251
41.09000 258.673
41.10000 257.536
41.11000 256.399
41.12000 255.248
41.13000 254.092
41.14000 252.994
41.15000 255.521
41.16000 258.937
41.17000 261.528
41.18000 257.347
41.19000 251.668
41.20000 246.123
41.21000 241.289
41.22000 236.558
41.23000 232.801
41.24000 232.789
41.25000 233.045
41.26000 236.416
41.27000 247.413
41.28000 258.759
41.29000 262.616
41.30000 253.789
41.31000 244.754
41.32000 239.926
41.33000 244.433
41.34000 247.505
41.35000 248.740
41.36000 248.583
41.37000 248.449
41.38000 249.200
41.39000 250.410
41.40000 251.569
41.41000 252.691
41.42000 253.727
41.43000 254.370
41.44000 251.323
41.45000 247.368
41.46000 244.238
41.47000 245.986
41.48000 248.532
41.49000 250.602
41.50000 246.255
41.51000 242.174
41.52000 240.027
41.53000 243.121
41.54000 246.507
41.55000 250.348
41.56000 255.045
41.57000 259.760
41.58000 262.413
41.59000 250.494
41.60000 242.195
41.61000 240.601
41.62000 244.673
41.63000 248.680
41.64000 249.048
41.65000 247.331
41.66000 245.671
41.67000 242.305
41.68000 238.492
41.69000 234.796
41.70000 232.385
41.71000 230.324
41.72000 228.233
41.73000 225.934
41.74000 223.597
41.75000 221.656
41.76000 231.023
41.77000 239.866
41.78000 246.677
41.79000 247.398
41.80000 247.710
41.81000 245.513
41.82000 238.107
41.83000 230.541
41.84000 226.079
41.85000 243.007
41.86000 255.069
41.87000 257.584
41.88000 251.053
41.89000 244.576
41.90000 242.490
41.91000 243.197
41.92000 243.886
41.93000 241.052
41.94000 236.879
41.95000 232.859
41.96000 230.784
41.97000 229.299
41.98000 228.430
41.99000 232.209
42.00000 236.945
42.01000 240.958
42.02000 236.649
42.03000 232.106
42.04000 229.211
42.05000 231.786
42.06000 234.795
42.07000 235.967
42.08000 232.918
42.09000 229.702
42.10000 227.721
42.11000 236.373
42.12000 242.677
42.13000 242.676
42.14000 235.960
42.15000 229.293
42.16000 229.602
42.17000 234.841
42.18000 239.975
42.19000 236.112
42.20000 228.193
42.21000 221.125
42.22000 226.897
42.23000 236.986
42.24000 245.906
42.25000 244.765
42.26000 241.308
42.27000 238.325
42.28000 242.767
42.29000 247.493
42.30000 251.308
42.31000 251.774
42.32000 251.929
42.33000 251.775
42.34000 250.839
42.35000 249.864
42.36000 249.239
42.37000 239.856
42.38000 232.897
42.39000 230.028
42.40000 232.039
42.41000 234.070
42.42000 239.150
42.43000 246.631
42.44000 254.003
42.45000 255.920
42.46000 254.936
42.47000 253.682
42.48000 247.520
42.49000 239.533
42.50000 231.848
42.51000 227.166
42.52000 223.253
42.53000 219.816
42.54000 225.005
42.55000 230.733
42.56000 235.729
42.57000 237.736
42.58000 239.422
42.59000 240.230
42.60000 238.574
42.61000 236.771
42.62000 235.569
42.63000 241.979
42.64000 246.868
42.65000 248.157
42.66000 244.653
42.67000 241.126
42.68000 238.771
42.69000 237.446
42.70000 236.135
42.71000 237.665
42.72000 240.818
42.73000 243.775
42.74000 242.376
42.75000 239.185
42.76000 235.957
42.77000 232.304
42.78000 228.530
42.79000 225.162
42.80000 233.265
42.81000 242.233
42.82000 248.113
42.83000 239.928
42.84000 230.012
42.85000 223.388
42.86000 226.992
42.87000 231.327
42.88000 234.319
42.89000 227.166
42.90000 221.535
42.91000 219.846
42.92000 223.996
42.93000 228.201
42.94000 231.158
42.95000 232.884
42.96000 234.599
42.97000 234.526
42.98000 233.291
42.99000 232.081
43.00000 231.563
43.01000 231.361
43.02000 231.185
43.03000 231.372
43.04000 231.674
43.05000 231.946
43.06000 232.054
43.07000 232.117
43.08000 231.716
43.09000 228.955
43.10000 225.864
43.11000 223.888
43.12000 225.751
43.13000 227.937
43.14000 229.495
43.15000 229.042
43.16000 228.631
43.17000 228.255
43.18000 227.938
43.19000 227.622
43.20000 228.811
43.21000 231.671
43.22000 234.523
43.23000 235.976
43.24000 236.398
43.25000 236.754
43.26000 234.691
43.27000 231.410
43.28000 228.404
43.29000 229.835
43.30000 232.812
43.31000 235.544
43.32000 236.222
43.33000 236.388
43.34000 235.922
43.35000 231.848
43.36000 227.202
43.37000 223.663
43.38000 224.354
43.39000 225.460
43.40000 226.272
43.41000 230.311
43.42000 233.566
43.43000 237.151
43.44000 241.338
43.45000 245.538
43.46000 243.814
43.47000 234.739
43.48000 225.655
43.49000 221.748
43.50000 222.080
43.51000 222.404
43.52000 222.339
43.53000 222.057
43.54000 221.825
43.55000 222.558
43.56000 223.662
43.57000 224.689
43.58000 229.962
43.59000 235.741
43.60000 239.916
43.61000 233.785
43.62000 225.817
43.63000 219.824
43.64000 222.218
43.65000 225.559
43.66000 228.084
43.67000 223.756
43.68000 220.019
43.69000 217.705
43.70000 218.263
43.71000 218.903
43.72000 220.598
43.73000 223.752
43.74000 226.915
43.75000 227.853
43.76000 226.752
43.77000 225.655
43.78000 224.858
43.79000 224.246
43.80000 223.626
43.81000 222.807
43.82000 221.903
43.83000 221.053
43.84000 224.116
43.85000 227.966
43.86000 231.693
43.87000 234.521
43.88000 237.169
43.89000 238.756
43.90000 235.311
43.91000 231.218
43.92000 228.041
43.93000 234.911
43.94000 240.980
43.95000 244.173
43.96000 240.949
43.97000 237.488
43.98000 234.408
43.99000 231.913
44.00000 229.425
44.01000 228.162
44.02000 230.952
44.03000 232.787
44.04000 230.577
44.05000 225.595
44.06000 220.750
44.07000 220.112
44.08000 221.457
44.09000 222.735
44.10000 223.187
44.11000 223.356
44.12000 223.630
44.13000 224.784
44.14000 226.133
44.15000 227.287
44.16000 227.404
44.17000 227.370
44.18000 227.343
44.19000 226.070
44.20000 224.954
44.21000 223.834
44.22000 222.701
44.23000 221.568
44.24000 222.574
44.25000 227.230
44.26000 231.948
44.27000 234.479
44.28000 224.162
44.29000 217.140
44.30000 217.511
44.31000 223.523
44.32000 229.403
44.33000 229.923
44.34000 227.648
44.35000 225.465
44.36000 224.820
44.37000 224.737
44.38000 225.051
44.39000 229.137
44.40000 234.161
44.41000 237.710
44.42000 232.487
44.43000 225.815
44.44000 220.383
44.45000 223.892
44.46000 227.511
44.47000 229.354
44.48000 226.349
44.49000 223.070
44.50000 221.249
44.51000 222.183
44.52000 223.182
44.53000 223.746
44.54000 237.583
44.55000 247.227
44.56000 251.351
44.57000 250.772
44.58000 250.224
44.59000 251.426
44.60000 253.639
44.61000 255.779
44.62000 254.864
44.63000 252.847
44.64000 251.345
44.65000 255.517
44.66000 261.254
44.67000 265.569
44.68000 260.338
44.69000 253.333
44.70000 247.508
44.71000 246.951
44.72000 247.006
44.73000 248.156
44.74000 252.609
44.75000 257.286
44.76000 261.064
44.77000 262.962
44.78000 264.800
44.79000 265.888
44.80000 270.669
44.81000 274.068
44.82000 278.037
44.83000 282.548
44.84000 287.080
44.85000 293.267
44.86000 300.516
44.87000 307.577
44.88000 313.417
44.89000 318.472
44.90000 323.669
44.91000 330.709
44.92000 338.311
44.93000 345.939
44.94000 353.753
44.95000 361.606
44.96000 368.268
44.97000 366.197
44.98000 363.471
44.99000 361.678
45.00000 363.000
45.01000 364.573
45.02000 367.636
45.03000 374.144
45.04000 380.791
45.05000 384.898
45.06000 398.081
45.07000 407.636
45.08000 411.098
45.09000 408.019
45.10000 404.965
45.11000 405.906
45.12000 409.690
45.13000 413.401
45.14000 411.913
45.15000 408.034
45.16000 404.317
45.17000 403.079
45.18000 402.680
45.19000 401.306
45.20000 391.457
45.21000 379.644
45.22000 369.435
45.23000 378.961
45.24000 389.617
45.25000 396.627
45.26000 390.120
45.27000 382.344
45.28000 374.174
45.29000 364.999
45.30000 355.774
45.31000 349.839
45.32000 341.602
45.33000 335.559
45.34000 333.030
45.35000 334.728
45.36000 336.423
45.37000 334.771
45.38000 330.462
45.39000 326.214
45.40000 319.999
45.41000 312.926
45.42000 306.033
45.43000 302.433
45.44000 300.066
45.45000 297.884
45.46000 297.547
45.47000 297.686
45.48000 297.809
45.49000 292.301
45.50000 286.727
45.51000 281.562
45.52000 278.083
45.53000 274.786
45.54000 272.062
45.55000 270.956
45.56000 269.948
45.57000 269.275
45.58000 272.266
45.59000 274.554
45.60000 274.164
45.61000 270.180
45.62000 266.180
45.63000 264.354
45.64000 264.458
45.65000 264.561
45.66000 264.188
45.67000 263.544
45.68000 262.754
45.69000 258.673
45.70000 253.229
45.71000 248.059
45.72000 246.078
45.73000 245.009
45.74000 244.055
45.75000 245.330
45.76000 246.816
45.77000 247.973
45.78000 247.620
45.79000 247.080
45.80000 244.711
45.81000 236.621
45.82000 228.116
45.83000 222.234
45.84000 223.772
45.85000 225.120
45.86000 228.126
45.87000 233.607
45.88000 239.112
45.89000 239.391
45.90000 234.465
45.91000 229.568
45.92000 225.998
45.93000 223.346
45.94000 220.839
45.95000 222.498
45.96000 226.064
45.97000 229.488
45.98000 230.964
45.99000 231.821
46.00000 232.599
46.01000 232.332
46.02000 231.897
46.03000 231.425
46.04000 230.767
46.05000 230.081
46.06000 229.082
46.07000 226.994
46.08000 224.813
46.09000 223.255
46.10000 219.250
46.11000 216.113
46.12000 213.464
46.13000 211.622
46.14000 209.794
46.15000 211.974
46.16000 218.640
46.17000 225.288
46.18000 225.460
46.19000 220.876
46.20000 216.316
46.21000 212.652
46.22000 209.442
46.23000 206.437
46.24000 206.761
46.25000 208.255
46.26000 209.628
46.27000 205.695
46.28000 201.043
46.29000 198.009
46.30000 204.293
46.31000 212.066
46.32000 218.746
46.33000 221.224
46.34000 223.286
46.35000 224.805
46.36000 220.804
46.37000 217.478
46.38000 212.852
46.39000 205.839
46.40000 198.774
46.41000 194.306
46.42000 193.087
46.43000 191.878
46.44000 196.436
46.45000 205.722
46.46000 214.822
46.47000 214.421
46.48000 208.690
46.49000 203.147
46.50000 201.312
46.51000 200.918
46.52000 200.551
46.53000 201.392
46.54000 202.443
46.55000 203.733
46.56000 206.574
46.57000 209.694
46.58000 210.687
46.59000 202.570
46.60000 193.414
46.61000 186.480
46.62000 193.675
46.63000 200.041
46.64000 203.733
46.65000 201.991
46.66000 200.092
46.67000 196.799
46.68000 191.565
46.69000 186.319
46.70000 184.765
46.71000 186.623
46.72000 188.481
46.73000 190.367
46.74000 192.270
46.75000 194.201
46.76000 196.825
46.77000 199.747
46.78000 202.496
46.79000 204.156
46.80000 205.378
46.81000 206.069
46.82000 202.863
46.83000 198.873
46.84000 195.346
46.85000 194.032
46.86000 193.006
46.87000 192.208
46.88000 198.372
46.89000 203.703
46.90000 206.711
46.91000 204.501
46.92000 202.094
46.93000 201.285
46.94000 202.951
46.95000 204.645
46.96000 205.508
46.97000 201.541
46.98000 198.881
46.99000 196.486
47.00000 194.273
47.01000 192.119
47.02000 191.846
47.03000 192.464
47.04000 193.053
47.05000 194.332
47.06000 195.724
47.07000 196.882
47.08000 196.080
47.09000 194.837
47.10000 193.789
47.11000 193.784
47.12000 193.933
47.13000 194.052
47.14000 195.676
47.15000 197.096
47.16000 196.969
47.17000 193.001
47.18000 188.852
47.19000 185.822
47.20000 184.714
47.21000 183.640
47.22000 183.062
47.23000 192.000
47.24000 198.101
47.25000 199.945
47.26000 198.514
47.27000 197.036
47.28000 193.605
47.29000 189.146
47.30000 184.868
47.31000 187.916
47.32000 193.257
47.33000 197.960
47.34000 196.526
47.35000 193.557
47.36000 190.363
47.37000 185.817
47.38000 181.046
47.39000 177.156
47.40000 178.563
47.41000 180.165
47.42000 181.190
47.43000 180.632
47.44000 179.983
47.45000 180.448
47.46000 183.037
47.47000 185.677
47.48000 187.172
47.49000 180.539
47.50000 175.906
47.51000 175.327
47.52000 178.232
47.53000 181.116
47.54000 182.839
47.55000 183.886
47.56000 184.899
47.57000 186.266
47.58000 187.692
47.59000 188.949
47.60000 188.332
47.61000 187.195
47.62000 186.191
47.63000 186.091
47.64000 186.160
47.65000 186.218
47.66000 187.538
47.67000 188.757
47.68000 189.023
47.69000 186.395
47.70000 183.567
47.71000 179.505
47.72000 172.843
47.73000 166.098
47.74000 162.094
47.75000 179.054
47.76000 191.176
47.77000 194.661
47.78000 189.829
47.79000 185.045
47.80000 184.521
47.81000 186.748
47.82000 188.919
47.83000 186.714
47.84000 182.751
47.85000 179.215
47.86000 181.248
47.87000 184.996
47.88000 188.550
47.89000 190.611
47.90000 192.360
47.91000 193.845
47.92000 191.099
47.93000 188.309
47.94000 185.981
47.95000 185.205
47.96000 184.556
47.97000 182.991
47.98000 179.295
47.99000 175.511
48.00000 173.166
48.01000 179.328
48.02000 183.842
48.03000 186.672
48.04000 187.677
48.05000 188.655
48.06000 185.461
48.07000 179.274
48.08000 173.206
48.09000 170.028
48.10000 168.339
48.11000 167.147
48.12000 173.662
48.13000 182.805
48.14000 190.918
48.15000 189.991
48.16000 186.952
48.17000 184.322
48.18000 183.074
48.19000 182.194
48.20000 182.191
48.21000 185.462
48.22000 189.044
48.23000 191.442
48.24000 190.789
48.25000 189.981
48.26000 189.460
48.27000 185.207
48.28000 182.046
48.29000 181.644
48.30000 184.588
48.31000 187.529
48.32000 187.085
48.33000 183.934
48.34000 180.826
48.35000 184.568
48.36000 191.833
48.37000 198.604
48.38000 196.138
48.39000 190.187
48.40000 184.647
48.41000 183.278
48.42000 182.992
48.43000 182.740
48.44000 181.472
48.45000 180.228
48.46000 179.464
48.47000 180.688
48.48000 182.130
48.49000 183.073
48.50000 182.595
48.51000 182.029
48.52000 181.650
48.53000 182.863
48.54000 183.795
48.55000 184.285
48.56000 184.180
48.57000 184.071
48.58000 183.102
48.59000 181.366
48.60000 179.645
48.61000 175.767
48.62000 170.690
48.63000 165.871
48.64000 166.962
48.65000 170.521
48.66000 174.035
48.67000 177.021
48.68000 179.856
48.69000 182.391
48.70000 183.353
48.71000 183.925
48.72000 184.357
48.73000 184.139
48.74000 183.841
48.75000 183.618
48.76000 183.635
48.77000 183.669
48.78000 183.693
48.79000 178.520
48.80000 174.487
48.81000 173.048
48.82000 175.508
48.83000 178.007
48.84000 180.434
48.85000 182.790
48.86000 185.132
48.87000 186.501
48.88000 187.209
48.89000 187.750
48.90000 183.476
48.91000 176.981
48.92000 170.816
48.93000 169.234
48.94000 169.116
48.95000 169.010
48.96000 171.665
48.97000 174.540
48.98000 177.695
48.99000 182.299
49.00000 187.109
49.01000 189.056
49.02000 180.998
49.03000 172.080
49.04000 165.694
49.05000 165.307
49.06000 165.215
49.07000 167.334
49.08000 173.146
49.09000 179.014
49.10000 183.550
49.11000 186.585
49.12000 189.610
49.13000 186.699
49.14000 179.417
49.15000 172.333
49.16000 172.748
49.17000 176.993
49.18000 181.082
49.19000 182.597
49.20000 183.203
49.21000 183.760
49.22000 179.049
49.23000 173.697
49.24000 169.236
49.25000 169.939
49.26000 171.474
49.27000 173.170
49.28000 175.487
49.29000 177.867
49.30000 179.623
49.31000 174.459
49.32000 170.166
49.33000 169.107
49.34000 174.028
49.35000 179.082
49.36000 181.538
49.37000 180.718
49.38000 179.889
49.39000 178.325
49.40000 176.157
49.41000 174.030
49.42000 174.052
49.43000 175.288
49.44000 176.520
49.45000 177.656
49.46000 178.756
49.47000 179.780
49.48000 180.052
49.49000 180.114
49.50000 180.449
49.51000 182.566
49.52000 185.007
49.53000 186.015
49.54000 180.842
49.55000 174.958
49.56000 170.492
49.57000 175.267
49.58000 179.494
49.59000 183.110
49.60000 185.476
49.61000 187.805
49.62000 187.463
49.63000 183.368
49.64000 179.248
49.65000 175.069
49.66000 170.836
49.67000 166.685
49.68000 168.894
49.69000 175.087
49.70000 181.118
49.71000 183.123
49.72000 183.387
49.73000 183.635
49.74000 182.432
49.75000 180.933
49.76000 179.148
49.77000 175.242
49.78000 170.905
49.79000 168.002
49.80000 172.007
49.81000 176.920
49.82000 180.746
49.83000 183.194
49.84000 185.059
49.85000 184.814
49.86000 179.795
49.87000 174.594
49.88000 171.203
49.89000 170.638
49.90000 170.107
49.91000 169.835
49.92000 172.357
49.93000 174.034
49.94000 173.614
49.95000 171.734
49.96000 170.010
49.97000 173.279
49.98000 178.937
49.99000 184.321
50.00000 182.170
50.01000 177.870
50.02000 174.253
50.03000 176.406
50.04000 179.867
50.05000 182.773
50.06000 182.697
50.07000 182.177
50.08000 181.761
50.09000 181.670
50.10000 181.619
50.11000 181.355
50.12000 180.555
50.13000 179.730
50.14000 179.613
50.15000 180.722
50.16000 181.853
50.17000 182.464
50.18000 177.745
50.19000 174.532
50.20000 177.141
50.21000 184.261
50.22000 191.289
50.23000 194.386
50.24000 195.401
50.25000 196.377
50.26000 192.390
50.27000 186.958
50.28000 181.907
50.29000 180.549
50.30000 180.121
50.31000 179.860
50.32000 180.606
50.33000 181.521
50.34000 182.268
50.35000 186.950
50.36000 191.120
50.37000 192.814
50.38000 187.652
50.39000 182.090
50.40000 181.541
50.41000 190.608
50.42000 199.911
50.43000 205.199
50.44000 194.159
50.45000 186.427
50.46000 186.043
50.47000 192.024
50.48000 197.987
50.49000 202.862
50.50000 207.099
50.51000 211.202
50.52000 210.457
50.53000 207.896
50.54000 205.804
50.55000 208.997
50.56000 213.670
50.57000 219.005
50.58000 228.860
50.59000 239.569
50.60000 248.502
50.61000 247.172
50.62000 245.043
50.63000 244.221
50.64000 247.404
50.65000 250.867
50.66000 251.043
50.67000 244.246
50.68000 237.221
50.69000 233.038
50.70000 245.589
50.71000 254.582
50.72000 259.430
50.73000 260.252
50.74000 261.042
50.75000 258.904
50.76000 254.863
50.77000 250.921
50.78000 252.385
50.79000 256.097
50.80000 259.317
50.81000 256.051
50.82000 250.771
50.83000 245.971
50.84000 244.888
50.85000 244.591
50.86000 244.338
50.87000 242.853
50.88000 241.463
50.89000 239.362
50.90000 234.848
50.91000 230.135
50.92000 226.655
50.93000 226.064
50.94000 225.593
50.95000 225.300
50.96000 221.629
50.97000 218.951
50.98000 215.764
50.99000 212.020
51.00000 208.299
51.01000 208.114
51.02000 210.487
51.03000 212.815
51.04000 209.340
51.05000 203.214
51.06000 197.169
51.07000 192.399
51.08000 188.066
51.09000 184.592
51.10000 188.727
51.11000 194.654
51.12000 199.790
51.13000 195.855
51.14000 191.305
51.15000 188.559
51.16000 192.606
51.17000 197.304
51.18000 198.673
51.19000 191.403
51.20000 183.688
51.21000 178.697
51.22000 178.539
51.23000 178.493
51.24000 176.776
51.25000 173.015
51.26000 169.263
51.27000 170.277
51.28000 175.133
51.29000 179.924
51.30000 182.363
51.31000 183.478
51.32000 184.324
51.33000 180.049
51.34000 173.827
51.35000 168.451
51.36000 171.712
51.37000 177.234
51.38000 182.100
51.39000 184.636
51.40000 186.471
51.41000 187.377
51.42000 184.400
51.43000 180.993
51.44000 178.113
51.45000 176.741
51.46000 175.463
51.47000 174.605
51.48000 174.148
51.49000 173.816
51.50000 173.693
51.51000 173.853
51.52000 174.016
51.53000 175.509
51.54000 178.201
51.55000 180.869
51.56000 176.415
51.57000 167.799
51.58000 159.533
51.59000 159.442
51.60000 162.786
51.61000 166.047
51.62000 168.298
51.63000 170.257
51.64000 172.011
51.65000 168.141
51.66000 163.798
51.67000 160.009
51.68000 158.805
51.69000 157.927
51.70000 158.550
51.71000 163.941
51.72000 169.685
51.73000 173.677
51.74000 164.958
51.75000 158.045
51.76000 155.179
51.77000 158.444
51.78000 161.773
51.79000 163.476
51.80000 163.532
51.81000 163.587
51.82000 164.012
51.83000 164.679
51.84000 165.403
51.85000 167.808
51.86000 170.996
51.87000 173.724
51.88000 170.032
51.89000 164.273
51.90000 159.041
51.91000 162.660
51.92000 167.574
51.93000 171.629
51.94000 171.208
51.95000 170.143
51.96000 169.064
51.97000 167.937
51.98000 166.805
51.99000 165.992
52.00000 160.767
52.01000 156.619
52.02000 154.999
52.03000 157.629
52.04000 160.326
52.05000 162.941
52.06000 165.460
52.07000 167.973
52.08000 169.247
52.09000 169.588
52.10000 169.897
52.11000 168.949
52.12000 167.355
52.13000 165.815
52.14000 165.189
52.15000 164.887
52.16000 164.610
52.17000 159.920
52.18000 154.761
52.19000 151.395
52.20000 158.518
52.21000 167.346
52.22000 173.640
52.23000 170.032
52.24000 165.422
52.25000 162.014
52.26000 161.644
52.27000 161.486
52.28000 158.935
52.29000 151.925
52.30000 144.814
52.31000 145.414
52.32000 155.812
52.33000 166.233
52.34000 164.338
52.35000 152.147
52.36000 140.248
52.37000 144.021
52.38000 156.717
52.39000 168.950
52.40000 171.766
52.41000 170.872
52.42000 170.038
52.43000 168.237
52.44000 166.370
52.45000 164.809
52.46000 165.265
52.47000 166.089
52.48000 166.154
52.49000 162.917
52.50000 159.297
52.51000 156.544
52.52000 155.891
52.53000 155.486
52.54000 155.941
52.55000 158.165
52.56000 160.443
52.57000 162.194
52.58000 163.199
52.59000 164.199
52.60000 163.508
52.61000 161.231
52.62000 158.957
52.63000 156.973
52.64000 155.172
52.65000 153.318
52.66000 150.104
52.67000 146.299
52.68000 142.713
52.69000 148.838
52.70000 157.126
52.71000 164.889
52.72000 168.716
52.73000 171.739
52.74000 172.701
52.75000 163.667
52.76000 153.307
52.77000 145.222
52.78000 158.249
52.79000 169.960
52.80000 176.253
52.81000 170.197
52.82000 163.660
52.83000 157.488
52.84000 151.889
52.85000 146.296
52.86000 143.423
52.87000 154.323
52.88000 161.605
52.89000 161.837
52.90000 157.125
52.91000 152.597
52.92000 154.041
52.93000 158.364
52.94000 162.480
52.95000 164.986
52.96000 166.810
52.97000 168.295
52.98000 166.888
52.99000 164.821
53.00000 162.806
53.01000 161.076
53.02000 159.389
53.03000 158.040
53.04000 161.886
53.05000 165.381
53.06000 167.331
53.07000 165.387
53.08000 163.254
53.09000 160.811
53.10000 157.830
53.11000 154.838
53.12000 153.215
53.13000 159.730
53.14000 164.181
53.15000 162.307
53.16000 155.490
53.17000 148.854
53.18000 150.063
53.19000 155.454
53.20000 160.633
53.21000 161.981
53.22000 161.918
53.23000 161.518
53.24000 157.810
53.25000 153.262
53.26000 149.886
53.27000 153.662
53.28000 158.650
53.29000 162.730
53.30000 160.934
53.31000 158.950
53.32000 157.543
53.33000 157.743
53.34000 158.038
53.35000 159.516
53.36000 163.282
53.37000 167.105
53.38000 169.285
53.39000 166.783
53.40000 165.023
53.41000 163.500
53.42000 162.185
53.43000 160.898
53.44000 161.366
53.45000 162.870
53.46000 164.327
53.47000 164.901
53.48000 165.101
53.49000 165.257
53.50000 164.905
53.51000 164.410
53.52000 163.760
53.53000 162.044
53.54000 160.125
53.55000 158.523
53.56000 157.536
53.57000 156.779
53.58000 155.945
53.59000 154.871
53.60000 153.781
53.61000 153.703
53.62000 155.789
53.63000 157.947
53.64000 159.237
53.65000 163.177
53.66000 165.989
53.67000 165.238
53.68000 160.999
53.69000 156.793
53.70000 155.770
53.71000 156.831
53.72000 157.866
53.73000 158.218
53.74000 158.259
53.75000 158.301
53.76000 158.375
53.77000 158.459
53.78000 158.845
53.79000 161.599
53.80000 164.858
53.81000 167.633
53.82000 161.247
53.83000 154.807
53.84000 149.755
53.85000 149.446
53.86000 149.531
53.87000 151.107
53.88000 156.208
53.89000 161.457
53.90000 164.730
53.91000 154.331
53.92000 146.696
53.93000 144.740
53.94000 149.036
53.95000 153.328
53.96000 156.422
53.97000 158.642
53.98000 160.822
53.99000 158.797
54.00000 154.816
54.01000 151.247
54.02000 154.203
54.03000 159.418
54.04000 163.881
54.05000 161.613
54.06000 157.747
54.07000 154.394
54.08000 151.683
54.09000 149.461
54.10000 147.428
54.11000 146.111
54.12000 144.863
54.13000 145.458
54.14000 150.869
54.15000 156.531
54.16000 160.204
54.17000 154.721
54.18000 150.570
54.19000 150.334
54.20000 154.923
54.21000 159.516
54.22000 161.192
54.23000 160.499
54.24000 159.815
54.25000 155.019
54.26000 148.139
54.27000 141.671
54.28000 143.131
54.29000 147.626
54.30000 152.035
54.31000 155.560
54.32000 158.851
54.33000 161.755
54.34000 159.026
54.35000 155.814
54.36000 153.772
54.37000 156.668
54.38000 160.115
54.39000 162.135
54.40000 160.031
54.41000 157.668
54.42000 156.077
54.43000 146.716
54.44000 139.595
54.45000 138.784
54.46000 146.637
54.47000 154.541
54.48000 159.592
54.49000 162.049
54.50000 164.485
54.51000 163.474
54.52000 160.410
54.53000 157.437
54.54000 156.597
54.55000 156.662
54.56000 156.480
54.57000 153.339
54.58000 149.332
54.59000 145.741
54.60000 149.264
54.61000 153.574
54.62000 157.955
54.63000 162.675
54.64000 167.438
54.65000 169.820
54.66000 164.582
54.67000 158.772
54.68000 154.724
54.69000 158.069
54.70000 160.794
54.71000 162.010
54.72000 160.919
54.73000 159.803
54.74000 158.273
54.75000 156.319
54.76000 154.376
54.77000 155.071
54.78000 157.532
54.79000 160.013
54.80000 163.115
54.81000 166.508
54.82000 169.622
54.83000 168.777
54.84000 166.649
54.85000 164.713
54.86000 160.205
54.87000 155.716
54.88000 152.545
54.89000 156.311
54.90000 161.084
54.91000 164.139
54.92000 161.098
54.93000 157.522
54.94000 154.949
54.95000 154.908
54.96000 154.965
54.97000 155.770
54.98000 157.843
54.99000 159.936
55.00000 162.670
55.01000 166.140
55.02000 169.601
55.03000 168.659
55.04000 164.410
55.05000 160.199
55.06000 157.492
55.07000 155.563
55.08000 154.014
55.09000 158.896
55.10000 166.086
55.11000 172.712
55.12000 169.721
55.13000 164.923
55.14000 161.467
55.15000 165.936
55.16000 171.704
55.17000 176.076
55.18000 174.946
55.19000 173.254
55.20000 172.001
55.21000 169.322
55.22000 167.180
55.23000 166.151
55.24000 167.210
55.25000 168.318
55.26000 168.891
55.27000 168.779
55.28000 168.664
55.29000 169.365
55.30000 170.753
55.31000 172.148
55.32000 173.950
55.33000 175.984
55.34000 177.888
55.35000 177.112
55.36000 175.271
55.37000 173.554
55.38000 176.564
55.39000 180.462
55.40000 184.269
55.41000 187.462
55.42000 190.543
55.43000 193.315
55.44000 194.736
55.45000 195.999
55.46000 196.962
55.47000 188.596
55.48000 181.516
55.49000 178.689
55.50000 184.690
55.51000 190.964
55.52000 196.952
55.53000 202.531
55.54000 208.107
55.55000 213.432
55.56000 218.517
55.57000 223.567
55.58000 225.774
55.59000 226.172
55.60000 226.628
55.61000 228.546
55.62000 231.107
55.63000 233.523
55.64000 235.790
55.65000 237.827
55.66000 240.710
55.67000 249.987
55.68000 260.582
55.69000 270.413
55.70000 276.501
55.71000 282.088
55.72000 286.457
55.73000 301.122
55.74000 313.480
55.75000 325.680
55.76000 337.517
55.77000 349.340
55.78000 362.944
55.79000 379.371
55.80000 395.833
55.81000 404.324
55.82000 412.731
55.83000 418.422
55.84000 427.970
55.85000 440.242
55.86000 452.518
55.87000 464.932
55.88000 477.412
55.89000 489.302
55.90000 498.302
55.91000 505.742
55.92000 512.957
55.93000 518.237
55.94000 523.073
55.95000 528.471
55.96000 536.955
55.97000 545.907
55.98000 553.076
55.99000 548.079
56.00000 543.122
56.01000 538.626
56.02000 535.302
56.03000 532.036
56.04000 527.430
56.05000 520.470
56.06000 513.467
56.07000 509.654
56.08000 493.161
56.09000 481.835
56.10000 472.723
56.11000 465.356
56.12000 457.877
56.13000 445.439
56.14000 430.338
56.15000 415.821
56.16000 405.097
56.17000 396.373
56.18000 387.537
56.19000 377.602
56.20000 367.385
56.21000 357.823
56.22000 352.292
56.23000 347.449
56.24000 343.482
56.25000 325.142
56.26000 308.840
56.27000 294.739
56.28000 286.816
56.29000 279.263
56.30000 272.741
56.31000 268.224
56.32000 263.760
56.33000 261.204
56.34000 258.300
56.35000 256.270
56.36000 253.478
56.37000 250.016
56.38000 246.469
56.39000 237.658
56.40000 225.714
56.41000 214.138
56.42000 211.594
56.43000 212.703
56.44000 213.362
56.45000 208.843
56.46000 202.853
56.47000 197.336
56.48000 195.113
56.49000 193.522
56.50000 192.192
56.51000 189.392
56.52000 186.916
56.53000 185.687
56.54000 188.331
56.55000 191.253
56.56000 189.967
56.57000 179.627
56.58000 168.980
56.59000 162.600
56.60000 165.269
56.61000 167.223
56.62000 168.408
56.63000 168.832
56.64000 169.262
56.65000 170.177
56.66000 171.413
56.67000 172.619
56.68000 173.895
56.69000 175.145
56.70000 175.977
56.71000 171.154
56.72000 164.549
56.73000 158.686
56.74000 158.690
56.75000 159.953
56.76000 161.030
56.77000 159.196
56.78000 157.309
56.79000 155.425
56.80000 153.551
56.81000 151.678
56.82000 152.129
56.83000 158.112
56.84000 164.332
56.85000 168.221
56.86000 167.394
56.87000 166.747
56.88000 164.801
56.89000 161.413
56.90000 158.036
56.91000 156.767
56.92000 157.048
56.93000 157.323
56.94000 154.773
56.95000 150.940
56.96000 147.301
56.97000 146.790
56.98000 147.370
56.99000 147.702
57.00000 145.802
57.01000 143.367
57.02000 141.252
57.03000 144.963
57.04000 148.914
57.05000 152.264
57.06000 153.317
57.07000 154.144
57.08000 154.348
57.09000 152.912
57.10000 151.389
57.11000 150.398
57.12000 151.671
57.13000 152.639
57.14000 151.592
57.15000 148.045
57.16000 144.495
57.17000 142.702
57.18000 142.349
57.19000 142.001
57.20000 143.046
57.21000 144.820
57.22000 146.522
57.23000 146.822
57.24000 146.580
57.25000 146.270
57.26000 145.248
57.27000 144.036
57.28000 142.966
57.29000 144.275
57.30000 145.772
57.31000 146.953
57.32000 146.792
57.33000 146.479
57.34000 146.977
57.35000 149.834
57.36000 152.841
57.37000 154.870
57.38000 153.425
57.39000 152.276
57.40000 150.082
57.41000 146.440
57.42000 142.789
57.43000 140.956
57.44000 140.787
57.45000 140.620
57.46000 140.594
57.47000 140.652
57.48000 140.837
57.49000 144.046
57.50000 148.545
57.51000 152.616
57.52000 151.485
57.53000 148.820
57.54000 146.429
57.55000 143.673
57.56000 141.201
57.57000 139.381
57.58000 140.655
57.59000 142.328
57.60000 143.541
57.61000 143.268
57.62000 142.883
57.63000 142.614
57.64000 141.712
57.65000 141.014
57.66000 140.985
57.67000 141.986
57.68000 142.999
57.69000 143.200
57.70000 142.567
57.71000 141.936
57.72000 143.514
57.73000 146.570
57.74000 149.479
57.75000 147.892
57.76000 144.184
57.77000 140.772
57.78000 141.612
57.79000 143.840
57.80000 145.868
57.81000 144.632
57.82000 142.893
57.83000 141.151
57.84000 139.388
57.85000 137.622
57.86000 135.841
57.87000 134.004
57.88000 132.162
57.89000 130.834
57.90000 130.584
57.91000 130.431
57.92000 131.605
57.93000 135.044
57.94000 138.522
57.95000 141.581
57.96000 144.158
57.97000 146.727
57.98000 147.005
57.99000 145.543
58.00000 144.086
58.01000 142.837
58.02000 141.696
58.03000 140.820
58.04000 144.480
58.05000 149.781
58.06000 154.670
58.07000 146.132
58.08000 135.496
58.09000 126.560
58.10000 127.740
58.11000 130.593
58.12000 133.736
58.13000 138.031
58.14000 142.446
58.15000 145.723
58.16000 145.319
58.17000 144.842
58.18000 143.106
58.19000 138.988
58.20000 134.813
58.21000 133.316
58.22000 135.275
58.23000 137.246
58.24000 137.524
58.25000 136.364
58.26000 135.148
58.27000 130.730
58.28000 124.463
58.29000 118.606
58.30000 121.358
58.31000 127.551
58.32000 133.332
58.33000 140.497
58.34000 147.339
58.35000 152.637
58.36000 147.575
58.37000 140.589
58.38000 134.824
58.39000 134.450
58.40000 134.716
58.41000 134.919
58.42000 143.233
58.43000 150.221
58.44000 155.676
58.45000 157.927
58.46000 160.077
58.47000 159.653
58.48000 155.529
58.49000 151.375
58.50000 146.771
58.51000 141.737
58.52000 136.741
58.53000 135.036
58.54000 135.439
58.55000 135.832
58.56000 135.962
58.57000 135.976
58.58000 135.988
58.59000 135.587
58.60000 135.103
58.61000 135.084
58.62000 138.603
58.63000 142.858
58.64000 146.140
58.65000 144.622
58.66000 142.457
58.67000 140.761
58.68000 143.366
58.69000 145.723
58.70000 146.790
58.71000 144.873
58.72000 142.835
58.73000 142.384
58.74000 144.467
58.75000 146.582
58.76000 147.678
58.77000 143.387
58.78000 140.501
58.79000 138.960
58.80000 138.377
58.81000 137.712
58.82000 134.300
58.83000 129.545
58.84000 125.013
58.85000 124.254
58.86000 124.737
58.87000 125.326
58.88000 126.839
58.89000 128.566
58.90000 130.629
58.91000 134.548
58.92000 138.752
58.93000 142.124
58.94000 141.512
58.95000 140.714
58.96000 139.406
58.97000 136.792
58.98000 134.114
58.99000 133.310
59.00000 135.823
59.01000 138.400
59.02000 139.809
59.03000 142.084
59.04000 143.641
59.05000 143.047
59.06000 140.744
59.07000 138.502
59.08000 139.044
59.09000 141.092
59.10000 143.063
59.11000 143.708
59.12000 143.847
59.13000 143.805
59.14000 141.943
59.15000 139.612
59.16000 137.595
59.17000 137.533
59.18000 137.808
59.19000 138.033
59.20000 137.406
59.21000 136.816
59.22000 137.920
59.23000 143.818
59.24000 150.006
59.25000 152.011
59.26000 145.817
59.27000 139.408
59.28000 135.727
59.29000 135.606
59.30000 135.535
59.31000 136.417
59.32000 138.144
59.33000 139.799
59.34000 136.844
59.35000 131.124
59.36000 125.577
59.37000 124.544
59.38000 125.338
59.39000 126.044
59.40000 125.731
59.41000 125.125
59.42000 125.079
59.43000 128.954
59.44000 133.588
59.45000 137.469
59.46000 141.531
59.47000 144.928
59.48000 146.588
59.49000 142.816
59.50000 138.650
59.51000 135.679
59.52000 135.300
59.53000 135.010
59.54000 134.836
59.55000 136.752
59.56000 138.129
59.57000 138.517
59.58000 137.921
59.59000 137.364
59.60000 140.756
59.61000 146.775
59.62000 152.654
59.63000 149.890
59.64000 143.456
59.65000 137.515
59.66000 138.306
59.67000 141.232
59.68000 143.493
59.69000 140.454
59.70000 136.269
59.71000 132.695
59.72000 126.875
59.73000 121.705
59.74000 118.815
59.75000 123.835
59.76000 129.528
59.77000 133.117
59.78000 131.660
59.79000 129.983
59.80000 128.932
59.81000 130.360
59.82000 131.419
59.83000 131.874
59.84000 131.654
59.85000 131.426
59.86000 130.009
59.87000 127.710
59.88000 125.452
59.89000 124.579
59.90000 124.413
59.91000 124.201
59.92000 123.216
59.93000 121.960
59.94000 121.177
59.95000 124.709
59.96000 129.280
59.97000 133.255
59.98000 133.972
59.99000 134.141
60.00000 133.982
60.01000 132.564
60.02000 131.022
60.03000 130.096
60.04000 130.806
60.05000 131.603
60.06000 132.123
60.07000 131.294
60.08000 130.665
60.09000 133.151
60.10000 139.535
60.11000 145.911
60.12000 143.702
60.13000 134.406
60.14000 125.225
60.15000 124.237
60.16000 127.752
60.17000 131.087
60.18000 130.878
60.19000 129.292
60.20000 127.815
60.21000 127.503
60.22000 127.501
60.23000 127.500
60.24000 127.577
60.25000 127.655
60.26000 127.997
60.27000 129.467
60.28000 131.067
60.29000 133.045
60.30000 136.131
60.31000 139.289
60.32000 141.425
60.33000 137.050
60.34000 133.649
60.35000 131.216
60.36000 130.135
60.37000 129.062
60.38000 128.259
60.39000 127.703
60.40000 127.153
60.41000 127.199
60.42000 127.608
60.43000 128.138
60.44000 131.590
60.45000 136.298
60.46000 140.402
60.47000 137.086
60.48000 131.566
60.49000 126.607
60.50000 125.711
60.51000 125.642
60.52000 125.973
60.53000 128.213
60.54000 130.701
60.55000 132.077
60.56000 129.842
60.57000 127.330
60.58000 125.571
60.59000 125.909
60.60000 126.223
60.61000 127.975
60.62000 131.954
60.63000 135.959
60.64000 135.565
60.65000 130.602
60.66000 125.662
60.67000 124.006
60.68000 124.612
60.69000 125.268
60.70000 127.477
60.71000 130.423
60.72000 133.000
60.73000 130.222
60.74000 125.681
60.75000 121.545
60.76000 124.390
60.77000 128.301
60.78000 131.954
60.79000 134.235
60.80000 136.312
60.81000 137.713
60.82000 136.677
60.83000 135.423
60.84000 134.516
60.85000 134.445
60.86000 134.421
60.87000 133.540
60.88000 131.186
60.89000 128.807
60.90000 127.070
60.91000 126.083
60.92000 125.099
60.93000 128.246
60.94000 134.532
60.95000 140.653
60.96000 139.954
60.97000 135.671
60.98000 131.565
60.99000 130.558
61.00000 130.679
61.01000 130.791
61.02000 133.759
61.03000 137.061
61.04000 139.906
61.05000 140.008
61.06000 139.652
61.07000 139.426
61.08000 139.721
61.09000 140.071
61.10000 140.331
61.11000 137.951
61.12000 135.981
61.13000 135.752
61.14000 138.834
61.15000 141.997
61.16000 144.800
61.17000 147.135
61.18000 149.467
61.19000 147.607
61.20000 142.157
61.21000 136.786
61.22000 136.012
61.23000 137.913
61.24000 139.742
61.25000 140.026
61.26000 139.687
61.27000 139.370
61.28000 139.010
61.29000 138.672
61.30000 138.764
61.31000 141.768
61.32000 145.318
61.33000 147.591
61.34000 144.179
61.35000 140.087
61.36000 136.957
61.37000 136.709
61.38000 136.671
61.39000 138.263
61.40000 143.289
61.41000 148.426
61.42000 150.565
61.43000 148.363
61.44000 146.125
61.45000 144.412
61.46000 143.204
61.47000 142.068
61.48000 147.354
61.49000 156.786
61.50000 166.095
61.51000 172.151
61.52000 176.757
61.53000 181.108
61.54000 191.104
61.55000 201.876
61.56000 212.798
61.57000 224.880
61.58000 237.206
61.59000 249.237
61.60000 259.804
61.61000 270.172
61.62000 278.307
61.63000 282.774
61.64000 286.107
61.65000 289.095
61.66000 291.278
61.67000 293.428
61.68000 297.539
61.69000 304.805
61.70000 312.114
61.71000 315.914
61.72000 307.903
61.73000 302.499
61.74000 298.657
61.75000 295.934
61.76000 292.915
61.77000 279.674
61.78000 261.400
61.79000 243.966
61.80000 230.805
61.81000 219.942
61.82000 208.743
61.83000 194.600
61.84000 179.768
61.85000 166.717
61.86000 163.580
61.87000 161.975
61.88000 160.684
61.89000 160.537
61.90000 160.506
61.91000 158.603
61.92000 151.881
61.93000 144.914
61.94000 141.133
61.95000 143.034
61.96000 145.046
61.97000 146.150
61.98000 145.512
61.99000 145.064
62.00000 142.628
62.01000 138.601
62.02000 134.650
62.03000 134.180
62.04000 135.608
62.05000 136.982
62.06000 139.402
62.07000 142.044
62.08000 144.198
62.09000 141.431
62.10000 137.384
62.11000 134.303
62.12000 137.261
62.13000 141.270
62.14000 144.564
62.15000 148.899
62.16000 152.552
62.17000 153.564
62.18000 147.047
62.19000 140.067
62.20000 136.813
62.21000 140.915
62.22000 145.215
62.23000 147.693
62.24000 147.416
62.25000 147.211
62.26000 146.986
62.27000 146.744
62.28000 146.448
62.29000 142.627
62.30000 136.677
62.31000 130.905
62.32000 131.662
62.33000 134.963
62.34000 138.427
62.35000 143.803
62.36000 149.730
62.37000 154.411
62.38000 150.264
62.39000 144.397
62.40000 139.474
62.41000 136.784
62.42000 134.779
62.43000 134.728
62.44000 140.841
62.45000 147.406
62.46000 151.292
62.47000 149.327
62.48000 147.157
62.49000 145.849
62.50000 142.819
62.51000 140.650
62.52000 139.121
62.53000 138.234
62.54000 137.356
62.55000 137.317
62.56000 137.841
62.57000 138.352
62.58000 141.361
62.59000 145.346
62.60000 149.112
62.61000 149.852
62.62000 149.624
62.63000 149.572
62.64000 150.936
62.65000 152.609
62.66000 154.040
62.67000 151.067
62.68000 148.031
62.69000 145.440
62.70000 144.405
62.71000 143.504
62.72000 142.829
62.73000 142.703
62.74000 142.601
62.75000 142.537
62.76000 137.347
62.77000 133.535
62.78000 134.160
62.79000 139.787
62.80000 145.419
62.81000 150.942
62.82000 156.383
62.83000 161.731
62.84000 158.381
62.85000 150.851
62.86000 143.678
62.87000 142.402
62.88000 143.213
62.89000 144.373
62.90000 148.764
62.91000 153.938
62.92000 158.443
62.93000 155.953
62.94000 152.863
62.95000 150.470
62.96000 150.779
62.97000 151.357
62.98000 150.516
62.99000 145.883
63.00000 141.044
63.01000 137.879
63.02000 138.910
63.03000 139.735
63.04000 140.973
63.05000 142.730
63.06000 144.486
63.07000 144.624
63.08000 143.414
63.09000 142.219
63.10000 140.852
63.11000 139.424
63.12000 138.221
63.13000 141.535
63.14000 146.616
63.15000 151.088
63.16000 149.067
63.17000 145.293
63.18000 141.953
63.19000 138.371
63.20000 135.235
63.21000 133.632
63.22000 138.643
63.23000 144.416
63.24000 149.243
63.25000 151.276
63.26000 153.126
63.27000 154.381
63.28000 151.284
63.29000 148.877
63.30000 148.591
63.31000 151.284
63.32000 153.998
63.33000 156.213
63.34000 157.963
63.35000 159.700
63.36000 159.025
63.37000 156.878
63.38000 154.715
63.39000 152.162
63.40000 149.441
63.41000 146.775
63.42000 144.794
63.43000 143.017
63.44000 141.419
63.45000 148.013
63.46000 155.245
63.47000 160.144
63.48000 153.818
63.49000 146.017
63.50000 140.317
63.51000 141.491
63.52000 143.199
63.53000 144.398
63.54000 142.252
63.55000 140.531
63.56000 140.552
63.57000 143.293
63.58000 146.066
63.59000 146.491
63.60000 144.456
63.61000 142.430
63.62000 143.263
63.63000 146.054
63.64000 148.711
63.65000 147.105
63.66000 143.460
63.67000 140.258
63.68000 143.572
63.69000 149.046
63.70000 154.038
63.71000 154.694
63.72000 154.405
63.73000 153.903
63.74000 152.252
63.75000 150.430
63.76000 148.975
63.77000 148.852
63.78000 148.850
63.79000 148.849
63.80000 148.088
63.81000 147.476
63.82000 148.981
63.83000 154.152
63.84000 159.389
63.85000 162.006
63.86000 161.547
63.87000 161.084
63.88000 160.113
63.89000 158.758
63.90000 157.410
63.91000 156.387
63.92000 155.537
63.93000 154.674
63.94000 153.570
63.95000 152.377
63.96000 151.275
63.97000 153.504
63.98000 156.257
63.99000 159.060
64.00000 162.170
64.01000 165.330
64.02000 167.405
64.03000 165.104
64.04000 162.343
64.05000 160.284
64.06000 156.801
64.07000 154.025
64.08000 152.599
64.09000 153.764
64.10000 154.994
64.11000 157.609
64.12000 162.040
64.13000 166.477
64.14000 166.383
64.15000 162.372
64.16000 158.401
64.17000 156.729
64.18000 156.407
64.19000 156.046
64.20000 154.857
64.21000 153.333
64.22000 151.908
64.23000 157.085
64.24000 163.464
64.25000 168.736
64.26000 166.443
64.27000 162.721
64.28000 159.947
64.29000 161.424
64.30000 163.415
64.31000 164.940
64.32000 163.383
64.33000 161.984
64.34000 160.176
64.35000 157.497
64.36000 154.791
64.37000 154.583
64.38000 158.021
64.39000 161.490
64.40000 164.783
64.41000 167.905
64.42000 171.007
64.43000 172.281
64.44000 172.367
64.45000 172.421
64.46000 171.650
64.47000 170.507
64.48000 169.427
64.49000 165.716
64.50000 161.557
64.51000 158.046
64.52000 159.556
64.53000 162.127
64.54000 165.063
64.55000 169.824
64.56000 174.837
64.57000 178.777
64.58000 171.934
64.59000 165.745
64.60000 163.127
64.61000 168.888
64.62000 174.997
64.63000 177.398
64.64000 173.790
64.65000 170.099
64.66000 168.172
64.67000 170.493
64.68000 172.059
64.69000 172.813
64.70000 172.979
64.71000 173.151
64.72000 173.514
64.73000 173.971
64.74000 174.408
64.75000 176.672
64.76000 179.359
64.77000 182.005
64.78000 184.296
64.79000 186.503
64.80000 188.622
64.81000 190.249
64.82000 191.800
64.83000 193.048
64.84000 192.265
64.85000 191.472
64.86000 189.665
64.87000 185.231
64.88000 180.661
64.89000 178.972
64.90000 182.460
64.91000 186.051
64.92000 188.028
64.93000 192.682
64.94000 195.885
64.95000 196.413
64.96000 194.784
64.97000 193.142
64.98000 190.862
64.99000 188.231
65.00000 185.697
65.01000 189.680
65.02000 195.747
65.03000 201.314
65.04000 201.770
65.05000 200.887
65.06000 200.875
65.07000 206.360
65.08000 212.808
65.09000 218.115
65.10000 213.663
65.11000 209.114
65.12000 207.306
65.13000 213.363
65.14000 219.910
65.15000 221.188
65.16000 211.989
65.17000 202.502
65.18000 197.017
65.19000 214.506
65.20000 226.854
65.21000 234.271
65.22000 237.241
65.23000 240.229
65.24000 244.514
65.25000 249.589
65.26000 254.515
65.27000 255.615
65.28000 255.133
65.29000 254.954
65.30000 258.389
65.31000 262.873
65.32000 267.672
65.33000 274.717
65.34000 282.203
65.35000 288.493
65.36000 293.270
65.37000 297.089
65.38000 302.655
65.39000 313.769
65.40000 325.293
65.41000 334.569
65.42000 338.897
65.43000 343.048
65.44000 345.560
65.45000 358.453
65.46000 367.717
65.47000 376.542
65.48000 384.921
65.49000 393.241
65.50000 395.207
65.51000 392.881
65.52000 390.607
65.53000 392.928
65.54000 397.200
65.55000 401.813
65.56000 411.200
65.57000 422.124
65.58000 433.311
65.59000 446.633
65.60000 460.426
65.61000 472.238
65.62000 473.695
65.63000 473.667
65.64000 476.714
65.65000 490.584
65.66000 505.397
65.67000 523.867
65.68000 551.229
65.69000 578.992
65.70000 596.505
65.71000 665.418
65.72000 715.913
65.73000 773.850
65.74000 840.250
65.75000 906.641
65.76000 969.408
65.77000 1029.450
65.78000 1088.490
65.79000 1138.884
65.80000 1183.326
65.81000 1225.906
65.82000 1237.339
65.83000 1237.674
65.84000 1239.120
65.85000 1250.918
65.86000 1265.250
65.87000 1277.745
65.88000 1277.554
65.89000 1275.629
65.90000 1270.292
65.91000 1251.623
65.92000 1231.606
65.93000 1202.961
65.94000 1151.113
65.95000 1097.983
65.96000 1063.142
65.97000 962.884
65.98000 888.065
65.99000 811.911
66.00000 734.060
66.01000 656.236
66.02000 595.235
66.03000 548.346
66.04000 502.007
66.05000 467.577
66.06000 440.605
66.07000 414.122
66.08000 397.563
66.09000 384.916
66.10000 372.500
66.11000 362.576
66.12000 353.329
66.13000 345.132
66.14000 333.404
66.15000 322.691
66.16000 313.957
66.17000 313.827
66.18000 314.698
66.19000 316.532
66.20000 321.235
66.21000 326.128
66.22000 329.454
66.23000 340.750
66.24000 349.363
66.25000 356.696
66.26000 362.214
66.27000 367.721
66.28000 376.441
66.29000 388.182
66.30000 399.832
66.31000 415.397
66.32000 433.126
66.33000 450.705
66.34000 464.463
66.35000 476.555
66.36000 487.211
66.37000 479.777
66.38000 466.890
66.39000 455.291
66.40000 466.792
66.41000 481.017
66.42000 494.110
66.43000 501.709
66.44000 508.580
66.45000 511.251
66.46000 500.087
66.47000 487.836
66.48000 479.221
66.49000 475.038
66.50000 472.000
66.51000 460.280
66.52000 434.901
66.53000 409.355
66.54000 393.932
66.55000 389.201
66.56000 384.493
66.57000 373.832
66.58000 359.152
66.59000 344.768
66.60000 340.000
66.61000 339.865
66.62000 339.517
66.63000 335.997
66.64000 331.417
66.65000 327.236
66.66000 322.995
66.67000 319.220
66.68000 316.526
66.69000 319.707
66.70000 323.771
66.71000 327.474
66.72000 329.853
66.73000 332.110
66.74000 333.748
66.75000 334.644
66.76000 335.305
66.77000 334.716
66.78000 331.946
66.79000 329.137
66.80000 328.024
66.81000 328.920
66.82000 329.817
66.83000 332.419
66.84000 336.332
66.85000 340.263
66.86000 344.991
66.87000 350.145
66.88000 354.869
66.89000 351.908
66.90000 346.106
66.91000 340.742
66.92000 341.736
66.93000 344.080
66.94000 346.501
66.95000 349.391
66.96000 352.360
66.97000 355.429
66.98000 358.902
66.99000 362.418
67.00000 365.045
67.01000 358.347
67.02000 352.696
67.03000 352.493
67.04000 362.814
67.05000 373.402
67.06000 378.975
67.07000 377.923
67.08000 376.841
67.09000 378.722
67.10000 383.182
67.11000 387.559
67.12000 386.808
67.13000 383.030
67.14000 379.208
67.15000 374.424
67.16000 369.248
67.17000 364.404
67.18000 374.342
67.19000 387.164
67.20000 398.441
67.21000 399.071
67.22000 397.674
67.23000 397.510
67.24000 402.923
67.25000 409.016
67.26000 413.694
67.27000 412.854
67.28000 411.883
67.29000 412.099
67.30000 414.856
67.31000 417.698
67.32000 418.629
67.33000 416.750
67.34000 414.847
67.35000 413.404
67.36000 412.414
67.37000 411.445
67.38000 412.528
67.39000 414.956
67.40000 417.382
67.41000 419.756
67.42000 422.105
67.43000 424.327
67.44000 421.500
67.45000 417.450
67.46000 415.139
67.47000 426.454
67.48000 440.669
67.49000 451.954
67.50000 448.436
67.51000 442.864
67.52000 438.477
67.53000 445.376
67.54000 451.657
67.55000 457.680
67.56000 463.094
67.57000 468.482
67.58000 469.284
67.59000 462.596
67.60000 455.802
67.61000 452.241
67.62000 455.317
67.63000 457.426
67.64000 463.444
67.65000 472.309
67.66000 480.963
67.67000 482.010
67.68000 479.258
67.69000 476.629
67.70000 483.552
67.71000 493.061
67.72000 501.685
67.73000 502.380
67.74000 501.193
67.75000 500.683
67.76000 504.005
67.77000 507.930
67.78000 511.094
67.79000 509.533
67.80000 507.893
67.81000 506.464
67.82000 505.584
67.83000 504.733
67.84000 507.779
67.85000 517.879
67.86000 528.125
67.87000 533.786
67.88000 524.526
67.89000 518.136
67.90000 520.804
67.91000 530.831
67.92000 540.677
67.93000 541.670
67.94000 537.767
67.95000 534.006
67.96000 540.540
67.97000 550.384
67.98000 559.581
67.99000 562.097
68.00000 562.850
68.01000 563.441
68.02000 563.006
68.03000 562.389
68.04000 561.880
68.05000 562.702
68.06000 563.500
68.07000 565.480
68.08000 570.880
68.09000 576.495
68.10000 579.835
68.11000 578.617
68.12000 577.272
68.13000 576.492
68.14000 600.074
68.15000 616.722
68.16000 624.194
68.17000 623.326
68.18000 622.479
68.19000 623.248
68.20000 625.006
68.21000 626.713
68.22000 630.988
68.23000 636.080
68.24000 641.237
68.25000 647.172
68.26000 653.336
68.27000 659.583
68.28000 666.430
68.29000 673.397
68.30000 679.258
68.31000 690.597
68.32000 700.636
68.33000 708.158
68.34000 707.627
68.35000 706.491
68.36000 706.954
68.37000 710.958
68.38000 715.091
68.39000 717.600
68.40000 730.575
68.41000 739.913
68.42000 751.535
68.43000 765.492
68.44000 779.418
68.45000 789.942
68.46000 798.149
68.47000 806.175
68.48000 807.812
68.49000 806.513
68.50000 806.831
68.51000 830.069
68.52000 860.740
68.53000 890.999
68.54000 917.867
68.55000 943.985
68.56000 966.383
68.57000 988.207
68.58000 1006.573
68.59000 1028.453
68.60000 1062.802
68.61000 1098.247
68.62000 1140.877
68.63000 1201.107
68.64000 1262.141
68.65000 1300.752
68.66000 1377.930
68.67000 1434.338
68.68000 1490.560
68.69000 1546.570
68.70000 1602.599
68.71000 1662.856
68.72000 1726.316
68.73000 1788.740
68.74000 1848.253
68.75000 1904.392
68.76000 1961.853
68.77000 2041.698
68.78000 2129.578
68.79000 2217.451
68.80000 2305.262
68.81000 2393.059
68.82000 2469.699
68.83000 2611.296
68.84000 2741.562
68.85000 2888.878
68.86000 3103.353
68.87000 3324.685
68.88000 3620.540
68.89000 4118.275
68.90000 4627.308
68.91000 4962.023
68.92000 6717.072
68.93000 8033.359
68.94000 10103.977
68.95000 13140.875
68.96000 16183.253
68.97000 20316.176
68.98000 25371.123
68.99000 30368.402
69.00000 35889.125
69.01000 41570.918
69.02000 47204.492
69.03000 51842.480
69.04000 56085.273
69.05000 60169.367
69.06000 62525.039
69.07000 64407.352
69.08000 66077.750
69.09000 66820.063
69.10000 67315.117
69.11000 67835.766
69.12000 68468.602
69.13000 69114.609
69.14000 69774.547
69.15000 70476.242
69.16000 71180.742
69.17000 71660.938
69.18000 71664.781
69.19000 71656.664
69.20000 70649.055
69.21000 68215.406
69.22000 65770.813
69.23000 62526.887
69.24000 58525.629
69.25000 54553.887
69.26000 50969.238
69.27000 47685.848
69.28000 44436.293
69.29000 42058.039
69.30000 40062.195
69.31000 38129.020
69.32000 36993.773
69.33000 36100.871
69.34000 35296.340
69.35000 34292.086
69.36000 33374.871
69.37000 32337.246
69.38000 30710.652
69.39000 29005.223
69.40000 27093.545
69.41000 24497.232
69.42000 21846.461
69.43000 19978.223
69.44000 16339.599
69.45000 13526.953
69.46000 11088.303
69.47000 9242.466
69.48000 7404.093
69.49000 5984.459
69.50000 5010.855
69.51000 4041.467
69.52000 3405.815
69.53000 3010.080
69.54000 2618.417
69.55000 2361.531
69.56000 2170.063
69.57000 1982.472
69.58000 1853.327
69.59000 1743.838
69.60000 1643.792
69.61000 1562.405
69.62000 1493.934
69.63000 1428.293
69.64000 1378.150
69.65000 1330.358
69.66000 1283.478
69.67000 1239.959
69.68000 1196.752
69.69000 1165.337
69.70000 1121.293
69.71000 1086.929
69.72000 1060.672
69.73000 1048.662
69.74000 1036.919
69.75000 1021.442
69.76000 1001.507
69.77000 981.603
69.78000 959.750
69.79000 936.477
69.80000 913.355
69.81000 896.883
69.82000 883.983
69.83000 871.438
69.84000 865.333
69.85000 861.626
69.86000 858.194
69.87000 837.769
69.88000 815.498
69.89000 794.157
69.90000 778.538
69.91000 763.898
69.92000 752.231
69.93000 752.731
69.94000 754.538
69.95000 755.891
69.96000 746.387
69.97000 738.464
69.98000 732.017
69.99000 728.442
70.00000 724.940
