20.00000 565.790
20.01000 571.078
20.02000 577.121
20.03000 580.637
20.04000 574.052
20.05000 566.415
20.06000 560.733
20.07000 554.187
20.08000 549.055
20.09000 546.476
20.10000 548.755
20.11000 551.152
20.12000 555.110
20.13000 561.097
20.14000 567.089
20.15000 564.546
20.16000 554.695
20.17000 545.059
20.18000 547.878
20.19000 557.942
20.20000 567.634
20.21000 569.415
20.22000 568.010
20.23000 566.697
20.24000 565.179
20.25000 563.750
20.26000 562.600
20.27000 563.343
20.28000 564.441
20.29000 564.736
20.30000 561.458
20.31000 557.752
20.32000 554.918
20.33000 553.076
20.34000 551.676
20.35000 552.525
20.36000 558.108
20.37000 563.842
20.38000 570.794
20.39000 579.508
20.40000 588.236
20.41000 587.681
20.42000 578.188
20.43000 568.788
20.44000 567.656
20.45000 571.858
20.46000 575.863
20.47000 574.591
20.48000 570.972
20.49000 567.554
20.50000 567.856
20.51000 569.186
20.52000 571.029
20.53000 576.813
20.54000 583.422
20.55000 587.774
20.56000 580.908
20.57000 572.515
20.58000 565.929
20.59000 563.106
20.60000 561.093
20.61000 561.763
20.62000 568.681
20.63000 575.854
20.64000 577.725
20.65000 571.067
20.66000 564.294
20.67000 560.773
20.68000 558.095
20.69000 556.315
20.70000 558.867
20.71000 564.527
20.72000 570.039
20.73000 570.451
20.74000 568.352
20.75000 566.349
20.76000 571.554
20.77000 578.668
20.78000 584.569
20.79000 579.833
20.80000 572.613
20.81000 565.168
20.82000 556.475
20.83000 547.590
20.84000 540.450
20.85000 539.361
20.86000 538.944
20.87000 540.902
20.88000 548.975
20.89000 557.358
20.90000 563.030
20.91000 563.869
20.92000 564.613
20.93000 565.021
20.94000 551.583
20.95000 542.351
20.96000 544.354
20.97000 555.341
20.98000 566.166
20.99000 569.504
21.00000 568.763
21.01000 568.050
21.02000 564.528
21.03000 560.228
21.04000 556.233
21.05000 555.307
21.06000 555.178
21.07000 555.269
21.08000 556.735
21.09000 558.441
21.10000 559.843
21.11000 558.440
21.12000 557.035
21.13000 554.727
21.14000 549.845
21.15000 544.806
21.16000 545.945
21.17000 559.279
21.18000 572.941
21.19000 580.812
21.20000 577.553
21.21000 575.228
21.22000 570.472
21.23000 563.544
21.24000 556.718
21.25000 556.675
21.26000 560.726
21.27000 564.657
21.28000 567.704
21.29000 570.244
21.30000 572.064
21.31000 565.417
21.32000 556.329
21.33000 548.472
21.34000 549.330
21.35000 551.886
21.36000 554.030
21.37000 551.652
21.38000 549.200
21.39000 548.841
21.40000 555.078
21.41000 561.798
21.42000 564.202
21.43000 557.184
21.44000 549.835
21.45000 545.404
21.46000 555.210
21.47000 562.291
21.48000 565.256
21.49000 564.087
21.50000 562.905
21.51000 560.359
21.52000 556.899
21.53000 553.518
21.54000 558.081
21.55000 565.961
21.56000 573.355
21.57000 574.037
21.58000 572.575
21.59000 571.285
21.60000 571.384
21.61000 571.786
21.62000 572.130
21.63000 582.119
21.64000 591.700
21.65000 600.396
21.66000 605.995
21.67000 611.328
21.68000 616.827
21.69000 622.726
21.70000 628.643
21.71000 632.364
21.72000 634.911
21.73000 636.740
21.74000 636.778
21.75000 634.795
21.76000 632.854
21.77000 639.157
21.78000 651.605
21.79000 663.840
21.80000 668.698
21.81000 669.755
21.82000 671.677
21.83000 687.870
21.84000 709.111
21.85000 729.169
21.86000 738.319
21.87000 744.821
21.88000 750.483
21.89000 760.843
21.90000 770.337
21.91000 779.722
21.92000 788.681
21.93000 797.598
21.94000 806.099
21.95000 813.489
21.96000 820.819
21.97000 825.613
21.98000 850.172
21.99000 868.533
22.00000 876.821
22.01000 872.411
22.02000 867.983
22.03000 874.472
22.04000 890.041
22.05000 905.422
22.06000 893.930
22.07000 867.923
22.08000 842.993
22.09000 839.648
22.10000 844.748
22.11000 848.489
22.12000 837.762
22.13000 823.133
22.14000 810.181
22.15000 794.609
22.16000 780.731
22.17000 767.088
22.18000 754.461
22.19000 741.952
22.20000 731.460
22.21000 726.928
22.22000 722.786
22.23000 719.977
22.24000 710.058
22.25000 702.503
22.26000 689.012
22.27000 667.181
22.28000 645.296
22.29000 634.236
22.30000 633.259
22.31000 632.289
22.32000 628.851
22.33000 623.953
22.34000 619.099
22.35000 615.322
22.36000 612.012
22.37000 608.599
22.38000 603.908
22.39000 598.836
22.40000 594.276
22.41000 590.186
22.42000 586.687
22.43000 583.682
22.44000 583.051
22.45000 582.733
22.46000 580.037
22.47000 569.568
22.48000 558.494
22.49000 550.727
22.50000 558.402
22.51000 564.657
22.52000 569.701
22.53000 572.853
22.54000 575.984
22.55000 573.744
22.56000 565.882
22.57000 558.054
22.58000 553.340
22.59000 550.820
22.60000 548.359
22.61000 547.778
22.62000 548.096
22.63000 548.330
22.64000 547.332
22.65000 545.926
22.66000 544.644
22.67000 539.481
22.68000 534.123
22.69000 529.383
22.70000 527.969
22.71000 527.049
22.72000 527.436
22.73000 532.560
22.74000 538.115
22.75000 542.136
22.76000 535.346
22.77000 529.737
22.78000 526.104
22.79000 525.893
22.80000 525.743
22.81000 530.039
22.82000 539.554
22.83000 549.056
22.84000 547.016
22.85000 536.094
22.86000 525.449
22.87000 526.542
22.88000 533.846
22.89000 540.344
22.90000 532.632
22.91000 519.710
22.92000 507.771
22.93000 513.839
22.94000 523.357
22.95000 531.846
22.96000 534.112
22.97000 535.331
22.98000 536.396
22.99000 536.838
23.00000 537.213
23.01000 537.493
23.02000 530.454
23.03000 524.640
23.04000 520.880
23.05000 521.059
23.06000 521.336
23.07000 520.510
23.08000 518.240
23.09000 515.965
23.10000 515.922
23.11000 517.808
23.12000 519.657
23.13000 519.254
23.14000 517.531
23.15000 516.089
23.16000 520.696
23.17000 527.757
23.18000 534.359
23.19000 534.903
23.20000 533.858
23.21000 531.005
23.22000 515.805
23.23000 498.275
23.24000 485.481
23.25000 493.928
23.26000 504.940
23.27000 513.377
23.28000 518.196
23.29000 521.802
23.30000 522.395
23.31000 516.596
23.32000 510.589
23.33000 506.333
23.34000 504.631
23.35000 502.952
23.36000 505.660
23.37000 512.627
23.38000 519.518
23.39000 519.477
23.40000 514.928
23.41000 510.616
23.42000 512.733
23.43000 517.733
23.44000 522.459
23.45000 519.546
23.46000 514.693
23.47000 510.593
23.48000 512.335
23.49000 515.311
23.50000 516.722
23.51000 510.293
23.52000 502.786
23.53000 496.886
23.54000 499.569
23.55000 502.282
23.56000 504.968
23.57000 507.592
23.58000 510.214
23.59000 510.115
23.60000 505.609
23.61000 501.042
23.62000 498.658
23.63000 508.816
23.64000 515.642
23.65000 514.743
23.66000 508.260
23.67000 501.922
23.68000 500.678
23.69000 501.960
23.70000 503.184
23.71000 500.108
23.72000 495.878
23.73000 492.135
23.74000 492.702
23.75000 494.284
23.76000 497.119
23.77000 506.983
23.78000 517.941
23.79000 526.761
23.80000 522.342
23.81000 517.727
23.82000 512.372
23.83000 505.096
23.84000 497.721
23.85000 493.287
23.86000 494.134
23.87000 495.086
23.88000 495.611
23.89000 502.162
23.90000 506.684
23.91000 510.938
23.92000 514.976
23.93000 518.830
23.94000 513.968
23.95000 504.323
23.96000 495.033
23.97000 498.008
23.98000 505.177
23.99000 511.398
24.00000 507.929
24.01000 501.923
24.02000 497.462
24.03000 502.764
24.04000 509.776
24.05000 515.547
24.06000 517.486
24.07000 518.731
24.08000 517.795
24.09000 510.600
24.10000 503.015
24.11000 500.106
24.12000 506.491
24.13000 513.130
24.14000 516.968
24.15000 509.654
24.16000 504.483
24.17000 499.459
24.18000 494.569
24.19000 489.751
24.20000 489.778
24.21000 492.753
24.22000 495.641
24.23000 500.709
24.24000 506.386
24.25000 511.143
24.26000 504.957
24.27000 495.592
24.28000 488.022
24.29000 493.272
24.30000 501.042
24.31000 507.569
24.32000 501.205
24.33000 494.543
24.34000 491.077
24.35000 497.760
24.36000 505.194
24.37000 505.121
24.38000 488.536
24.39000 471.362
24.40000 460.975
24.41000 480.003
24.42000 493.778
24.43000 497.982
24.44000 492.491
24.45000 487.025
24.46000 484.269
24.47000 483.344
24.48000 482.440
24.49000 488.909
24.50000 498.392
24.51000 507.349
24.52000 508.958
24.53000 508.201
24.54000 506.941
24.55000 501.596
24.56000 495.354
24.57000 490.008
24.58000 482.710
24.59000 476.313
24.60000 472.591
24.61000 478.280
24.62000 484.788
24.63000 490.380
24.64000 493.744
24.65000 497.007
24.66000 499.065
24.67000 485.912
24.68000 476.213
24.69000 471.338
24.70000 471.947
24.71000 472.562
24.72000 473.426
24.73000 474.477
24.74000 475.510
24.75000 476.671
24.76000 477.858
24.77000 479.180
24.78000 482.767
24.79000 487.160
24.80000 491.484
24.81000 495.168
24.82000 498.694
24.83000 501.769
24.84000 498.081
24.85000 493.988
24.86000 490.386
24.87000 488.699
24.88000 487.205
24.89000 484.815
24.90000 480.019
24.91000 475.089
24.92000 471.857
24.93000 477.397
24.94000 481.617
24.95000 485.610
24.96000 489.317
24.97000 493.014
24.98000 492.473
24.99000 488.380
25.00000 484.334
25.01000 478.935
25.02000 472.917
25.03000 467.174
25.04000 467.005
25.05000 469.033
25.06000 471.227
25.07000 475.216
25.08000 479.692
25.09000 483.660
25.10000 478.256
25.11000 472.095
25.12000 469.140
25.13000 480.121
25.14000 492.720
25.15000 498.759
25.16000 485.281
25.17000 470.508
25.18000 460.465
25.19000 469.299
25.20000 476.320
25.21000 482.996
25.22000 489.184
25.23000 495.365
25.24000 490.334
25.25000 474.771
25.26000 459.327
25.27000 460.770
25.28000 472.665
25.29000 484.300
25.30000 489.347
25.31000 491.524
25.32000 493.423
25.33000 491.819
25.34000 489.160
25.35000 486.766
25.36000 485.402
25.37000 484.391
25.38000 483.690
25.39000 484.489
25.40000 485.487
25.41000 485.393
25.42000 481.699
25.43000 477.721
25.44000 474.925
25.45000 470.690
25.46000 467.440
25.47000 465.796
25.48000 466.677
25.49000 467.589
25.50000 462.886
25.51000 452.256
25.52000 441.671
25.53000 444.579
25.54000 456.819
25.55000 468.838
25.56000 473.711
25.57000 475.141
25.58000 476.273
25.59000 472.953
25.60000 468.147
25.61000 463.761
25.62000 468.336
25.63000 474.211
25.64000 478.812
25.65000 476.491
25.66000 473.131
25.67000 470.834
25.68000 472.428
25.69000 474.378
25.70000 475.794
25.71000 478.102
25.72000 479.910
25.73000 482.552
25.74000 486.648
25.75000 490.772
25.76000 489.608
25.77000 482.190
25.78000 474.776
25.79000 472.789
25.80000 475.029
25.81000 477.027
25.82000 468.567
25.83000 454.531
25.84000 441.435
25.85000 445.156
25.86000 455.086
25.87000 464.268
25.88000 461.146
25.89000 455.536
25.90000 450.155
25.91000 446.184
25.92000 442.452
25.93000 440.451
25.94000 445.477
25.95000 451.251
25.96000 455.563
25.97000 465.027
25.98000 472.641
25.99000 476.430
26.00000 472.831
26.01000 469.047
26.02000 463.322
26.03000 455.034
26.04000 446.740
26.05000 451.301
26.06000 467.055
26.07000 482.589
26.08000 484.639
26.09000 478.727
26.10000 472.950
26.11000 470.127
26.12000 468.511
26.13000 466.999
26.14000 466.173
26.15000 465.600
26.16000 464.784
26.17000 462.300
26.18000 459.499
26.19000 457.684
26.20000 460.331
26.21000 463.522
26.22000 465.971
26.23000 453.384
26.24000 442.596
26.25000 437.919
26.26000 446.300
26.27000 455.114
26.28000 463.218
26.29000 470.277
26.30000 477.326
26.31000 476.027
26.32000 466.554
26.33000 457.156
26.34000 454.867
26.35000 457.235
26.36000 459.491
26.37000 458.690
26.38000 456.508
26.39000 454.443
26.40000 454.558
26.41000 455.289
26.42000 455.450
26.43000 451.152
26.44000 445.906
26.45000 442.845
26.46000 450.815
26.47000 460.316
26.48000 467.797
26.49000 461.027
26.50000 454.653
26.51000 449.389
26.52000 446.750
26.53000 444.222
26.54000 445.661
26.55000 453.577
26.56000 461.586
26.57000 465.782
26.58000 459.959
26.59000 456.066
26.60000 461.311
26.61000 473.212
26.62000 484.728
26.63000 482.432
26.64000 473.240
26.65000 464.458
26.66000 455.536
26.67000 447.196
26.68000 439.990
26.69000 442.926
26.70000 448.267
26.71000 452.689
26.72000 451.913
26.73000 450.320
26.74000 449.036
26.75000 448.232
26.76000 447.617
26.77000 448.175
26.78000 451.797
26.79000 455.578
26.80000 458.733
26.81000 460.753
26.82000 462.750
26.83000 463.853
26.84000 458.408
26.85000 454.649
26.86000 454.022
26.87000 455.938
26.88000 457.725
26.89000 453.250
26.90000 445.313
26.91000 437.664
26.92000 438.919
26.93000 443.301
26.94000 447.871
26.95000 454.374
26.96000 461.389
26.97000 466.858
26.98000 462.490
26.99000 456.384
27.00000 451.351
27.01000 446.917
27.02000 443.324
27.03000 440.393
27.04000 439.376
27.05000 438.480
27.06000 441.246
27.07000 451.345
27.08000 461.650
27.09000 467.627
27.10000 478.794
27.11000 486.645
27.12000 480.867
27.13000 462.703
27.14000 444.697
27.15000 437.863
27.16000 437.874
27.17000 437.884
27.18000 437.898
27.19000 437.913
27.20000 438.097
27.21000 440.310
27.22000 443.116
27.23000 445.549
27.24000 445.294
27.25000 444.506
27.26000 443.843
27.27000 439.979
27.28000 436.416
27.29000 433.349
27.30000 431.870
27.31000 430.510
27.32000 431.241
27.33000 436.604
27.34000 442.136
27.35000 445.492
27.36000 460.691
27.37000 471.625
27.38000 477.006
27.39000 476.715
27.40000 476.392
27.41000 472.396
27.42000 465.902
27.43000 459.551
27.44000 451.386
27.45000 442.743
27.46000 435.116
27.47000 441.892
27.48000 453.339
27.49000 463.624
27.50000 464.381
27.51000 463.030
27.52000 461.871
27.53000 454.383
27.54000 447.282
27.55000 442.213
27.56000 444.351
27.57000 447.122
27.58000 448.024
27.59000 444.344
27.60000 440.456
27.61000 437.996
27.62000 449.751
27.63000 458.441
27.64000 460.651
27.65000 455.435
27.66000 450.221
27.67000 447.230
27.68000 445.921
27.69000 444.634
27.70000 443.371
27.71000 442.160
27.72000 441.147
27.73000 443.493
27.74000 447.042
27.75000 449.792
27.76000 445.006
27.77000 438.365
27.78000 432.567
27.79000 435.462
27.80000 439.158
27.81000 440.989
27.82000 435.476
27.83000 429.213
27.84000 426.435
27.85000 433.094
27.86000 440.280
27.87000 445.005
27.88000 438.731
27.89000 433.926
27.90000 431.210
27.91000 431.171
27.92000 431.148
27.93000 434.068
27.94000 439.476
27.95000 444.822
27.96000 443.283
27.97000 437.927
27.98000 432.626
27.99000 428.441
28.00000 424.698
28.01000 421.163
28.02000 419.883
28.03000 419.221
28.04000 418.634
28.05000 428.306
28.06000 438.324
28.07000 445.771
28.08000 441.948
28.09000 436.803
28.10000 432.342
28.11000 429.931
28.12000 427.657
28.13000 426.107
28.14000 433.165
28.15000 438.638
28.16000 440.507
28.17000 437.234
28.18000 433.924
28.19000 435.666
28.20000 442.194
28.21000 448.673
28.22000 451.210
28.23000 451.240
28.24000 451.080
28.25000 446.018
28.26000 438.806
28.27000 432.266
28.28000 434.270
28.29000 438.868
28.30000 443.011
28.31000 437.256
28.32000 430.418
28.33000 425.228
28.34000 428.103
28.35000 432.058
28.36000 435.087
28.37000 435.046
28.38000 434.761
28.39000 434.561
28.40000 431.493
28.41000 429.081
28.42000 424.792
28.43000 417.529
28.44000 410.229
28.45000 410.089
28.46000 417.575
28.47000 425.031
28.48000 422.996
28.49000 414.344
28.50000 406.003
28.51000 407.958
28.52000 414.910
28.53000 421.525
28.54000 423.073
28.55000 422.916
28.56000 422.774
28.57000 427.045
28.58000 431.740
28.59000 436.014
28.60000 437.979
28.61000 439.595
28.62000 439.931
28.63000 435.557
28.64000 430.745
28.65000 427.246
28.66000 424.909
28.67000 423.154
28.68000 422.026
28.69000 421.997
28.70000 421.988
28.71000 422.998
28.72000 425.225
28.73000 427.449
28.74000 429.282
28.75000 430.799
28.76000 432.277
28.77000 431.982
28.78000 430.737
28.79000 429.497
28.80000 428.380
28.81000 427.307
28.82000 426.314
28.83000 424.835
28.84000 423.394
28.85000 422.653
28.86000 426.218
28.87000 430.520
28.88000 434.100
28.89000 434.725
28.90000 435.034
28.91000 435.265
28.92000 430.218
28.93000 426.033
28.94000 420.885
28.95000 413.862
28.96000 406.790
28.97000 402.203
28.98000 400.922
28.99000 399.659
29.00000 401.363
29.01000 405.672
29.02000 409.958
29.03000 412.844
29.04000 414.898
29.05000 417.016
29.06000 420.578
29.07000 424.734
29.08000 428.626
29.09000 424.095
29.10000 417.797
29.11000 413.135
29.12000 419.846
29.13000 428.739
29.14000 435.301
29.15000 431.249
29.16000 425.890
29.17000 421.769
29.18000 414.766
29.19000 409.063
29.20000 408.302
29.21000 418.175
29.22000 428.408
29.23000 434.632
29.24000 434.918
29.25000 435.149
29.26000 431.435
29.27000 423.827
29.28000 416.236
29.29000 410.423
29.30000 405.782
29.31000 401.527
29.32000 408.096
29.33000 419.588
29.34000 430.468
29.35000 425.194
29.36000 415.663
29.37000 407.200
29.38000 407.179
29.39000 408.968
29.40000 411.001
29.41000 414.275
29.42000 417.723
29.43000 420.442
29.44000 425.867
29.45000 430.401
29.46000 433.415
29.47000 432.812
29.48000 432.055
29.49000 428.535
29.50000 420.473
29.51000 412.345
29.52000 408.069
29.53000 413.457
29.54000 417.091
29.55000 416.528
29.56000 412.884
29.57000 409.325
29.58000 408.842
29.59000 409.907
29.60000 410.925
29.61000 410.892
29.62000 410.521
29.63000 410.431
29.64000 412.891
29.65000 415.961
29.66000 418.566
29.67000 418.522
29.68000 418.058
29.69000 417.683
29.70000 426.976
29.71000 435.300
29.72000 442.351
29.73000 446.050
29.74000 449.572
29.75000 449.028
29.76000 441.076
29.77000 432.967
29.78000 428.471
29.79000 426.538
29.80000 425.216
29.81000 427.199
29.82000 431.890
29.83000 436.491
29.84000 436.645
29.85000 434.321
29.86000 432.081
29.87000 435.084
29.88000 439.809
29.89000 443.893
29.90000 441.293
29.91000 436.918
29.92000 434.247
29.93000 442.526
29.94000 452.756
29.95000 461.201
29.96000 457.520
29.97000 453.361
29.98000 450.453
29.99000 451.191
30.00000 452.161
30.01000 453.641
30.02000 456.148
30.03000 458.685
30.04000 460.161
30.05000 465.923
30.06000 469.987
30.07000 465.100
30.08000 452.013
30.09000 439.101
30.10000 438.867
30.11000 446.460
30.12000 453.838
30.13000 454.269
30.14000 451.865
30.15000 449.774
30.16000 451.490
30.17000 454.328
30.18000 456.626
30.19000 454.996
30.20000 452.581
30.21000 450.546
30.22000 444.196
30.23000 438.431
30.24000 435.561
30.25000 442.019
30.26000 449.184
30.27000 451.504
30.28000 443.014
30.29000 434.125
30.30000 428.715
30.31000 443.324
30.32000 453.916
30.33000 456.106
30.34000 449.644
30.35000 443.197
30.36000 438.731
30.37000 435.621
30.38000 432.579
30.39000 435.084
30.40000 439.998
30.41000 444.601
30.42000 444.754
30.43000 443.453
30.44000 442.162
30.45000 440.951
30.46000 439.758
30.47000 438.733
30.48000 437.924
30.49000 437.267
30.50000 438.342
30.51000 445.606
30.52000 453.421
30.53000 455.111
30.54000 441.692
30.55000 427.573
30.56000 418.616
30.57000 424.144
30.58000 428.333
30.59000 430.426
30.60000 430.099
30.61000 429.793
30.62000 435.144
30.63000 444.811
30.64000 454.324
30.65000 452.176
30.66000 444.206
30.67000 437.156
30.68000 445.895
30.69000 460.340
30.70000 473.332
30.71000 472.504
30.72000 468.245
30.73000 464.522
30.74000 463.251
30.75000 462.509
30.76000 463.629
30.77000 472.129
30.78000 481.391
30.79000 488.111
30.80000 487.896
30.81000 487.289
30.82000 486.888
30.83000 474.191
30.84000 464.619
30.85000 462.540
30.86000 470.130
30.87000 477.763
30.88000 488.423
30.89000 501.662
30.90000 514.754
30.91000 521.788
30.92000 525.240
30.93000 528.806
30.94000 534.755
30.95000 541.657
30.96000 548.429
30.97000 553.780
30.98000 558.740
30.99000 563.145
31.00000 587.614
31.01000 612.066
31.02000 636.181
31.03000 658.810
31.04000 681.262
31.05000 708.492
31.06000 750.143
31.07000 792.775
31.08000 821.902
31.09000 884.817
31.10000 932.679
31.11000 983.434
31.12000 1038.347
31.13000 1093.296
31.14000 1167.548
31.15000 1260.235
31.16000 1352.261
31.17000 1443.055
31.18000 1531.619
31.19000 1621.087
31.20000 1734.232
31.21000 1857.840
31.22000 1982.848
31.23000 2125.871
31.24000 2274.406
31.25000 2408.372
31.26000 2538.285
31.27000 2651.621
31.28000 2768.472
31.29000 2902.654
31.30000 3039.176
31.31000 3170.626
31.32000 3285.119
31.33000 3398.248
31.34000 3478.157
31.35000 3529.415
31.36000 3567.454
31.37000 3588.941
31.38000 3584.006
31.39000 3578.727
31.40000 3572.720
31.41000 3565.933
31.42000 3559.173
31.43000 3506.564
31.44000 3422.136
31.45000 3337.595
31.46000 3249.264
31.47000 3159.080
31.48000 3067.174
31.49000 2948.966
31.50000 2821.851
31.51000 2705.592
31.52000 2550.122
31.53000 2403.847
31.54000 2262.549
31.55000 2148.726
31.56000 2039.105
31.57000 1927.829
31.58000 1810.414
31.59000 1692.422
31.60000 1606.454
31.61000 1501.064
31.62000 1419.154
31.63000 1341.746
31.64000 1272.306
31.65000 1203.018
31.66000 1133.171
31.67000 1062.652
31.68000 992.260
31.69000 941.276
31.70000 905.855
31.71000 870.542
31.72000 840.115
31.73000 812.331
31.74000 784.676
31.75000 759.399
31.76000 735.013
31.77000 712.423
31.78000 685.797
31.79000 660.907
31.80000 637.339
31.81000 621.978
31.82000 608.032
31.83000 593.096
31.84000 574.079
31.85000 554.620
31.86000 540.026
31.87000 531.376
31.88000 524.901
31.89000 515.482
31.90000 500.293
31.91000 484.952
31.92000 473.394
31.93000 466.911
31.94000 460.457
31.95000 457.261
31.96000 456.954
31.97000 456.689
31.98000 459.091
31.99000 463.091
32.00000 466.513
32.01000 456.863
32.02000 441.797
32.03000 427.675
32.04000 429.445
32.05000 435.197
32.06000 440.000
32.07000 438.144
32.08000 435.000
32.09000 432.606
32.10000 433.649
32.11000 435.120
32.12000 436.253
32.13000 436.579
32.14000 436.791
32.15000 432.862
32.16000 419.958
32.17000 406.746
32.18000 399.519
32.19000 401.225
32.20000 403.018
32.21000 406.303
32.22000 411.077
32.23000 415.812
32.24000 416.654
32.25000 414.908
32.26000 413.144
32.27000 410.886
32.28000 408.401
32.29000 406.046
32.30000 400.999
32.31000 395.564
32.32000 391.264
32.33000 396.012
32.34000 402.716
32.35000 409.059
32.36000 413.553
32.37000 417.785
32.38000 421.129
32.39000 417.013
32.40000 413.200
32.41000 407.749
32.42000 398.375
32.43000 388.830
32.44000 382.440
32.45000 381.279
32.46000 380.197
32.47000 379.625
32.48000 383.753
32.49000 386.579
32.50000 393.168
32.51000 402.541
32.52000 411.616
32.53000 409.605
32.54000 401.978
32.55000 394.681
32.56000 387.842
32.57000 381.623
32.58000 376.683
32.59000 383.426
32.60000 392.982
32.61000 401.720
32.62000 405.748
32.63000 409.024
32.64000 411.673
32.65000 409.207
32.66000 406.788
32.67000 403.295
32.68000 396.952
32.69000 390.456
32.70000 386.103
32.71000 385.681
32.72000 385.345
32.73000 385.158
32.74000 395.857
32.75000 403.259
32.76000 402.565
32.77000 395.188
32.78000 387.987
32.79000 389.768
32.80000 396.589
32.81000 403.169
32.82000 406.057
32.83000 407.425
32.84000 409.582
32.85000 420.061
32.86000 432.770
32.87000 444.179
32.88000 447.175
32.89000 448.659
32.90000 449.886
32.91000 440.103
32.92000 431.003
32.93000 424.517
32.94000 425.698
32.95000 427.375
32.96000 426.815
32.97000 421.712
32.98000 416.477
32.99000 413.420
33.00000 405.389
33.01000 399.718
33.02000 397.086
33.03000 397.260
33.04000 397.481
33.05000 401.088
33.06000 406.801
33.07000 412.356
33.08000 404.984
33.09000 392.695
33.10000 380.732
33.11000 372.793
33.12000 366.048
33.13000 360.799
33.14000 366.538
33.15000 374.488
33.16000 381.196
33.17000 374.739
33.18000 367.913
33.19000 362.474
33.20000 361.539
33.21000 360.950
33.22000 359.635
33.23000 356.690
33.24000 353.684
33.25000 351.849
33.26000 356.289
33.27000 359.515
33.28000 358.036
33.29000 351.668
33.30000 345.350
33.31000 345.015
33.32000 348.812
33.33000 352.529
33.34000 352.371
33.35000 350.453
33.36000 348.752
33.37000 350.222
33.38000 352.734
33.39000 355.133
33.40000 356.583
33.41000 357.819
33.42000 358.882
33.43000 355.765
33.44000 352.604
33.45000 350.001
33.46000 349.406
33.47000 348.992
33.48000 348.271
33.49000 346.788
33.50000 345.269
33.51000 344.302
33.52000 333.381
33.53000 325.322
33.54000 327.217
33.55000 340.705
33.56000 354.166
33.57000 357.319
33.58000 352.544
33.59000 347.844
33.60000 347.020
33.61000 348.197
33.62000 349.239
33.63000 347.952
33.64000 345.817
33.65000 343.922
33.66000 344.338
33.67000 345.331
33.68000 346.201
33.69000 347.283
33.70000 348.241
33.71000 349.236
33.72000 350.378
33.73000 351.536
33.74000 351.577
33.75000 348.549
33.76000 345.345
33.77000 343.227
33.78000 345.614
33.79000 347.456
33.80000 348.858
33.81000 349.688
33.82000 350.514
33.83000 350.427
33.84000 349.556
33.85000 348.693
33.86000 349.097
33.87000 350.211
33.88000 351.114
33.89000 347.531
33.90000 342.142
33.91000 337.583
33.92000 342.257
33.93000 349.497
33.94000 355.936
33.95000 350.559
33.96000 343.972
33.97000 339.691
33.98000 345.674
33.99000 352.885
34.00000 357.711
34.01000 355.290
34.02000 352.369
34.03000 350.369
34.04000 343.682
34.05000 338.562
34.06000 338.288
34.07000 345.033
34.08000 351.835
34.09000 350.903
34.10000 342.524
34.11000 334.202
34.12000 332.996
34.13000 336.329
34.14000 339.475
34.15000 337.633
34.16000 333.571
34.17000 330.231
34.18000 336.288
34.19000 345.240
34.20000 353.323
34.21000 347.146
34.22000 339.092
34.23000 333.102
34.24000 337.366
34.25000 343.028
34.26000 347.120
34.27000 345.923
34.28000 344.296
34.29000 343.144
34.30000 340.805
34.31000 338.990
34.32000 339.420
34.33000 343.458
34.34000 347.544
34.35000 346.447
34.36000 339.738
34.37000 333.053
34.38000 327.537
34.39000 322.902
34.40000 318.454
34.41000 320.421
34.42000 325.547
34.43000 330.725
34.44000 336.707
34.45000 342.962
34.46000 348.689
34.47000 346.102
34.48000 342.073
34.49000 337.995
34.50000 333.648
34.51000 329.259
34.52000 327.054
34.53000 333.005
34.54000 339.730
34.55000 344.641
34.56000 330.734
34.57000 319.278
34.58000 314.243
34.59000 320.654
34.60000 327.289
34.61000 330.092
34.62000 328.249
34.63000 326.399
34.64000 325.880
34.65000 326.424
34.66000 326.920
34.67000 325.220
34.68000 322.324
34.69000 319.577
34.70000 319.620
34.71000 320.716
34.72000 321.732
34.73000 320.566
34.74000 319.006
34.75000 317.318
34.76000 314.833
34.77000 312.210
34.78000 311.031
34.79000 315.854
34.80000 321.334
34.81000 325.452
34.82000 320.891
34.83000 316.909
34.84000 314.329
34.85000 314.517
34.86000 314.779
34.87000 317.022
34.88000 321.941
34.89000 326.874
34.90000 330.210
34.91000 332.118
34.92000 333.979
34.93000 332.772
34.94000 329.711
34.95000 327.017
34.96000 332.731
34.97000 341.953
34.98000 350.605
34.99000 340.818
35.00000 327.058
35.01000 315.832
35.02000 322.537
35.03000 332.739
35.04000 339.921
35.05000 333.126
35.06000 324.579
35.07000 317.981
35.08000 315.796
35.09000 314.319
35.10000 313.521
35.11000 314.202
35.12000 314.935
35.13000 315.422
35.14000 315.537
35.15000 315.648
35.16000 315.704
35.17000 320.169
35.18000 323.132
35.19000 324.456
35.20000 324.682
35.21000 324.872
35.22000 324.039
35.23000 322.734
35.24000 321.497
35.25000 323.268
35.26000 325.786
35.27000 327.764
35.28000 325.396
35.29000 322.080
35.30000 319.119
35.31000 317.988
35.32000 317.118
35.33000 316.429
35.34000 318.740
35.35000 320.805
35.36000 322.272
35.37000 322.296
35.38000 322.256
35.39000 321.576
35.40000 319.829
35.41000 318.066
35.42000 317.131
35.43000 322.227
35.44000 325.666
35.45000 323.383
35.46000 316.834
35.47000 310.472
35.48000 311.221
35.49000 315.599
35.50000 319.790
35.51000 321.907
35.52000 323.196
35.53000 324.168
35.54000 322.216
35.55000 319.554
35.56000 317.288
35.57000 317.311
35.58000 317.703
35.59000 318.021
35.60000 316.711
35.61000 315.511
35.62000 315.652
35.63000 319.370
35.64000 323.282
35.65000 324.692
35.66000 321.471
35.67000 318.149
35.68000 316.293
35.69000 316.282
35.70000 316.279
35.71000 316.349
35.72000 316.480
35.73000 316.565
35.74000 314.264
35.75000 310.613
35.76000 307.089
35.77000 309.862
35.78000 314.794
35.79000 319.157
35.80000 317.462
35.81000 314.133
35.82000 310.777
35.83000 307.244
35.84000 303.680
35.85000 300.728
35.86000 299.846
35.87000 299.315
35.88000 301.615
35.89000 312.276
35.90000 323.485
35.91000 328.542
35.92000 321.006
35.93000 313.098
35.94000 308.464
35.95000 306.140
35.96000 304.515
35.97000 306.076
35.98000 310.606
35.99000 315.042
36.00000 312.229
36.01000 304.874
36.02000 297.719
36.03000 301.551
36.04000 309.719
36.05000 316.826
36.06000 310.723
36.07000 300.667
36.08000 292.268
36.09000 296.141
36.10000 302.504
36.11000 307.880
36.12000 308.704
36.13000 308.892
36.14000 309.521
36.15000 311.586
36.16000 313.763
36.17000 313.518
36.18000 307.795
36.19000 301.862
36.20000 298.228
36.21000 299.032
36.22000 299.645
36.23000 299.087
36.24000 297.303
36.25000 295.556
36.26000 298.548
36.27000 304.837
36.28000 310.996
36.29000 308.849
36.30000 302.969
36.31000 297.771
36.32000 302.590
36.33000 310.729
36.34000 317.618
36.35000 313.960
36.36000 307.913
36.37000 302.707
36.38000 305.563
36.39000 308.999
36.40000 311.191
36.41000 308.867
36.42000 306.132
36.43000 304.169
36.44000 304.141
36.45000 304.204
36.46000 304.245
36.47000 308.426
36.48000 311.520
36.49000 312.180
36.50000 309.983
36.51000 307.795
36.52000 309.340
36.53000 313.778
36.54000 318.148
36.55000 315.809
36.56000 310.097
36.57000 304.500
36.58000 300.928
36.59000 298.100
36.60000 295.781
36.61000 298.417
36.62000 302.301
36.63000 305.704
36.64000 304.510
36.65000 302.823
36.66000 301.453
36.67000 301.363
36.68000 301.408
36.69000 304.497
36.70000 316.013
36.71000 328.020
36.72000 335.978
36.73000 327.330
36.74000 320.639
36.75000 313.194
36.76000 304.759
36.77000 296.328
36.78000 294.612
36.79000 298.709
36.80000 302.763
36.81000 304.759
36.82000 305.530
36.83000 306.102
36.84000 302.399
36.85000 296.962
36.86000 292.647
36.87000 300.952
36.88000 312.790
36.89000 323.331
36.90000 316.955
36.91000 308.642
36.92000 302.245
36.93000 304.446
36.94000 307.684
36.95000 308.551
36.96000 302.152
36.97000 295.247
36.98000 290.506
36.99000 298.032
37.00000 303.974
37.01000 308.630
37.02000 311.411
37.03000 314.176
37.04000 316.135
37.05000 317.311
37.06000 318.480
37.07000 313.447
37.08000 304.518
37.09000 295.983
37.10000 298.156
37.11000 305.130
37.12000 311.946
37.13000 316.686
37.14000 320.780
37.15000 324.481
37.16000 321.250
37.17000 317.120
37.18000 313.333
37.19000 311.255
37.20000 309.412
37.21000 308.134
37.22000 308.767
37.23000 309.558
37.24000 310.119
37.25000 300.501
37.26000 292.862
37.27000 290.707
37.28000 297.437
37.29000 304.290
37.30000 308.944
37.31000 311.198
37.32000 313.443
37.33000 310.821
37.34000 304.733
37.35000 298.678
37.36000 293.733
37.37000 289.338
37.38000 285.319
37.39000 287.176
37.40000 291.053
37.41000 294.606
37.42000 297.824
37.43000 300.620
37.44000 303.342
37.45000 305.652
37.46000 307.896
37.47000 308.827
37.48000 304.815
37.49000 300.328
37.50000 297.045
37.51000 301.101
37.52000 304.522
37.53000 306.622
37.54000 306.349
37.55000 306.029
37.56000 304.725
37.57000 302.219
37.58000 299.715
37.59000 299.006
37.60000 299.741
37.61000 300.503
37.62000 302.490
37.63000 305.151
37.64000 307.781
37.65000 309.824
37.66000 311.643
37.67000 313.332
37.68000 308.111
37.69000 301.775
37.70000 297.342
37.71000 304.923
37.72000 314.610
37.73000 321.324
37.74000 315.596
37.75000 308.492
37.76000 303.142
37.77000 302.926
37.78000 303.006
37.79000 303.510
37.80000 304.858
37.81000 306.229
37.82000 305.832
37.83000 303.028
37.84000 300.211
37.85000 298.803
37.86000 298.667
37.87000 298.588
37.88000 302.408
37.89000 308.600
37.90000 314.691
37.91000 318.415
37.92000 321.145
37.93000 323.708
37.94000 315.717
37.95000 305.636
37.96000 296.916
37.97000 297.921
37.98000 300.838
37.99000 302.918
38.00000 301.092
38.01000 298.772
38.02000 296.978
38.03000 301.021
38.04000 304.573
38.05000 305.237
38.06000 299.552
38.07000 293.639
38.08000 292.890
38.09000 299.962
38.10000 307.115
38.11000 310.714
38.12000 320.014
38.13000 326.209
38.14000 330.381
38.15000 333.186
38.16000 335.894
38.17000 335.725
38.18000 334.218
38.19000 332.788
38.20000 331.676
38.21000 330.745
38.22000 330.446
38.23000 335.290
38.24000 341.264
38.25000 346.298
38.26000 346.434
38.27000 345.866
38.28000 345.416
38.29000 353.948
38.30000 361.439
38.31000 365.445
38.32000 360.975
38.33000 356.124
38.34000 356.778
38.35000 366.689
38.36000 376.748
38.37000 382.102
38.38000 400.622
38.39000 413.219
38.40000 421.457
38.41000 426.419
38.42000 431.390
38.43000 436.754
38.44000 442.320
38.45000 447.651
38.46000 471.135
38.47000 499.066
38.48000 525.470
38.49000 537.650
38.50000 546.350
38.51000 556.306
38.52000 573.611
38.53000 592.109
38.54000 607.119
38.55000 630.615
38.56000 650.468
38.57000 667.741
38.58000 678.079
38.59000 688.034
38.60000 702.631
38.61000 725.875
38.62000 749.313
38.63000 762.450
38.64000 790.887
38.65000 810.622
38.66000 822.788
38.67000 828.607
38.68000 834.205
38.69000 827.940
38.70000 814.923
38.71000 802.350
38.72000 805.362
38.73000 813.990
38.74000 819.604
38.75000 792.756
38.76000 757.085
38.77000 725.587
38.78000 721.615
38.79000 722.672
38.80000 723.549
38.81000 694.570
38.82000 667.766
38.83000 641.957
38.84000 619.106
38.85000 596.451
38.86000 576.483
38.87000 562.052
38.88000 547.789
38.89000 539.405
38.90000 522.445
38.91000 510.440
38.92000 495.052
38.93000 476.483
38.94000 457.957
38.95000 442.822
38.96000 429.825
38.97000 417.177
38.98000 413.506
38.99000 413.735
39.00000 413.272
39.01000 404.112
39.02000 392.331
39.03000 380.576
39.04000 369.023
39.05000 357.510
39.06000 347.770
39.07000 351.569
39.08000 356.252
39.09000 356.473
39.10000 341.996
39.11000 326.365
39.12000 315.360
39.13000 314.903
39.14000 314.856
39.15000 314.827
39.16000 319.955
39.17000 323.675
39.18000 321.663
39.19000 313.598
39.20000 305.587
39.21000 304.975
39.22000 309.550
39.23000 314.032
39.24000 313.267
39.25000 310.101
39.26000 307.038
39.27000 305.504
39.28000 304.482
39.29000 303.739
39.30000 305.378
39.31000 307.560
39.32000 309.441
39.33000 303.782
39.34000 298.022
39.35000 293.766
39.36000 295.002
39.37000 296.743
39.38000 297.006
39.39000 293.547
39.40000 289.907
39.41000 287.578
39.42000 289.282
39.43000 290.576
39.44000 290.423
39.45000 288.556
39.46000 286.696
39.47000 287.327
39.48000 289.903
39.49000 292.440
39.50000 288.771
39.51000 281.999
39.52000 275.700
39.53000 277.869
39.54000 283.164
39.55000 287.805
39.56000 286.030
39.57000 282.625
39.58000 279.638
39.59000 275.084
39.60000 270.945
39.61000 268.775
39.62000 274.599
39.63000 281.273
39.64000 287.476
39.65000 292.370
39.66000 297.187
39.67000 300.387
39.68000 289.635
39.69000 281.425
39.70000 277.127
39.71000 277.997
39.72000 278.895
39.73000 282.609
39.74000 288.781
39.75000 294.891
39.76000 290.770
39.77000 280.828
39.78000 271.372
39.79000 272.565
39.80000 278.108
39.81000 283.061
39.82000 281.305
39.83000 277.656
39.84000 274.404
39.85000 271.305
39.86000 268.635
39.87000 266.865
39.88000 269.161
39.89000 271.953
39.90000 274.442
39.91000 275.995
39.92000 277.481
39.93000 278.504
39.94000 269.438
39.95000 262.382
39.96000 257.100
39.97000 254.424
39.98000 251.771
39.99000 253.271
40.00000 258.839
40.01000 264.370
40.02000 267.200
40.03000 268.245
40.04000 269.413
40.05000 273.999
40.06000 280.128
40.07000 285.256
40.08000 277.040
40.09000 264.652
40.10000 253.444
40.11000 261.149
40.12000 271.477
40.13000 279.350
40.14000 274.828
40.15000 268.585
40.16000 263.490
40.17000 262.315
40.18000 261.467
40.19000 260.863
40.20000 266.271
40.21000 270.582
40.22000 271.517
40.23000 266.941
40.24000 262.286
40.25000 258.669
40.26000 256.194
40.27000 253.728
40.28000 257.073
40.29000 264.585
40.30000 271.833
40.31000 269.597
40.32000 262.623
40.33000 256.162
40.34000 257.832
40.35000 262.317
40.36000 266.430
40.37000 269.690
40.38000 272.414
40.39000 274.835
40.40000 275.538
40.41000 275.970
40.42000 276.237
40.43000 275.875
40.44000 275.452
40.45000 275.141
40.46000 273.614
40.47000 272.386
40.48000 269.577
40.49000 263.908
40.50000 258.180
40.51000 256.957
40.52000 261.283
40.53000 265.617
40.54000 265.396
40.55000 261.490
40.56000 257.645
40.57000 256.712
40.58000 257.391
40.59000 258.049
40.60000 258.304
40.61000 258.404
40.62000 258.497
40.63000 259.856
40.64000 261.382
40.65000 262.611
40.66000 261.944
40.67000 260.943
40.68000 259.682
40.69000 257.323
40.70000 254.841
40.71000 252.969
40.72000 258.707
40.73000 263.579
40.74000 266.816
40.75000 266.779
40.76000 266.651
40.77000 263.357
40.78000 255.719
40.79000 248.057
40.80000 244.913
40.81000 245.877
40.82000 246.881
40.83000 250.682
40.84000 256.196
40.85000 261.411
40.86000 259.540
40.87000 254.670
40.88000 250.094
40.89000 248.286
40.90000 247.375
40.91000 246.929
40.92000 249.831
40.93000 253.397
40.94000 255.975
40.95000 253.909
40.96000 251.249
40.97000 249.189
40.98000 248.668
40.99000 248.346
41.00000 249.017
41.01000 251.889
41.02000 254.840
41.03000 256.863
41.04000 257.467
41.05000 258.055
41.06000 258.353
41.07000 263.998
41.08000 267.736
41.09000 267.138
41.10000 263.591
41.11000 259.983
41.12000 254.555
41.13000 248.276
41.14000 242.314
41.15000 247.194
41.16000 254.942
41.17000 261.721
41.18000 260.544
41.19000 257.606
41.20000 254.225
41.21000 248.518
41.22000 242.473
41.23000 237.672
41.24000 246.318
41.25000 254.232
41.26000 258.061
41.27000 251.887
41.28000 245.255
41.29000 242.515
41.30000 246.367
41.31000 250.326
41.32000 252.441
41.33000 251.725
41.34000 251.232
41.35000 250.124
41.36000 248.552
41.37000 247.028
41.38000 247.463
41.39000 248.911
41.40000 250.300
41.41000 251.453
41.42000 252.452
41.43000 253.337
41.44000 253.154
41.45000 252.709
41.46000 251.724
41.47000 247.559
41.48000 242.871
41.49000 239.062
41.50000 243.692
41.51000 248.173
41.52000 251.608
41.53000 252.210
41.54000 252.654
41.55000 252.135
41.56000 249.809
41.57000 247.441
41.58000 246.109
41.59000 244.965
41.60000 244.174
41.61000 244.912
41.62000 246.944
41.63000 248.972
41.64000 250.795
41.65000 252.501
41.66000 254.150
41.67000 249.865
41.68000 243.602
41.69000 238.352
41.70000 244.129
41.71000 252.925
41.72000 259.867
41.73000 254.468
41.74000 246.796
41.75000 240.426
41.76000 236.236
41.77000 232.983
41.78000 231.948
41.79000 237.563
41.80000 243.624
41.81000 247.166
41.82000 245.477
41.83000 243.627
41.84000 242.536
41.85000 246.417
41.86000 249.183
41.87000 250.159
41.88000 249.438
41.89000 248.766
41.90000 252.068
41.91000 257.897
41.92000 263.572
41.93000 262.834
41.94000 259.448
41.95000 255.992
41.96000 251.654
41.97000 247.048
41.98000 242.954
41.99000 242.724
42.00000 243.291
42.01000 243.771
42.02000 242.130
42.03000 240.517
42.04000 238.584
42.05000 235.590
42.06000 232.512
42.07000 231.754
42.08000 236.324
42.09000 241.104
42.10000 244.050
42.11000 244.291
42.12000 244.441
42.13000 244.331
42.14000 243.946
42.15000 243.555
42.16000 242.484
42.17000 240.931
42.18000 239.410
42.19000 241.715
42.20000 245.721
42.21000 249.579
42.22000 251.217
42.23000 252.109
42.24000 252.451
42.25000 248.065
42.26000 242.590
42.27000 237.865
42.28000 243.097
42.29000 248.819
42.30000 252.339
42.31000 247.755
42.32000 242.419
42.33000 240.176
42.34000 245.784
42.35000 251.778
42.36000 255.624
42.37000 255.298
42.38000 255.003
42.39000 254.707
42.40000 254.410
42.41000 254.100
42.42000 250.227
42.43000 243.551
42.44000 236.971
42.45000 234.252
42.46000 233.624
42.47000 233.023
42.48000 232.884
42.49000 232.918
42.50000 232.885
42.51000 232.185
42.52000 231.314
42.53000 230.549
42.54000 230.654
42.55000 230.871
42.56000 231.937
42.57000 236.477
42.58000 241.390
42.59000 244.002
42.60000 240.153
42.61000 235.918
42.62000 233.097
42.63000 240.904
42.64000 246.884
42.65000 248.636
42.66000 244.755
42.67000 240.849
42.68000 239.357
42.69000 239.988
42.70000 240.613
42.71000 244.561
42.72000 250.361
42.73000 255.782
42.74000 252.769
42.75000 246.288
42.76000 239.982
42.77000 235.693
42.78000 231.977
42.79000 228.660
42.80000 227.588
42.81000 227.029
42.82000 227.963
42.83000 235.698
42.84000 244.270
42.85000 250.673
42.86000 250.337
42.87000 249.519
42.88000 248.955
42.89000 240.522
42.90000 233.986
42.91000 228.803
42.92000 225.625
42.93000 222.465
42.94000 225.468
42.95000 234.557
42.96000 243.590
42.97000 246.341
42.98000 244.965
42.99000 243.526
43.00000 240.327
43.01000 236.328
43.02000 232.757
43.03000 234.965
43.04000 238.993
43.05000 242.640
43.06000 242.950
43.07000 242.592
43.08000 241.975
43.09000 240.039
43.10000 237.920
43.11000 237.032
43.12000 240.388
43.13000 244.100
43.14000 246.747
43.15000 236.679
43.16000 228.589
43.17000 223.665
43.18000 223.949
43.19000 224.309
43.20000 227.613
43.21000 234.183
43.22000 240.733
43.23000 240.321
43.24000 234.843
43.25000 229.451
43.26000 227.205
43.27000 226.543
43.28000 226.279
43.29000 232.412
43.30000 240.775
43.31000 248.453
43.32000 244.080
43.33000 237.609
43.34000 231.829
43.35000 229.986
43.36000 228.766
43.37000 228.646
43.38000 232.727
43.39000 237.220
43.40000 240.521
43.41000 240.251
43.42000 239.896
43.43000 237.580
43.44000 231.692
43.45000 225.728
43.46000 222.754
43.47000 223.489
43.48000 224.234
43.49000 227.751
43.50000 233.517
43.51000 239.155
43.52000 238.380
43.53000 234.033
43.54000 229.882
43.55000 229.532
43.56000 230.649
43.57000 231.687
43.58000 230.022
43.59000 227.870
43.60000 226.392
43.61000 229.246
43.62000 232.871
43.63000 236.047
43.64000 237.312
43.65000 238.363
43.66000 239.157
43.67000 236.933
43.68000 235.039
43.69000 233.656
43.70000 233.306
43.71000 232.986
43.72000 234.000
43.73000 236.861
43.74000 239.733
43.75000 240.515
43.76000 239.383
43.77000 238.247
43.78000 236.891
43.79000 235.399
43.80000 233.875
43.81000 231.564
43.82000 228.918
43.83000 226.431
43.84000 230.305
43.85000 235.557
43.86000 239.714
43.87000 235.905
43.88000 230.506
43.89000 225.976
43.90000 225.563
43.91000 225.680
43.92000 225.772
43.93000 221.755
43.94000 218.314
43.95000 218.897
43.96000 228.458
43.97000 238.351
43.98000 244.149
43.99000 243.648
44.00000 243.077
44.01000 242.787
44.02000 239.269
44.03000 236.936
44.04000 237.427
44.05000 239.854
44.06000 242.136
44.07000 239.951
44.08000 235.660
44.09000 231.583
44.10000 225.630
44.11000 219.564
44.12000 214.515
44.13000 217.886
44.14000 223.134
44.15000 227.175
44.16000 224.811
44.17000 221.510
44.18000 218.884
44.19000 226.652
44.20000 233.658
44.21000 239.464
44.22000 242.311
44.23000 245.022
44.24000 245.884
44.25000 243.593
44.26000 241.249
44.27000 239.992
44.28000 239.396
44.29000 238.994
44.30000 239.451
44.31000 240.564
44.32000 241.651
44.33000 241.676
44.34000 241.148
44.35000 240.641
44.36000 238.886
44.37000 236.827
44.38000 235.491
44.39000 241.037
44.40000 248.291
44.41000 254.592
44.42000 255.221
44.43000 254.912
44.44000 254.660
44.45000 252.332
44.46000 250.255
44.47000 249.422
44.48000 251.984
44.49000 254.739
44.50000 258.375
44.51000 263.675
44.52000 269.014
44.53000 272.028
44.54000 266.065
44.55000 261.904
44.56000 263.399
44.57000 269.711
44.58000 275.956
44.59000 278.439
44.60000 278.747
44.61000 279.046
44.62000 282.921
44.63000 287.928
44.64000 292.063
44.65000 286.605
44.66000 278.501
44.67000 272.844
44.68000 283.617
44.69000 297.440
44.70000 308.936
44.71000 312.579
44.72000 314.823
44.73000 319.499
44.74000 331.515
44.75000 344.030
44.76000 353.160
44.77000 355.210
44.78000 357.037
44.79000 358.118
44.80000 367.195
44.81000 373.656
44.82000 382.575
44.83000 393.840
44.84000 405.050
44.85000 411.569
44.86000 415.081
44.87000 418.503
44.88000 427.721
44.89000 438.955
44.90000 449.756
44.91000 454.979
44.92000 458.497
44.93000 462.762
44.94000 472.720
44.95000 483.861
44.96000 493.313
44.97000 502.692
44.98000 510.547
44.99000 516.582
45.00000 516.528
45.01000 515.985
45.02000 512.978
45.03000 504.272
45.04000 495.337
45.05000 489.815
45.06000 498.192
45.07000 504.339
45.08000 500.799
45.09000 486.858
45.10000 472.966
45.11000 466.616
45.12000 465.637
45.13000 464.676
45.14000 464.883
45.15000 465.631
45.16000 465.537
45.17000 452.577
45.18000 435.260
45.19000 419.332
45.20000 415.477
45.21000 414.421
45.22000 413.508
45.23000 404.598
45.24000 395.990
45.25000 387.828
45.26000 381.318
45.27000 374.964
45.28000 368.888
45.29000 363.525
45.30000 358.197
45.31000 354.769
45.32000 347.328
45.33000 341.842
45.34000 340.201
45.35000 343.184
45.36000 346.157
45.37000 343.033
45.38000 335.073
45.39000 327.224
45.40000 322.127
45.41000 318.620
45.42000 314.980
45.43000 308.880
45.44000 301.859
45.45000 295.455
45.46000 295.225
45.47000 296.586
45.48000 297.784
45.49000 293.793
45.50000 289.590
45.51000 285.683
45.52000 282.995
45.53000 280.439
45.54000 278.230
45.55000 277.000
45.56000 275.830
45.57000 275.048
45.58000 271.178
45.59000 268.250
45.60000 263.890
45.61000 257.608
45.62000 251.320
45.63000 249.352
45.64000 251.219
45.65000 253.067
45.66000 256.786
45.67000 261.526
45.68000 265.907
45.69000 262.180
45.70000 255.092
45.71000 248.573
45.72000 248.656
45.73000 250.630
45.74000 252.393
45.75000 246.686
45.76000 240.455
45.77000 235.510
45.78000 236.465
45.79000 238.153
45.80000 240.387
45.81000 244.330
45.82000 248.396
45.83000 251.209
45.84000 246.226
45.85000 242.276
45.86000 237.027
45.87000 229.839
45.88000 222.634
45.89000 220.261
45.90000 222.703
45.91000 225.130
45.92000 226.789
45.93000 227.921
45.94000 228.938
45.95000 226.672
45.96000 222.900
45.97000 219.482
45.98000 220.891
45.99000 223.832
46.00000 226.498
46.01000 223.669
46.02000 220.127
46.03000 217.301
46.04000 218.152
46.05000 219.522
46.06000 220.302
46.07000 219.035
46.08000 217.595
46.09000 216.565
46.10000 219.769
46.11000 222.354
46.12000 220.488
46.13000 211.247
46.14000 201.896
46.15000 201.230
46.16000 210.280
46.17000 219.309
46.18000 220.842
46.19000 216.861
46.20000 213.046
46.21000 215.465
46.22000 221.041
46.23000 226.064
46.24000 222.068
46.25000 214.904
46.26000 208.321
46.27000 208.908
46.28000 210.974
46.29000 212.500
46.30000 210.924
46.31000 208.852
46.32000 207.025
46.33000 206.139
46.34000 205.347
46.35000 204.764
46.36000 199.957
46.37000 196.061
46.38000 195.230
46.39000 200.026
46.40000 204.944
46.41000 205.857
46.42000 201.760
46.43000 197.652
46.44000 196.070
46.45000 196.571
46.46000 197.099
46.47000 198.930
46.48000 201.494
46.49000 204.087
46.50000 207.248
46.51000 210.630
46.52000 213.777
46.53000 209.903
46.54000 204.704
46.55000 199.729
46.56000 196.209
46.57000 192.950
46.58000 190.581
46.59000 192.021
46.60000 193.895
46.61000 195.315
46.62000 199.173
46.63000 202.326
46.64000 204.536
46.65000 204.830
46.66000 205.068
46.67000 203.528
46.68000 199.508
46.69000 195.472
46.70000 194.227
46.71000 195.560
46.72000 196.914
46.73000 199.862
46.74000 203.801
46.75000 207.660
46.76000 209.548
46.77000 210.590
46.78000 211.570
46.79000 208.845
46.80000 205.348
46.81000 202.408
46.82000 203.560
46.83000 205.536
46.84000 207.613
46.85000 210.174
46.86000 212.799
46.87000 214.840
46.88000 206.508
46.89000 199.244
46.90000 194.435
46.91000 195.145
46.92000 196.062
46.93000 197.149
46.94000 198.500
46.95000 199.855
46.96000 200.545
46.97000 195.501
46.98000 192.132
46.99000 190.558
47.00000 190.224
47.01000 189.864
47.02000 188.674
47.03000 187.091
47.04000 185.585
47.05000 188.730
47.06000 193.052
47.07000 197.046
47.08000 198.306
47.09000 198.952
47.10000 198.685
47.11000 193.550
47.12000 187.695
47.13000 183.029
47.14000 187.074
47.15000 190.968
47.16000 193.234
47.17000 191.450
47.18000 189.475
47.19000 188.852
47.20000 190.550
47.21000 192.288
47.22000 193.224
47.23000 198.527
47.24000 202.144
47.25000 202.639
47.26000 200.735
47.27000 198.871
47.28000 198.689
47.29000 199.391
47.30000 200.066
47.31000 198.828
47.32000 197.020
47.33000 195.351
47.34000 195.011
47.35000 195.002
47.36000 194.408
47.37000 190.292
47.38000 185.589
47.39000 181.755
47.40000 186.549
47.41000 191.203
47.42000 193.890
47.43000 191.174
47.44000 188.146
47.45000 186.018
47.46000 185.602
47.47000 185.228
47.48000 185.016
47.49000 186.318
47.50000 187.227
47.51000 187.205
47.52000 186.383
47.53000 185.621
47.54000 188.267
47.55000 192.896
47.56000 197.376
47.57000 198.090
47.58000 197.331
47.59000 196.384
47.60000 193.329
47.61000 189.689
47.62000 186.928
47.63000 190.130
47.64000 194.448
47.65000 198.044
47.66000 198.984
47.67000 199.499
47.68000 199.666
47.69000 198.771
47.70000 197.804
47.71000 196.741
47.72000 195.479
47.73000 194.210
47.74000 193.457
47.75000 192.184
47.76000 191.280
47.77000 189.632
47.78000 187.268
47.79000 184.900
47.80000 182.289
47.81000 179.520
47.82000 176.822
47.83000 181.713
47.84000 189.605
47.85000 197.108
47.86000 199.541
47.87000 200.412
47.88000 200.739
47.89000 196.876
47.90000 192.136
47.91000 188.108
47.92000 187.635
47.93000 187.644
47.94000 187.494
47.95000 186.809
47.96000 186.081
47.97000 186.875
47.98000 191.213
47.99000 195.696
48.00000 198.474
48.01000 195.623
48.02000 193.519
48.03000 192.694
48.04000 193.255
48.05000 193.804
48.06000 192.544
48.07000 189.987
48.08000 187.478
48.09000 189.727
48.10000 194.151
48.11000 198.280
48.12000 197.838
48.13000 195.838
48.14000 193.653
48.15000 189.855
48.16000 185.679
48.17000 182.066
48.18000 183.831
48.19000 186.038
48.20000 187.554
48.21000 186.491
48.22000 185.183
48.23000 182.795
48.24000 177.625
48.25000 172.313
48.26000 168.886
48.27000 176.733
48.28000 182.627
48.29000 184.309
48.30000 180.884
48.31000 177.456
48.32000 176.557
48.33000 177.680
48.34000 178.788
48.35000 181.394
48.36000 184.721
48.37000 187.837
48.38000 187.030
48.39000 184.741
48.40000 182.522
48.41000 181.002
48.42000 179.664
48.43000 178.485
48.44000 180.349
48.45000 182.408
48.46000 184.011
48.47000 183.719
48.48000 183.219
48.49000 182.918
48.50000 183.184
48.51000 183.486
48.52000 183.688
48.53000 185.501
48.54000 186.878
48.55000 186.564
48.56000 183.961
48.57000 181.347
48.58000 179.995
48.59000 179.773
48.60000 179.553
48.61000 183.842
48.62000 190.712
48.63000 197.301
48.64000 197.402
48.65000 194.795
48.66000 192.108
48.67000 188.471
48.68000 184.559
48.69000 181.061
48.70000 181.451
48.71000 182.452
48.72000 182.708
48.73000 179.517
48.74000 175.892
48.75000 173.153
48.76000 173.203
48.77000 173.458
48.78000 173.634
48.79000 180.212
48.80000 185.334
48.81000 188.957
48.82000 190.327
48.83000 191.674
48.84000 190.570
48.85000 187.005
48.86000 183.461
48.87000 184.082
48.88000 187.451
48.89000 190.595
48.90000 187.203
48.91000 180.794
48.92000 174.690
48.93000 172.795
48.94000 172.245
48.95000 171.746
48.96000 175.601
48.97000 179.841
48.98000 183.213
48.99000 182.098
49.00000 180.343
49.01000 179.883
49.02000 183.948
49.03000 188.404
49.04000 191.594
49.05000 188.724
49.06000 186.326
49.07000 184.850
49.08000 184.911
49.09000 184.996
49.10000 182.362
49.11000 176.663
49.12000 170.978
49.13000 170.654
49.14000 174.301
49.15000 177.882
49.16000 178.979
49.17000 178.808
49.18000 178.763
49.19000 180.798
49.20000 183.569
49.21000 186.117
49.22000 180.720
49.23000 174.175
49.24000 168.721
49.25000 169.601
49.26000 171.502
49.27000 173.055
49.28000 173.262
49.29000 173.334
49.30000 173.388
49.31000 170.389
49.32000 167.937
49.33000 169.337
49.34000 177.861
49.35000 186.543
49.36000 189.099
49.37000 183.933
49.38000 178.748
49.39000 178.613
49.40000 182.670
49.41000 186.633
49.42000 185.715
49.43000 182.040
49.44000 178.696
49.45000 181.994
49.46000 187.891
49.47000 193.382
49.48000 189.870
49.49000 184.497
49.50000 180.019
49.51000 181.392
49.52000 183.825
49.53000 186.366
49.54000 189.370
49.55000 192.428
49.56000 194.749
49.57000 186.458
49.58000 179.398
49.59000 174.896
49.60000 175.630
49.61000 176.519
49.62000 179.797
49.63000 186.431
49.64000 193.087
49.65000 194.113
49.66000 189.896
49.67000 185.717
49.68000 184.499
49.69000 185.137
49.70000 185.909
49.71000 189.997
49.72000 195.520
49.73000 200.721
49.74000 199.882
49.75000 197.461
49.76000 194.557
49.77000 188.074
49.78000 180.864
49.79000 174.921
49.80000 175.072
49.81000 176.024
49.82000 176.765
49.83000 171.719
49.84000 167.340
49.85000 166.560
49.86000 173.922
49.87000 181.595
49.88000 184.164
49.89000 178.761
49.90000 173.265
49.91000 170.453
49.92000 178.496
49.93000 183.862
49.94000 184.365
49.95000 181.483
49.96000 178.702
49.97000 179.110
49.98000 181.044
49.99000 182.884
50.00000 180.090
50.01000 176.084
50.02000 172.990
50.03000 177.605
50.04000 183.967
50.05000 188.852
50.06000 185.786
50.07000 181.535
50.08000 178.141
50.09000 185.359
50.10000 191.965
50.11000 196.162
50.12000 194.327
50.13000 192.203
50.14000 193.303
50.15000 199.986
50.16000 206.767
50.17000 210.432
50.18000 197.057
50.19000 187.912
50.20000 186.052
50.21000 189.840
50.22000 193.572
50.23000 194.976
50.24000 195.147
50.25000 195.312
50.26000 192.869
50.27000 189.689
50.28000 186.671
50.29000 185.230
50.30000 184.185
50.31000 184.192
50.32000 190.558
50.33000 197.993
50.34000 204.065
50.35000 202.639
50.36000 200.827
50.37000 199.829
50.38000 201.086
50.39000 202.474
50.40000 206.338
50.41000 214.950
50.42000 223.679
50.43000 228.641
50.44000 235.939
50.45000 241.026
50.46000 242.635
50.47000 241.231
50.48000 239.898
50.49000 242.755
50.50000 248.068
50.51000 253.211
50.52000 253.273
50.53000 251.384
50.54000 249.712
50.55000 250.493
50.56000 251.961
50.57000 254.173
50.58000 261.478
50.59000 269.744
50.60000 276.638
50.61000 269.149
50.62000 261.499
50.63000 256.668
50.64000 260.475
50.65000 264.884
50.66000 269.340
50.67000 273.895
50.68000 278.453
50.69000 281.167
50.70000 274.963
50.71000 270.514
50.72000 266.160
50.73000 261.898
50.74000 257.730
50.75000 262.137
50.76000 272.120
50.77000 281.856
50.78000 277.447
50.79000 267.181
50.80000 257.840
50.81000 260.702
50.82000 267.353
50.83000 272.709
50.84000 268.023
50.85000 261.217
50.86000 255.427
50.87000 252.590
50.88000 250.548
50.89000 249.637
50.90000 252.563
50.91000 255.805
50.92000 256.820
50.93000 252.609
50.94000 248.181
50.95000 245.428
50.96000 232.454
50.97000 223.010
50.98000 219.081
50.99000 221.174
51.00000 223.244
51.01000 221.359
51.02000 216.614
51.03000 211.958
51.04000 208.974
51.05000 206.896
51.06000 204.822
51.07000 202.809
51.08000 200.815
51.09000 199.543
51.10000 204.659
51.11000 211.278
51.12000 217.014
51.13000 212.480
51.14000 207.260
51.15000 202.418
51.16000 198.999
51.17000 195.716
51.18000 193.066
51.19000 192.059
51.20000 191.137
51.21000 190.540
51.22000 190.792
51.23000 190.989
51.24000 188.993
51.25000 184.320
51.26000 179.651
51.27000 178.610
51.28000 180.493
51.29000 182.352
51.30000 181.119
51.31000 178.270
51.32000 175.716
51.33000 178.749
51.34000 183.907
51.35000 188.645
51.36000 189.100
51.37000 188.434
51.38000 187.847
51.39000 182.338
51.40000 176.846
51.41000 172.141
51.42000 170.732
51.43000 169.688
51.44000 169.602
51.45000 172.268
51.46000 175.105
51.47000 177.010
51.48000 181.824
51.49000 185.458
51.50000 185.785
51.51000 181.605
51.52000 177.400
51.53000 173.482
51.54000 169.824
51.55000 166.199
51.56000 166.744
51.57000 169.764
51.58000 172.743
51.59000 174.766
51.60000 176.388
51.61000 177.605
51.62000 174.006
51.63000 169.008
51.64000 164.533
51.65000 170.794
51.66000 178.099
51.67000 183.994
51.68000 183.310
51.69000 181.794
51.70000 180.498
51.71000 179.900
51.72000 179.353
51.73000 178.973
51.74000 175.597
51.75000 172.973
51.76000 171.179
51.77000 170.644
51.78000 170.123
51.79000 169.816
51.80000 169.726
51.81000 169.637
51.82000 169.554
51.83000 169.475
51.84000 169.328
51.85000 167.171
51.86000 164.080
51.87000 161.338
51.88000 163.480
51.89000 167.195
51.90000 170.569
51.91000 174.323
51.92000 177.714
51.93000 179.938
51.94000 176.083
51.95000 171.352
51.96000 168.221
51.97000 170.723
51.98000 173.714
51.99000 175.861
52.00000 177.228
52.01000 178.247
52.02000 177.514
52.03000 173.834
52.04000 170.107
52.05000 167.976
52.06000 167.661
52.07000 167.348
52.08000 169.777
52.09000 174.235
52.10000 178.508
52.11000 175.593
52.12000 168.982
52.13000 162.866
52.14000 165.027
52.15000 170.138
52.16000 174.843
52.17000 168.244
52.18000 159.869
52.19000 153.329
52.20000 157.519
52.21000 163.454
52.22000 167.839
52.23000 166.167
52.24000 163.883
52.25000 162.195
52.26000 167.156
52.27000 171.289
52.28000 171.594
52.29000 164.771
52.30000 157.786
52.31000 156.514
52.32000 162.502
52.33000 168.509
52.34000 169.552
52.35000 166.441
52.36000 163.350
52.37000 161.311
52.38000 159.869
52.39000 158.575
52.40000 160.283
52.41000 163.174
52.42000 165.869
52.43000 167.370
52.44000 168.434
52.45000 168.722
52.46000 163.885
52.47000 158.111
52.48000 154.230
52.49000 158.579
52.50000 163.885
52.51000 167.919
52.52000 164.331
52.53000 161.111
52.54000 161.103
52.55000 167.716
52.56000 174.529
52.57000 176.004
52.58000 169.919
52.59000 163.780
52.60000 161.229
52.61000 162.046
52.62000 162.834
52.63000 161.232
52.64000 158.123
52.65000 155.123
52.66000 154.901
52.67000 155.889
52.68000 156.820
52.69000 159.637
52.70000 162.736
52.71000 165.589
52.72000 166.611
52.73000 167.258
52.74000 166.925
52.75000 161.843
52.76000 156.130
52.77000 151.672
52.78000 156.565
52.79000 161.053
52.80000 162.868
52.81000 158.587
52.82000 154.070
52.83000 154.538
52.84000 162.848
52.85000 171.253
52.86000 175.572
52.87000 165.976
52.88000 159.555
52.89000 157.967
52.90000 159.770
52.91000 161.630
52.92000 165.342
52.93000 169.947
52.94000 174.332
52.95000 169.112
52.96000 161.310
52.97000 154.391
52.98000 155.005
52.99000 157.338
53.00000 159.597
53.01000 161.451
53.02000 163.245
53.03000 164.679
53.04000 162.930
53.05000 161.280
53.06000 160.112
53.07000 160.157
53.08000 160.262
53.09000 160.754
53.10000 161.923
53.11000 163.104
53.12000 163.744
53.13000 160.447
53.14000 158.194
53.15000 159.111
53.16000 162.504
53.17000 165.809
53.18000 165.303
53.19000 162.766
53.20000 160.328
53.21000 160.135
53.22000 160.730
53.23000 161.155
53.24000 159.904
53.25000 158.227
53.26000 156.774
53.27000 156.690
53.28000 156.838
53.29000 156.958
53.30000 160.257
53.31000 163.235
53.32000 165.784
53.33000 167.134
53.34000 168.413
53.35000 169.865
53.36000 171.649
53.37000 173.442
53.38000 174.465
53.39000 171.111
53.40000 168.758
53.41000 166.378
53.42000 163.975
53.43000 161.588
53.44000 160.240
53.45000 159.504
53.46000 158.791
53.47000 159.560
53.48000 160.860
53.49000 162.211
53.50000 164.139
53.51000 166.230
53.52000 167.846
53.53000 166.187
53.54000 163.905
53.55000 161.999
53.56000 163.472
53.57000 165.035
53.58000 167.012
53.59000 170.262
53.60000 173.603
53.61000 174.304
53.62000 169.367
53.63000 164.241
53.64000 161.180
53.65000 158.632
53.66000 156.828
53.67000 157.287
53.68000 159.960
53.69000 162.624
53.70000 164.366
53.71000 165.503
53.72000 166.613
53.73000 165.017
53.74000 162.325
53.75000 159.847
53.76000 160.228
53.77000 161.503
53.78000 162.435
53.79000 160.676
53.80000 158.344
53.81000 156.358
53.82000 163.115
53.83000 169.817
53.84000 173.176
53.85000 165.106
53.86000 156.084
53.87000 150.840
53.88000 154.520
53.89000 158.578
53.90000 161.107
53.91000 162.252
53.92000 163.063
53.93000 164.771
53.94000 167.465
53.95000 170.139
53.96000 169.391
53.97000 166.149
53.98000 162.966
53.99000 162.269
54.00000 162.794
54.01000 163.425
54.02000 165.748
54.03000 168.656
54.04000 170.997
54.05000 168.255
54.06000 164.307
54.07000 160.882
54.08000 160.472
54.09000 160.526
54.10000 159.315
54.11000 153.307
54.12000 146.835
54.13000 144.851
54.14000 154.595
54.15000 164.950
54.16000 171.668
54.17000 165.980
54.18000 161.629
54.19000 157.720
54.20000 154.358
54.21000 151.014
54.22000 154.126
54.23000 162.485
54.24000 170.733
54.25000 172.445
54.26000 170.594
54.27000 168.730
54.28000 166.639
54.29000 164.460
54.30000 162.206
54.31000 159.175
54.32000 155.940
54.33000 153.085
54.34000 153.967
54.35000 155.298
54.36000 155.613
54.37000 151.646
54.38000 147.200
54.39000 145.029
54.40000 149.437
54.41000 154.259
54.42000 157.505
54.43000 153.875
54.44000 151.033
54.45000 150.121
54.46000 151.859
54.47000 153.614
54.48000 156.852
54.49000 161.437
54.50000 165.982
54.51000 165.225
54.52000 161.295
54.53000 157.438
54.54000 155.285
54.55000 153.855
54.56000 152.666
54.57000 154.380
54.58000 156.943
54.59000 159.241
54.60000 155.991
54.61000 152.193
54.62000 149.826
54.63000 154.184
54.64000 159.403
54.65000 162.189
54.66000 157.192
54.67000 151.611
54.68000 147.724
54.69000 155.598
54.70000 161.860
54.71000 165.059
54.72000 163.579
54.73000 162.049
54.74000 162.994
54.75000 166.469
54.76000 169.925
54.77000 170.244
54.78000 168.450
54.79000 166.618
54.80000 163.653
54.81000 160.158
54.82000 156.935
54.83000 157.564
54.84000 159.441
54.85000 161.149
54.86000 161.231
54.87000 160.986
54.88000 160.731
54.89000 160.423
54.90000 160.108
54.91000 159.321
54.92000 156.859
54.93000 154.250
54.94000 152.374
54.95000 154.336
54.96000 155.973
54.97000 158.353
54.98000 161.993
54.99000 165.654
55.00000 166.156
55.01000 163.038
55.02000 159.924
55.03000 161.678
55.04000 167.082
55.05000 172.311
55.06000 170.604
55.07000 165.305
55.08000 160.407
55.09000 162.328
55.10000 166.696
55.11000 170.721
55.12000 174.367
55.13000 177.548
55.14000 180.093
55.15000 178.890
55.16000 177.072
55.17000 175.747
55.18000 176.361
55.19000 177.173
55.20000 177.775
55.21000 174.938
55.22000 172.586
55.23000 171.736
55.24000 173.704
55.25000 175.738
55.26000 177.213
55.27000 177.973
55.28000 178.730
55.29000 181.460
55.30000 185.846
55.31000 190.271
55.32000 196.823
55.33000 204.595
55.34000 211.755
55.35000 206.264
55.36000 195.752
55.37000 185.947
55.38000 186.855
55.39000 190.335
55.40000 193.701
55.41000 196.312
55.42000 198.783
55.43000 201.262
55.44000 203.775
55.45000 206.292
55.46000 208.210
55.47000 212.069
55.48000 215.210
55.49000 216.830
55.50000 215.293
55.51000 213.658
55.52000 219.093
55.53000 234.612
55.54000 250.206
55.55000 257.323
55.56000 256.409
55.57000 255.573
55.58000 261.227
55.59000 271.007
55.60000 280.670
55.61000 287.306
55.62000 292.614
55.63000 297.620
55.64000 305.264
55.65000 313.003
55.66000 321.817
55.67000 338.742
55.68000 357.340
55.69000 373.225
55.70000 375.846
55.71000 376.690
55.72000 377.350
55.73000 405.502
55.74000 429.716
55.75000 447.935
55.76000 452.386
55.77000 456.293
55.78000 467.081
55.79000 488.774
55.80000 510.605
55.81000 521.865
55.82000 535.917
55.83000 545.396
55.84000 556.678
55.85000 569.234
55.86000 581.337
55.87000 578.430
55.88000 568.238
55.89000 558.528
55.90000 556.181
55.91000 556.302
55.92000 556.727
55.93000 559.775
55.94000 563.426
55.95000 567.539
55.96000 574.177
55.97000 581.198
55.98000 586.822
55.99000 575.939
56.00000 565.894
56.01000 556.375
56.02000 548.189
56.03000 540.070
56.04000 529.396
56.05000 514.232
56.06000 498.985
56.07000 490.682
56.08000 481.175
56.09000 474.631
56.10000 462.918
56.11000 447.134
56.12000 431.378
56.13000 416.844
56.14000 402.968
56.15000 389.627
56.16000 377.576
56.17000 366.735
56.18000 356.082
56.19000 347.296
56.20000 338.987
56.21000 331.477
56.22000 328.885
56.23000 327.134
56.24000 325.699
56.25000 320.128
56.26000 315.196
56.27000 309.476
56.28000 301.544
56.29000 293.479
56.30000 284.245
56.31000 272.738
56.32000 261.173
56.33000 254.554
56.34000 246.733
56.35000 241.268
56.36000 237.433
56.37000 235.031
56.38000 232.671
56.39000 232.905
56.40000 234.684
56.41000 236.407
56.42000 230.511
56.43000 221.960
56.44000 214.214
56.45000 215.735
56.46000 219.888
56.47000 223.281
56.48000 221.378
56.49000 218.460
56.50000 216.018
56.51000 205.820
56.52000 196.555
56.53000 190.421
56.54000 194.020
56.55000 198.315
56.56000 200.961
56.57000 200.058
56.58000 199.035
56.59000 198.422
56.60000 182.844
56.61000 171.683
56.62000 169.739
56.63000 176.897
56.64000 183.957
56.65000 181.469
56.66000 172.677
56.67000 164.095
56.68000 161.299
56.69000 161.141
56.70000 161.142
56.71000 163.290
56.72000 166.114
56.73000 168.901
56.74000 171.386
56.75000 173.806
56.76000 175.871
56.77000 171.174
56.78000 166.425
56.79000 162.687
56.80000 162.434
56.81000 162.473
56.82000 162.286
56.83000 161.561
56.84000 160.812
56.85000 160.344
56.86000 160.730
56.87000 161.017
56.88000 161.007
56.89000 160.665
56.90000 160.327
56.91000 160.613
56.92000 161.357
56.93000 162.087
56.94000 158.397
56.95000 152.687
56.96000 147.259
56.97000 146.359
56.98000 147.038
56.99000 147.331
57.00000 144.138
57.01000 140.111
57.02000 136.614
57.03000 142.830
57.04000 149.441
57.05000 153.918
57.06000 150.234
57.07000 145.751
57.08000 143.166
57.09000 145.577
57.10000 148.252
57.11000 149.992
57.12000 155.523
57.13000 159.636
57.14000 160.307
57.15000 156.707
57.16000 153.105
57.17000 153.316
57.18000 156.650
57.19000 159.942
57.20000 161.193
57.21000 161.304
57.22000 161.272
57.23000 158.462
57.24000 154.580
57.25000 150.919
57.26000 149.548
57.27000 148.787
57.28000 148.114
57.29000 145.466
57.30000 142.876
57.31000 140.797
57.32000 140.887
57.33000 141.221
57.34000 141.823
57.35000 143.201
57.36000 144.628
57.37000 145.591
57.38000 150.663
57.39000 154.524
57.40000 156.539
57.41000 155.996
57.42000 155.438
57.43000 154.782
57.44000 154.038
57.45000 153.300
57.46000 150.764
57.47000 147.185
57.48000 143.669
57.49000 141.649
57.50000 140.267
57.51000 139.312
57.52000 143.542
57.53000 149.300
57.54000 154.467
57.55000 150.481
57.56000 145.398
57.57000 142.316
57.58000 148.719
57.59000 156.345
57.60000 161.489
57.61000 158.629
57.62000 155.161
57.63000 152.740
57.64000 151.380
57.65000 150.383
57.66000 148.265
57.67000 144.426
57.68000 140.567
57.69000 139.011
57.70000 139.827
57.71000 140.638
57.72000 144.067
57.73000 149.228
57.74000 154.183
57.75000 152.805
57.76000 148.439
57.77000 144.304
57.78000 143.461
57.79000 143.694
57.80000 143.906
57.81000 145.696
57.82000 147.592
57.83000 149.544
57.84000 151.793
57.85000 154.086
57.86000 154.495
57.87000 148.173
57.88000 141.253
57.89000 136.264
57.90000 136.536
57.91000 136.930
57.92000 138.041
57.93000 140.374
57.94000 142.728
57.95000 144.871
57.96000 146.772
57.97000 148.666
57.98000 149.041
57.99000 148.261
58.00000 147.569
58.01000 150.444
58.02000 155.180
58.03000 159.577
58.04000 158.144
58.05000 154.604
58.06000 151.340
58.07000 144.215
58.08000 136.974
58.09000 130.697
58.10000 130.154
58.11000 130.558
58.12000 131.498
58.13000 134.562
58.14000 137.845
58.15000 140.283
58.16000 140.247
58.17000 140.111
58.18000 139.112
58.19000 136.486
58.20000 133.821
58.21000 134.839
58.22000 140.612
58.23000 146.399
58.24000 148.688
58.25000 147.997
58.26000 147.317
58.27000 147.222
58.28000 147.464
58.29000 147.707
58.30000 147.940
58.31000 148.169
58.32000 148.383
58.33000 147.681
58.34000 146.815
58.35000 145.921
58.36000 144.838
58.37000 143.720
58.38000 142.199
58.39000 138.895
58.40000 135.380
58.41000 132.697
58.42000 137.645
58.43000 141.954
58.44000 143.847
58.45000 140.689
58.46000 137.371
58.47000 138.265
58.48000 145.213
58.49000 152.208
58.50000 152.443
58.51000 146.223
58.52000 140.086
58.53000 141.076
58.54000 146.632
58.55000 151.889
58.56000 149.315
58.57000 143.281
58.58000 137.584
58.59000 138.574
58.60000 141.356
58.61000 143.265
58.62000 138.519
58.63000 132.390
58.64000 127.873
58.65000 131.308
58.66000 135.816
58.67000 139.347
58.68000 135.916
58.69000 132.727
58.70000 131.373
58.71000 134.263
58.72000 137.324
58.73000 139.201
58.74000 139.189
58.75000 139.152
58.76000 139.133
58.77000 135.884
58.78000 133.686
58.79000 130.531
58.80000 126.696
58.81000 123.040
58.82000 125.431
58.83000 130.777
58.84000 135.874
58.85000 138.422
58.86000 139.985
58.87000 141.223
58.88000 139.645
58.89000 137.413
58.90000 135.131
58.91000 132.571
58.92000 129.968
58.93000 127.880
58.94000 130.733
58.95000 133.419
58.96000 135.001
58.97000 133.758
58.98000 132.374
58.99000 132.606
59.00000 135.698
59.01000 138.845
59.02000 140.565
59.03000 143.445
59.04000 145.421
59.05000 145.782
59.06000 144.861
59.07000 143.899
59.08000 141.113
59.09000 137.338
59.10000 133.708
59.11000 133.327
59.12000 134.111
59.13000 134.703
59.14000 133.374
59.15000 131.548
59.16000 130.057
59.17000 130.640
59.18000 131.581
59.19000 132.352
59.20000 131.039
59.21000 129.777
59.22000 129.472
59.23000 131.876
59.24000 134.446
59.25000 136.634
59.26000 138.075
59.27000 139.496
59.28000 140.312
59.29000 139.105
59.30000 138.256
59.31000 140.606
59.32000 145.795
59.33000 150.921
59.34000 151.948
59.35000 150.518
59.36000 149.132
59.37000 146.777
59.38000 144.165
59.39000 141.875
59.40000 143.314
59.41000 145.821
59.42000 147.938
59.43000 147.314
59.44000 146.159
59.45000 145.192
59.46000 140.017
59.47000 135.279
59.48000 131.882
59.49000 132.679
59.50000 133.780
59.51000 134.542
59.52000 134.572
59.53000 134.576
59.54000 134.579
59.55000 134.908
59.56000 135.144
59.57000 136.135
59.58000 137.879
59.59000 139.605
59.60000 139.510
59.61000 138.205
59.62000 136.930
59.63000 134.776
59.64000 132.329
59.65000 130.102
59.66000 130.873
59.67000 132.597
59.68000 134.171
59.69000 134.555
59.70000 134.683
59.71000 134.792
59.72000 132.396
59.73000 130.081
59.74000 129.053
59.75000 132.493
59.76000 136.313
59.77000 138.183
59.78000 135.375
59.79000 132.364
59.80000 130.475
59.81000 127.081
59.82000 124.613
59.83000 124.663
59.84000 127.530
59.85000 130.404
59.86000 134.028
59.87000 138.207
59.88000 142.313
59.89000 142.452
59.90000 140.643
59.91000 138.901
59.92000 138.251
59.93000 137.984
59.94000 137.910
59.95000 139.601
59.96000 141.718
59.97000 143.559
59.98000 140.772
59.99000 137.763
60.00000 135.187
60.01000 134.279
60.02000 133.535
60.03000 133.669
60.04000 136.132
60.05000 138.719
60.06000 140.406
60.07000 130.443
60.08000 122.946
60.09000 122.717
60.10000 131.578
60.11000 140.449
60.12000 140.950
60.13000 134.542
60.14000 128.213
60.15000 126.881
60.16000 128.315
60.17000 129.827
60.18000 132.878
60.19000 136.528
60.20000 139.771
60.21000 138.735
60.22000 136.552
60.23000 134.622
60.24000 135.115
60.25000 135.918
60.26000 136.510
60.27000 136.201
60.28000 135.789
60.29000 135.809
60.30000 137.094
60.31000 138.461
60.32000 139.386
60.33000 144.495
60.34000 148.391
60.35000 148.041
60.36000 141.767
60.37000 135.455
60.38000 131.758
60.39000 130.479
60.40000 129.210
60.41000 127.302
60.42000 125.038
60.43000 123.047
60.44000 127.766
60.45000 135.367
60.46000 142.262
60.47000 140.470
60.48000 136.097
60.49000 132.170
60.50000 133.590
60.51000 135.775
60.52000 137.337
60.53000 135.924
60.54000 134.123
60.55000 133.174
60.56000 134.992
60.57000 137.022
60.58000 138.443
60.59000 132.577
60.60000 127.935
60.61000 127.702
60.62000 134.303
60.63000 140.983
60.64000 144.858
60.65000 145.821
60.66000 146.779
60.67000 144.556
60.68000 140.187
60.69000 135.926
60.70000 135.054
60.71000 135.791
60.72000 136.638
60.73000 139.065
60.74000 142.012
60.75000 144.697
60.76000 139.838
60.77000 134.031
60.78000 129.809
60.79000 134.053
60.80000 139.548
60.81000 142.920
60.82000 138.652
60.83000 133.697
60.84000 130.117
60.85000 130.891
60.86000 131.642
60.87000 131.775
60.88000 130.846
60.89000 129.898
60.90000 128.941
60.91000 127.972
60.92000 127.005
60.93000 127.045
60.94000 127.855
60.95000 128.721
60.96000 131.859
60.97000 136.193
60.98000 140.144
60.99000 137.439
61.00000 132.310
61.01000 127.576
61.02000 132.017
61.03000 138.057
61.04000 142.901
61.05000 140.558
61.06000 137.016
61.07000 134.234
61.08000 134.488
61.09000 135.059
61.10000 135.484
61.11000 136.956
61.12000 138.149
61.13000 137.781
61.14000 134.442
61.15000 131.031
61.16000 129.808
61.17000 131.433
61.18000 133.068
61.19000 134.643
61.20000 136.164
61.21000 137.640
61.22000 136.478
61.23000 133.782
61.24000 131.257
61.25000 132.396
61.26000 135.010
61.27000 137.453
61.28000 139.163
61.29000 140.530
61.30000 141.715
61.31000 141.669
61.32000 141.391
61.33000 141.311
61.34000 142.106
61.35000 143.006
61.36000 143.694
61.37000 141.243
61.38000 139.139
61.39000 138.302
61.40000 140.137
61.41000 142.058
61.42000 142.085
61.43000 139.370
61.44000 136.632
61.45000 137.604
61.46000 142.147
61.47000 146.730
61.48000 154.751
61.49000 164.994
61.50000 175.248
61.51000 185.839
61.52000 196.579
61.53000 206.724
61.54000 226.619
61.55000 247.636
61.56000 267.810
61.57000 281.503
61.58000 293.838
61.59000 307.306
61.60000 326.404
61.61000 346.269
61.62000 361.855
61.63000 361.381
61.64000 359.957
61.65000 360.913
61.66000 367.415
61.67000 374.143
61.68000 376.878
61.69000 373.191
61.70000 369.417
61.71000 367.455
61.72000 382.366
61.73000 392.309
61.74000 382.022
61.75000 357.217
61.76000 332.670
61.77000 317.021
61.78000 305.753
61.79000 295.003
61.80000 275.175
61.81000 253.897
61.82000 233.125
61.83000 216.799
61.84000 201.513
61.85000 187.500
61.86000 180.576
61.87000 174.745
61.88000 170.060
61.89000 168.329
61.90000 167.153
61.91000 164.761
61.92000 159.234
61.93000 153.549
61.94000 151.053
61.95000 154.243
61.96000 157.546
61.97000 159.357
61.98000 151.569
61.99000 146.213
62.00000 146.474
62.01000 151.228
62.02000 155.886
62.03000 156.121
62.04000 153.947
62.05000 151.854
62.06000 151.290
62.07000 151.302
62.08000 151.581
62.09000 154.568
62.10000 158.257
62.11000 160.741
62.12000 155.666
62.13000 149.277
62.14000 144.028
62.15000 148.288
62.16000 152.643
62.17000 155.700
62.18000 155.060
62.19000 154.193
62.20000 152.895
62.21000 150.745
62.22000 148.573
62.23000 147.321
62.24000 146.239
62.25000 145.484
62.26000 146.162
62.27000 148.123
62.28000 150.044
62.29000 149.319
62.30000 146.995
62.31000 144.741
62.32000 142.009
62.33000 139.230
62.34000 136.758
62.35000 137.894
62.36000 140.069
62.37000 141.783
62.38000 140.222
62.39000 138.022
62.40000 136.177
62.41000 138.160
62.42000 140.210
62.43000 142.834
62.44000 147.268
62.45000 151.834
62.46000 153.712
62.47000 149.716
62.48000 145.514
62.49000 142.980
62.50000 137.360
62.51000 133.339
62.52000 135.312
62.53000 143.306
62.54000 151.232
62.55000 152.047
62.56000 148.094
62.57000 144.233
62.58000 143.540
62.59000 144.277
62.60000 144.860
62.61000 143.329
62.62000 141.120
62.63000 139.515
62.64000 142.763
62.65000 147.068
62.66000 150.750
62.67000 155.202
62.68000 159.049
62.69000 160.630
62.70000 154.289
62.71000 147.266
62.72000 143.330
62.73000 146.847
62.74000 150.693
62.75000 153.113
62.76000 157.548
62.77000 160.779
62.78000 157.656
62.79000 147.365
62.80000 137.124
62.81000 137.592
62.82000 146.046
62.83000 154.356
62.84000 155.017
62.85000 151.881
62.86000 148.822
62.87000 147.040
62.88000 145.709
62.89000 144.656
62.90000 146.171
62.91000 148.309
62.92000 150.170
62.93000 148.344
62.94000 146.276
62.95000 144.554
62.96000 144.178
62.97000 143.935
62.98000 143.821
62.99000 144.047
63.00000 144.291
63.01000 144.451
63.02000 148.833
63.03000 152.120
63.04000 152.895
63.05000 150.503
63.06000 148.103
63.07000 146.780
63.08000 146.353
63.09000 145.932
63.10000 144.867
63.11000 143.475
63.12000 142.337
63.13000 146.292
63.14000 152.239
63.15000 157.687
63.16000 157.814
63.17000 156.504
63.18000 155.344
63.19000 155.428
63.20000 155.695
63.21000 156.094
63.22000 157.064
63.23000 158.099
63.24000 158.709
63.25000 158.067
63.26000 157.342
63.27000 156.851
63.28000 160.457
63.29000 163.237
63.30000 163.881
63.31000 161.522
63.32000 159.143
63.33000 156.380
63.34000 153.261
63.35000 150.166
63.36000 148.710
63.37000 148.290
63.38000 147.818
63.39000 146.073
63.40000 143.777
63.41000 141.550
63.42000 140.180
63.43000 139.066
63.44000 138.065
63.45000 139.905
63.46000 142.021
63.47000 143.675
63.48000 143.103
63.49000 142.239
63.50000 141.766
63.51000 142.574
63.52000 143.481
63.53000 144.118
63.54000 150.408
63.55000 155.332
63.56000 157.866
63.57000 156.669
63.58000 155.428
63.59000 154.255
63.60000 153.154
63.61000 152.058
63.62000 151.803
63.63000 152.131
63.64000 152.590
63.65000 157.232
63.66000 163.875
63.67000 169.849
63.68000 165.989
63.69000 158.869
63.70000 152.375
63.71000 151.118
63.72000 151.055
63.73000 151.207
63.74000 152.520
63.75000 154.006
63.76000 155.456
63.77000 156.780
63.78000 158.091
63.79000 159.041
63.80000 163.237
63.81000 166.577
63.82000 165.851
63.83000 158.084
63.84000 150.192
63.85000 146.486
63.86000 147.696
63.87000 148.912
63.88000 151.818
63.89000 156.011
63.90000 160.100
63.91000 159.770
63.92000 157.102
63.93000 154.443
63.94000 151.950
63.95000 149.518
63.96000 147.270
63.97000 150.208
63.98000 154.018
63.99000 157.364
64.00000 157.904
64.01000 157.971
64.02000 158.340
64.03000 159.920
64.04000 161.627
64.05000 162.900
64.06000 159.236
64.07000 156.159
64.08000 156.253
64.09000 162.432
64.10000 168.761
64.11000 169.489
64.12000 162.873
64.13000 156.229
64.14000 156.278
64.15000 162.112
64.16000 167.864
64.17000 168.753
64.18000 166.789
64.19000 164.972
64.20000 166.313
64.21000 168.934
64.22000 171.384
64.23000 174.480
64.24000 177.454
64.25000 179.125
64.26000 171.890
64.27000 162.973
64.28000 156.559
64.29000 161.378
64.30000 167.552
64.31000 172.283
64.32000 173.750
64.33000 174.729
64.34000 174.998
64.35000 173.762
64.36000 172.478
64.37000 171.837
64.38000 172.135
64.39000 172.442
64.40000 172.889
64.41000 173.471
64.42000 174.033
64.43000 172.702
64.44000 170.138
64.45000 167.793
64.46000 171.339
64.47000 177.528
64.48000 183.378
64.49000 183.740
64.50000 182.507
64.51000 181.070
64.52000 178.048
64.53000 174.693
64.54000 171.868
64.55000 171.708
64.56000 171.914
64.57000 172.075
64.58000 171.254
64.59000 170.531
64.60000 170.673
64.61000 172.844
64.62000 175.100
64.63000 178.230
64.64000 182.776
64.65000 187.342
64.66000 189.726
64.67000 177.900
64.68000 169.946
64.69000 169.769
64.70000 175.216
64.71000 180.516
64.72000 180.679
64.73000 178.292
64.74000 176.015
64.75000 179.382
64.76000 184.313
64.77000 188.576
64.78000 186.922
64.79000 183.874
64.80000 181.673
64.81000 184.223
64.82000 187.513
64.83000 190.161
64.84000 185.936
64.85000 181.973
64.86000 179.709
64.87000 181.855
64.88000 184.227
64.89000 187.573
64.90000 192.669
64.91000 197.800
64.92000 200.624
64.93000 198.021
64.94000 196.231
64.95000 199.101
64.96000 205.727
64.97000 212.223
64.98000 212.535
64.99000 209.453
65.00000 206.484
65.01000 207.783
65.02000 210.528
65.03000 213.447
65.04000 218.149
65.05000 223.319
65.06000 227.475
65.07000 225.236
65.08000 221.875
65.09000 219.109
65.10000 226.835
65.11000 234.142
65.12000 239.056
65.13000 237.103
65.14000 234.723
65.15000 233.561
65.16000 234.824
65.17000 236.154
65.18000 236.922
65.19000 237.421
65.20000 237.774
65.21000 245.724
65.22000 260.525
65.23000 275.216
65.24000 282.360
65.25000 284.912
65.26000 287.390
65.27000 287.782
65.28000 287.321
65.29000 287.035
65.30000 288.813
65.31000 291.191
65.32000 294.756
65.33000 306.800
65.34000 320.511
65.35000 332.030
65.36000 342.952
65.37000 351.987
65.38000 359.473
65.39000 362.036
65.40000 364.235
65.41000 366.706
65.42000 369.775
65.43000 372.866
65.44000 374.735
65.45000 382.053
65.46000 387.309
65.47000 398.051
65.48000 414.354
65.49000 430.543
65.50000 434.409
65.51000 429.952
65.52000 425.596
65.53000 435.146
65.54000 450.492
65.55000 464.990
65.56000 467.615
65.57000 466.417
65.58000 466.759
65.59000 479.624
65.60000 495.239
65.61000 508.613
65.62000 520.201
65.63000 529.763
65.64000 544.022
65.65000 574.819
65.66000 607.055
65.67000 638.957
65.68000 670.050
65.69000 701.106
65.70000 720.695
65.71000 823.379
65.72000 898.693
65.73000 979.155
65.74000 1065.468
65.75000 1151.716
65.76000 1223.507
65.77000 1284.433
65.78000 1344.341
65.79000 1405.797
65.80000 1466.010
65.81000 1524.979
65.82000 1563.163
65.83000 1593.940
65.84000 1623.407
65.85000 1640.662
65.86000 1654.930
65.87000 1667.369
65.88000 1652.192
65.89000 1635.380
65.90000 1615.090
65.91000 1581.206
65.92000 1545.948
65.93000 1501.276
65.94000 1431.288
65.95000 1359.902
65.96000 1313.087
65.97000 1187.031
65.98000 1093.009
65.99000 998.946
66.00000 904.831
66.01000 810.741
66.02000 730.107
66.03000 660.760
66.04000 592.226
66.05000 548.030
66.06000 518.435
66.07000 488.928
66.08000 461.230
66.09000 434.245
66.10000 408.946
66.11000 401.814
66.12000 399.620
66.13000 397.676
66.14000 393.486
66.15000 389.504
66.16000 386.224
66.17000 386.000
66.18000 386.132
66.19000 384.816
66.20000 379.188
66.21000 373.275
66.22000 369.254
66.23000 379.173
66.24000 386.893
66.25000 398.810
66.26000 416.670
66.27000 434.573
66.28000 451.441
66.29000 467.336
66.30000 483.110
66.31000 503.210
66.32000 525.655
66.33000 547.634
66.34000 557.815
66.35000 562.855
66.36000 567.947
66.37000 573.687
66.38000 579.622
66.39000 584.965
66.40000 584.480
66.41000 583.009
66.42000 581.444
66.43000 579.421
66.44000 577.336
66.45000 576.703
66.46000 580.851
66.47000 585.374
66.48000 588.555
66.49000 561.363
66.50000 539.866
66.51000 523.733
66.52000 516.038
66.53000 508.445
66.54000 491.269
66.55000 463.967
66.56000 436.784
66.57000 419.960
66.58000 410.502
66.59000 401.092
66.60000 393.251
66.61000 386.164
66.62000 379.595
66.63000 380.730
66.64000 384.436
66.65000 387.820
66.66000 380.413
66.67000 371.655
66.68000 364.401
66.69000 365.323
66.70000 367.474
66.71000 369.249
66.72000 369.646
66.73000 369.917
66.74000 370.113
66.75000 372.460
66.76000 374.343
66.77000 373.665
66.78000 368.518
66.79000 363.290
66.80000 364.646
66.81000 373.795
66.82000 382.939
66.83000 381.042
66.84000 370.574
66.85000 360.442
66.86000 364.836
66.87000 376.976
66.88000 388.463
66.89000 388.268
66.90000 383.758
66.91000 379.587
66.92000 389.348
66.93000 401.293
66.94000 411.326
66.95000 409.684
66.96000 406.062
66.97000 402.756
66.98000 400.728
66.99000 398.836
67.00000 397.423
67.01000 390.721
67.02000 385.253
67.03000 386.183
67.04000 399.474
67.05000 413.077
67.06000 420.448
67.07000 419.583
67.08000 418.681
67.09000 420.855
67.10000 425.708
67.11000 430.454
67.12000 428.709
67.13000 423.130
67.14000 417.878
67.15000 419.810
67.16000 424.677
67.17000 429.232
67.18000 431.114
67.19000 432.138
67.20000 432.550
67.21000 428.744
67.22000 424.135
67.23000 421.366
67.24000 426.916
67.25000 433.481
67.26000 438.520
67.27000 454.020
67.28000 466.855
67.29000 473.651
67.30000 467.542
67.31000 461.003
67.32000 456.679
67.33000 455.614
67.34000 454.577
67.35000 457.084
67.36000 463.061
67.37000 468.985
67.38000 469.824
67.39000 467.331
67.40000 465.136
67.41000 471.154
67.42000 480.882
67.43000 490.084
67.44000 491.333
67.45000 490.194
67.46000 488.999
67.47000 487.372
67.48000 485.652
67.49000 484.579
67.50000 486.777
67.51000 489.429
67.52000 491.516
67.53000 500.755
67.54000 508.635
67.55000 514.932
67.56000 517.489
67.57000 519.888
67.58000 518.008
67.59000 509.141
67.60000 500.175
67.61000 495.476
67.62000 515.779
67.63000 529.501
67.64000 536.614
67.65000 538.910
67.66000 541.121
67.67000 540.261
67.68000 537.866
67.69000 535.579
67.70000 541.834
67.71000 550.398
67.72000 558.472
67.73000 562.154
67.74000 564.794
67.75000 568.215
67.76000 576.059
67.77000 584.598
67.78000 591.482
67.79000 588.758
67.80000 585.790
67.81000 582.802
67.82000 579.765
67.83000 576.725
67.84000 576.392
67.85000 580.961
67.86000 585.630
67.87000 588.210
67.88000 592.562
67.89000 595.575
67.90000 601.430
67.91000 609.594
67.92000 617.685
67.93000 622.198
67.94000 624.732
67.95000 627.174
67.96000 627.954
67.97000 628.088
67.98000 628.233
67.99000 628.499
68.00000 628.797
68.01000 631.000
68.02000 645.349
68.03000 661.846
68.04000 675.443
68.05000 677.876
68.06000 678.851
68.07000 682.318
68.08000 692.986
68.09000 704.109
68.10000 710.236
68.11000 706.356
68.12000 702.195
68.13000 699.781
68.14000 697.276
68.15000 695.520
68.16000 699.867
68.17000 709.762
68.18000 719.613
68.19000 726.364
68.20000 731.215
68.21000 735.927
68.22000 743.166
68.23000 751.054
68.24000 758.165
68.25000 755.922
68.26000 750.941
68.27000 749.491
68.28000 773.499
68.29000 802.553
68.30000 826.997
68.31000 820.550
68.32000 811.882
68.33000 804.378
68.34000 800.596
68.35000 797.095
68.36000 803.388
68.37000 831.383
68.38000 860.166
68.39000 877.632
68.40000 875.148
68.41000 873.223
68.42000 877.657
68.43000 888.588
68.44000 899.572
68.45000 916.599
68.46000 937.739
68.47000 958.411
68.48000 977.200
68.49000 994.373
68.50000 1011.536
68.51000 1028.570
68.52000 1045.562
68.53000 1065.015
68.54000 1104.676
68.55000 1148.810
68.56000 1186.658
68.57000 1210.408
68.58000 1228.741
68.59000 1255.910
68.60000 1314.416
68.61000 1375.680
68.62000 1441.714
68.63000 1519.434
68.64000 1597.687
68.65000 1647.192
68.66000 1732.258
68.67000 1794.348
68.68000 1866.159
68.69000 1949.115
68.70000 2032.161
68.71000 2131.932
68.72000 2244.369
68.73000 2354.972
68.74000 2457.453
68.75000 2552.567
68.76000 2648.635
68.77000 2760.880
68.78000 2878.929
68.79000 2999.406
68.80000 3142.726
68.81000 3291.677
68.82000 3421.701
68.83000 3692.973
68.84000 3944.894
68.85000 4227.111
68.86000 4628.654
68.87000 5042.380
68.88000 5567.982
68.89000 6396.654
68.90000 7242.286
68.91000 7798.333
68.92000 10732.864
68.93000 12933.825
68.94000 16127.150
68.95000 20591.676
68.96000 25063.270
68.97000 30889.063
68.98000 37859.789
68.99000 44750.992
69.00000 52320.918
69.01000 60089.852
69.02000 67786.961
69.03000 74001.023
69.04000 79626.398
69.05000 85035.961
69.06000 88095.219
69.07000 90510.797
69.08000 92654.422
69.09000 93733.984
69.10000 94499.547
69.11000 95303.367
69.12000 96274.883
69.13000 97266.086
69.14000 98229.461
69.15000 99109.453
69.16000 99983.844
69.17000 100579.828
69.18000 99538.445
69.19000 98722.391
69.20000 96728.820
69.21000 93055.227
69.22000 89368.789
69.23000 85084.320
69.24000 80233.258
69.25000 75417.977
69.26000 70797.602
69.27000 66375.313
69.28000 61995.789
69.29000 58717.406
69.30000 55922.313
69.31000 53205.840
69.32000 51490.430
69.33000 50079.047
69.34000 48807.359
69.35000 47256.961
69.36000 45846.297
69.37000 44237.699
69.38000 41660.934
69.39000 38954.570
69.40000 36030.488
69.41000 32383.686
69.42000 28679.395
69.43000 26068.645
69.44000 21591.125
69.45000 18139.369
69.46000 15062.104
69.47000 12578.437
69.48000 10102.244
69.49000 8165.876
69.50000 6804.516
69.51000 5449.040
69.52000 4555.115
69.53000 3993.142
69.54000 3436.813
69.55000 3067.286
69.56000 2788.430
69.57000 2516.034
69.58000 2341.050
69.59000 2198.829
69.60000 2068.874
69.61000 1963.319
69.62000 1874.557
69.63000 1788.838
69.64000 1719.779
69.65000 1653.248
69.66000 1588.918
69.67000 1532.691
69.68000 1477.217
69.69000 1436.881
69.70000 1386.878
69.71000 1348.040
69.72000 1314.752
69.73000 1291.216
69.74000 1267.863
69.75000 1239.443
69.76000 1204.978
69.77000 1170.568
69.78000 1138.970
69.79000 1109.732
69.80000 1080.670
69.81000 1059.436
69.82000 1042.407
69.83000 1025.431
69.84000 1009.427
69.85000 993.785
69.86000 979.306
69.87000 969.793
69.88000 962.384
69.89000 952.808
69.90000 929.882
69.91000 904.674
69.92000 882.591
69.93000 873.293
69.94000 865.368
69.95000 859.436
69.96000 849.634
69.97000 841.806
69.98000 836.629
69.99000 836.613
70.00000 836.731
