20.00000 566.301
20.01000 567.514
20.02000 568.900
20.03000 569.482
20.04000 566.855
20.05000 563.893
20.06000 561.690
20.07000 562.241
20.08000 562.792
20.09000 563.030
20.10000 562.669
20.11000 562.293
20.12000 564.531
20.13000 570.168
20.14000 575.815
20.15000 579.227
20.16000 580.716
20.17000 582.159
20.18000 580.961
20.19000 578.226
20.20000 575.648
20.21000 576.407
20.22000 578.508
20.23000 580.471
20.24000 577.897
20.25000 574.417
20.26000 570.809
20.27000 566.329
20.28000 561.686
20.29000 558.105
20.30000 559.255
20.31000 560.971
20.32000 562.282
20.33000 571.367
20.34000 578.954
20.35000 583.873
20.36000 583.168
20.37000 582.284
20.38000 578.573
20.39000 570.770
20.40000 562.934
20.41000 559.260
20.42000 559.594
20.43000 559.932
20.44000 560.610
20.45000 561.506
20.46000 562.438
20.47000 564.320
20.48000 566.626
20.49000 568.803
20.50000 568.232
20.51000 566.930
20.52000 564.651
20.53000 554.873
20.54000 543.524
20.55000 535.620
20.56000 544.826
20.57000 556.365
20.58000 565.417
20.59000 570.185
20.60000 573.719
20.61000 575.706
20.62000 574.092
20.63000 572.330
20.64000 570.597
20.65000 568.910
20.66000 567.223
20.67000 566.346
20.68000 560.696
20.69000 556.908
20.70000 557.687
20.71000 561.741
20.72000 565.596
20.73000 562.632
20.74000 556.311
20.75000 550.281
20.76000 551.411
20.77000 554.727
20.78000 556.978
20.79000 549.887
20.80000 540.613
20.81000 533.401
20.82000 537.666
20.83000 543.701
20.84000 548.550
20.85000 544.795
20.86000 541.090
20.87000 540.546
20.88000 548.144
20.89000 556.155
20.90000 563.140
20.91000 568.297
20.92000 573.419
20.93000 576.227
20.94000 550.913
20.95000 533.493
20.96000 528.822
20.97000 534.343
20.98000 540.064
20.99000 555.073
21.00000 575.141
21.01000 594.458
21.02000 587.303
21.03000 571.217
21.04000 555.791
21.05000 547.032
21.06000 540.004
21.07000 534.082
21.08000 535.081
21.09000 537.283
21.10000 539.092
21.11000 546.065
21.12000 552.256
21.13000 557.279
21.14000 558.974
21.15000 560.464
21.16000 560.655
21.17000 558.283
21.18000 555.841
21.19000 554.435
21.20000 553.715
21.21000 553.218
21.22000 557.186
21.23000 565.148
21.24000 572.946
21.25000 569.844
21.26000 560.161
21.27000 550.768
21.28000 555.226
21.29000 564.933
21.30000 573.629
21.31000 570.441
21.32000 563.827
21.33000 557.627
21.34000 554.361
21.35000 551.667
21.36000 549.407
21.37000 558.956
21.38000 568.135
21.39000 571.170
21.40000 554.836
21.41000 537.083
21.42000 525.723
21.43000 528.321
21.44000 531.409
21.45000 533.270
21.46000 547.446
21.47000 557.622
21.48000 561.020
21.49000 557.609
21.50000 554.200
21.51000 550.981
21.52000 547.891
21.53000 544.872
21.54000 534.966
21.55000 522.436
21.56000 511.465
21.57000 522.030
21.58000 539.477
21.59000 555.384
21.60000 558.891
21.61000 559.698
21.62000 560.387
21.63000 554.872
21.64000 549.477
21.65000 543.475
21.66000 535.353
21.67000 527.049
21.68000 527.018
21.69000 546.959
21.70000 567.783
21.71000 580.879
21.72000 581.325
21.73000 581.506
21.74000 577.180
21.75000 567.773
21.76000 558.418
21.77000 559.921
21.78000 569.520
21.79000 578.954
21.80000 582.555
21.81000 583.157
21.82000 584.073
21.83000 590.155
21.84000 598.065
21.85000 605.983
21.86000 613.979
21.87000 621.994
21.88000 628.972
21.89000 628.677
21.90000 627.425
21.91000 626.552
21.92000 627.154
21.93000 627.903
21.94000 632.035
21.95000 645.194
21.96000 658.844
21.97000 667.770
21.98000 677.154
21.99000 684.054
22.00000 687.594
22.01000 686.899
22.02000 686.202
22.03000 691.558
22.04000 701.948
22.05000 712.214
22.06000 719.170
22.07000 724.130
22.08000 728.893
22.09000 729.722
22.10000 729.013
22.11000 728.217
22.12000 726.511
22.13000 724.560
22.14000 722.832
22.15000 724.671
22.16000 726.819
22.17000 726.843
22.18000 717.697
22.19000 707.497
22.20000 697.938
22.21000 690.274
22.22000 682.734
22.23000 677.621
22.24000 680.739
22.25000 683.246
22.26000 682.982
22.27000 678.825
22.28000 674.642
22.29000 670.897
22.30000 667.559
22.31000 664.249
22.32000 660.694
22.33000 657.050
22.34000 653.321
22.35000 647.454
22.36000 640.664
22.37000 634.268
22.38000 632.787
22.39000 632.775
22.40000 632.765
22.41000 619.492
22.42000 605.511
22.43000 593.379
22.44000 590.143
22.45000 588.075
22.46000 585.512
22.47000 581.333
22.48000 577.029
22.49000 574.010
22.50000 569.652
22.51000 566.315
22.52000 564.711
22.53000 565.812
22.54000 566.945
22.55000 561.409
22.56000 548.889
22.57000 536.427
22.58000 535.142
22.59000 541.564
22.60000 547.819
22.61000 548.760
22.62000 547.159
22.63000 545.799
22.64000 547.971
22.65000 551.314
22.66000 554.362
22.67000 550.698
22.68000 546.101
22.69000 541.691
22.70000 538.282
22.71000 535.022
22.72000 533.284
22.73000 537.066
22.74000 541.350
22.75000 544.451
22.76000 533.875
22.77000 525.254
22.78000 521.341
22.79000 525.578
22.80000 529.959
22.81000 532.612
22.82000 533.236
22.83000 533.856
22.84000 531.163
22.85000 525.931
22.86000 520.829
22.87000 521.190
22.88000 524.442
22.89000 527.789
22.90000 532.815
22.91000 538.455
22.92000 543.666
22.93000 532.708
22.94000 519.217
22.95000 506.549
22.96000 498.864
22.97000 492.016
22.98000 487.817
22.99000 494.287
23.00000 501.879
23.01000 507.539
23.02000 509.002
23.03000 509.952
23.04000 511.773
23.05000 515.265
23.06000 518.798
23.07000 522.080
23.08000 525.034
23.09000 527.985
23.10000 523.662
23.11000 513.062
23.12000 502.642
23.13000 502.951
23.14000 509.548
23.15000 516.120
23.16000 522.152
23.17000 527.965
23.18000 533.399
23.19000 531.223
23.20000 527.313
23.21000 523.674
23.22000 521.898
23.23000 520.472
23.24000 518.765
23.25000 515.800
23.26000 512.683
23.27000 510.295
23.28000 517.741
23.29000 524.162
23.30000 525.175
23.31000 514.716
23.32000 503.882
23.33000 501.568
23.34000 511.685
23.35000 521.908
23.36000 524.799
23.37000 520.570
23.38000 516.409
23.39000 518.403
23.40000 524.400
23.41000 530.215
23.42000 531.105
23.43000 529.787
23.44000 528.542
23.45000 525.941
23.46000 523.165
23.47000 520.495
23.48000 518.649
23.49000 516.977
23.50000 515.055
23.51000 511.879
23.52000 508.532
23.53000 505.901
23.54000 521.746
23.55000 535.645
23.56000 542.353
23.57000 532.192
23.58000 521.331
23.59000 512.048
23.60000 505.322
23.61000 498.632
23.62000 495.139
23.63000 502.494
23.64000 507.475
23.65000 513.134
23.66000 519.283
23.67000 525.455
23.68000 532.447
23.69000 539.846
23.70000 546.909
23.71000 544.626
23.72000 539.522
23.73000 535.332
23.74000 539.237
23.75000 545.049
23.76000 549.261
23.77000 544.497
23.78000 538.336
23.79000 533.378
23.80000 522.439
23.81000 513.099
23.82000 508.351
23.83000 515.513
23.84000 523.288
23.85000 528.040
23.86000 527.363
23.87000 526.578
23.88000 526.146
23.89000 508.336
23.90000 496.071
23.91000 495.260
23.92000 503.680
23.93000 512.054
23.94000 518.232
23.95000 523.205
23.96000 527.994
23.97000 532.682
23.98000 537.048
23.99000 540.488
24.00000 534.470
24.01000 525.977
24.02000 519.379
24.03000 524.750
24.04000 532.220
24.05000 538.367
24.06000 532.406
24.07000 526.404
24.08000 523.287
24.09000 528.446
24.10000 534.121
24.11000 533.946
24.12000 522.142
24.13000 510.020
24.14000 503.012
24.15000 517.029
24.16000 526.934
24.17000 530.143
24.18000 527.316
24.19000 524.498
24.20000 522.401
24.21000 520.742
24.22000 519.131
24.23000 526.452
24.24000 536.960
24.25000 545.679
24.26000 533.136
24.27000 514.417
24.28000 497.903
24.29000 497.136
24.30000 499.463
24.31000 501.419
24.32000 499.605
24.33000 497.696
24.34000 496.188
24.35000 495.955
24.36000 495.815
24.37000 497.101
24.38000 501.522
24.39000 506.054
24.40000 508.796
24.41000 497.097
24.42000 488.654
24.43000 485.968
24.44000 489.111
24.45000 492.224
24.46000 492.003
24.47000 489.530
24.48000 487.113
24.49000 492.001
24.50000 499.938
24.51000 507.300
24.52000 506.611
24.53000 503.331
24.54000 499.651
24.55000 492.721
24.56000 485.076
24.57000 478.530
24.58000 489.016
24.59000 499.933
24.60000 506.807
24.61000 499.451
24.62000 490.858
24.63000 484.834
24.64000 485.060
24.65000 485.567
24.66000 485.887
24.67000 482.116
24.68000 479.339
24.69000 478.237
24.70000 479.039
24.71000 479.839
24.72000 479.952
24.73000 479.549
24.74000 479.152
24.75000 480.312
24.76000 482.209
24.77000 483.601
24.78000 476.570
24.79000 466.537
24.80000 457.924
24.81000 462.527
24.82000 470.362
24.83000 477.193
24.84000 478.440
24.85000 478.731
24.86000 478.844
24.87000 478.258
24.88000 477.603
24.89000 476.624
24.90000 474.777
24.91000 472.882
24.92000 471.640
24.93000 470.080
24.94000 468.928
24.95000 468.116
24.96000 467.737
24.97000 467.366
24.98000 471.228
24.99000 478.638
25.00000 485.960
25.01000 484.296
25.02000 477.681
25.03000 471.404
25.04000 471.991
25.05000 475.283
25.06000 477.980
25.07000 474.275
25.08000 468.831
25.09000 464.005
25.10000 462.428
25.11000 461.576
25.12000 461.910
25.13000 467.404
25.14000 473.497
25.15000 479.796
25.16000 486.706
25.17000 493.657
25.18000 498.382
25.19000 481.914
25.20000 469.142
25.21000 466.328
25.22000 477.609
25.23000 488.991
25.24000 490.318
25.25000 482.200
25.26000 474.145
25.27000 470.251
25.28000 469.005
25.29000 467.738
25.30000 465.937
25.31000 463.904
25.32000 462.259
25.33000 465.505
25.34000 470.223
25.35000 474.470
25.36000 470.226
25.37000 464.983
25.38000 460.791
25.39000 461.697
25.40000 463.278
25.41000 464.349
25.42000 463.742
25.43000 463.004
25.44000 462.485
25.45000 461.344
25.46000 460.461
25.47000 462.052
25.48000 467.534
25.49000 473.063
25.50000 477.144
25.51000 479.694
25.52000 482.232
25.53000 480.677
25.54000 476.297
25.55000 472.155
25.56000 475.750
25.57000 483.071
25.58000 489.596
25.59000 484.275
25.60000 475.000
25.61000 466.533
25.62000 476.129
25.63000 488.304
25.64000 498.577
25.65000 498.526
25.66000 496.923
25.67000 496.608
25.68000 500.995
25.69000 505.815
25.70000 509.312
25.71000 490.610
25.72000 475.411
25.73000 464.389
25.74000 460.653
25.75000 457.049
25.76000 457.179
25.77000 461.728
25.78000 466.274
25.79000 468.365
25.80000 468.536
25.81000 468.741
25.82000 470.376
25.83000 472.773
25.84000 474.744
25.85000 469.065
25.86000 460.563
25.87000 452.700
25.88000 461.154
25.89000 472.468
25.90000 482.033
25.91000 480.919
25.92000 477.995
25.93000 474.228
25.94000 467.041
25.95000 459.490
25.96000 453.850
25.97000 459.473
25.98000 464.373
25.99000 465.221
26.00000 458.242
26.01000 451.065
26.02000 452.118
26.03000 464.043
26.04000 476.011
26.05000 477.031
26.06000 468.508
26.07000 460.082
26.08000 457.494
26.09000 458.354
26.10000 458.982
26.11000 454.526
26.12000 447.993
26.13000 441.880
26.14000 446.843
26.15000 454.192
26.16000 461.062
26.17000 464.628
26.18000 467.565
26.19000 470.449
26.20000 473.094
26.21000 475.710
26.22000 477.718
26.23000 469.972
26.24000 463.305
26.25000 458.240
26.26000 456.597
26.27000 455.067
26.28000 453.730
26.29000 452.676
26.30000 451.625
26.31000 452.531
26.32000 455.355
26.33000 458.179
26.34000 461.048
26.35000 463.947
26.36000 466.648
26.37000 463.916
26.38000 458.730
26.39000 453.825
26.40000 450.888
26.41000 448.754
26.42000 447.188
26.43000 450.072
26.44000 453.903
26.45000 457.170
26.46000 457.588
26.47000 457.611
26.48000 457.630
26.49000 457.148
26.50000 456.729
26.51000 457.209
26.52000 459.814
26.53000 462.508
26.54000 462.673
26.55000 458.712
26.56000 454.692
26.57000 452.586
26.58000 449.596
26.59000 447.583
26.60000 447.557
26.61000 448.979
26.62000 450.252
26.63000 446.213
26.64000 439.521
26.65000 433.128
26.66000 439.064
26.67000 448.549
26.68000 457.042
26.69000 456.653
26.70000 454.158
26.71000 452.715
26.72000 457.225
26.73000 462.671
26.74000 467.061
26.75000 461.984
26.76000 457.116
26.77000 453.524
26.78000 453.266
26.79000 453.181
26.80000 452.278
26.81000 449.897
26.82000 447.485
26.83000 446.153
26.84000 459.604
26.85000 468.885
26.86000 469.640
26.87000 463.469
26.88000 457.331
26.89000 452.797
26.90000 449.149
26.91000 445.634
26.92000 442.435
26.93000 439.543
26.94000 437.284
26.95000 441.568
26.96000 447.578
26.97000 452.632
26.98000 451.606
26.99000 449.505
27.00000 447.773
27.01000 446.979
27.02000 446.412
27.03000 445.118
27.04000 441.721
27.05000 438.191
27.06000 438.032
27.07000 444.623
27.08000 451.403
27.09000 455.336
27.10000 450.495
27.11000 447.062
27.12000 445.768
27.13000 446.417
27.14000 447.095
27.15000 449.846
27.16000 453.867
27.17000 457.773
27.18000 454.564
27.19000 448.658
27.20000 443.247
27.21000 443.782
27.22000 446.056
27.23000 447.905
27.24000 446.688
27.25000 444.865
27.26000 443.330
27.27000 447.728
27.28000 452.027
27.29000 453.355
27.30000 445.180
27.31000 436.292
27.32000 431.130
27.33000 434.220
27.34000 437.610
27.35000 439.666
27.36000 435.460
27.37000 432.412
27.38000 430.548
27.39000 429.893
27.40000 429.265
27.41000 431.666
27.42000 436.128
27.43000 440.492
27.44000 439.075
27.45000 435.122
27.46000 431.646
27.47000 434.930
27.48000 440.406
27.49000 445.178
27.50000 444.175
27.51000 441.894
27.52000 439.938
27.53000 439.253
27.54000 438.830
27.55000 437.759
27.56000 434.392
27.57000 430.824
27.58000 429.260
27.59000 432.605
27.60000 436.175
27.61000 438.433
27.62000 430.634
27.63000 424.861
27.64000 421.204
27.65000 419.970
27.66000 418.771
27.67000 424.146
27.68000 434.500
27.69000 444.685
27.70000 448.301
27.71000 448.509
27.72000 448.651
27.73000 447.672
27.74000 446.290
27.75000 445.863
27.76000 454.423
27.77000 465.197
27.78000 474.602
27.79000 459.921
27.80000 443.983
27.81000 432.016
27.82000 435.687
27.83000 440.953
27.84000 444.064
27.85000 441.336
27.86000 438.281
27.87000 436.273
27.88000 429.158
27.89000 423.834
27.90000 424.656
27.91000 433.350
27.92000 442.058
27.93000 441.803
27.94000 433.973
27.95000 426.232
27.96000 424.270
27.97000 425.590
27.98000 426.639
27.99000 422.113
28.00000 415.375
28.01000 409.560
28.02000 413.792
28.03000 420.774
28.04000 426.970
28.05000 429.666
28.06000 431.444
28.07000 431.897
28.08000 426.551
28.09000 420.525
28.10000 417.924
28.11000 425.589
28.12000 433.943
28.13000 439.637
28.14000 437.794
28.15000 436.244
28.16000 434.947
28.17000 434.013
28.18000 433.082
28.19000 430.649
28.20000 426.795
28.21000 422.969
28.22000 427.217
28.23000 436.444
28.24000 445.289
28.25000 444.304
28.26000 439.007
28.27000 434.113
28.28000 434.345
28.29000 436.134
28.30000 437.745
28.31000 432.796
28.32000 427.268
28.33000 422.586
28.34000 422.041
28.35000 422.049
28.36000 421.405
28.37000 418.596
28.38000 415.615
28.39000 413.514
28.40000 425.855
28.41000 435.648
28.42000 436.626
28.43000 423.638
28.44000 410.473
28.45000 406.029
28.46000 410.870
28.47000 415.692
28.48000 419.338
28.49000 422.125
28.50000 424.825
28.51000 424.657
28.52000 423.096
28.53000 421.374
28.54000 417.215
28.55000 412.238
28.56000 407.689
28.57000 414.043
28.58000 421.914
28.59000 429.044
28.60000 432.120
28.61000 434.581
28.62000 436.092
28.63000 434.107
28.64000 431.796
28.65000 430.116
28.66000 421.611
28.67000 414.809
28.68000 412.179
28.69000 416.879
28.70000 421.716
28.71000 423.062
28.72000 420.244
28.73000 417.424
28.74000 419.644
28.75000 425.799
28.76000 431.854
28.77000 433.470
28.78000 432.703
28.79000 431.727
28.80000 426.980
28.81000 420.830
28.82000 415.137
28.83000 415.678
28.84000 417.598
28.85000 419.581
28.86000 421.949
28.87000 424.383
28.88000 425.455
28.89000 420.953
28.90000 415.853
28.91000 412.036
28.92000 414.353
28.93000 416.447
28.94000 416.966
28.95000 414.423
28.96000 411.802
28.97000 411.232
28.98000 413.396
28.99000 415.572
29.00000 416.374
29.01000 415.969
29.02000 415.556
29.03000 414.671
29.04000 413.505
29.05000 412.281
29.06000 409.771
29.07000 406.732
29.08000 403.885
29.09000 402.316
29.10000 401.219
29.11000 400.622
29.12000 403.497
29.13000 407.038
29.14000 409.941
29.15000 409.936
29.16000 409.574
29.17000 409.295
29.18000 409.698
29.19000 410.056
29.20000 410.600
29.21000 411.544
29.22000 412.502
29.23000 411.855
29.24000 408.829
29.25000 405.781
29.26000 403.498
29.27000 401.970
29.28000 400.494
29.29000 404.056
29.30000 410.945
29.31000 417.623
29.32000 418.410
29.33000 416.517
29.34000 414.725
29.35000 411.839
29.36000 408.867
29.37000 406.525
29.38000 409.155
29.39000 412.852
29.40000 416.214
29.41000 417.871
29.42000 419.288
29.43000 420.406
29.44000 409.583
29.45000 400.096
29.46000 394.624
29.47000 398.706
29.48000 403.197
29.49000 407.044
29.50000 409.833
29.51000 412.606
29.52000 414.065
29.53000 406.495
29.54000 401.384
29.55000 400.997
29.56000 404.076
29.57000 407.083
29.58000 407.422
29.59000 406.420
29.60000 405.462
29.61000 404.646
29.62000 403.932
29.63000 404.099
29.64000 412.225
29.65000 422.253
29.66000 429.625
29.67000 421.843
29.68000 411.661
29.69000 403.439
29.70000 407.172
29.71000 411.157
29.72000 415.420
29.73000 420.409
29.74000 425.436
29.75000 425.658
29.76000 417.122
29.77000 408.402
29.78000 403.567
29.79000 411.822
29.80000 417.540
29.81000 419.614
29.82000 418.705
29.83000 417.852
29.84000 419.818
29.85000 423.353
29.86000 426.761
29.87000 427.095
29.88000 426.295
29.89000 426.216
29.90000 433.648
29.91000 443.077
29.92000 450.610
29.93000 445.956
29.94000 439.131
29.95000 433.497
29.96000 439.687
29.97000 445.885
29.98000 448.751
29.99000 441.917
30.00000 434.464
30.01000 430.947
30.02000 435.371
30.03000 440.021
30.04000 442.727
30.05000 447.481
30.06000 450.829
30.07000 452.433
30.08000 452.439
30.09000 452.429
30.10000 451.249
30.11000 449.348
30.12000 447.501
30.13000 445.224
30.14000 442.886
30.15000 441.172
30.16000 447.029
30.17000 455.119
30.18000 461.552
30.19000 455.934
30.20000 447.909
30.21000 441.149
30.22000 434.487
30.23000 428.938
30.24000 423.578
30.25000 418.824
30.26000 414.116
30.27000 411.965
30.28000 415.519
30.29000 419.284
30.30000 421.576
30.31000 428.843
30.32000 434.073
30.33000 437.620
30.34000 439.432
30.35000 441.206
30.36000 438.601
30.37000 432.993
30.38000 427.507
30.39000 424.878
30.40000 423.648
30.41000 422.565
30.42000 423.592
30.43000 425.309
30.44000 426.720
30.45000 425.589
30.46000 423.891
30.47000 422.434
30.48000 423.848
30.49000 425.399
30.50000 426.585
30.51000 426.471
30.52000 426.240
30.53000 425.830
30.54000 424.974
30.55000 424.097
30.56000 423.542
30.57000 423.657
30.58000 423.749
30.59000 424.150
30.60000 424.908
30.61000 425.668
30.62000 426.864
30.63000 428.392
30.64000 429.896
30.65000 429.238
30.66000 427.509
30.67000 426.134
30.68000 430.829
30.69000 437.717
30.70000 443.705
30.71000 441.135
30.72000 436.441
30.73000 432.338
30.74000 430.966
30.75000 430.178
30.76000 433.509
30.77000 453.184
30.78000 474.544
30.79000 488.029
30.80000 480.033
30.81000 470.819
30.82000 464.745
30.83000 473.438
30.84000 480.101
30.85000 483.659
30.86000 483.209
30.87000 482.746
30.88000 483.962
30.89000 486.607
30.90000 489.224
30.91000 491.856
30.92000 494.437
30.93000 497.402
30.94000 508.441
30.95000 522.706
30.96000 535.821
30.97000 536.290
30.98000 533.270
30.99000 530.588
31.00000 555.235
31.01000 581.012
31.02000 603.215
31.03000 609.636
31.04000 614.187
31.05000 622.276
31.06000 641.043
31.07000 660.536
31.08000 673.855
31.09000 696.201
31.10000 713.130
31.11000 737.583
31.12000 772.848
31.13000 808.200
31.14000 852.942
31.15000 906.653
31.16000 959.981
31.17000 1011.738
31.18000 1061.676
31.19000 1111.982
31.20000 1171.924
31.21000 1236.125
31.22000 1302.611
31.23000 1398.530
31.24000 1503.450
31.25000 1598.081
31.26000 1692.714
31.27000 1775.811
31.28000 1862.968
31.29000 1970.132
31.30000 2079.998
31.31000 2186.032
31.32000 2279.254
31.33000 2371.446
31.34000 2436.566
31.35000 2587.781
31.36000 2705.204
31.37000 2790.588
31.38000 2824.826
31.39000 2858.400
31.40000 2890.320
31.41000 2920.464
31.42000 2950.485
31.43000 2950.125
31.44000 2928.346
31.45000 2906.033
31.46000 2865.707
31.47000 2816.577
31.48000 2766.689
31.49000 2705.248
31.50000 2639.894
31.51000 2580.121
31.52000 2470.043
31.53000 2361.830
31.54000 2254.627
31.55000 2152.999
31.56000 2052.222
31.57000 1953.001
31.58000 1859.546
31.59000 1766.631
31.60000 1698.935
31.61000 1587.551
31.62000 1500.093
31.63000 1418.818
31.64000 1348.486
31.65000 1278.364
31.66000 1209.093
31.67000 1140.845
31.68000 1072.724
31.69000 1015.326
31.70000 966.663
31.71000 918.132
31.72000 875.515
31.73000 836.097
31.74000 796.870
31.75000 761.160
31.76000 726.767
31.77000 694.905
31.78000 676.219
31.79000 662.466
31.80000 648.905
31.81000 636.538
31.82000 624.377
31.83000 611.842
31.84000 597.763
31.85000 583.517
31.86000 572.832
31.87000 552.774
31.88000 536.664
31.89000 525.230
31.90000 522.961
31.91000 520.932
31.92000 513.523
31.93000 498.896
31.94000 484.239
31.95000 479.036
31.96000 482.215
31.97000 485.287
31.98000 481.453
31.99000 473.480
32.00000 465.546
32.01000 458.502
32.02000 451.826
32.03000 445.569
32.04000 448.736
32.05000 454.073
32.06000 458.003
32.07000 452.060
32.08000 444.207
32.09000 434.898
32.10000 418.901
32.11000 402.073
32.12000 389.108
32.13000 399.930
32.14000 409.863
32.15000 416.649
32.16000 416.614
32.17000 416.344
32.18000 414.956
32.19000 411.899
32.20000 408.827
32.21000 408.675
32.22000 411.431
32.23000 414.173
32.24000 415.423
32.25000 415.681
32.26000 415.994
32.27000 417.860
32.28000 420.439
32.29000 422.882
32.30000 421.751
32.31000 419.667
32.32000 417.542
32.33000 415.091
32.34000 412.569
32.35000 409.304
32.36000 402.228
32.37000 394.613
32.38000 388.596
32.39000 388.502
32.40000 388.831
32.41000 388.903
32.42000 388.362
32.43000 387.795
32.44000 387.735
32.45000 388.517
32.46000 389.311
32.47000 389.731
32.48000 395.164
32.49000 398.832
32.50000 398.134
32.51000 394.206
32.52000 390.317
32.53000 387.942
32.54000 386.333
32.55000 384.794
32.56000 384.880
32.57000 385.491
32.58000 385.681
32.59000 382.024
32.60000 377.439
32.61000 375.505
32.62000 388.818
32.63000 404.566
32.64000 417.304
32.65000 405.346
32.66000 393.629
32.67000 383.962
32.68000 379.730
32.69000 375.788
32.70000 374.564
32.71000 378.326
32.72000 382.196
32.73000 384.349
32.74000 384.132
32.75000 383.985
32.76000 387.423
32.77000 393.819
32.78000 400.047
32.79000 397.662
32.80000 390.445
32.81000 383.483
32.82000 382.717
32.83000 384.263
32.84000 385.656
32.85000 385.448
32.86000 384.813
32.87000 385.045
32.88000 390.903
32.89000 397.771
32.90000 403.450
32.91000 410.904
32.92000 417.217
32.93000 419.883
32.94000 411.858
32.95000 403.141
32.96000 399.190
32.97000 404.920
32.98000 410.932
32.99000 414.442
33.00000 409.342
33.01000 405.714
33.02000 400.285
33.03000 393.194
33.04000 386.167
33.05000 383.932
33.06000 384.678
33.07000 385.403
33.08000 379.971
33.09000 372.291
33.10000 365.120
33.11000 364.221
33.12000 365.185
33.13000 365.375
33.14000 359.888
33.15000 353.259
33.16000 347.665
33.17000 349.286
33.18000 351.424
33.19000 352.919
33.20000 352.327
33.21000 351.574
33.22000 350.373
33.23000 348.160
33.24000 345.910
33.25000 344.536
33.26000 350.968
33.27000 355.630
33.28000 355.562
33.29000 350.581
33.30000 345.614
33.31000 342.493
33.32000 340.646
33.33000 338.839
33.34000 342.125
33.35000 347.603
33.36000 352.896
33.37000 355.496
33.38000 357.209
33.39000 358.656
33.40000 357.874
33.41000 356.590
33.42000 355.487
33.43000 350.016
33.44000 344.840
33.45000 341.383
33.46000 344.110
33.47000 347.394
33.48000 348.517
33.49000 344.272
33.50000 339.774
33.51000 336.912
33.52000 342.919
33.53000 347.394
33.54000 346.383
33.55000 338.982
33.56000 331.591
33.57000 328.606
33.58000 329.009
33.59000 329.407
33.60000 332.984
33.61000 338.071
33.62000 342.792
33.63000 341.159
33.64000 337.212
33.65000 334.088
33.66000 338.874
33.67000 345.638
33.68000 351.557
33.69000 353.310
33.70000 354.218
33.71000 353.750
33.72000 347.778
33.73000 341.234
33.74000 335.240
33.75000 330.758
33.76000 326.364
33.77000 323.460
33.78000 330.158
33.79000 335.270
33.80000 338.603
33.81000 339.619
33.82000 340.621
33.83000 337.710
33.84000 331.440
33.85000 325.237
33.86000 330.189
33.87000 341.370
33.88000 351.915
33.89000 348.908
33.90000 340.446
33.91000 332.258
33.92000 327.110
33.93000 322.807
33.94000 318.980
33.95000 324.008
33.96000 329.812
33.97000 335.814
33.98000 342.702
33.99000 349.696
34.00000 352.912
34.01000 344.641
34.02000 335.578
34.03000 329.371
34.04000 326.613
34.05000 324.629
34.06000 324.483
34.07000 326.997
34.08000 329.532
34.09000 331.794
34.10000 333.792
34.11000 335.777
34.12000 336.309
34.13000 335.912
34.14000 335.635
34.15000 338.587
34.16000 342.975
34.17000 346.969
34.18000 345.841
34.19000 343.134
34.20000 340.690
34.21000 344.424
34.22000 348.843
34.23000 352.186
34.24000 350.182
34.25000 347.449
34.26000 345.168
34.27000 344.404
34.28000 343.764
34.29000 343.311
34.30000 342.225
34.31000 341.380
34.32000 338.458
34.33000 332.194
34.34000 325.885
34.35000 326.582
34.36000 334.863
34.37000 343.116
34.38000 343.284
34.39000 337.705
34.40000 332.320
34.41000 333.618
34.42000 338.207
34.43000 342.036
34.44000 334.126
34.45000 322.211
34.46000 311.303
34.47000 318.274
34.48000 328.191
34.49000 336.521
34.50000 336.013
34.51000 334.142
34.52000 331.829
34.53000 327.867
34.54000 323.748
34.55000 320.741
34.56000 326.755
34.57000 331.743
34.58000 334.270
34.59000 332.407
34.60000 330.459
34.61000 331.037
34.62000 334.677
34.63000 338.318
34.64000 342.300
34.65000 346.536
34.66000 350.490
34.67000 341.360
34.68000 325.101
34.69000 309.503
34.70000 306.214
34.71000 307.570
34.72000 308.828
34.73000 313.211
34.74000 317.889
34.75000 321.427
34.76000 317.833
34.77000 312.999
34.78000 309.450
34.79000 311.242
34.80000 313.618
34.81000 315.404
34.82000 320.616
34.83000 324.856
34.84000 326.181
34.85000 321.753
34.86000 317.171
34.87000 317.431
34.88000 324.239
34.89000 331.079
34.90000 332.790
34.91000 329.916
34.92000 327.033
34.93000 323.474
34.94000 319.508
34.95000 315.878
34.96000 319.969
34.97000 327.282
34.98000 334.142
34.99000 336.863
35.00000 338.255
35.01000 338.599
35.02000 331.527
35.03000 323.009
35.04000 316.237
35.05000 317.545
35.06000 319.867
35.07000 321.659
35.08000 325.682
35.09000 329.000
35.10000 327.340
35.11000 314.811
35.12000 301.901
35.13000 300.003
35.14000 314.667
35.15000 329.495
35.16000 336.925
35.17000 325.614
35.18000 318.138
35.19000 318.143
35.20000 323.159
35.21000 328.140
35.22000 332.086
35.23000 335.555
35.24000 338.843
35.25000 332.168
35.26000 323.082
35.27000 314.174
35.28000 306.696
35.29000 299.530
35.30000 294.673
35.31000 301.755
35.32000 310.539
35.33000 317.492
35.34000 321.217
35.35000 323.987
35.36000 324.889
35.37000 321.280
35.38000 317.473
35.39000 316.396
35.40000 319.880
35.41000 323.434
35.42000 325.319
35.43000 323.363
35.44000 322.024
35.45000 319.435
35.46000 315.914
35.47000 312.531
35.48000 314.388
35.49000 318.920
35.50000 323.258
35.51000 322.547
35.52000 320.221
35.53000 317.729
35.54000 313.715
35.55000 309.330
35.56000 306.214
35.57000 310.456
35.58000 315.883
35.59000 320.280
35.60000 312.226
35.61000 304.652
35.62000 299.842
35.63000 302.407
35.64000 305.374
35.65000 308.648
35.66000 312.491
35.67000 316.346
35.68000 318.499
35.69000 316.471
35.70000 315.061
35.71000 315.397
35.72000 317.188
35.73000 318.922
35.74000 317.728
35.75000 314.879
35.76000 312.129
35.77000 312.172
35.78000 313.241
35.79000 314.340
35.80000 315.753
35.81000 317.251
35.82000 318.527
35.83000 318.354
35.84000 317.917
35.85000 317.556
35.86000 311.967
35.87000 306.857
35.88000 304.783
35.89000 311.674
35.90000 319.153
35.91000 323.017
35.92000 319.483
35.93000 315.730
35.94000 313.532
35.95000 306.851
35.96000 302.126
35.97000 299.251
35.98000 298.101
35.99000 297.001
36.00000 299.748
36.01000 304.907
36.02000 309.924
36.03000 309.432
36.04000 306.696
36.05000 304.262
36.06000 305.585
36.07000 308.032
36.08000 309.968
36.09000 308.118
36.10000 305.500
36.11000 303.288
36.12000 303.824
36.13000 304.574
36.14000 305.338
36.15000 306.147
36.16000 306.960
36.17000 306.535
36.18000 303.308
36.19000 299.973
36.20000 297.932
36.21000 305.755
36.22000 311.439
36.23000 311.883
36.24000 306.840
36.25000 301.802
36.26000 297.554
36.27000 293.856
36.28000 290.235
36.29000 291.164
36.30000 294.147
36.31000 297.021
36.32000 298.286
36.33000 299.019
36.34000 300.183
36.35000 304.996
36.36000 310.635
36.37000 315.490
36.38000 308.350
36.39000 300.789
36.40000 296.358
36.41000 303.282
36.42000 311.238
36.43000 316.154
36.44000 313.461
36.45000 310.404
36.46000 308.454
36.47000 303.827
36.48000 300.427
36.49000 298.455
36.50000 298.161
36.51000 297.873
36.52000 298.643
36.53000 300.231
36.54000 301.795
36.55000 301.507
36.56000 300.277
36.57000 299.222
36.58000 301.250
36.59000 304.408
36.60000 307.059
36.61000 304.801
36.62000 301.305
36.63000 298.242
36.64000 301.320
36.65000 304.845
36.66000 306.071
36.67000 298.030
36.68000 289.015
36.69000 282.350
36.70000 282.190
36.71000 282.409
36.72000 282.554
36.73000 291.263
36.74000 297.851
36.75000 300.854
36.76000 299.157
36.77000 297.441
36.78000 298.117
36.79000 300.864
36.80000 303.582
36.81000 302.132
36.82000 298.325
36.83000 294.665
36.84000 294.158
36.85000 294.931
36.86000 295.716
36.87000 296.636
36.88000 297.595
36.89000 298.449
36.90000 301.250
36.91000 304.003
36.92000 305.869
36.93000 303.755
36.94000 301.160
36.95000 300.564
36.96000 306.090
36.97000 312.042
36.98000 316.129
36.99000 305.776
37.00000 297.660
37.01000 292.553
37.02000 291.834
37.03000 291.152
37.04000 294.464
37.05000 301.653
37.06000 308.795
37.07000 310.018
37.08000 307.431
37.09000 304.825
37.10000 301.678
37.11000 298.288
37.12000 295.450
37.13000 299.880
37.14000 306.566
37.15000 312.608
37.16000 312.473
37.17000 311.207
37.18000 309.904
37.19000 308.410
37.20000 306.890
37.21000 305.670
37.22000 305.464
37.23000 305.341
37.24000 305.254
37.25000 298.118
37.26000 292.467
37.27000 290.110
37.28000 293.089
37.29000 296.142
37.30000 296.063
37.31000 292.565
37.32000 289.077
37.33000 291.804
37.34000 298.959
37.35000 305.977
37.36000 308.203
37.37000 308.053
37.38000 307.670
37.39000 303.652
37.40000 298.385
37.41000 293.559
37.42000 295.178
37.43000 297.970
37.44000 300.457
37.45000 301.229
37.46000 301.734
37.47000 302.754
37.48000 305.715
37.49000 308.862
37.50000 311.165
37.51000 297.447
37.52000 286.226
37.53000 279.940
37.54000 282.517
37.55000 285.272
37.56000 288.002
37.57000 290.703
37.58000 293.399
37.59000 293.438
37.60000 291.343
37.61000 289.316
37.62000 290.496
37.63000 293.435
37.64000 296.021
37.65000 291.925
37.66000 285.290
37.67000 279.132
37.68000 281.733
37.69000 286.144
37.70000 290.035
37.71000 290.645
37.72000 290.680
37.73000 291.333
37.74000 294.576
37.75000 298.105
37.76000 300.762
37.77000 293.210
37.78000 286.803
37.79000 284.678
37.80000 291.068
37.81000 297.690
37.82000 302.009
37.83000 303.189
37.84000 304.351
37.85000 298.619
37.86000 286.684
37.87000 274.957
37.88000 277.441
37.89000 288.569
37.90000 299.037
37.91000 294.131
37.92000 282.763
37.93000 272.091
37.94000 276.204
37.95000 283.870
37.96000 291.214
37.97000 296.250
37.98000 300.834
37.99000 304.670
38.00000 305.021
38.01000 304.931
38.02000 304.862
38.03000 303.644
38.04000 302.610
38.05000 300.099
38.06000 294.339
38.07000 288.462
38.08000 286.837
38.09000 291.653
38.10000 296.536
38.11000 298.993
38.12000 304.679
38.13000 308.414
38.14000 305.220
38.15000 297.347
38.16000 290.040
38.17000 299.465
38.18000 316.666
38.19000 332.985
38.20000 332.002
38.21000 325.958
38.22000 319.636
38.23000 311.054
38.24000 301.976
38.25000 294.402
38.26000 294.674
38.27000 296.075
38.28000 297.185
38.29000 305.491
38.30000 312.675
38.31000 318.160
38.32000 319.515
38.33000 320.684
38.34000 321.855
38.35000 323.028
38.36000 324.202
38.37000 324.827
38.38000 354.819
38.39000 375.166
38.40000 376.514
38.41000 363.586
38.42000 351.013
38.43000 352.253
38.44000 360.595
38.45000 368.585
38.46000 386.206
38.47000 405.839
38.48000 423.980
38.49000 428.225
38.50000 429.072
38.51000 432.729
38.52000 452.834
38.53000 475.612
38.54000 494.094
38.55000 519.942
38.56000 541.620
38.57000 565.588
38.58000 595.716
38.59000 626.184
38.60000 654.055
38.61000 677.088
38.62000 700.011
38.63000 712.859
38.64000 796.402
38.65000 854.438
38.66000 888.276
38.67000 901.823
38.68000 915.590
38.69000 941.193
38.70000 973.535
38.71000 1004.774
38.72000 1020.532
38.73000 1029.635
38.74000 1039.196
38.75000 1053.684
38.76000 1069.511
38.77000 1082.897
38.78000 1080.178
38.79000 1074.517
38.80000 1069.823
38.81000 1043.238
38.82000 1019.175
38.83000 999.900
38.84000 994.868
38.85000 990.781
38.86000 972.378
38.87000 924.465
38.88000 875.659
38.89000 846.973
38.90000 806.156
38.91000 777.312
38.92000 742.498
38.93000 702.078
38.94000 661.714
38.95000 625.840
38.96000 592.801
38.97000 560.647
38.98000 534.929
38.99000 513.108
39.00000 491.579
39.01000 473.720
39.02000 456.968
39.03000 441.587
39.04000 436.465
39.05000 433.442
39.06000 430.883
39.07000 403.231
39.08000 377.302
39.09000 356.938
39.10000 354.906
39.11000 354.316
39.12000 353.046
39.13000 350.224
39.14000 347.342
39.15000 345.571
39.16000 337.838
39.17000 332.244
39.18000 325.497
39.19000 317.532
39.20000 309.613
39.21000 307.656
39.22000 309.881
39.23000 312.060
39.24000 311.277
39.25000 309.152
39.26000 306.853
39.27000 301.958
39.28000 296.196
39.29000 290.744
39.30000 287.936
39.31000 285.731
39.32000 283.830
39.33000 286.288
39.34000 288.927
39.35000 290.724
39.36000 289.447
39.37000 287.888
39.38000 287.033
39.39000 287.957
39.40000 288.967
39.41000 289.613
39.42000 284.881
39.43000 281.364
39.44000 279.589
39.45000 279.876
39.46000 280.170
39.47000 281.510
39.48000 283.665
39.49000 285.788
39.50000 284.710
39.51000 282.009
39.52000 279.105
39.53000 272.587
39.54000 264.734
39.55000 257.933
39.56000 261.443
39.57000 267.573
39.58000 272.949
39.59000 267.584
39.60000 261.414
39.61000 256.591
39.62000 257.242
39.63000 258.474
39.64000 261.466
39.65000 269.367
39.66000 277.557
39.67000 282.999
39.68000 282.628
39.69000 282.246
39.70000 280.384
39.71000 276.566
39.72000 272.737
39.73000 267.793
39.74000 261.875
39.75000 256.017
39.76000 256.463
39.77000 260.542
39.78000 264.614
39.79000 268.555
39.80000 272.442
39.81000 275.716
39.82000 272.013
39.83000 266.343
39.84000 261.289
39.85000 267.598
39.86000 274.965
39.87000 279.658
39.88000 272.268
39.89000 263.404
39.90000 257.633
39.91000 261.401
39.92000 265.843
39.93000 268.900
39.94000 271.544
39.95000 273.518
39.96000 271.249
39.97000 262.742
39.98000 254.180
39.99000 252.529
40.00000 257.644
40.01000 262.727
40.02000 262.500
40.03000 258.848
40.04000 255.487
40.05000 260.162
40.06000 268.467
40.07000 276.132
40.08000 275.275
40.09000 271.753
40.10000 268.567
40.11000 266.798
40.12000 265.506
40.13000 263.548
40.14000 258.230
40.15000 252.445
40.16000 249.369
40.17000 255.554
40.18000 262.509
40.19000 267.455
40.20000 265.955
40.21000 264.605
40.22000 263.699
40.23000 263.517
40.24000 263.345
40.25000 264.795
40.26000 268.030
40.27000 271.254
40.28000 268.983
40.29000 262.761
40.30000 256.726
40.31000 257.388
40.32000 261.395
40.33000 265.227
40.34000 266.281
40.35000 266.374
40.36000 266.460
40.37000 262.367
40.38000 257.836
40.39000 254.183
40.40000 255.500
40.41000 257.598
40.42000 258.790
40.43000 256.551
40.44000 253.979
40.45000 252.093
40.46000 246.226
40.47000 241.534
40.48000 240.564
40.49000 246.329
40.50000 252.233
40.51000 257.192
40.52000 260.990
40.53000 264.779
40.54000 265.889
40.55000 264.827
40.56000 263.743
40.57000 261.627
40.58000 258.941
40.59000 256.317
40.60000 254.893
40.61000 253.930
40.62000 253.035
40.63000 248.522
40.64000 243.591
40.65000 240.430
40.66000 248.543
40.67000 258.648
40.68000 266.165
40.69000 262.763
40.70000 258.142
40.71000 254.655
40.72000 250.305
40.73000 246.854
40.74000 245.970
40.75000 250.226
40.76000 254.625
40.77000 256.464
40.78000 254.786
40.79000 253.087
40.80000 251.443
40.81000 249.852
40.82000 248.260
40.83000 246.591
40.84000 244.875
40.85000 243.256
40.86000 243.942
40.87000 245.605
40.88000 247.166
40.89000 252.093
40.90000 257.488
40.91000 261.902
40.92000 259.243
40.93000 255.183
40.94000 252.658
40.95000 257.347
40.96000 262.958
40.97000 267.306
40.98000 259.648
40.99000 252.851
41.00000 247.590
41.01000 245.733
41.02000 244.000
41.03000 242.788
41.04000 242.372
41.05000 241.964
41.06000 241.758
41.07000 245.458
41.08000 247.930
41.09000 250.026
41.10000 251.868
41.11000 253.742
41.12000 256.594
41.13000 259.904
41.14000 263.046
41.15000 263.962
41.16000 264.141
41.17000 263.820
41.18000 259.390
41.19000 254.050
41.20000 248.211
41.21000 239.748
41.22000 230.903
41.23000 223.879
41.24000 243.473
41.25000 261.133
41.26000 270.767
41.27000 260.738
41.28000 249.811
41.29000 244.300
41.30000 247.961
41.31000 251.771
41.32000 253.807
41.33000 243.584
41.34000 236.625
41.35000 234.037
41.36000 234.757
41.37000 235.607
41.38000 241.577
41.39000 250.200
41.40000 258.464
41.41000 258.132
41.42000 254.945
41.43000 251.896
41.44000 250.156
41.45000 248.739
41.46000 247.322
41.47000 245.904
41.48000 244.486
41.49000 243.334
41.50000 245.818
41.51000 248.147
41.52000 250.195
41.53000 251.477
41.54000 252.717
41.55000 251.116
41.56000 244.183
41.57000 237.127
41.58000 233.158
41.59000 245.133
41.60000 253.477
41.61000 256.798
41.62000 255.873
41.63000 254.916
41.64000 252.142
41.65000 248.328
41.66000 244.642
41.67000 244.353
41.68000 245.352
41.69000 246.193
41.70000 245.313
41.71000 243.961
41.72000 243.573
41.73000 249.599
41.74000 256.805
41.75000 262.790
41.76000 256.747
41.77000 250.583
41.78000 245.001
41.79000 241.159
41.80000 237.433
41.81000 237.884
41.82000 247.006
41.83000 256.395
41.84000 261.931
41.85000 253.425
41.86000 247.345
41.87000 245.303
41.88000 247.087
41.89000 248.817
41.90000 246.227
41.91000 240.889
41.92000 235.691
41.93000 239.874
41.94000 247.783
41.95000 254.595
41.96000 247.448
41.97000 236.061
41.98000 226.941
41.99000 234.915
42.00000 246.414
42.01000 256.157
42.02000 254.819
42.03000 252.456
42.04000 250.774
42.05000 251.352
42.06000 252.110
42.07000 252.918
42.08000 253.840
42.09000 254.766
42.10000 255.337
42.11000 243.677
42.12000 235.199
42.13000 231.582
42.14000 233.142
42.15000 234.704
42.16000 236.429
42.17000 238.268
42.18000 240.071
42.19000 240.743
42.20000 240.860
42.21000 240.747
42.22000 237.150
42.23000 232.382
42.24000 228.368
42.25000 230.851
42.26000 234.829
42.27000 238.262
42.28000 239.850
42.29000 240.960
42.30000 241.771
42.31000 241.479
42.32000 241.085
42.33000 240.714
42.34000 240.405
42.35000 240.098
42.36000 239.902
42.37000 241.064
42.38000 241.929
42.39000 242.384
42.40000 242.350
42.41000 242.309
42.42000 240.543
42.43000 237.420
42.44000 234.343
42.45000 232.604
42.46000 231.614
42.47000 230.616
42.48000 229.495
42.49000 228.328
42.50000 227.332
42.51000 228.031
42.52000 229.165
42.53000 230.161
42.54000 232.574
42.55000 234.857
42.56000 237.539
42.57000 241.855
42.58000 246.346
42.59000 248.873
42.60000 245.881
42.61000 242.558
42.62000 240.345
42.63000 243.382
42.64000 245.731
42.65000 247.059
42.66000 247.029
42.67000 246.993
42.68000 247.580
42.69000 248.716
42.70000 249.841
42.71000 249.909
42.72000 249.361
42.73000 248.783
42.74000 247.524
42.75000 245.984
42.76000 244.287
42.77000 240.771
42.78000 236.738
42.79000 233.140
42.80000 233.398
42.81000 234.267
42.82000 234.731
42.83000 233.350
42.84000 231.742
42.85000 230.672
42.86000 231.271
42.87000 231.990
42.88000 232.486
42.89000 235.154
42.90000 237.213
42.91000 238.033
42.92000 237.016
42.93000 235.982
42.94000 235.612
42.95000 235.898
42.96000 236.182
42.97000 235.945
42.98000 235.371
42.99000 234.793
43.00000 234.073
43.01000 233.288
43.02000 232.358
43.03000 229.470
43.04000 225.966
43.05000 222.792
43.06000 227.137
43.07000 232.387
43.08000 235.960
43.09000 230.996
43.10000 224.836
43.11000 221.165
43.12000 226.058
43.13000 231.673
43.14000 235.675
43.15000 237.809
43.16000 239.375
43.17000 240.788
43.18000 241.952
43.19000 243.112
43.20000 239.598
43.21000 230.897
43.22000 222.221
43.23000 219.911
43.24000 222.255
43.25000 224.671
43.26000 229.715
43.27000 236.081
43.28000 241.779
43.29000 236.727
43.30000 227.927
43.31000 219.848
43.32000 221.067
43.33000 224.136
43.34000 226.963
43.35000 228.404
43.36000 229.626
43.37000 228.895
43.38000 220.698
43.39000 211.771
43.40000 205.210
43.41000 215.742
43.42000 224.584
43.43000 229.276
43.44000 226.402
43.45000 223.369
43.46000 221.269
43.47000 220.326
43.48000 219.388
43.49000 218.782
43.50000 218.449
43.51000 218.122
43.52000 218.108
43.53000 218.267
43.54000 218.614
43.55000 222.606
43.56000 228.004
43.57000 233.022
43.58000 228.270
43.59000 221.637
43.60000 216.691
43.61000 222.593
43.62000 230.428
43.63000 236.222
43.64000 233.342
43.65000 229.483
43.66000 226.566
43.67000 228.214
43.68000 229.735
43.69000 231.191
43.70000 232.515
43.71000 233.835
43.72000 233.711
43.73000 231.589
43.74000 229.455
43.75000 225.519
43.76000 219.935
43.77000 214.401
43.78000 212.498
43.79000 212.835
43.80000 213.366
43.81000 218.583
43.82000 225.799
43.83000 232.583
43.84000 227.990
43.85000 220.731
43.86000 214.521
43.87000 215.945
43.88000 218.893
43.89000 221.925
43.90000 225.352
43.91000 228.831
43.92000 231.531
43.93000 223.696
43.94000 216.831
43.95000 212.962
43.96000 215.779
43.97000 218.843
43.98000 222.576
43.99000 227.338
44.00000 232.112
44.01000 234.535
44.02000 222.176
44.03000 213.976
44.04000 215.111
44.05000 222.648
44.06000 230.091
44.07000 234.678
44.08000 237.919
44.09000 240.998
44.10000 235.649
44.11000 228.164
44.12000 221.567
44.13000 222.320
44.14000 224.714
44.15000 226.539
44.16000 225.355
44.17000 223.731
44.18000 222.438
44.19000 222.645
44.20000 222.919
44.21000 223.190
44.22000 223.457
44.23000 223.722
44.24000 225.425
44.25000 229.579
44.26000 233.775
44.27000 236.025
44.28000 224.669
44.29000 216.923
44.30000 213.235
44.31000 212.644
44.32000 212.177
44.33000 216.723
44.34000 223.885
44.35000 230.752
44.36000 231.788
44.37000 230.786
44.38000 229.544
44.39000 226.015
44.40000 221.919
44.41000 218.482
44.42000 218.969
44.43000 220.105
44.44000 221.030
44.45000 229.547
44.46000 237.143
44.47000 240.445
44.48000 232.037
44.49000 222.964
44.50000 219.489
44.51000 226.595
44.52000 233.950
44.53000 238.102
44.54000 234.102
44.55000 231.301
44.56000 229.587
44.57000 228.797
44.58000 228.062
44.59000 230.416
44.60000 234.556
44.61000 238.560
44.62000 239.807
44.63000 239.945
44.64000 240.240
44.65000 242.259
44.66000 244.754
44.67000 246.853
44.68000 246.289
44.69000 245.230
44.70000 244.350
44.71000 251.300
44.72000 257.819
44.73000 262.100
44.74000 259.621
44.75000 256.683
44.76000 254.027
44.77000 251.962
44.78000 249.916
44.79000 248.705
44.80000 261.867
44.81000 271.249
44.82000 274.369
44.83000 271.507
44.84000 268.681
44.85000 268.803
44.86000 270.815
44.87000 272.776
44.88000 280.026
44.89000 289.169
44.90000 297.378
44.91000 293.551
44.92000 286.042
44.93000 279.947
44.94000 284.622
44.95000 291.536
44.96000 297.401
44.97000 307.737
44.98000 316.910
44.99000 323.424
45.00000 321.050
45.01000 317.961
45.02000 318.359
45.03000 326.821
45.04000 335.608
45.05000 341.038
45.06000 335.030
45.07000 330.607
45.08000 329.179
45.09000 330.968
45.10000 332.786
45.11000 338.616
45.12000 347.303
45.13000 355.820
45.14000 360.629
45.15000 363.514
45.16000 365.919
45.17000 361.013
45.18000 353.631
45.19000 347.501
45.20000 352.258
45.21000 359.539
45.22000 365.831
45.23000 362.896
45.24000 359.203
45.25000 355.387
45.26000 351.110
45.27000 346.791
45.28000 343.380
45.29000 342.291
45.30000 341.317
45.31000 340.691
45.32000 338.818
45.33000 337.433
45.34000 335.500
45.35000 332.907
45.36000 330.306
45.37000 325.709
45.38000 319.530
45.39000 313.437
45.40000 308.122
45.41000 303.367
45.42000 298.900
45.43000 299.723
45.44000 302.528
45.45000 305.344
45.46000 308.276
45.47000 311.236
45.48000 313.840
45.49000 301.185
45.50000 288.036
45.51000 276.759
45.52000 273.198
45.53000 270.475
45.54000 268.214
45.55000 267.261
45.56000 266.386
45.57000 265.802
45.58000 274.077
45.59000 280.381
45.60000 282.003
45.61000 277.344
45.62000 272.652
45.63000 267.970
45.64000 263.298
45.65000 258.670
45.66000 255.211
45.67000 252.509
45.68000 250.165
45.69000 255.939
45.70000 265.076
45.71000 272.649
45.72000 262.043
45.73000 246.233
45.74000 232.109
45.75000 237.858
45.76000 246.214
45.77000 252.546
45.78000 249.580
45.79000 245.460
45.80000 241.811
45.81000 239.638
45.82000 237.571
45.83000 236.142
45.84000 232.298
45.85000 229.345
45.86000 229.333
45.87000 233.710
45.88000 238.129
45.89000 238.541
45.90000 234.962
45.91000 231.404
45.92000 228.874
45.93000 227.055
45.94000 225.332
45.95000 226.375
45.96000 228.684
45.97000 230.585
45.98000 226.904
45.99000 221.453
46.00000 216.511
46.01000 214.579
46.02000 213.450
46.03000 212.119
46.04000 209.753
46.05000 207.242
46.06000 205.789
46.07000 208.008
46.08000 210.539
46.09000 212.348
46.10000 215.833
46.11000 218.548
46.12000 219.556
46.13000 217.733
46.14000 215.867
46.15000 213.882
46.16000 211.764
46.17000 209.653
46.18000 206.597
46.19000 202.872
46.20000 199.312
46.21000 201.871
46.22000 207.531
46.23000 213.059
46.24000 216.452
46.25000 219.094
46.26000 221.523
46.27000 220.678
46.28000 219.221
46.29000 217.066
46.30000 210.896
46.31000 204.085
46.32000 199.197
46.33000 201.711
46.34000 204.957
46.35000 207.347
46.36000 209.397
46.37000 210.970
46.38000 209.815
46.39000 203.654
46.40000 197.385
46.41000 194.907
46.42000 197.171
46.43000 199.447
46.44000 201.069
46.45000 202.148
46.46000 203.216
46.47000 203.713
46.48000 203.890
46.49000 204.003
46.50000 202.837
46.51000 201.175
46.52000 199.628
46.53000 200.621
46.54000 202.133
46.55000 203.546
46.56000 204.319
46.57000 204.976
46.58000 204.858
46.59000 201.424
46.60000 197.611
46.61000 194.724
46.62000 198.003
46.63000 200.890
46.64000 203.178
46.65000 204.249
46.66000 205.285
46.67000 204.169
46.68000 200.054
46.69000 195.919
46.70000 196.670
46.71000 201.933
46.72000 207.133
46.73000 207.630
46.74000 205.203
46.75000 202.832
46.76000 201.842
46.77000 201.444
46.78000 201.069
46.79000 202.636
46.80000 204.596
46.81000 206.007
46.82000 203.390
46.83000 199.962
46.84000 197.629
46.85000 200.526
46.86000 204.104
46.87000 206.886
46.88000 206.800
46.89000 206.556
46.90000 204.482
46.91000 198.294
46.92000 191.951
46.93000 188.988
46.94000 191.260
46.95000 193.592
46.96000 194.780
46.97000 204.466
46.98000 210.907
46.99000 210.267
47.00000 204.736
47.01000 199.327
47.02000 197.704
47.03000 197.880
47.04000 198.048
47.05000 193.747
47.06000 188.412
47.07000 183.659
47.08000 183.777
47.09000 184.989
47.10000 186.398
47.11000 188.862
47.12000 191.483
47.13000 193.571
47.14000 203.239
47.15000 211.587
47.16000 215.672
47.17000 209.162
47.18000 202.153
47.19000 197.975
47.20000 198.663
47.21000 199.435
47.22000 199.851
47.23000 192.912
47.24000 188.176
47.25000 186.977
47.26000 188.497
47.27000 190.020
47.28000 191.636
47.29000 193.302
47.30000 194.900
47.31000 193.861
47.32000 191.991
47.33000 190.349
47.34000 190.901
47.35000 192.001
47.36000 192.682
47.37000 190.846
47.38000 188.591
47.39000 186.753
47.40000 187.387
47.41000 188.115
47.42000 188.418
47.43000 187.549
47.44000 186.613
47.45000 186.358
47.46000 187.397
47.47000 188.468
47.48000 189.074
47.49000 182.365
47.50000 177.686
47.51000 180.303
47.52000 189.189
47.53000 197.913
47.54000 197.340
47.55000 191.354
47.56000 185.563
47.57000 186.437
47.58000 189.798
47.59000 192.925
47.60000 193.440
47.61000 193.231
47.62000 192.603
47.63000 189.148
47.64000 185.164
47.65000 181.845
47.66000 179.808
47.67000 178.247
47.68000 178.083
47.69000 182.166
47.70000 186.541
47.71000 190.738
47.72000 194.558
47.73000 198.366
47.74000 200.626
47.75000 193.787
47.76000 188.894
47.77000 185.055
47.78000 182.230
47.79000 179.445
47.80000 180.237
47.81000 183.337
47.82000 186.358
47.83000 188.286
47.84000 189.661
47.85000 190.425
47.86000 183.215
47.87000 173.548
47.88000 165.728
47.89000 172.106
47.90000 181.459
47.91000 189.404
47.92000 186.224
47.93000 182.281
47.94000 179.399
47.95000 180.087
47.96000 181.066
47.97000 184.463
47.98000 193.496
47.99000 202.759
48.00000 208.500
48.01000 198.138
48.02000 190.530
48.03000 188.393
48.04000 192.181
48.05000 195.935
48.06000 194.382
48.07000 189.020
48.08000 183.760
48.09000 183.745
48.10000 186.217
48.11000 188.622
48.12000 189.981
48.13000 190.982
48.14000 191.594
48.15000 188.783
48.16000 185.173
48.17000 182.049
48.18000 186.176
48.19000 190.635
48.20000 193.296
48.21000 189.234
48.22000 184.533
48.23000 181.783
48.24000 184.055
48.25000 186.582
48.26000 188.212
48.27000 187.637
48.28000 187.186
48.29000 187.297
48.30000 188.088
48.31000 188.864
48.32000 184.286
48.33000 175.426
48.34000 166.687
48.35000 166.800
48.36000 171.598
48.37000 176.334
48.38000 179.906
48.39000 183.039
48.40000 185.798
48.41000 184.766
48.42000 182.749
48.43000 180.974
48.44000 181.444
48.45000 182.185
48.46000 182.657
48.47000 182.006
48.48000 181.232
48.49000 181.414
48.50000 184.316
48.51000 187.385
48.52000 189.441
48.53000 183.964
48.54000 179.751
48.55000 179.180
48.56000 183.535
48.57000 187.914
48.58000 189.999
48.59000 190.031
48.60000 190.062
48.61000 188.077
48.62000 184.939
48.63000 181.860
48.64000 180.145
48.65000 178.999
48.66000 178.117
48.67000 180.338
48.68000 183.454
48.69000 186.241
48.70000 185.160
48.71000 183.561
48.72000 182.214
48.73000 182.036
48.74000 182.005
48.75000 182.691
48.76000 185.641
48.77000 188.756
48.78000 190.916
48.79000 185.662
48.80000 181.510
48.81000 179.774
48.82000 181.670
48.83000 183.602
48.84000 185.882
48.85000 188.512
48.86000 191.127
48.87000 189.769
48.88000 185.800
48.89000 181.893
48.90000 179.771
48.91000 178.474
48.92000 177.260
48.93000 177.198
48.94000 177.504
48.95000 177.783
48.96000 178.492
48.97000 179.200
48.98000 179.722
48.99000 179.280
49.00000 178.699
49.01000 178.400
49.02000 179.083
49.03000 179.851
49.04000 180.401
49.05000 180.303
49.06000 180.205
49.07000 180.249
49.08000 180.527
49.09000 180.808
49.10000 182.174
49.11000 184.762
49.12000 187.344
49.13000 186.812
49.14000 183.980
49.15000 181.226
49.16000 181.494
49.17000 183.304
49.18000 184.868
49.19000 182.375
49.20000 178.446
49.21000 174.832
49.22000 177.871
49.23000 182.028
49.24000 185.718
49.25000 186.692
49.26000 187.228
49.27000 187.277
49.28000 185.438
49.29000 183.410
49.30000 181.913
49.31000 174.326
49.32000 168.190
49.33000 164.770
49.34000 166.374
49.35000 168.088
49.36000 170.104
49.37000 172.498
49.38000 174.891
49.39000 174.469
49.40000 171.712
49.41000 169.010
49.42000 169.229
49.43000 171.099
49.44000 172.899
49.45000 173.314
49.46000 173.188
49.47000 173.070
49.48000 176.708
49.49000 180.914
49.50000 184.469
49.51000 183.772
49.52000 182.304
49.53000 181.488
49.54000 183.481
49.55000 185.798
49.56000 187.556
49.57000 181.233
49.58000 175.849
49.59000 174.367
49.60000 180.871
49.61000 187.612
49.62000 190.809
49.63000 189.025
49.64000 187.207
49.65000 185.522
49.66000 183.961
49.67000 182.402
49.68000 180.993
49.69000 179.676
49.70000 178.304
49.71000 175.551
49.72000 172.200
49.73000 169.045
49.74000 168.224
49.75000 168.113
49.76000 167.792
49.77000 165.923
49.78000 163.740
49.79000 162.765
49.80000 167.601
49.81000 173.201
49.82000 177.563
49.83000 179.701
49.84000 181.267
49.85000 182.249
49.86000 181.909
49.87000 181.519
49.88000 180.626
49.89000 178.946
49.90000 177.257
49.91000 176.393
49.92000 178.744
49.93000 180.304
49.94000 179.364
49.95000 176.683
49.96000 174.182
49.97000 177.401
49.98000 183.357
49.99000 189.023
50.00000 189.334
50.01000 187.979
50.02000 186.723
50.03000 186.296
50.04000 186.057
50.05000 185.050
50.06000 179.908
50.07000 174.150
50.08000 169.554
50.09000 169.294
50.10000 169.403
50.11000 170.648
50.12000 174.737
50.13000 178.962
50.14000 180.392
50.15000 176.980
50.16000 173.482
50.17000 171.591
50.18000 179.610
50.19000 185.092
50.20000 186.273
50.21000 184.120
50.22000 181.971
50.23000 179.976
50.24000 178.062
50.25000 176.224
50.26000 177.536
50.27000 179.843
50.28000 181.934
50.29000 181.920
50.30000 181.376
50.31000 180.640
50.32000 178.751
50.33000 176.668
50.34000 174.967
50.35000 179.139
50.36000 183.059
50.37000 185.103
50.38000 181.954
50.39000 178.503
50.40000 177.627
50.41000 181.688
50.42000 185.871
50.43000 188.249
50.44000 187.041
50.45000 186.194
50.46000 189.511
50.47000 196.435
50.48000 203.308
50.49000 207.186
50.50000 209.309
50.51000 211.364
50.52000 207.703
50.53000 202.051
50.54000 197.235
50.55000 201.830
50.56000 209.061
50.57000 215.871
50.58000 219.802
50.59000 223.189
50.60000 226.014
50.61000 227.622
50.62000 228.833
50.63000 229.920
50.64000 230.628
50.65000 231.309
50.66000 232.258
50.67000 233.776
50.68000 235.312
50.69000 236.226
50.70000 241.787
50.71000 245.754
50.72000 249.448
50.73000 252.876
50.74000 256.281
50.75000 257.565
50.76000 257.469
50.77000 257.376
50.78000 255.402
50.79000 252.712
50.80000 250.340
50.81000 252.151
50.82000 255.261
50.83000 257.387
50.84000 251.881
50.85000 244.762
50.86000 238.707
50.87000 245.699
50.88000 253.081
50.89000 257.292
50.90000 250.744
50.91000 243.311
50.92000 237.695
50.93000 236.344
50.94000 235.170
50.95000 234.440
50.96000 231.201
50.97000 228.844
50.98000 226.804
50.99000 225.109
51.00000 223.413
51.01000 221.479
51.02000 219.373
51.03000 217.306
51.04000 214.614
51.05000 211.720
51.06000 208.907
51.07000 207.373
51.08000 206.278
51.09000 204.965
51.10000 201.722
51.11000 198.024
51.12000 194.820
51.13000 196.829
51.14000 199.229
51.15000 201.290
51.16000 202.073
51.17000 202.733
51.18000 201.999
51.19000 197.644
51.20000 193.102
51.21000 190.165
51.22000 186.028
51.23000 182.985
51.24000 183.846
51.25000 189.478
51.26000 195.098
51.27000 192.316
51.28000 182.762
51.29000 173.335
51.30000 170.176
51.31000 170.448
51.32000 170.699
51.33000 170.548
51.34000 170.245
51.35000 170.399
51.36000 175.232
51.37000 181.290
51.38000 186.629
51.39000 186.935
51.40000 186.439
51.41000 185.097
51.42000 180.218
51.43000 174.949
51.44000 171.053
51.45000 171.101
51.46000 171.394
51.47000 171.591
51.48000 170.314
51.49000 169.335
51.50000 169.630
51.51000 171.660
51.52000 173.699
51.53000 174.877
51.54000 175.279
51.55000 175.677
51.56000 179.002
51.57000 184.007
51.58000 188.656
51.59000 185.000
51.60000 177.852
51.61000 171.279
51.62000 171.522
51.63000 173.746
51.64000 175.737
51.65000 174.894
51.66000 173.672
51.67000 172.031
51.68000 168.430
51.69000 164.582
51.70000 161.547
51.71000 161.095
51.72000 160.835
51.73000 160.654
51.74000 165.692
51.75000 169.629
51.76000 170.254
51.77000 165.860
51.78000 161.415
51.79000 159.724
51.80000 160.823
51.81000 161.916
51.82000 163.299
51.83000 164.859
51.84000 166.383
51.85000 166.841
51.86000 166.803
51.87000 166.618
51.88000 164.377
51.89000 161.474
51.90000 158.836
51.91000 165.091
51.92000 172.342
51.93000 177.891
51.94000 174.566
51.95000 169.964
51.96000 165.519
51.97000 161.628
51.98000 157.785
51.99000 155.027
52.00000 162.350
52.01000 168.295
52.02000 170.708
52.03000 167.179
52.04000 163.556
52.05000 161.804
52.06000 162.181
52.07000 162.558
52.08000 160.927
52.09000 157.808
52.10000 154.772
52.11000 154.947
52.12000 156.772
52.13000 158.470
52.14000 158.052
52.15000 156.881
52.16000 155.802
52.17000 156.672
52.18000 157.876
52.19000 158.894
52.20000 158.817
52.21000 158.563
52.22000 157.723
52.23000 154.594
52.24000 151.234
52.25000 148.749
52.26000 148.003
52.27000 147.499
52.28000 147.762
52.29000 149.451
52.30000 151.173
52.31000 150.914
52.32000 148.137
52.33000 145.355
52.34000 147.757
52.35000 154.489
52.36000 161.125
52.37000 162.630
52.38000 161.214
52.39000 159.870
52.40000 159.986
52.41000 160.679
52.42000 161.325
52.43000 161.204
52.44000 160.906
52.45000 159.981
52.46000 154.921
52.47000 149.105
52.48000 145.330
52.49000 150.432
52.50000 156.565
52.51000 161.228
52.52000 158.524
52.53000 156.013
52.54000 154.368
52.55000 154.510
52.56000 154.705
52.57000 154.150
52.58000 152.533
52.59000 150.909
52.60000 152.697
52.61000 157.689
52.62000 162.659
52.63000 165.808
52.64000 167.807
52.65000 169.681
52.66000 168.399
52.67000 165.742
52.68000 163.238
52.69000 161.158
52.70000 159.372
52.71000 157.753
52.72000 157.378
52.73000 157.257
52.74000 158.032
52.75000 163.156
52.76000 168.856
52.77000 173.304
52.78000 170.466
52.79000 167.746
52.80000 164.420
52.81000 159.710
52.82000 154.946
52.83000 153.882
52.84000 158.639
52.85000 163.467
52.86000 165.947
52.87000 164.528
52.88000 163.585
52.89000 164.171
52.90000 165.829
52.91000 167.455
52.92000 168.013
52.93000 168.057
52.94000 168.099
52.95000 164.425
52.96000 159.873
52.97000 155.761
52.98000 155.398
52.99000 155.890
53.00000 156.231
53.01000 155.747
53.02000 155.139
53.03000 154.653
53.04000 159.699
53.05000 164.189
53.06000 167.094
53.07000 166.006
53.08000 164.725
53.09000 163.837
53.10000 163.634
53.11000 163.443
53.12000 163.339
53.13000 163.898
53.14000 164.277
53.15000 163.616
53.16000 162.142
53.17000 160.695
53.18000 160.371
53.19000 160.647
53.20000 160.912
53.21000 160.497
53.22000 159.873
53.23000 159.383
53.24000 160.204
53.25000 161.359
53.26000 162.021
53.27000 159.675
53.28000 156.818
53.29000 154.481
53.30000 156.789
53.31000 159.085
53.32000 161.236
53.33000 162.986
53.34000 164.712
53.35000 165.692
53.36000 165.227
53.37000 164.726
53.38000 164.441
53.39000 165.308
53.40000 165.915
53.41000 164.216
53.42000 160.505
53.43000 156.784
53.44000 152.397
53.45000 147.617
53.46000 142.987
53.47000 144.916
53.48000 149.277
53.49000 153.738
53.50000 159.335
53.51000 165.253
53.52000 170.046
53.53000 167.091
53.54000 162.661
53.55000 158.960
53.56000 161.413
53.57000 164.072
53.58000 166.221
53.59000 166.801
53.60000 167.270
53.61000 166.326
53.62000 162.364
53.63000 158.302
53.64000 155.875
53.65000 161.161
53.66000 164.960
53.67000 164.346
53.68000 159.411
53.69000 154.527
53.70000 154.423
53.71000 157.451
53.72000 160.405
53.73000 161.277
53.74000 161.212
53.75000 160.839
53.76000 156.354
53.77000 150.582
53.78000 145.498
53.79000 145.797
53.80000 147.243
53.81000 148.475
53.82000 153.733
53.83000 158.624
53.84000 162.538
53.85000 163.108
53.86000 163.400
53.87000 162.929
53.88000 160.652
53.89000 158.299
53.90000 156.833
53.91000 158.863
53.92000 160.363
53.93000 163.288
53.94000 167.781
53.95000 172.241
53.96000 171.023
53.97000 165.668
53.98000 160.410
53.99000 159.020
54.00000 159.543
54.01000 159.898
54.02000 157.594
54.03000 154.369
54.04000 151.332
54.05000 149.980
54.06000 149.027
54.07000 148.200
54.08000 148.674
54.09000 149.251
54.10000 151.018
54.11000 157.304
54.12000 164.027
54.13000 167.022
54.14000 160.279
54.15000 153.027
54.16000 148.323
54.17000 155.439
54.18000 160.828
54.19000 161.827
54.20000 157.420
54.21000 153.006
54.22000 151.388
54.23000 152.041
54.24000 152.686
54.25000 154.993
54.26000 158.133
54.27000 160.838
54.28000 155.200
54.29000 146.367
54.30000 138.894
54.31000 145.474
54.32000 155.760
54.33000 164.835
54.34000 161.706
54.35000 157.145
54.36000 153.539
54.37000 153.960
54.38000 154.830
54.39000 155.544
54.40000 155.807
54.41000 156.042
54.42000 156.200
54.43000 162.301
54.44000 166.960
54.45000 167.317
54.46000 161.769
54.47000 156.186
54.48000 153.602
54.49000 153.744
54.50000 153.885
54.51000 155.332
54.52000 157.537
54.53000 159.674
54.54000 160.223
54.55000 160.100
54.56000 159.743
54.57000 156.585
54.58000 152.608
54.59000 149.042
54.60000 154.206
54.61000 160.226
54.62000 165.425
54.63000 166.759
54.64000 167.600
54.65000 167.462
54.66000 164.190
54.67000 160.684
54.68000 158.241
54.69000 160.197
54.70000 161.794
54.71000 161.348
54.72000 157.784
54.73000 154.187
54.74000 150.989
54.75000 148.198
54.76000 145.422
54.77000 147.324
54.78000 152.346
54.79000 157.375
54.80000 162.614
54.81000 167.951
54.82000 172.511
54.83000 166.068
54.84000 156.056
54.85000 146.953
54.86000 149.795
54.87000 154.647
54.88000 158.087
54.89000 154.107
54.90000 149.049
54.91000 145.503
54.92000 147.316
54.93000 149.600
54.94000 151.244
54.95000 155.548
54.96000 158.937
54.97000 162.756
54.98000 167.305
54.99000 171.866
55.00000 172.291
55.01000 167.976
55.02000 163.668
55.03000 160.430
55.04000 158.019
55.05000 155.679
55.06000 156.117
55.07000 157.994
55.08000 159.733
55.09000 159.121
55.10000 157.666
55.11000 156.325
55.12000 158.875
55.13000 162.015
55.14000 164.284
55.15000 161.414
55.16000 157.701
55.17000 155.717
55.18000 160.536
55.19000 166.051
55.20000 170.137
55.21000 168.693
55.22000 167.331
55.23000 165.268
55.24000 161.888
55.25000 158.478
55.26000 157.553
55.27000 159.810
55.28000 162.078
55.29000 163.903
55.30000 165.352
55.31000 166.802
55.32000 168.331
55.33000 169.906
55.34000 171.279
55.35000 168.483
55.36000 164.031
55.37000 159.879
55.38000 162.693
55.39000 166.970
55.40000 170.881
55.41000 172.362
55.42000 173.395
55.43000 174.095
55.44000 173.330
55.45000 172.394
55.46000 171.681
55.47000 176.117
55.48000 179.882
55.49000 183.732
55.50000 187.759
55.51000 191.792
55.52000 193.190
55.53000 190.829
55.54000 188.441
55.55000 188.432
55.56000 190.677
55.57000 192.935
55.58000 196.295
55.59000 200.354
55.60000 204.350
55.61000 206.742
55.62000 208.430
55.63000 210.021
55.64000 213.551
55.65000 217.325
55.66000 221.400
55.67000 227.751
55.68000 234.571
55.69000 240.449
55.70000 241.723
55.71000 242.381
55.72000 242.895
55.73000 254.586
55.74000 264.625
55.75000 276.954
55.76000 294.537
55.77000 312.328
55.78000 323.520
55.79000 324.254
55.80000 324.856
55.81000 325.166
55.82000 359.704
55.83000 382.862
55.84000 390.292
55.85000 386.607
55.86000 383.369
55.87000 394.915
55.88000 413.637
55.89000 431.474
55.90000 441.425
55.91000 448.189
55.92000 454.815
55.93000 460.252
55.94000 465.416
55.95000 471.298
55.96000 481.116
55.97000 491.531
55.98000 499.873
55.99000 516.085
56.00000 529.793
56.01000 540.444
56.02000 543.335
56.03000 545.843
56.04000 542.439
56.05000 528.644
56.06000 514.656
56.07000 507.039
56.08000 503.052
56.09000 500.301
56.10000 492.010
56.11000 479.358
56.12000 466.822
56.13000 459.454
56.14000 454.862
56.15000 450.448
56.16000 443.460
56.17000 436.015
56.18000 427.998
56.19000 414.312
56.20000 399.176
56.21000 385.107
56.22000 377.611
56.23000 371.240
56.24000 366.021
56.25000 358.891
56.26000 352.876
56.27000 345.385
56.28000 333.747
56.29000 321.860
56.30000 312.690
56.31000 308.805
56.32000 305.056
56.33000 302.911
56.34000 278.282
56.35000 261.014
56.36000 253.503
56.37000 254.578
56.38000 255.542
56.39000 249.504
56.40000 239.299
56.41000 229.409
56.42000 222.871
56.43000 217.986
56.44000 213.390
56.45000 212.101
56.46000 211.754
56.47000 211.000
56.48000 207.421
56.49000 203.299
56.50000 199.852
56.51000 198.826
56.52000 198.221
56.53000 196.623
56.54000 191.942
56.55000 187.040
56.56000 183.343
56.57000 182.240
56.58000 181.224
56.59000 180.615
56.60000 176.892
56.61000 174.228
56.62000 173.907
56.63000 175.900
56.64000 177.894
56.65000 179.987
56.66000 182.146
56.67000 184.253
56.68000 176.714
56.69000 165.308
56.70000 154.744
56.71000 155.558
56.72000 159.955
56.73000 163.889
56.74000 164.169
56.75000 163.665
56.76000 163.235
56.77000 158.563
56.78000 154.130
56.79000 150.299
56.80000 148.540
56.81000 146.955
56.82000 147.280
56.83000 152.151
56.84000 157.218
56.85000 160.386
56.86000 156.822
56.87000 154.179
56.88000 155.372
56.89000 160.820
56.90000 166.241
56.91000 166.300
56.92000 162.423
56.93000 158.616
56.94000 156.000
56.95000 154.054
56.96000 151.922
56.97000 146.793
56.98000 140.618
56.99000 135.545
57.00000 140.435
57.01000 147.708
57.02000 154.025
57.03000 153.485
57.04000 152.099
57.05000 151.339
57.06000 152.977
57.07000 154.850
57.08000 154.873
57.09000 150.031
57.10000 144.931
57.11000 141.613
57.12000 141.881
57.13000 142.134
57.14000 142.941
57.15000 144.437
57.16000 145.931
57.17000 146.126
57.18000 145.255
57.19000 144.395
57.20000 144.134
57.21000 144.204
57.22000 144.422
57.23000 147.524
57.24000 151.739
57.25000 155.222
57.26000 151.060
57.27000 144.867
57.28000 139.396
57.29000 137.362
57.30000 136.135
57.31000 135.480
57.32000 137.252
57.33000 139.299
57.34000 142.622
57.35000 149.663
57.36000 156.941
57.37000 161.853
57.38000 158.136
57.39000 155.187
57.40000 151.800
57.41000 147.805
57.42000 143.808
57.43000 141.757
57.44000 141.492
57.45000 141.229
57.46000 143.777
57.47000 147.980
57.48000 151.991
57.49000 151.372
57.50000 148.778
57.51000 146.286
57.52000 145.027
57.53000 144.131
57.54000 143.328
57.55000 143.345
57.56000 143.503
57.57000 143.872
57.58000 145.241
57.59000 146.738
57.60000 147.141
57.61000 144.017
57.62000 140.625
57.63000 138.257
57.64000 142.781
57.65000 146.390
57.66000 145.589
57.67000 138.003
57.68000 130.343
57.69000 130.166
57.70000 137.699
57.71000 145.195
57.72000 148.002
57.73000 147.599
57.74000 147.277
57.75000 149.429
57.76000 152.749
57.77000 155.683
57.78000 153.090
57.79000 148.692
57.80000 144.689
57.81000 142.248
57.82000 140.396
57.83000 138.488
57.84000 136.286
57.85000 134.041
57.86000 133.315
57.87000 138.018
57.88000 143.205
57.89000 146.943
57.90000 141.274
57.91000 136.596
57.92000 134.202
57.93000 135.704
57.94000 137.272
57.95000 137.737
57.96000 136.929
57.97000 136.120
57.98000 138.055
57.99000 142.058
58.00000 145.946
58.01000 145.144
58.02000 141.896
58.03000 138.834
58.04000 138.991
58.05000 140.311
58.06000 141.529
58.07000 141.717
58.08000 141.657
58.09000 141.410
58.10000 140.051
58.11000 138.507
58.12000 137.123
58.13000 136.372
58.14000 135.687
58.15000 135.179
58.16000 137.988
58.17000 140.318
58.18000 140.945
58.19000 138.354
58.20000 135.686
58.21000 135.942
58.22000 139.971
58.23000 144.012
58.24000 144.351
58.25000 141.541
58.26000 138.761
58.27000 137.651
58.28000 137.506
58.29000 137.381
58.30000 137.687
58.31000 138.166
58.32000 138.612
58.33000 137.910
58.34000 136.986
58.35000 136.466
58.36000 138.660
58.37000 141.358
58.38000 143.756
58.39000 144.834
58.40000 145.755
58.41000 146.458
58.42000 141.194
58.43000 136.725
58.44000 134.561
58.45000 137.215
58.46000 140.021
58.47000 142.870
58.48000 145.782
58.49000 148.693
58.50000 148.901
58.51000 146.526
58.52000 144.154
58.53000 141.968
58.54000 139.900
58.55000 137.907
58.56000 137.835
58.57000 138.613
58.58000 139.347
58.59000 136.408
58.60000 132.682
58.61000 129.480
58.62000 130.265
58.63000 131.879
58.64000 132.384
58.65000 127.421
58.66000 121.719
58.67000 117.253
58.68000 123.402
58.69000 128.998
58.70000 132.770
58.71000 132.326
58.72000 131.712
58.73000 132.717
58.74000 136.308
58.75000 139.933
58.76000 141.810
58.77000 142.428
58.78000 142.833
58.79000 141.626
58.80000 139.269
58.81000 136.905
58.82000 134.269
58.83000 131.501
58.84000 128.862
58.85000 127.290
58.86000 126.167
58.87000 125.311
58.88000 126.773
58.89000 128.771
58.90000 130.693
58.91000 132.187
58.92000 133.616
58.93000 134.762
58.94000 135.218
58.95000 135.535
58.96000 136.365
58.97000 138.508
58.98000 140.717
58.99000 139.976
59.00000 134.011
59.01000 127.947
59.02000 124.633
59.03000 131.496
59.04000 136.202
59.05000 133.333
59.06000 124.453
59.07000 115.814
59.08000 118.120
59.09000 126.348
59.10000 134.262
59.11000 133.381
59.12000 129.463
59.13000 126.283
59.14000 130.490
59.15000 136.601
59.16000 141.610
59.17000 139.776
59.18000 136.762
59.19000 134.290
59.20000 138.858
59.21000 143.235
59.22000 146.271
59.23000 145.516
59.24000 144.532
59.25000 143.539
59.26000 142.530
59.27000 141.520
59.28000 140.941
59.29000 139.218
59.30000 138.009
59.31000 136.745
59.32000 135.432
59.33000 134.133
59.34000 133.772
59.35000 133.974
59.36000 134.170
59.37000 134.848
59.38000 135.679
59.39000 136.595
59.40000 138.493
59.41000 140.673
59.42000 142.080
59.43000 138.070
59.44000 133.011
59.45000 128.773
59.46000 132.788
59.47000 136.979
59.48000 140.305
59.49000 140.920
59.50000 141.340
59.51000 142.107
59.52000 143.630
59.53000 145.179
59.54000 146.110
59.55000 135.693
59.56000 128.210
59.57000 126.681
59.58000 131.086
59.59000 135.422
59.60000 132.854
59.61000 125.693
59.62000 118.701
59.63000 121.840
59.64000 129.286
59.65000 136.050
59.66000 133.491
59.67000 127.975
59.68000 123.415
59.69000 126.490
59.70000 131.215
59.71000 135.251
59.72000 131.610
59.73000 127.629
59.74000 125.885
59.75000 131.904
59.76000 138.584
59.77000 141.638
59.78000 136.001
59.79000 129.985
59.80000 126.212
59.81000 133.489
59.82000 138.867
59.83000 140.322
59.84000 137.386
59.85000 134.479
59.86000 137.323
59.87000 144.424
59.88000 151.400
59.89000 150.547
59.90000 145.891
59.91000 141.341
59.92000 138.527
59.93000 136.323
59.94000 134.137
59.95000 132.120
59.96000 130.144
59.97000 128.425
59.98000 129.714
59.99000 131.224
60.00000 131.757
60.01000 128.527
60.02000 124.926
60.03000 123.258
60.04000 126.717
60.05000 130.452
60.06000 132.888
60.07000 135.487
60.08000 137.398
60.09000 136.115
60.10000 130.836
60.11000 125.558
60.12000 126.286
60.13000 131.971
60.14000 137.585
60.15000 137.997
60.16000 135.554
60.17000 133.287
60.18000 134.475
60.19000 137.006
60.20000 138.947
60.21000 134.669
60.22000 128.726
60.23000 123.470
60.24000 128.262
60.25000 133.964
60.26000 138.483
60.27000 137.940
60.28000 136.820
60.29000 134.927
60.30000 130.764
60.31000 126.453
60.32000 123.538
60.33000 126.766
60.34000 129.305
60.35000 132.080
60.36000 135.186
60.37000 138.292
60.38000 138.012
60.39000 134.603
60.40000 131.221
60.41000 131.624
60.42000 134.333
60.43000 136.851
60.44000 134.705
60.45000 130.555
60.46000 126.662
60.47000 125.916
60.48000 126.107
60.49000 126.277
60.50000 129.459
60.51000 132.774
60.52000 135.165
60.53000 133.148
60.54000 130.556
60.55000 128.735
60.56000 129.421
60.57000 130.299
60.58000 130.914
60.59000 127.762
60.60000 125.272
60.61000 124.612
60.62000 126.791
60.63000 129.002
60.64000 132.563
60.65000 137.528
60.66000 142.468
60.67000 144.477
60.68000 144.460
60.69000 144.381
60.70000 142.360
60.71000 139.417
60.72000 136.553
60.73000 134.844
60.74000 133.516
60.75000 132.305
60.76000 134.923
60.77000 138.005
60.78000 140.623
60.79000 140.766
60.80000 140.544
60.81000 139.141
60.82000 133.485
60.83000 127.446
60.84000 123.084
60.85000 128.551
60.86000 133.099
60.87000 136.765
60.88000 138.916
60.89000 141.040
60.90000 140.833
60.91000 137.909
60.92000 134.989
60.93000 132.578
60.94000 130.571
60.95000 128.590
60.96000 127.693
60.97000 127.367
60.98000 127.051
60.99000 126.920
61.00000 126.856
61.01000 126.797
61.02000 130.572
61.03000 134.816
61.04000 138.607
61.05000 139.678
61.06000 140.294
61.07000 140.549
61.08000 139.359
61.09000 138.018
61.10000 137.021
61.11000 132.482
61.12000 128.793
61.13000 128.005
61.14000 132.739
61.15000 137.606
61.16000 137.580
61.17000 131.188
61.18000 124.774
61.19000 125.477
61.20000 132.280
61.21000 138.990
61.22000 140.304
61.23000 138.478
61.24000 136.677
61.25000 135.414
61.26000 134.367
61.27000 133.389
61.28000 132.825
61.29000 132.418
61.30000 132.453
61.31000 135.484
61.32000 139.077
61.33000 141.321
61.34000 137.558
61.35000 133.076
61.36000 129.649
61.37000 130.503
61.38000 131.410
61.39000 133.706
61.40000 138.927
61.41000 144.242
61.42000 145.147
61.43000 139.663
61.44000 134.127
61.45000 135.351
61.46000 143.085
61.47000 150.755
61.48000 152.746
61.49000 151.072
61.50000 149.617
61.51000 153.971
61.52000 160.911
61.53000 167.468
61.54000 176.976
61.55000 186.538
61.56000 196.362
61.57000 208.205
61.58000 220.470
61.59000 231.928
61.60000 239.369
61.61000 246.262
61.62000 251.671
61.63000 260.294
61.64000 267.399
61.65000 272.200
61.66000 271.632
61.67000 270.845
61.68000 271.686
61.69000 275.147
61.70000 278.644
61.71000 280.462
61.72000 280.814
61.73000 281.060
61.74000 282.481
61.75000 284.748
61.76000 286.738
61.77000 279.231
61.78000 267.048
61.79000 255.426
61.80000 244.228
61.81000 233.969
61.82000 223.268
61.83000 208.680
61.84000 193.185
61.85000 179.041
61.86000 172.426
61.87000 166.973
61.88000 162.591
61.89000 157.220
61.90000 152.791
61.91000 148.823
61.92000 146.043
61.93000 143.323
61.94000 142.634
61.95000 145.565
61.96000 148.568
61.97000 150.214
61.98000 145.008
61.99000 141.427
62.00000 141.455
62.01000 144.370
62.02000 147.180
62.03000 145.105
62.04000 140.369
62.05000 135.810
62.06000 133.283
62.07000 131.631
62.08000 130.789
62.09000 138.128
62.10000 147.594
62.11000 154.647
62.12000 146.588
62.13000 135.901
62.14000 127.119
62.15000 134.017
62.16000 141.094
62.17000 147.358
62.18000 151.307
62.19000 155.113
62.20000 154.788
62.21000 146.306
62.22000 137.605
62.23000 132.592
62.24000 138.835
62.25000 143.247
62.26000 146.082
62.27000 147.505
62.28000 148.877
62.29000 146.872
62.30000 142.828
62.31000 138.904
62.32000 138.427
62.33000 139.338
62.34000 139.952
62.35000 137.058
62.36000 133.153
62.37000 130.263
62.38000 134.564
62.39000 140.267
62.40000 145.051
62.41000 141.787
62.42000 138.230
62.43000 135.448
62.44000 135.108
62.45000 134.947
62.46000 135.317
62.47000 136.843
62.48000 138.411
62.49000 139.356
62.50000 140.717
62.51000 141.689
62.52000 140.357
62.53000 136.711
62.54000 133.097
62.55000 132.853
62.56000 134.868
62.57000 136.836
62.58000 137.478
62.59000 137.507
62.60000 137.519
62.61000 137.305
62.62000 137.019
62.63000 137.224
62.64000 141.376
62.65000 146.389
62.66000 150.676
62.67000 144.166
62.68000 137.379
62.69000 132.866
62.70000 136.305
62.71000 140.428
62.72000 143.098
62.73000 142.259
62.74000 141.265
62.75000 140.639
62.76000 147.317
62.77000 152.229
62.78000 153.720
62.79000 151.352
62.80000 148.984
62.81000 147.337
62.82000 146.226
62.83000 145.134
62.84000 145.059
62.85000 145.487
62.86000 145.869
62.87000 145.485
62.88000 144.831
62.89000 144.275
62.90000 144.619
62.91000 145.181
62.92000 145.670
62.93000 142.990
62.94000 140.265
62.95000 138.575
62.96000 140.900
62.97000 143.627
62.98000 145.425
62.99000 144.746
63.00000 143.933
63.01000 143.400
63.02000 146.368
63.03000 148.604
63.04000 148.514
63.05000 145.489
63.06000 142.461
63.07000 142.423
63.08000 144.873
63.09000 147.294
63.10000 148.386
63.11000 148.719
63.12000 148.882
63.13000 145.645
63.14000 141.077
63.15000 136.814
63.16000 135.793
63.17000 135.647
63.18000 135.517
63.19000 136.592
63.20000 137.710
63.21000 138.886
63.22000 140.311
63.23000 141.766
63.24000 143.647
63.25000 146.786
63.26000 150.008
63.27000 152.193
63.28000 149.771
63.29000 147.862
63.30000 146.531
63.31000 146.010
63.32000 145.496
63.33000 146.888
63.34000 150.057
63.35000 153.200
63.36000 154.060
63.37000 153.498
63.38000 152.969
63.39000 153.241
63.40000 153.861
63.41000 154.425
63.42000 154.299
63.43000 153.968
63.44000 153.669
63.45000 151.053
63.46000 148.349
63.47000 145.980
63.48000 145.225
63.49000 144.683
63.50000 144.267
63.51000 144.267
63.52000 144.298
63.53000 144.321
63.54000 147.597
63.55000 150.170
63.56000 151.267
63.57000 150.059
63.58000 148.823
63.59000 150.929
63.60000 156.536
63.61000 162.117
63.62000 159.789
63.63000 152.040
63.64000 144.539
63.65000 144.933
63.66000 149.104
63.67000 152.775
63.68000 149.073
63.69000 142.927
63.70000 137.322
63.71000 139.948
63.72000 143.929
63.73000 147.623
63.74000 149.770
63.75000 151.687
63.76000 153.906
63.77000 157.218
63.78000 160.629
63.79000 163.098
63.80000 159.886
63.81000 157.212
63.82000 155.231
63.83000 154.449
63.84000 153.689
63.85000 153.343
63.86000 153.484
63.87000 153.626
63.88000 153.089
63.89000 152.034
63.90000 151.027
63.91000 152.070
63.92000 154.199
63.93000 156.192
63.94000 155.792
63.95000 154.515
63.96000 153.336
63.97000 153.402
63.98000 153.744
63.99000 154.284
64.00000 156.030
64.01000 157.979
64.02000 159.721
64.03000 160.632
64.04000 161.456
64.05000 162.071
64.06000 156.990
64.07000 152.775
64.08000 151.184
64.09000 154.626
64.10000 158.191
64.11000 158.669
64.12000 155.096
64.13000 151.508
64.14000 148.967
64.15000 147.336
64.16000 145.785
64.17000 148.933
64.18000 154.837
64.19000 160.451
64.20000 159.803
64.21000 156.615
64.22000 153.634
64.23000 158.450
64.24000 164.805
64.25000 170.562
64.26000 172.227
64.27000 173.119
64.28000 173.022
64.29000 168.486
64.30000 163.415
64.31000 159.529
64.32000 156.247
64.33000 153.690
64.34000 154.038
64.35000 160.553
64.36000 167.270
64.37000 170.837
64.38000 169.808
64.39000 168.740
64.40000 168.370
64.41000 168.680
64.42000 169.003
64.43000 170.500
64.44000 172.761
64.45000 174.881
64.46000 173.189
64.47000 169.787
64.48000 166.572
64.49000 169.553
64.50000 174.058
64.51000 177.826
64.52000 175.878
64.53000 172.724
64.54000 169.698
64.55000 167.314
64.56000 165.019
64.57000 163.214
64.58000 164.887
64.59000 166.455
64.60000 168.157
64.61000 170.177
64.62000 172.210
64.63000 171.623
64.64000 166.789
64.65000 161.896
64.66000 159.342
64.67000 160.609
64.68000 161.500
64.69000 167.520
64.70000 177.249
64.71000 186.623
64.72000 183.526
64.73000 174.244
64.74000 165.383
64.75000 166.355
64.76000 170.396
64.77000 174.018
64.78000 173.912
64.79000 172.928
64.80000 172.871
64.81000 178.014
64.82000 183.968
64.83000 188.760
64.84000 182.407
64.85000 176.386
64.86000 174.319
64.87000 182.510
64.88000 191.228
64.89000 194.584
64.90000 188.307
64.91000 181.837
64.92000 178.275
64.93000 182.655
64.94000 185.677
64.95000 185.233
64.96000 181.997
64.97000 178.881
64.98000 181.447
64.99000 187.133
65.00000 192.609
65.01000 193.783
65.02000 193.351
65.03000 192.688
65.04000 189.674
65.05000 186.043
65.06000 183.549
65.07000 188.241
65.08000 194.193
65.09000 199.091
65.10000 192.525
65.11000 186.083
65.12000 182.875
65.13000 188.947
65.14000 195.597
65.15000 203.882
65.16000 215.415
65.17000 227.038
65.18000 233.758
65.19000 226.942
65.20000 222.111
65.21000 219.702
65.22000 219.477
65.23000 219.254
65.24000 219.186
65.25000 219.212
65.26000 219.236
65.27000 221.148
65.28000 223.714
65.29000 226.659
65.30000 234.108
65.31000 242.866
65.32000 250.527
65.33000 250.357
65.34000 248.647
65.35000 247.211
65.36000 256.517
65.37000 265.403
65.38000 273.069
65.39000 276.859
65.40000 280.361
65.41000 285.448
65.42000 294.021
65.43000 302.718
65.44000 307.979
65.45000 308.535
65.46000 308.896
65.47000 315.483
65.48000 328.379
65.49000 341.205
65.50000 346.454
65.51000 346.585
65.52000 346.712
65.53000 349.576
65.54000 353.540
65.55000 357.842
65.56000 366.886
65.57000 377.456
65.58000 387.681
65.59000 395.102
65.60000 401.907
65.61000 407.735
65.62000 409.565
65.63000 410.624
65.64000 413.863
65.65000 424.778
65.66000 436.362
65.67000 451.369
65.68000 474.703
65.69000 498.411
65.70000 513.366
65.71000 563.126
65.72000 599.560
65.73000 638.454
65.74000 680.144
65.75000 721.891
65.76000 774.573
65.77000 835.472
65.78000 895.354
65.79000 952.737
65.80000 1006.997
65.81000 1059.130
65.82000 1075.679
65.83000 1079.548
65.84000 1084.339
65.85000 1097.728
65.86000 1113.220
65.87000 1126.727
65.88000 1133.244
65.89000 1137.845
65.90000 1137.118
65.91000 1115.563
65.92000 1091.904
65.93000 1068.378
65.94000 1045.210
65.95000 1022.061
65.96000 1006.881
65.97000 923.652
65.98000 861.312
65.99000 799.585
66.00000 738.638
66.01000 677.690
66.02000 615.622
66.03000 552.612
66.04000 490.342
66.05000 452.740
66.06000 429.760
66.07000 407.165
66.08000 392.386
66.09000 380.687
66.10000 368.658
66.11000 353.064
66.12000 336.502
66.13000 321.820
66.14000 318.811
66.15000 318.053
66.16000 317.332
66.17000 316.772
66.18000 316.231
66.19000 315.224
66.20000 312.829
66.21000 310.341
66.22000 308.650
66.23000 303.156
66.24000 298.969
66.25000 301.874
66.26000 314.821
66.27000 327.840
66.28000 338.456
66.29000 346.813
66.30000 355.107
66.31000 365.195
66.32000 376.225
66.33000 387.191
66.34000 396.518
66.35000 405.131
66.36000 413.645
66.37000 420.918
66.38000 427.818
66.39000 434.027
66.40000 440.868
66.41000 446.978
66.42000 450.549
66.43000 441.797
66.44000 431.410
66.45000 426.758
66.46000 441.001
66.47000 456.730
66.48000 467.790
66.49000 454.288
66.50000 443.335
66.51000 431.701
66.52000 418.997
66.53000 406.279
66.54000 395.070
66.55000 385.455
66.56000 375.883
66.57000 366.251
66.58000 356.678
66.59000 347.322
66.60000 344.978
66.61000 346.013
66.62000 346.963
66.63000 346.642
66.64000 345.897
66.65000 345.216
66.66000 338.027
66.67000 330.329
66.68000 323.754
66.69000 323.280
66.70000 323.724
66.71000 323.945
66.72000 323.351
66.73000 322.683
66.74000 322.197
66.75000 324.896
66.76000 327.089
66.77000 328.153
66.78000 327.248
66.79000 326.308
66.80000 322.981
66.81000 316.829
66.82000 310.685
66.83000 315.140
66.84000 327.811
66.85000 340.284
66.86000 344.242
66.87000 343.659
66.88000 342.992
66.89000 340.844
66.90000 338.149
66.91000 335.656
66.92000 332.738
66.93000 330.021
66.94000 327.993
66.95000 330.169
66.96000 333.059
66.97000 334.980
66.98000 332.969
66.99000 330.540
67.00000 328.725
67.01000 336.108
67.02000 342.287
67.03000 347.468
67.04000 350.721
67.05000 353.926
67.06000 354.757
67.07000 352.452
67.08000 350.133
67.09000 351.703
67.10000 356.659
67.11000 361.614
67.12000 366.468
67.13000 371.263
67.14000 375.611
67.15000 370.160
67.16000 360.704
67.17000 351.856
67.18000 358.232
67.19000 367.931
67.20000 377.031
67.21000 382.009
67.22000 386.204
67.23000 388.783
67.24000 384.064
67.25000 378.454
67.26000 374.148
67.27000 378.810
67.28000 382.996
67.29000 387.888
67.30000 394.289
67.31000 400.741
67.32000 401.741
67.33000 394.724
67.34000 387.636
67.35000 387.568
67.36000 394.379
67.37000 401.185
67.38000 407.624
67.39000 413.823
67.40000 419.784
67.41000 419.225
67.42000 415.721
67.43000 412.406
67.44000 414.243
67.45000 417.413
67.46000 420.224
67.47000 420.216
67.48000 419.608
67.49000 419.150
67.50000 419.443
67.51000 419.840
67.52000 420.153
67.53000 425.824
67.54000 430.725
67.55000 435.271
67.56000 438.977
67.57000 442.647
67.58000 443.823
67.59000 440.928
67.60000 437.976
67.61000 436.428
67.62000 427.925
67.63000 422.225
67.64000 426.776
67.65000 438.799
67.66000 450.514
67.67000 451.230
67.68000 446.450
67.69000 441.884
67.70000 446.202
67.71000 453.075
67.72000 459.294
67.73000 459.654
67.74000 458.623
67.75000 457.628
67.76000 456.835
67.77000 456.074
67.78000 455.460
67.79000 470.795
67.80000 484.504
67.81000 496.983
67.82000 506.248
67.83000 515.346
67.84000 517.066
67.85000 505.437
67.86000 493.534
67.87000 486.956
67.88000 490.037
67.89000 492.183
67.90000 495.653
67.91000 500.198
67.92000 504.768
67.93000 510.515
67.94000 516.914
67.95000 523.081
67.96000 525.148
67.97000 525.615
67.98000 526.637
67.99000 533.395
68.00000 541.665
68.01000 548.544
68.02000 546.556
68.03000 543.001
68.04000 540.071
68.05000 543.893
68.06000 547.660
68.07000 550.640
68.08000 551.347
68.09000 551.910
68.10000 552.705
68.11000 553.964
68.12000 555.235
68.13000 555.972
68.14000 570.422
68.15000 580.621
68.16000 591.777
68.17000 603.804
68.18000 615.696
68.19000 618.064
68.20000 614.594
68.21000 611.223
68.22000 610.438
68.23000 610.732
68.24000 611.780
68.25000 621.896
68.26000 634.666
68.27000 645.350
68.28000 640.990
68.29000 633.648
68.30000 627.471
68.31000 632.121
68.32000 637.153
68.33000 643.867
68.34000 655.967
68.35000 668.471
68.36000 679.717
68.37000 688.175
68.38000 696.532
68.39000 701.603
68.40000 698.645
68.41000 696.473
68.42000 702.050
68.43000 715.544
68.44000 728.997
68.45000 737.797
68.46000 743.430
68.47000 748.938
68.48000 755.339
68.49000 761.879
68.50000 768.666
68.51000 778.970
68.52000 790.414
68.53000 802.113
68.54000 815.902
68.55000 830.153
68.56000 842.375
68.57000 875.739
68.58000 906.516
68.59000 937.847
68.60000 971.143
68.61000 1004.612
68.62000 1036.448
68.63000 1064.285
68.64000 1091.938
68.65000 1109.433
68.66000 1179.839
68.67000 1231.509
68.68000 1290.940
68.69000 1359.269
68.70000 1427.555
68.71000 1484.228
68.72000 1532.107
68.73000 1579.205
68.74000 1628.412
68.75000 1677.095
68.76000 1726.311
68.77000 1784.565
68.78000 1846.063
68.79000 1907.556
68.80000 1968.994
68.81000 2030.420
68.82000 2084.040
68.83000 2191.111
68.84000 2290.221
68.85000 2395.785
68.86000 2526.770
68.87000 2660.350
68.88000 2836.050
68.89000 3125.855
68.90000 3422.044
68.91000 3616.804
68.92000 4586.651
68.93000 5313.869
68.94000 6541.490
68.95000 8410.115
68.96000 10282.783
68.97000 13115.380
68.98000 16759.566
68.99000 20362.180
69.00000 25015.691
69.01000 30146.318
69.02000 35258.953
69.03000 40000.074
69.04000 44593.723
69.05000 49054.590
69.06000 52069.309
69.07000 54687.969
69.08000 57011.809
69.09000 58170.727
69.10000 58988.949
69.11000 59725.309
69.12000 60102.848
69.13000 60438.277
69.14000 60890.332
69.15000 61691.934
69.16000 62517.043
69.17000 63079.441
69.18000 63561.512
69.19000 63919.938
69.20000 63720.945
69.21000 62726.648
69.22000 61726.125
69.23000 59639.223
69.24000 56523.023
69.25000 53429.809
69.26000 49999.449
69.27000 46414.707
69.28000 42866.586
69.29000 40261.313
69.30000 38069.855
69.31000 35932.895
69.32000 34489.824
69.33000 33257.492
69.34000 32147.135
69.35000 31350.967
69.36000 30709.307
69.37000 30006.020
69.38000 29001.287
69.39000 27956.205
69.40000 26708.363
69.41000 24787.467
69.42000 22813.031
69.43000 21421.467
69.44000 18026.820
69.45000 15392.223
69.46000 12945.457
69.47000 10796.418
69.48000 8651.128
69.49000 6994.744
69.50000 5859.128
69.51000 4728.432
69.52000 3918.333
69.53000 3340.717
69.54000 2770.353
69.55000 2440.044
69.56000 2226.254
69.57000 2017.650
69.58000 1887.253
69.59000 1783.159
69.60000 1688.042
69.61000 1585.660
69.62000 1493.244
69.63000 1406.642
69.64000 1351.885
69.65000 1301.960
69.66000 1253.927
69.67000 1212.862
69.68000 1172.445
69.69000 1143.058
69.70000 1113.350
69.71000 1090.482
69.72000 1067.377
69.73000 1043.859
69.74000 1020.332
69.75000 994.895
69.76000 967.177
69.77000 939.508
69.78000 915.381
69.79000 894.148
69.80000 873.038
69.81000 857.384
69.82000 844.660
69.83000 832.245
69.84000 825.439
69.85000 820.721
69.86000 816.354
69.87000 807.184
69.88000 797.835
69.89000 789.001
69.90000 783.335
69.91000 778.211
69.92000 770.211
69.93000 750.451
69.94000 729.427
69.95000 713.690
69.96000 713.238
69.97000 713.600
69.98000 710.254
69.99000 699.695
70.00000 688.949
