20.00000 582.558
20.01000 576.931
20.02000 570.500
20.03000 565.785
20.04000 567.930
20.05000 570.789
20.06000 572.917
20.07000 560.511
20.08000 550.210
20.09000 543.215
20.10000 542.509
20.11000 541.955
20.12000 545.244
20.13000 553.531
20.14000 561.832
20.15000 563.071
20.16000 558.256
20.17000 553.517
20.18000 553.169
20.19000 555.376
20.20000 557.645
20.21000 561.225
20.22000 565.334
20.23000 569.172
20.24000 567.378
20.25000 564.330
20.26000 562.202
20.27000 566.304
20.28000 571.573
20.29000 574.796
20.30000 568.912
20.31000 561.939
20.32000 556.608
20.33000 560.590
20.34000 564.238
20.35000 567.211
20.36000 568.761
20.37000 570.267
20.38000 570.420
20.39000 568.615
20.40000 566.793
20.41000 567.083
20.42000 569.404
20.43000 571.695
20.44000 571.339
20.45000 569.275
20.46000 567.154
20.47000 563.534
20.48000 559.246
20.49000 555.197
20.50000 552.082
20.51000 549.489
20.52000 547.987
20.53000 554.874
20.54000 563.518
20.55000 570.681
20.56000 570.490
20.57000 569.296
20.58000 568.360
20.59000 564.845
20.60000 561.867
20.61000 561.108
20.62000 565.514
20.63000 570.132
20.64000 570.333
20.65000 563.431
20.66000 556.434
20.67000 552.796
20.68000 544.039
20.69000 538.187
20.70000 542.013
20.71000 552.783
20.72000 563.392
20.73000 568.461
20.74000 570.804
20.75000 573.039
20.76000 567.938
20.77000 560.881
20.78000 554.020
20.79000 548.873
20.80000 544.127
20.81000 541.026
20.82000 547.086
20.83000 554.560
20.84000 560.565
20.85000 552.953
20.86000 545.737
20.87000 541.540
20.88000 545.115
20.89000 549.085
20.90000 553.723
20.91000 559.553
20.92000 565.406
20.93000 568.616
20.94000 560.779
20.95000 555.394
20.96000 557.772
20.97000 566.356
20.98000 574.698
20.99000 571.860
21.00000 562.932
21.01000 554.338
21.02000 552.740
21.03000 553.719
21.04000 554.935
21.05000 558.553
21.06000 562.796
21.07000 566.329
21.08000 565.418
21.09000 563.735
21.10000 562.352
21.11000 552.560
21.12000 543.760
21.13000 537.253
21.14000 537.275
21.15000 537.699
21.16000 542.357
21.17000 555.373
21.18000 568.613
21.19000 576.241
21.20000 567.358
21.21000 561.081
21.22000 561.220
21.23000 567.097
21.24000 572.869
21.25000 571.678
21.26000 566.283
21.27000 561.049
21.28000 549.871
21.29000 536.921
21.30000 525.505
21.31000 532.109
21.32000 543.908
21.33000 554.700
21.34000 558.355
21.35000 560.619
21.36000 562.518
21.37000 566.491
21.38000 570.013
21.39000 570.321
21.40000 560.495
21.41000 549.926
21.42000 544.208
21.43000 549.082
21.44000 554.327
21.45000 557.489
21.46000 558.292
21.47000 558.847
21.48000 557.383
21.49000 553.892
21.50000 550.443
21.51000 551.357
21.52000 555.195
21.53000 558.944
21.54000 556.356
21.55000 551.077
21.56000 545.784
21.57000 540.294
21.58000 534.741
21.59000 530.550
21.60000 537.326
21.61000 546.492
21.62000 554.330
21.63000 559.480
21.64000 563.499
21.65000 566.315
21.66000 564.930
21.67000 563.183
21.68000 564.372
21.69000 572.649
21.70000 581.239
21.71000 586.642
21.72000 578.786
21.73000 572.955
21.74000 574.703
21.75000 584.997
21.76000 595.267
21.77000 599.503
21.78000 599.242
21.79000 598.985
21.80000 598.049
21.81000 596.809
21.82000 595.719
21.83000 597.099
21.84000 599.353
21.85000 601.968
21.86000 607.910
21.87000 614.659
21.88000 620.535
21.89000 632.014
21.90000 642.589
21.91000 651.893
21.92000 656.268
21.93000 660.151
21.94000 663.737
21.95000 666.531
21.96000 669.283
21.97000 671.082
21.98000 681.607
21.99000 689.479
22.00000 701.014
22.01000 717.164
22.02000 733.318
22.03000 743.755
22.04000 749.437
22.05000 755.050
22.06000 753.714
22.07000 748.583
22.08000 743.933
22.09000 748.915
22.10000 757.665
22.11000 766.353
22.12000 774.374
22.13000 782.216
22.14000 789.158
22.15000 777.270
22.16000 764.037
22.17000 753.237
22.18000 752.934
22.19000 753.840
22.20000 754.691
22.21000 755.385
22.22000 756.068
22.23000 756.531
22.24000 739.114
22.25000 725.729
22.26000 713.857
22.27000 704.110
22.28000 694.380
22.29000 693.756
22.30000 701.613
22.31000 709.407
22.32000 707.693
22.33000 700.157
22.34000 692.470
22.35000 681.051
22.36000 668.017
22.37000 654.857
22.38000 640.139
22.39000 624.954
22.40000 611.302
22.41000 614.510
22.42000 620.317
22.43000 624.203
22.44000 618.849
22.45000 612.282
22.46000 603.606
22.47000 588.034
22.48000 571.926
22.49000 560.627
22.50000 575.902
22.51000 588.231
22.52000 590.848
22.53000 578.306
22.54000 565.585
22.55000 561.311
22.56000 565.881
22.57000 570.432
22.58000 566.716
22.59000 557.351
22.60000 548.429
22.61000 553.594
22.62000 565.498
22.63000 575.778
22.64000 562.211
22.65000 540.742
22.66000 521.162
22.67000 521.997
22.68000 526.836
22.69000 530.611
22.70000 528.656
22.71000 525.847
22.72000 523.030
22.73000 520.185
22.74000 517.338
22.75000 515.276
22.76000 533.418
22.77000 548.088
22.78000 553.659
22.79000 543.480
22.80000 533.021
22.81000 524.430
22.82000 518.032
22.83000 511.652
22.84000 514.551
22.85000 524.585
22.86000 534.394
22.87000 534.667
22.88000 529.893
22.89000 525.477
22.90000 527.361
22.91000 531.555
22.92000 535.430
22.93000 532.515
22.94000 528.362
22.95000 525.190
22.96000 527.953
22.97000 531.714
22.98000 534.659
22.99000 534.318
23.00000 533.632
23.01000 533.120
23.02000 528.069
23.03000 523.929
23.04000 519.090
23.05000 512.909
23.06000 506.695
23.07000 502.763
23.08000 501.822
23.09000 500.895
23.10000 498.113
23.11000 493.735
23.12000 489.469
23.13000 491.863
23.14000 498.162
23.15000 504.332
23.16000 507.741
23.17000 510.029
23.18000 512.170
23.19000 514.512
23.20000 516.691
23.21000 518.051
23.22000 513.822
23.23000 508.537
23.24000 505.619
23.25000 513.315
23.26000 522.292
23.27000 529.169
23.28000 521.542
23.29000 514.720
23.30000 507.798
23.31000 500.664
23.32000 493.523
23.33000 495.171
23.34000 509.642
23.35000 524.223
23.36000 531.087
23.37000 530.459
23.38000 529.791
23.39000 525.596
23.40000 519.108
23.41000 512.828
23.42000 512.192
23.43000 514.086
23.44000 515.877
23.45000 517.188
23.46000 518.255
23.47000 519.026
23.48000 517.492
23.49000 515.472
23.50000 514.889
23.51000 521.503
23.52000 529.107
23.53000 535.083
23.54000 520.582
23.55000 507.626
23.56000 499.576
23.57000 503.034
23.58000 506.969
23.59000 510.782
23.60000 514.394
23.61000 518.003
23.62000 519.887
23.63000 520.813
23.64000 521.438
23.65000 521.974
23.66000 522.445
23.67000 522.687
23.68000 514.886
23.69000 503.098
23.70000 491.845
23.71000 487.101
23.72000 484.772
23.73000 483.476
23.74000 491.334
23.75000 501.346
23.76000 510.120
23.77000 511.949
23.78000 512.696
23.79000 513.297
23.80000 510.530
23.81000 508.022
23.82000 507.850
23.83000 513.734
23.84000 519.929
23.85000 522.862
23.86000 519.936
23.87000 516.893
23.88000 515.218
23.89000 517.222
23.90000 518.612
23.91000 521.254
23.92000 524.904
23.93000 528.435
23.94000 526.340
23.95000 521.158
23.96000 516.167
23.97000 516.896
23.98000 519.623
23.99000 521.262
24.00000 511.794
24.01000 499.419
24.02000 489.960
24.03000 498.915
24.04000 511.098
24.05000 521.123
24.06000 520.072
24.07000 518.201
24.08000 515.391
24.09000 509.890
24.10000 504.222
24.11000 499.023
24.12000 494.758
24.13000 490.519
24.14000 488.069
24.15000 507.400
24.16000 521.030
24.17000 525.786
24.18000 522.540
24.19000 519.292
24.20000 515.930
24.21000 512.499
24.22000 509.168
24.23000 508.181
24.24000 508.177
24.25000 508.010
24.26000 505.884
24.27000 503.190
24.28000 500.694
24.29000 499.620
24.30000 498.825
24.31000 498.157
24.32000 501.296
24.33000 504.313
24.34000 506.927
24.35000 508.262
24.36000 509.502
24.37000 506.572
24.38000 494.471
24.39000 482.042
24.40000 474.525
24.41000 483.632
24.42000 490.243
24.43000 492.145
24.44000 489.276
24.45000 486.404
24.46000 483.126
24.47000 479.575
24.48000 476.104
24.49000 482.877
24.50000 493.931
24.51000 504.212
24.52000 503.684
24.53000 499.678
24.54000 496.082
24.55000 495.812
24.56000 496.272
24.57000 496.666
24.58000 490.959
24.59000 485.403
24.60000 481.462
24.61000 483.208
24.62000 485.450
24.63000 487.818
24.64000 490.492
24.65000 493.180
24.66000 494.875
24.67000 495.881
24.68000 496.602
24.69000 497.902
24.70000 499.860
24.71000 501.770
24.72000 493.733
24.73000 478.222
24.74000 462.971
24.75000 467.039
24.76000 480.580
24.77000 493.410
24.78000 494.344
24.79000 491.042
24.80000 487.639
24.81000 483.307
24.82000 478.747
24.83000 474.772
24.84000 479.814
24.85000 485.376
24.86000 489.786
24.87000 489.695
24.88000 489.149
24.89000 486.887
24.90000 480.013
24.91000 472.885
24.92000 468.211
24.93000 464.904
24.94000 462.495
24.95000 462.042
24.96000 464.076
24.97000 466.128
24.98000 472.780
24.99000 483.291
25.00000 493.678
25.01000 491.128
25.02000 481.458
25.03000 472.197
25.04000 471.275
25.05000 473.639
25.06000 475.785
25.07000 475.594
25.08000 474.767
25.09000 474.034
25.10000 478.840
25.11000 483.876
25.12000 486.536
25.13000 478.863
25.14000 469.989
25.15000 463.900
25.16000 466.095
25.17000 468.839
25.18000 470.705
25.19000 471.167
25.20000 471.480
25.21000 468.222
25.22000 459.908
25.23000 451.561
25.24000 453.851
25.25000 466.132
25.26000 478.320
25.27000 484.226
25.28000 486.134
25.29000 487.914
25.30000 486.458
25.31000 483.593
25.32000 480.445
25.33000 473.740
25.34000 465.965
25.35000 458.966
25.36000 458.880
25.37000 460.044
25.38000 461.257
25.39000 462.705
25.40000 464.185
25.41000 467.127
25.42000 474.886
25.43000 483.023
25.44000 488.744
25.45000 477.767
25.46000 468.959
25.47000 464.978
25.48000 468.588
25.49000 472.291
25.50000 474.606
25.51000 475.454
25.52000 476.298
25.53000 473.369
25.54000 467.853
25.55000 462.493
25.56000 462.210
25.57000 464.372
25.58000 466.870
25.59000 474.375
25.60000 483.552
25.61000 491.929
25.62000 488.483
25.63000 483.031
25.64000 477.048
25.65000 468.183
25.66000 458.884
25.67000 452.738
25.68000 458.105
25.69000 464.531
25.70000 469.192
25.71000 472.405
25.72000 474.821
25.73000 473.588
25.74000 465.992
25.75000 458.280
25.76000 455.864
25.77000 459.713
25.78000 463.566
25.79000 459.230
25.80000 448.557
25.81000 438.344
25.82000 448.059
25.83000 468.398
25.84000 487.291
25.85000 480.328
25.86000 463.818
25.87000 448.550
25.88000 448.612
25.89000 452.165
25.90000 455.729
25.91000 459.364
25.92000 463.011
25.93000 466.118
25.94000 467.038
25.95000 467.726
25.96000 468.239
25.97000 467.819
25.98000 467.448
25.99000 470.120
26.00000 478.666
26.01000 487.361
26.02000 485.806
26.03000 470.714
26.04000 455.567
26.05000 454.186
26.06000 464.799
26.07000 475.268
26.08000 476.857
26.09000 473.201
26.10000 469.476
26.11000 464.204
26.12000 458.302
26.13000 452.779
26.14000 459.324
26.15000 468.365
26.16000 475.833
26.17000 472.460
26.18000 467.023
26.19000 462.264
26.20000 460.571
26.21000 459.251
26.22000 458.237
26.23000 451.296
26.24000 445.478
26.25000 441.785
26.26000 442.628
26.27000 443.622
26.28000 445.335
26.29000 448.105
26.30000 450.884
26.31000 452.126
26.32000 451.865
26.33000 451.615
26.34000 452.522
26.35000 454.187
26.36000 456.144
26.37000 466.134
26.38000 479.752
26.39000 492.634
26.40000 483.817
26.41000 469.476
26.42000 456.814
26.43000 457.294
26.44000 460.571
26.45000 463.321
26.46000 463.414
26.47000 463.139
26.48000 462.922
26.49000 455.623
26.50000 449.302
26.51000 444.334
26.52000 442.560
26.53000 440.922
26.54000 440.860
26.55000 443.372
26.56000 445.920
26.57000 447.256
26.58000 458.609
26.59000 466.242
26.60000 463.911
26.61000 454.321
26.62000 445.013
26.63000 445.803
26.64000 451.635
26.65000 457.207
26.66000 456.292
26.67000 453.354
26.68000 450.363
26.69000 446.899
26.70000 443.323
26.71000 440.163
26.72000 439.356
26.73000 438.919
26.74000 438.566
26.75000 443.007
26.76000 446.990
26.77000 448.281
26.78000 442.536
26.79000 436.424
26.80000 435.435
26.81000 443.713
26.82000 452.182
26.83000 456.860
26.84000 452.717
26.85000 449.842
26.86000 446.371
26.87000 442.415
26.88000 438.648
26.89000 444.013
26.90000 454.428
26.91000 464.464
26.92000 459.457
26.93000 449.341
26.94000 440.360
26.95000 443.082
26.96000 448.892
26.97000 453.889
26.98000 453.707
26.99000 452.611
27.00000 451.707
27.01000 440.036
27.02000 429.441
27.03000 423.698
27.04000 431.976
27.05000 441.137
27.06000 448.698
27.07000 453.055
27.08000 457.321
27.09000 459.796
27.10000 462.911
27.11000 465.098
27.12000 463.349
27.13000 458.025
27.14000 452.743
27.15000 450.472
27.16000 450.046
27.17000 449.633
27.18000 449.882
27.19000 450.385
27.20000 450.419
27.21000 444.803
27.22000 437.533
27.23000 431.799
27.24000 437.124
27.25000 444.641
27.26000 450.964
27.27000 452.268
27.28000 452.821
27.29000 452.839
27.30000 451.147
27.31000 449.327
27.32000 447.204
27.33000 444.411
27.34000 441.593
27.35000 439.883
27.36000 446.265
27.37000 450.880
27.38000 450.867
27.39000 446.127
27.40000 441.381
27.41000 435.943
27.42000 430.033
27.43000 424.254
27.44000 425.876
27.45000 430.755
27.46000 435.124
27.47000 432.295
27.48000 427.131
27.49000 423.356
27.50000 430.981
27.51000 441.127
27.52000 449.829
27.53000 450.059
27.54000 449.216
27.55000 446.115
27.56000 435.010
27.57000 423.200
27.58000 418.121
27.59000 429.525
27.60000 441.681
27.61000 449.370
27.62000 444.960
27.63000 441.621
27.64000 442.336
27.65000 447.700
27.66000 453.048
27.67000 453.916
27.68000 451.392
27.69000 448.910
27.70000 449.475
27.71000 451.550
27.72000 453.202
27.73000 447.686
27.74000 439.598
27.75000 431.860
27.76000 427.411
27.77000 423.773
27.78000 420.598
27.79000 436.348
27.80000 452.477
27.81000 463.226
27.82000 452.793
27.83000 440.199
27.84000 431.834
27.85000 434.921
27.86000 438.649
27.87000 441.100
27.88000 436.059
27.89000 432.220
27.90000 429.756
27.91000 429.052
27.92000 428.353
27.93000 426.532
27.94000 423.763
27.95000 421.026
27.96000 417.904
27.97000 414.639
27.98000 411.565
27.99000 412.409
28.00000 414.808
28.01000 416.808
28.02000 414.461
28.03000 410.925
28.04000 407.787
28.05000 419.441
28.06000 431.898
28.07000 441.283
28.08000 437.203
28.09000 431.544
28.10000 427.249
28.11000 427.045
28.12000 427.116
28.13000 427.164
28.14000 431.423
28.15000 434.703
28.16000 437.718
28.17000 440.356
28.18000 442.990
28.19000 442.830
28.20000 440.023
28.21000 437.237
28.22000 439.988
28.23000 446.156
28.24000 452.077
28.25000 451.646
28.26000 448.428
28.27000 445.153
28.28000 441.144
28.29000 436.912
28.30000 433.099
28.31000 430.299
28.32000 428.026
28.33000 425.618
28.34000 422.548
28.35000 419.390
28.36000 417.626
28.37000 420.490
28.38000 423.721
28.39000 425.998
28.40000 420.753
28.41000 416.549
28.42000 415.774
28.43000 420.431
28.44000 425.156
28.45000 426.352
28.46000 423.789
28.47000 421.237
28.48000 418.911
28.49000 416.768
28.50000 414.765
28.51000 417.424
28.52000 422.344
28.53000 426.866
28.54000 425.373
28.55000 421.859
28.56000 418.648
28.57000 421.655
28.58000 425.595
28.59000 428.629
28.60000 426.705
28.61000 424.028
28.62000 423.342
28.63000 429.978
28.64000 437.294
28.65000 442.614
28.66000 437.899
28.67000 433.892
28.68000 429.631
28.69000 424.922
28.70000 420.206
28.71000 416.575
28.72000 414.238
28.73000 411.909
28.74000 410.717
28.75000 410.421
28.76000 410.158
28.77000 411.323
28.78000 413.253
28.79000 415.065
28.80000 414.730
28.81000 413.595
28.82000 412.545
28.83000 416.200
28.84000 420.569
28.85000 424.376
28.86000 424.730
28.87000 424.493
28.88000 423.484
28.89000 419.323
28.90000 414.823
28.91000 411.456
28.92000 407.474
28.93000 404.339
28.94000 404.701
28.95000 411.864
28.96000 419.202
28.97000 422.388
28.98000 420.044
28.99000 417.675
29.00000 412.986
29.01000 406.266
29.02000 399.698
29.03000 402.659
29.04000 411.289
29.05000 419.877
29.06000 427.520
29.07000 434.775
29.08000 441.569
29.09000 432.836
29.10000 420.880
29.11000 411.164
29.12000 417.032
29.13000 425.890
29.14000 430.715
29.15000 417.173
29.16000 401.371
29.17000 389.218
29.18000 401.838
29.19000 413.223
29.20000 423.501
29.21000 431.394
29.22000 439.207
29.23000 439.868
29.24000 429.936
29.25000 419.905
29.26000 414.411
29.27000 413.395
29.28000 412.348
29.29000 408.308
29.30000 402.293
29.31000 396.591
29.32000 399.679
29.33000 406.765
29.34000 413.472
29.35000 412.598
29.36000 409.596
29.37000 407.750
29.38000 415.034
29.39000 424.275
29.40000 430.722
29.41000 422.945
29.42000 413.175
29.43000 405.470
29.44000 413.581
29.45000 421.153
29.46000 425.820
29.47000 423.572
29.48000 421.028
29.49000 416.612
29.50000 409.117
29.51000 401.577
29.52000 397.610
29.53000 409.998
29.54000 418.363
29.55000 419.181
29.56000 414.457
29.57000 409.864
29.58000 410.024
29.59000 412.576
29.60000 415.016
29.61000 417.243
29.62000 419.245
29.63000 420.476
29.64000 414.726
29.65000 407.308
29.66000 401.723
29.67000 406.596
29.68000 413.126
29.69000 418.398
29.70000 421.357
29.71000 423.578
29.72000 422.941
29.73000 414.782
29.74000 406.225
29.75000 399.622
29.76000 396.582
29.77000 393.616
29.78000 391.972
29.79000 413.663
29.80000 428.658
29.81000 431.050
29.82000 423.125
29.83000 415.409
29.84000 418.146
29.85000 426.704
29.86000 434.956
29.87000 432.006
29.88000 425.170
29.89000 419.306
29.90000 423.589
29.91000 430.567
29.92000 437.206
29.93000 441.663
29.94000 445.730
29.95000 449.088
29.96000 445.680
29.97000 442.244
29.98000 437.464
29.99000 428.774
30.00000 419.835
30.01000 417.585
30.02000 428.828
30.03000 440.455
30.04000 447.223
30.05000 442.985
30.06000 439.960
30.07000 437.500
30.08000 435.558
30.09000 433.748
30.10000 441.481
30.11000 455.105
30.12000 468.344
30.13000 464.883
30.14000 454.827
30.15000 445.336
30.16000 442.696
30.17000 442.077
30.18000 441.969
30.19000 445.583
30.20000 449.939
30.21000 453.609
30.22000 447.302
30.23000 440.965
30.24000 436.180
30.25000 436.403
30.26000 437.005
30.27000 436.692
30.28000 434.336
30.29000 431.905
30.30000 430.426
30.31000 439.367
30.32000 445.835
30.33000 446.056
30.34000 439.844
30.35000 433.704
30.36000 436.029
30.37000 444.157
30.38000 452.108
30.39000 448.167
30.40000 439.004
30.41000 430.339
30.42000 428.814
30.43000 429.622
30.44000 430.869
30.45000 435.755
30.46000 441.452
30.47000 446.343
30.48000 446.621
30.49000 446.285
30.50000 446.194
30.51000 446.982
30.52000 447.848
30.53000 447.228
30.54000 442.945
30.55000 438.491
30.56000 435.666
30.57000 439.074
30.58000 441.624
30.59000 438.050
30.60000 427.403
30.61000 416.785
30.62000 414.701
30.63000 419.128
30.64000 423.485
30.65000 431.727
30.66000 441.671
30.67000 451.121
30.68000 452.096
30.69000 450.008
30.70000 448.101
30.71000 447.909
30.72000 448.142
30.73000 448.346
30.74000 448.144
30.75000 447.914
30.76000 448.378
30.77000 451.598
30.78000 455.101
30.79000 458.738
30.80000 462.737
30.81000 466.756
30.82000 469.406
30.83000 470.440
30.84000 471.174
30.85000 475.878
30.86000 485.706
30.87000 495.549
30.88000 501.929
30.89000 505.358
30.90000 508.749
30.91000 511.687
30.92000 514.300
30.93000 516.934
30.94000 520.014
30.95000 523.272
30.96000 527.625
30.97000 544.036
30.98000 563.773
30.99000 581.307
31.00000 578.347
31.01000 572.480
31.02000 570.084
31.03000 583.016
31.04000 597.764
31.05000 611.921
31.06000 624.294
31.07000 636.545
31.08000 644.916
31.09000 681.081
31.10000 708.791
31.11000 731.699
31.12000 747.707
31.13000 763.662
31.14000 801.266
31.15000 859.545
31.16000 917.408
31.17000 975.560
31.18000 1032.964
31.19000 1090.731
31.20000 1158.020
31.21000 1229.516
31.22000 1302.246
31.23000 1390.852
31.24000 1484.314
31.25000 1568.610
31.26000 1663.833
31.27000 1749.442
31.28000 1841.194
31.29000 1963.228
31.30000 2089.351
31.31000 2218.097
31.32000 2355.615
31.33000 2493.838
31.34000 2591.471
31.35000 2709.681
31.36000 2800.048
31.37000 2884.737
31.38000 2960.361
31.39000 3035.868
31.40000 3096.803
31.41000 3142.092
31.42000 3187.193
31.43000 3206.649
31.44000 3207.833
31.45000 3208.609
31.46000 3195.630
31.47000 3175.927
31.48000 3154.033
31.49000 3098.699
31.50000 3032.040
31.51000 2971.074
31.52000 2866.964
31.53000 2765.531
31.54000 2664.910
31.55000 2568.770
31.56000 2473.314
31.57000 2373.597
31.58000 2258.076
31.59000 2141.072
31.60000 2055.823
31.61000 1913.814
31.62000 1802.268
31.63000 1699.215
31.64000 1611.192
31.65000 1523.458
31.66000 1433.996
31.67000 1342.457
31.68000 1251.080
31.69000 1181.787
31.70000 1130.256
31.71000 1078.870
31.72000 1034.038
31.73000 992.751
31.74000 951.663
31.75000 914.225
31.76000 878.155
31.77000 844.740
31.78000 804.239
31.79000 766.159
31.80000 730.287
31.81000 708.120
31.82000 688.316
31.83000 669.912
31.84000 657.273
31.85000 645.260
31.86000 636.250
31.87000 617.797
31.88000 602.938
31.89000 585.624
31.90000 563.500
31.91000 541.250
31.92000 526.717
31.93000 522.535
31.94000 518.410
31.95000 519.692
31.96000 525.763
31.97000 531.581
31.98000 521.067
31.99000 500.764
32.00000 480.766
32.01000 467.671
32.02000 457.437
32.03000 447.843
32.04000 450.465
32.05000 456.035
32.06000 460.065
32.07000 453.294
32.08000 444.434
32.09000 437.584
32.10000 439.966
32.11000 443.494
32.12000 446.212
32.13000 447.597
32.14000 448.618
32.15000 448.759
32.16000 446.991
32.17000 445.158
32.18000 440.620
32.19000 432.044
32.20000 423.429
32.21000 415.406
32.22000 407.974
32.23000 400.577
32.24000 396.708
32.25000 395.187
32.26000 393.773
32.27000 395.412
32.28000 398.450
32.29000 401.328
32.30000 410.144
32.31000 419.996
32.32000 427.801
32.33000 419.288
32.34000 407.246
32.35000 396.685
32.36000 393.716
32.37000 391.820
32.38000 390.322
32.39000 388.725
32.40000 387.436
32.41000 388.916
32.42000 397.033
32.43000 405.439
32.44000 409.524
32.45000 406.448
32.46000 403.265
32.47000 401.584
32.48000 402.607
32.49000 403.285
32.50000 400.527
32.51000 395.227
32.52000 390.174
32.53000 394.334
32.54000 403.161
32.55000 411.604
32.56000 405.753
32.57000 395.632
32.58000 386.493
32.59000 386.312
32.60000 388.290
32.61000 389.350
32.62000 385.123
32.63000 380.052
32.64000 375.950
32.65000 377.324
32.66000 378.882
32.67000 381.029
32.68000 384.735
32.69000 388.525
32.70000 390.251
32.71000 388.189
32.72000 386.045
32.73000 384.852
32.74000 388.575
32.75000 391.145
32.76000 387.401
32.77000 378.446
32.78000 369.697
32.79000 371.492
32.80000 379.201
32.81000 386.639
32.82000 389.912
32.83000 391.470
32.84000 393.413
32.85000 399.411
32.86000 406.495
32.87000 412.753
32.88000 413.660
32.89000 413.606
32.90000 413.562
32.91000 411.692
32.92000 409.979
32.93000 407.818
32.94000 404.343
32.95000 400.783
32.96000 400.635
32.97000 407.419
32.98000 414.405
32.99000 418.484
33.00000 417.398
33.01000 416.610
33.02000 414.587
33.03000 411.426
33.04000 408.255
33.05000 404.389
33.06000 400.092
33.07000 395.915
33.08000 394.513
33.09000 394.315
33.10000 393.697
33.11000 387.931
33.12000 380.636
33.13000 374.155
33.14000 373.650
33.15000 374.349
33.16000 374.938
33.17000 376.856
33.18000 378.603
33.19000 378.221
33.20000 370.929
33.21000 363.107
33.22000 356.169
33.23000 351.221
33.24000 346.347
33.25000 343.371
33.26000 347.715
33.27000 350.881
33.28000 353.481
33.29000 355.494
33.30000 357.493
33.31000 357.825
33.32000 357.005
33.33000 356.202
33.34000 356.876
33.35000 358.197
33.36000 359.052
33.37000 353.158
33.38000 345.042
33.39000 337.838
33.40000 338.254
33.41000 340.384
33.42000 342.215
33.43000 344.669
33.44000 346.823
33.45000 349.019
33.46000 351.366
33.47000 353.727
33.48000 354.843
33.49000 352.865
33.50000 350.741
33.51000 349.390
33.52000 336.046
33.53000 326.201
33.54000 324.280
33.55000 331.587
33.56000 338.899
33.57000 344.264
33.58000 348.133
33.59000 351.941
33.60000 349.582
33.61000 344.155
33.62000 338.499
33.63000 328.853
33.64000 317.755
33.65000 308.483
33.66000 316.749
33.67000 329.402
33.68000 340.474
33.69000 345.171
33.70000 348.287
33.71000 350.626
33.72000 349.862
33.73000 348.774
33.74000 346.362
33.75000 340.306
33.76000 334.042
33.77000 329.901
33.78000 340.704
33.79000 348.942
33.80000 354.042
33.81000 355.064
33.82000 356.062
33.83000 352.942
33.84000 346.284
33.85000 339.698
33.86000 340.337
33.87000 345.070
33.88000 349.251
33.89000 341.710
33.90000 329.450
33.91000 318.336
33.92000 319.968
33.93000 325.144
33.94000 329.746
33.95000 339.182
33.96000 348.158
33.97000 354.035
33.98000 346.120
33.99000 336.556
34.00000 329.450
34.01000 329.817
34.02000 330.700
34.03000 331.304
34.04000 332.757
34.05000 333.865
34.06000 337.037
34.07000 343.200
34.08000 349.388
34.09000 350.626
34.10000 347.097
34.11000 343.593
34.12000 340.893
34.13000 338.747
34.14000 336.771
34.15000 339.348
34.16000 343.950
34.17000 348.162
34.18000 347.289
34.19000 344.850
34.20000 342.648
34.21000 338.466
34.22000 334.425
34.23000 331.588
34.24000 334.732
34.25000 338.691
34.26000 343.399
34.27000 350.631
34.28000 358.068
34.29000 363.333
34.30000 347.449
34.31000 334.721
34.32000 329.922
34.33000 337.876
34.34000 346.001
34.35000 345.413
34.36000 335.394
34.37000 325.410
34.38000 325.431
34.39000 332.563
34.40000 339.526
34.41000 340.687
34.42000 338.991
34.43000 337.438
34.44000 338.111
34.45000 339.542
34.46000 340.852
34.47000 342.633
34.48000 344.316
34.49000 344.360
34.50000 335.284
34.51000 324.801
34.52000 318.067
34.53000 325.341
34.54000 333.943
34.55000 340.224
34.56000 336.797
34.57000 333.776
34.58000 332.729
34.59000 335.201
34.60000 337.742
34.61000 340.259
34.62000 342.748
34.63000 345.232
34.64000 345.582
34.65000 344.231
34.66000 342.832
34.67000 339.244
34.68000 334.462
34.69000 330.026
34.70000 332.028
34.71000 336.460
34.72000 340.569
34.73000 335.685
34.74000 329.184
34.75000 322.940
34.76000 318.308
34.77000 313.955
34.78000 311.653
34.79000 317.863
34.80000 325.006
34.81000 330.373
34.82000 325.093
34.83000 320.453
34.84000 316.627
34.85000 314.406
34.86000 312.228
34.87000 312.006
34.88000 314.428
34.89000 316.864
34.90000 317.653
34.91000 316.970
34.92000 316.337
34.93000 319.062
34.94000 323.813
34.95000 328.409
34.96000 329.436
34.97000 328.974
34.98000 328.540
34.99000 327.692
35.00000 326.810
35.01000 326.419
35.02000 329.495
35.03000 333.248
35.04000 335.872
35.05000 333.275
35.06000 330.023
35.07000 327.513
35.08000 323.952
35.09000 321.068
35.10000 318.205
35.11000 315.387
35.12000 312.569
35.13000 313.691
35.14000 320.737
35.15000 327.841
35.16000 331.401
35.17000 319.388
35.18000 311.464
35.19000 312.991
35.20000 320.851
35.21000 328.424
35.22000 327.655
35.23000 323.036
35.24000 318.657
35.25000 322.357
35.26000 328.145
35.27000 332.980
35.28000 330.142
35.29000 325.633
35.30000 321.183
35.31000 317.037
35.32000 312.933
35.33000 309.686
35.34000 314.188
35.35000 318.342
35.36000 321.249
35.37000 321.145
35.38000 320.909
35.39000 321.288
35.40000 322.695
35.41000 324.118
35.42000 324.873
35.43000 323.240
35.44000 322.126
35.45000 320.742
35.46000 319.157
35.47000 317.532
35.48000 314.413
35.49000 310.531
35.50000 306.815
35.51000 305.441
35.52000 304.933
35.53000 304.863
35.54000 308.831
35.55000 313.780
35.56000 317.579
35.57000 314.710
35.58000 310.767
35.59000 307.572
35.60000 311.640
35.61000 315.544
35.62000 317.653
35.63000 314.971
35.64000 312.029
35.65000 311.108
35.66000 313.926
35.67000 316.826
35.68000 318.445
35.69000 318.307
35.70000 318.209
35.71000 318.313
35.72000 318.586
35.73000 318.828
35.74000 317.440
35.75000 315.130
35.76000 312.899
35.77000 311.369
35.78000 310.186
35.79000 309.063
35.80000 308.585
35.81000 308.280
35.82000 307.598
35.83000 304.448
35.84000 300.850
35.85000 297.871
35.86000 299.802
35.87000 301.863
35.88000 302.760
35.89000 300.222
35.90000 297.460
35.91000 297.105
35.92000 301.677
35.93000 306.396
35.94000 309.160
35.95000 310.376
35.96000 311.225
35.97000 311.473
35.98000 311.161
35.99000 310.865
36.00000 311.869
36.01000 313.687
36.02000 315.455
36.03000 313.759
36.04000 310.719
36.05000 307.911
36.06000 307.975
36.07000 308.899
36.08000 309.289
36.09000 305.729
36.10000 301.368
36.11000 297.683
36.12000 308.194
36.13000 318.542
36.14000 325.729
36.15000 322.576
36.16000 318.619
36.17000 315.041
36.18000 312.317
36.19000 309.626
36.20000 307.978
36.21000 305.643
36.22000 303.965
36.23000 303.832
36.24000 305.318
36.25000 306.789
36.26000 306.485
36.27000 304.946
36.28000 303.439
36.29000 302.847
36.30000 302.699
36.31000 302.228
36.32000 296.996
36.33000 290.187
36.34000 284.686
36.35000 290.230
36.36000 298.275
36.37000 305.202
36.38000 297.715
36.39000 289.554
36.40000 284.066
36.41000 288.275
36.42000 293.365
36.43000 298.309
36.44000 302.887
36.45000 307.447
36.46000 310.356
36.47000 315.110
36.48000 318.592
36.49000 317.269
36.50000 310.306
36.51000 303.359
36.52000 302.674
36.53000 306.843
36.54000 310.949
36.55000 311.892
36.56000 311.184
36.57000 310.268
36.58000 305.689
36.59000 299.765
36.60000 294.694
36.61000 297.899
36.62000 303.189
36.63000 307.823
36.64000 311.925
36.65000 315.367
36.66000 317.102
36.67000 311.960
36.68000 306.095
36.69000 301.917
36.70000 302.410
36.71000 303.175
36.72000 303.682
36.73000 294.398
36.74000 287.361
36.75000 285.424
36.76000 290.169
36.77000 294.944
36.78000 299.993
36.79000 305.279
36.80000 310.510
36.81000 305.155
36.82000 293.853
36.83000 283.260
36.84000 287.997
36.85000 298.949
36.86000 308.673
36.87000 304.583
36.88000 296.625
36.89000 289.540
36.90000 292.604
36.91000 296.931
36.92000 300.176
36.93000 298.572
36.94000 296.382
36.95000 295.585
36.96000 299.055
36.97000 302.821
36.98000 305.408
36.99000 301.155
37.00000 297.800
37.01000 298.234
37.02000 304.196
37.03000 310.205
37.04000 307.773
37.05000 297.143
37.06000 286.584
37.07000 285.053
37.08000 289.328
37.09000 293.563
37.10000 296.724
37.11000 299.403
37.12000 301.843
37.13000 301.126
37.14000 299.430
37.15000 297.896
37.16000 297.308
37.17000 296.965
37.18000 297.381
37.19000 301.592
37.20000 306.325
37.21000 308.879
37.22000 304.037
37.23000 298.588
37.24000 294.721
37.25000 300.113
37.26000 304.507
37.27000 303.533
37.28000 293.861
37.29000 284.069
37.30000 282.164
37.31000 288.870
37.32000 295.554
37.33000 302.084
37.34000 308.444
37.35000 314.560
37.36000 312.092
37.37000 305.368
37.38000 298.968
37.39000 297.659
37.40000 298.098
37.41000 298.500
37.42000 297.404
37.43000 296.113
37.44000 295.067
37.45000 295.391
37.46000 295.929
37.47000 296.292
37.48000 295.994
37.49000 295.633
37.50000 295.369
37.51000 297.448
37.52000 299.145
37.53000 301.837
37.54000 306.317
37.55000 310.833
37.56000 311.587
37.57000 307.744
37.58000 303.896
37.59000 298.538
37.60000 291.988
37.61000 285.499
37.62000 281.898
37.63000 279.882
37.64000 277.957
37.65000 277.738
37.66000 278.167
37.67000 278.566
37.68000 286.503
37.69000 295.435
37.70000 302.202
37.71000 295.301
37.72000 286.004
37.73000 278.801
37.74000 280.359
37.75000 282.885
37.76000 284.788
37.77000 288.772
37.78000 291.991
37.79000 295.540
37.80000 299.744
37.81000 303.966
37.82000 304.223
37.83000 299.078
37.84000 293.902
37.85000 293.526
37.86000 297.473
37.87000 301.385
37.88000 302.962
37.89000 303.118
37.90000 303.142
37.91000 300.099
37.92000 295.767
37.93000 291.699
37.94000 292.359
37.95000 294.213
37.96000 296.395
37.97000 300.926
37.98000 305.918
37.99000 308.985
38.00000 303.073
38.01000 296.024
38.02000 290.572
38.03000 292.114
38.04000 293.749
38.05000 292.644
38.06000 285.518
38.07000 278.176
38.08000 275.605
38.09000 280.262
38.10000 284.994
38.11000 287.375
38.12000 300.925
38.13000 309.906
38.14000 311.073
38.15000 306.964
38.16000 302.911
38.17000 300.511
38.18000 298.880
38.19000 297.333
38.20000 295.720
38.21000 294.214
38.22000 293.564
38.23000 299.878
38.24000 307.722
38.25000 314.620
38.26000 316.590
38.27000 317.852
38.28000 318.852
38.29000 318.122
38.30000 317.414
38.31000 318.694
38.32000 324.808
38.33000 331.139
38.34000 337.198
38.35000 342.798
38.36000 348.391
38.37000 351.368
38.38000 346.752
38.39000 343.631
38.40000 346.173
38.41000 352.969
38.42000 359.682
38.43000 363.170
38.44000 365.000
38.45000 366.752
38.46000 380.116
38.47000 396.436
38.48000 412.022
38.49000 420.775
38.50000 427.855
38.51000 435.143
38.52000 443.642
38.53000 452.338
38.54000 459.394
38.55000 490.578
38.56000 517.986
38.57000 543.544
38.58000 564.127
38.59000 584.436
38.60000 605.067
38.61000 626.299
38.62000 647.545
38.63000 659.452
38.64000 706.769
38.65000 739.648
38.66000 769.545
38.67000 796.941
38.68000 824.294
38.69000 849.343
38.70000 873.079
38.71000 896.006
38.72000 925.443
38.73000 955.606
38.74000 984.328
38.75000 997.533
38.76000 1006.520
38.77000 1014.642
38.78000 1017.051
38.79000 1018.417
38.80000 1019.549
38.81000 1005.500
38.82000 992.437
38.83000 975.882
38.84000 948.939
38.85000 921.307
38.86000 893.941
38.87000 867.126
38.88000 840.328
38.89000 824.577
38.90000 803.715
38.91000 788.976
38.92000 760.291
38.93000 718.506
38.94000 676.834
38.95000 644.139
38.96000 617.110
38.97000 590.804
38.98000 564.777
38.99000 540.107
39.00000 515.824
39.01000 496.405
39.02000 478.454
39.03000 460.234
39.04000 440.014
39.05000 419.384
39.06000 401.931
39.07000 385.628
39.08000 372.112
39.09000 360.022
39.10000 352.636
39.11000 345.619
39.12000 340.178
39.13000 338.331
39.14000 336.623
39.15000 335.574
39.16000 323.626
39.17000 314.966
39.18000 311.473
39.19000 313.435
39.20000 315.416
39.21000 319.755
39.22000 325.749
39.23000 331.621
39.24000 325.039
39.25000 312.940
39.26000 301.442
39.27000 298.870
39.28000 299.277
39.29000 298.960
39.30000 292.467
39.31000 284.563
39.32000 277.750
39.33000 284.950
39.34000 292.841
39.35000 297.807
39.36000 292.083
39.37000 285.376
39.38000 280.362
39.39000 279.613
39.40000 279.072
39.41000 278.725
39.42000 281.143
39.43000 282.940
39.44000 283.267
39.45000 281.856
39.46000 280.448
39.47000 281.098
39.48000 283.354
39.49000 285.576
39.50000 284.446
39.51000 281.615
39.52000 278.767
39.53000 275.620
39.54000 272.362
39.55000 269.680
39.56000 272.648
39.57000 277.051
39.58000 280.913
39.59000 278.154
39.60000 274.821
39.61000 273.015
39.62000 277.407
39.63000 282.457
39.64000 284.864
39.65000 279.903
39.66000 274.506
39.67000 270.920
39.68000 274.728
39.69000 277.681
39.70000 280.020
39.71000 281.547
39.72000 283.068
39.73000 283.195
39.74000 282.106
39.75000 281.028
39.76000 279.399
39.77000 277.488
39.78000 275.578
39.79000 273.706
39.80000 271.849
39.81000 269.975
39.82000 267.894
39.83000 265.755
39.84000 263.849
39.85000 263.973
39.86000 264.418
39.87000 265.067
39.88000 266.642
39.89000 268.329
39.90000 270.679
39.91000 275.075
39.92000 279.615
39.93000 282.740
39.94000 278.003
39.95000 274.251
39.96000 270.873
39.97000 268.047
39.98000 265.226
39.99000 264.808
40.00000 266.744
40.01000 268.668
40.02000 267.101
40.03000 263.304
40.04000 259.566
40.05000 257.430
40.06000 256.018
40.07000 254.750
40.08000 255.397
40.09000 256.643
40.10000 257.770
40.11000 255.243
40.12000 252.333
40.13000 250.838
40.14000 256.489
40.15000 263.131
40.16000 268.367
40.17000 268.796
40.18000 268.826
40.19000 268.846
40.20000 263.695
40.21000 259.607
40.22000 257.169
40.23000 257.425
40.24000 257.720
40.25000 260.002
40.26000 264.470
40.27000 268.923
40.28000 268.380
40.29000 264.231
40.30000 260.120
40.31000 257.391
40.32000 255.352
40.33000 253.564
40.34000 255.761
40.35000 259.337
40.36000 262.617
40.37000 264.995
40.38000 266.924
40.39000 267.727
40.40000 262.162
40.41000 255.598
40.42000 250.512
40.43000 251.035
40.44000 252.101
40.45000 252.883
40.46000 253.420
40.47000 253.824
40.48000 254.840
40.49000 256.961
40.50000 259.105
40.51000 257.875
40.52000 252.490
40.53000 247.102
40.54000 248.634
40.55000 255.761
40.56000 262.660
40.57000 258.506
40.58000 248.241
40.59000 238.564
40.60000 240.180
40.61000 246.121
40.62000 251.638
40.63000 257.552
40.64000 262.981
40.65000 267.637
40.66000 267.376
40.67000 266.245
40.68000 264.317
40.69000 259.024
40.70000 253.355
40.71000 249.079
40.72000 251.172
40.73000 253.126
40.74000 252.666
40.75000 247.371
40.76000 241.941
40.77000 241.720
40.78000 248.649
40.79000 255.620
40.80000 257.673
40.81000 255.258
40.82000 252.865
40.83000 251.957
40.84000 251.960
40.85000 251.893
40.86000 250.153
40.87000 247.705
40.88000 245.406
40.89000 245.305
40.90000 245.801
40.91000 245.817
40.92000 242.379
40.93000 238.256
40.94000 235.383
40.95000 238.391
40.96000 242.149
40.97000 245.061
40.98000 246.134
40.99000 246.877
41.00000 246.993
41.01000 245.721
41.02000 244.399
41.03000 244.568
41.04000 247.016
41.05000 249.488
41.06000 250.737
41.07000 249.928
41.08000 249.382
41.09000 248.348
41.10000 246.981
41.11000 245.597
41.12000 243.720
41.13000 241.611
41.14000 239.609
41.15000 242.696
41.16000 247.068
41.17000 250.754
41.18000 248.814
41.19000 245.627
41.20000 242.978
41.21000 243.148
41.22000 243.727
41.23000 244.187
41.24000 240.890
41.25000 237.969
41.26000 237.413
41.27000 242.651
41.28000 248.153
41.29000 250.387
41.30000 247.084
41.31000 243.691
41.32000 241.878
41.33000 246.814
41.34000 250.153
41.35000 247.035
41.36000 239.026
41.37000 231.239
41.38000 232.219
41.39000 237.739
41.40000 243.030
41.41000 246.112
41.42000 248.249
41.43000 250.372
41.44000 252.373
41.45000 254.343
41.46000 256.115
41.47000 256.721
41.48000 257.135
41.49000 257.472
41.50000 254.267
41.51000 251.357
41.52000 249.806
41.53000 251.940
41.54000 254.279
41.55000 252.679
41.56000 243.689
41.57000 234.527
41.58000 229.374
41.59000 234.991
41.60000 238.920
41.61000 243.861
41.62000 249.658
41.63000 255.266
41.64000 250.426
41.65000 239.594
41.66000 229.126
41.67000 231.117
41.68000 237.658
41.69000 243.514
41.70000 241.910
41.71000 238.263
41.72000 235.581
41.73000 239.326
41.74000 244.255
41.75000 248.348
41.76000 247.206
41.77000 245.753
41.78000 244.137
41.79000 242.031
41.80000 239.893
41.81000 240.088
41.82000 245.130
41.83000 250.322
41.84000 253.383
41.85000 250.991
41.86000 249.273
41.87000 246.543
41.88000 242.852
41.89000 239.217
41.90000 240.162
41.91000 244.018
41.92000 247.773
41.93000 245.110
41.94000 239.888
41.95000 234.871
41.96000 232.470
41.97000 230.862
41.98000 228.988
41.99000 225.098
42.00000 220.793
42.01000 217.145
42.02000 227.050
42.03000 236.866
42.04000 243.465
42.05000 239.382
42.06000 234.451
42.07000 230.854
42.08000 230.322
42.09000 229.912
42.10000 229.659
42.11000 230.385
42.12000 230.915
42.13000 231.783
42.14000 233.010
42.15000 234.234
42.16000 235.037
42.17000 235.541
42.18000 236.035
42.19000 237.186
42.20000 238.600
42.21000 239.902
42.22000 239.510
42.23000 238.548
42.24000 237.933
42.25000 240.306
42.26000 243.366
42.27000 246.007
42.28000 240.064
42.29000 233.916
42.30000 229.119
42.31000 229.295
42.32000 229.933
42.33000 232.633
42.34000 240.565
42.35000 248.755
42.36000 254.009
42.37000 239.807
42.38000 229.189
42.39000 225.610
42.40000 230.427
42.41000 235.257
42.42000 239.356
42.43000 242.878
42.44000 246.349
42.45000 247.072
42.46000 246.341
42.47000 245.312
42.48000 238.874
42.49000 230.423
42.50000 222.829
42.51000 223.713
42.52000 226.768
42.53000 229.450
42.54000 232.568
42.55000 235.311
42.56000 237.606
42.57000 238.065
42.58000 238.327
42.59000 237.520
42.60000 233.711
42.61000 229.722
42.62000 227.065
42.63000 227.327
42.64000 227.578
42.65000 228.263
42.66000 229.528
42.67000 230.795
42.68000 231.522
42.69000 231.773
42.70000 232.021
42.71000 230.526
42.72000 228.048
42.73000 225.731
42.74000 227.000
42.75000 229.745
42.76000 232.023
42.77000 228.936
42.78000 224.325
42.79000 220.210
42.80000 223.920
42.81000 228.456
42.82000 232.482
42.83000 234.182
42.84000 235.596
42.85000 237.643
42.86000 241.659
42.87000 245.816
42.88000 248.683
42.89000 235.969
42.90000 226.021
42.91000 223.809
42.92000 233.059
42.93000 242.415
42.94000 242.054
42.95000 232.097
42.96000 222.201
42.97000 221.204
42.98000 226.012
42.99000 230.698
43.00000 231.950
43.01000 231.640
43.02000 231.340
43.03000 231.173
43.04000 231.049
43.05000 230.936
43.06000 230.262
43.07000 229.562
43.08000 228.659
43.09000 226.722
43.10000 224.639
43.11000 224.763
43.12000 232.480
43.13000 240.836
43.14000 246.793
43.15000 233.807
43.16000 223.288
43.17000 218.471
43.18000 223.032
43.19000 227.729
43.20000 230.056
43.21000 229.751
43.22000 229.446
43.23000 231.639
43.24000 235.633
43.25000 239.502
43.26000 238.796
43.27000 235.790
43.28000 232.584
43.29000 226.168
43.30000 218.633
43.31000 211.715
43.32000 210.968
43.33000 211.619
43.34000 212.128
43.35000 211.830
43.36000 211.404
43.37000 212.003
43.38000 216.522
43.39000 221.425
43.40000 225.027
43.41000 225.180
43.42000 225.158
43.43000 225.916
43.44000 228.099
43.45000 230.312
43.46000 230.796
43.47000 229.136
43.48000 227.471
43.49000 225.523
43.50000 223.351
43.51000 221.325
43.52000 226.604
43.53000 235.952
43.54000 244.823
43.55000 244.405
43.56000 240.406
43.57000 236.688
43.58000 227.273
43.59000 217.407
43.60000 209.185
43.61000 211.522
43.62000 215.741
43.63000 219.643
43.64000 222.196
43.65000 224.596
43.66000 226.411
43.67000 222.734
43.68000 219.575
43.69000 218.219
43.70000 220.502
43.71000 222.888
43.72000 223.149
43.73000 220.471
43.74000 217.775
43.75000 216.762
43.76000 217.290
43.77000 217.844
43.78000 220.285
43.79000 223.890
43.80000 227.529
43.81000 231.995
43.82000 236.813
43.83000 241.343
43.84000 237.797
43.85000 232.383
43.86000 227.690
43.87000 228.238
43.88000 229.834
43.89000 230.411
43.90000 226.164
43.91000 221.295
43.92000 217.515
43.93000 220.956
43.94000 224.127
43.95000 227.730
43.96000 232.295
43.97000 236.895
43.98000 237.224
43.99000 230.982
44.00000 224.668
44.01000 221.463
44.02000 222.455
44.03000 223.125
44.04000 224.409
44.05000 226.114
44.06000 227.724
44.07000 226.442
44.08000 223.797
44.09000 221.283
44.10000 219.843
44.11000 218.836
44.12000 218.438
44.13000 223.087
44.14000 228.862
44.15000 233.519
44.16000 232.249
44.17000 230.110
44.18000 228.409
44.19000 229.595
44.20000 230.758
44.21000 231.403
44.22000 230.772
44.23000 230.082
44.24000 229.870
44.25000 230.475
44.26000 231.094
44.27000 231.426
44.28000 228.835
44.29000 227.068
44.30000 226.337
44.31000 226.397
44.32000 226.505
44.33000 228.576
44.34000 231.671
44.35000 234.639
44.36000 233.787
44.37000 231.701
44.38000 229.409
44.39000 225.155
44.40000 220.415
44.41000 216.725
44.42000 219.285
44.43000 222.879
44.44000 225.804
44.45000 228.540
44.46000 230.760
44.47000 231.917
44.48000 230.179
44.49000 228.277
44.50000 228.028
44.51000 230.902
44.52000 233.851
44.53000 235.515
44.54000 241.724
44.55000 246.043
44.56000 244.506
44.57000 237.979
44.58000 231.594
44.59000 233.214
44.60000 239.459
44.61000 245.498
44.62000 242.909
44.63000 237.209
44.64000 232.502
44.65000 238.726
44.66000 247.965
44.67000 255.582
44.68000 252.309
44.69000 247.013
44.70000 242.608
44.71000 249.021
44.72000 255.389
44.73000 258.267
44.74000 250.612
44.75000 242.241
44.76000 238.812
44.77000 245.720
44.78000 252.954
44.79000 257.233
44.80000 257.561
44.81000 257.771
44.82000 257.250
44.83000 256.032
44.84000 254.904
44.85000 261.504
44.86000 273.054
44.87000 284.307
44.88000 288.856
44.89000 290.369
44.90000 291.797
44.91000 292.128
44.92000 292.123
44.93000 292.770
44.94000 298.378
44.95000 305.017
44.96000 310.650
44.97000 319.480
44.98000 327.246
44.99000 333.480
45.00000 334.595
45.01000 335.297
45.02000 337.252
45.03000 342.104
45.04000 347.073
45.05000 350.143
45.06000 366.409
45.07000 378.218
45.08000 384.000
45.09000 383.312
45.10000 382.635
45.11000 384.026
45.12000 386.889
45.13000 389.696
45.14000 388.121
45.15000 384.542
45.16000 381.082
45.17000 379.439
45.18000 378.410
45.19000 377.987
45.20000 382.828
45.21000 388.890
45.22000 394.129
45.23000 390.546
45.24000 386.357
45.25000 381.610
45.26000 374.791
45.27000 367.779
45.28000 362.412
45.29000 361.256
45.30000 360.310
45.31000 359.701
45.32000 362.807
45.33000 365.126
45.34000 365.962
45.35000 365.015
45.36000 364.044
45.37000 356.952
45.38000 345.002
45.39000 333.221
45.40000 331.671
45.41000 335.544
45.42000 339.017
45.43000 335.149
45.44000 328.530
45.45000 322.186
45.46000 318.597
45.47000 315.719
45.48000 313.189
45.49000 307.237
45.50000 301.610
45.51000 296.618
45.52000 294.244
45.53000 292.154
45.54000 292.023
45.55000 297.435
45.56000 303.182
45.57000 307.021
45.58000 292.544
45.59000 281.460
45.60000 276.567
45.61000 279.980
45.62000 283.433
45.63000 281.842
45.64000 275.777
45.65000 269.771
45.66000 266.880
45.67000 265.878
45.68000 264.831
45.69000 262.750
45.70000 260.242
45.71000 258.001
45.72000 258.872
45.73000 260.635
45.74000 262.210
45.75000 261.542
45.76000 260.582
45.77000 259.160
45.78000 255.613
45.79000 251.802
45.80000 247.983
45.81000 244.137
45.82000 240.289
45.83000 237.628
45.84000 248.527
45.85000 257.075
45.86000 258.646
45.87000 249.803
45.88000 240.861
45.89000 237.522
45.90000 239.764
45.91000 241.993
45.92000 240.216
45.93000 235.833
45.94000 231.449
45.95000 227.014
45.96000 222.555
45.97000 218.224
45.98000 215.642
45.99000 213.614
46.00000 211.776
46.01000 214.218
46.02000 217.189
46.03000 220.149
46.04000 223.059
46.05000 225.962
46.06000 227.464
46.07000 224.105
46.08000 220.332
46.09000 217.637
46.10000 218.625
46.11000 219.502
46.12000 218.718
46.13000 215.180
46.14000 211.602
46.15000 209.289
46.16000 208.392
46.17000 207.499
46.18000 209.632
46.19000 213.971
46.20000 218.235
46.21000 219.722
46.22000 219.802
46.23000 219.683
46.24000 216.339
46.25000 211.863
46.26000 207.749
46.27000 205.331
46.28000 203.537
46.29000 201.956
46.30000 201.596
46.31000 201.432
46.32000 201.804
46.33000 204.241
46.34000 206.883
46.35000 208.828
46.36000 216.038
46.37000 221.839
46.38000 223.735
46.39000 218.466
46.40000 213.043
46.41000 209.846
46.42000 209.434
46.43000 209.032
46.44000 208.281
46.45000 207.245
46.46000 206.178
46.47000 203.548
46.48000 200.041
46.49000 196.749
46.50000 197.715
46.51000 200.334
46.52000 202.771
46.53000 206.084
46.54000 209.288
46.55000 211.685
46.56000 208.844
46.57000 205.062
46.58000 202.191
46.59000 203.224
46.60000 204.702
46.61000 205.822
46.62000 202.535
46.63000 199.732
46.64000 199.784
46.65000 205.637
46.66000 211.660
46.67000 213.048
46.68000 207.975
46.69000 202.860
46.70000 199.565
46.71000 197.953
46.72000 196.350
46.73000 195.458
46.74000 195.007
46.75000 194.681
46.76000 197.399
46.77000 201.424
46.78000 205.213
46.79000 204.498
46.80000 202.621
46.81000 200.851
46.82000 199.862
46.83000 199.031
46.84000 198.156
46.85000 197.076
46.86000 195.970
46.87000 195.109
46.88000 196.555
46.89000 197.847
46.90000 200.555
46.91000 206.447
46.92000 212.460
46.93000 212.569
46.94000 203.529
46.95000 194.385
46.96000 189.726
46.97000 193.714
46.98000 196.359
46.99000 195.137
47.00000 191.244
47.01000 187.453
47.02000 186.850
47.03000 187.761
47.04000 188.628
47.05000 187.766
47.06000 186.445
47.07000 185.842
47.08000 191.256
47.09000 198.023
47.10000 203.317
47.11000 200.745
47.12000 197.010
47.13000 194.034
47.14000 197.998
47.15000 201.700
47.16000 204.354
47.17000 204.409
47.18000 204.341
47.19000 201.992
47.20000 195.723
47.21000 189.385
47.22000 185.973
47.23000 182.276
47.24000 179.768
47.25000 181.895
47.26000 187.585
47.27000 193.149
47.28000 193.489
47.29000 191.084
47.30000 188.776
47.31000 194.394
47.32000 202.343
47.33000 209.110
47.34000 204.531
47.35000 197.112
47.36000 190.343
47.37000 187.474
47.38000 185.255
47.39000 183.446
47.40000 182.304
47.41000 181.427
47.42000 181.476
47.43000 184.073
47.44000 186.816
47.45000 189.144
47.46000 190.682
47.47000 192.200
47.48000 193.061
47.49000 195.707
47.50000 197.551
47.51000 198.155
47.52000 197.694
47.53000 197.196
47.54000 194.537
47.55000 190.620
47.56000 186.831
47.57000 184.872
47.58000 183.718
47.59000 182.837
47.60000 184.993
47.61000 187.994
47.62000 191.227
47.63000 196.042
47.64000 201.153
47.65000 205.410
47.66000 204.041
47.67000 202.349
47.68000 200.250
47.69000 196.914
47.70000 193.493
47.71000 190.969
47.72000 190.339
47.73000 189.769
47.74000 189.430
47.75000 187.971
47.76000 186.931
47.77000 188.423
47.78000 192.353
47.79000 196.215
47.80000 194.044
47.81000 187.979
47.82000 182.067
47.83000 183.556
47.84000 188.120
47.85000 192.274
47.86000 191.080
47.87000 188.237
47.88000 185.620
47.89000 184.736
47.90000 184.214
47.91000 183.771
47.92000 183.333
47.93000 182.966
47.94000 184.069
47.95000 190.124
47.96000 196.581
47.97000 199.497
47.98000 194.162
47.99000 188.489
48.00000 184.974
48.01000 179.503
48.02000 175.550
48.03000 174.458
48.04000 176.465
48.05000 178.464
48.06000 179.191
48.07000 179.005
48.08000 178.822
48.09000 180.034
48.10000 181.863
48.11000 183.806
48.12000 187.511
48.13000 191.818
48.14000 195.593
48.15000 194.706
48.16000 192.729
48.17000 191.019
48.18000 188.968
48.19000 187.180
48.20000 185.893
48.21000 186.476
48.22000 187.237
48.23000 188.741
48.24000 192.158
48.25000 195.672
48.26000 197.939
48.27000 197.901
48.28000 197.841
48.29000 195.659
48.30000 190.905
48.31000 186.149
48.32000 182.509
48.33000 179.763
48.34000 177.054
48.35000 178.228
48.36000 181.424
48.37000 184.536
48.38000 186.079
48.39000 187.029
48.40000 187.559
48.41000 183.845
48.42000 179.027
48.43000 174.786
48.44000 180.381
48.45000 186.671
48.46000 191.888
48.47000 192.649
48.48000 192.921
48.49000 192.393
48.50000 189.585
48.51000 186.636
48.52000 184.661
48.53000 190.487
48.54000 194.964
48.55000 194.900
48.56000 188.695
48.57000 182.461
48.58000 181.477
48.59000 185.188
48.60000 188.864
48.61000 188.907
48.62000 186.799
48.63000 184.767
48.64000 184.490
48.65000 184.945
48.66000 185.264
48.67000 183.976
48.68000 182.225
48.69000 180.659
48.70000 182.121
48.71000 183.911
48.72000 185.225
48.73000 184.330
48.74000 183.159
48.75000 182.216
48.76000 181.991
48.77000 181.818
48.78000 181.698
48.79000 180.811
48.80000 180.124
48.81000 179.769
48.82000 179.915
48.83000 180.066
48.84000 179.733
48.85000 178.913
48.86000 178.099
48.87000 180.348
48.88000 184.595
48.89000 188.656
48.90000 187.305
48.91000 183.457
48.92000 179.816
48.93000 179.028
48.94000 179.151
48.95000 179.264
48.96000 176.758
48.97000 174.043
48.98000 171.981
48.99000 173.295
49.00000 175.091
49.01000 176.183
49.02000 174.817
49.03000 173.240
49.04000 172.111
49.05000 179.783
49.06000 185.941
49.07000 188.543
49.08000 185.210
49.09000 181.784
49.10000 179.710
49.11000 179.159
49.12000 178.610
49.13000 177.615
49.14000 176.295
49.15000 175.034
49.16000 175.966
49.17000 178.019
49.18000 179.990
49.19000 180.608
49.20000 180.747
49.21000 180.875
49.22000 176.483
49.23000 171.579
49.24000 167.358
49.25000 167.095
49.26000 167.470
49.27000 167.804
49.28000 167.981
49.29000 168.141
49.30000 168.260
49.31000 175.129
49.32000 180.735
49.33000 183.468
49.34000 180.886
49.35000 178.186
49.36000 177.523
49.37000 179.430
49.38000 181.342
49.39000 180.765
49.40000 178.125
49.41000 175.459
49.42000 171.416
49.43000 166.595
49.44000 162.057
49.45000 163.203
49.46000 166.572
49.47000 169.709
49.48000 174.345
49.49000 178.902
49.50000 182.826
49.51000 182.606
49.52000 181.634
49.53000 180.871
49.54000 181.008
49.55000 181.248
49.56000 181.430
49.57000 173.763
49.58000 167.335
49.59000 166.682
49.60000 177.847
49.61000 189.363
49.62000 193.529
49.63000 187.366
49.64000 181.133
49.65000 178.029
49.66000 177.840
49.67000 177.634
49.68000 176.018
49.69000 173.520
49.70000 171.099
49.71000 170.582
49.72000 170.889
49.73000 171.179
49.74000 174.974
49.75000 179.406
49.76000 183.586
49.77000 185.894
49.78000 187.823
49.79000 189.110
49.80000 187.310
49.81000 185.104
49.82000 183.385
49.83000 180.798
49.84000 178.684
49.85000 176.333
49.86000 173.447
49.87000 170.541
49.88000 168.240
49.89000 166.882
49.90000 165.536
49.91000 164.848
49.92000 171.026
49.93000 175.155
49.94000 176.428
49.95000 175.713
49.96000 175.062
49.97000 176.418
49.98000 178.733
49.99000 180.936
50.00000 177.909
50.01000 173.504
50.02000 169.993
50.03000 174.032
50.04000 179.782
50.05000 185.019
50.06000 187.493
50.07000 189.555
50.08000 191.201
50.09000 187.566
50.10000 184.243
50.11000 181.984
50.12000 182.388
50.13000 182.918
50.14000 181.795
50.15000 177.808
50.16000 173.771
50.17000 171.589
50.18000 174.190
50.19000 175.979
50.20000 178.801
50.21000 182.424
50.22000 185.983
50.23000 186.843
50.24000 186.275
50.25000 185.730
50.26000 183.059
50.27000 179.832
50.28000 177.065
50.29000 178.767
50.30000 181.595
50.31000 184.209
50.32000 185.521
50.33000 186.614
50.34000 187.507
50.35000 183.841
50.36000 180.449
50.37000 179.255
50.38000 184.146
50.39000 189.392
50.40000 192.524
50.41000 191.602
50.42000 190.581
50.43000 190.000
50.44000 188.988
50.45000 188.288
50.46000 192.129
50.47000 199.902
50.48000 207.528
50.49000 206.316
50.50000 199.924
50.51000 193.736
50.52000 196.275
50.53000 202.023
50.54000 207.911
50.55000 215.384
50.56000 223.300
50.57000 230.368
50.58000 231.638
50.59000 231.812
50.60000 231.958
50.61000 231.609
50.62000 231.269
50.63000 232.266
50.64000 237.352
50.65000 242.724
50.66000 246.832
50.67000 248.258
50.68000 249.596
50.69000 250.393
50.70000 261.000
50.71000 268.575
50.72000 272.337
50.73000 272.397
50.74000 272.468
50.75000 273.548
50.76000 275.285
50.77000 276.979
50.78000 275.056
50.79000 271.671
50.80000 268.619
50.81000 269.973
50.82000 272.695
50.83000 274.436
50.84000 268.565
50.85000 261.087
50.86000 254.726
50.87000 252.974
50.88000 252.036
50.89000 250.473
50.90000 246.793
50.91000 242.939
50.92000 241.068
50.93000 243.849
50.94000 246.824
50.95000 248.673
50.96000 243.804
50.97000 240.230
50.98000 237.616
50.99000 236.049
51.00000 234.469
51.01000 230.721
51.02000 225.405
51.03000 220.188
51.04000 216.408
51.05000 213.451
51.06000 210.628
51.07000 209.909
51.08000 209.913
51.09000 209.692
51.10000 207.471
51.11000 204.779
51.12000 202.447
51.13000 199.400
51.14000 196.712
51.15000 195.509
51.16000 199.895
51.17000 204.817
51.18000 206.762
51.19000 200.986
51.20000 194.812
51.21000 190.818
51.22000 188.575
51.23000 186.961
51.24000 183.789
51.25000 178.714
51.26000 173.643
51.27000 171.815
51.28000 172.600
51.29000 173.375
51.30000 174.572
51.31000 175.962
51.32000 177.324
51.33000 178.148
51.34000 178.768
51.35000 179.306
51.36000 179.008
51.37000 178.490
51.38000 178.033
51.39000 172.967
51.40000 167.904
51.41000 164.578
51.42000 168.521
51.43000 173.267
51.44000 176.800
51.45000 176.852
51.46000 176.686
51.47000 176.575
51.48000 179.227
51.49000 181.253
51.50000 179.931
51.51000 174.046
51.52000 168.136
51.53000 165.705
51.54000 166.410
51.55000 167.108
51.56000 166.692
51.57000 165.618
51.58000 164.684
51.59000 167.008
51.60000 170.703
51.61000 174.077
51.62000 173.644
51.63000 172.105
51.64000 170.727
51.65000 165.569
51.66000 160.420
51.67000 157.044
51.68000 161.939
51.69000 167.881
51.70000 171.370
51.71000 167.069
51.72000 162.190
51.73000 158.799
51.74000 165.222
51.75000 170.326
51.76000 171.811
51.77000 167.813
51.78000 163.758
51.79000 163.972
51.80000 168.510
51.81000 173.023
51.82000 176.778
51.83000 179.979
51.84000 182.987
51.85000 180.267
51.86000 174.883
51.87000 169.633
51.88000 166.258
51.89000 163.486
51.90000 160.967
51.91000 163.391
51.92000 166.492
51.93000 168.511
51.94000 164.890
51.95000 160.458
51.96000 157.805
51.97000 161.415
51.98000 165.570
51.99000 168.552
52.00000 170.514
52.01000 171.979
52.02000 172.945
52.03000 173.071
52.04000 173.184
52.05000 171.583
52.06000 168.033
52.07000 164.491
52.08000 163.706
52.09000 164.984
52.10000 166.223
52.11000 165.926
52.12000 164.839
52.13000 163.675
52.14000 161.226
52.15000 158.319
52.16000 155.642
52.17000 159.832
52.18000 165.081
52.19000 169.102
52.20000 165.932
52.21000 161.595
52.22000 158.055
52.23000 157.634
52.24000 157.529
52.25000 157.451
52.26000 159.965
52.27000 162.026
52.28000 165.682
52.29000 172.310
52.30000 179.005
52.31000 179.101
52.32000 170.809
52.33000 162.497
52.34000 156.395
52.35000 152.159
52.36000 148.062
52.37000 151.415
52.38000 159.011
52.39000 166.363
52.40000 168.746
52.41000 169.171
52.42000 169.567
52.43000 165.608
52.44000 160.953
52.45000 157.170
52.46000 159.136
52.47000 162.153
52.48000 164.521
52.49000 164.073
52.50000 163.298
52.51000 162.709
52.52000 164.707
52.53000 166.415
52.54000 167.682
52.55000 168.045
52.56000 168.380
52.57000 166.992
52.58000 163.166
52.59000 159.323
52.60000 158.278
52.61000 159.859
52.62000 161.410
52.63000 160.493
52.64000 158.017
52.65000 155.699
52.66000 157.351
52.67000 160.734
52.68000 163.922
52.69000 164.377
52.70000 164.041
52.71000 163.652
52.72000 162.875
52.73000 162.018
52.74000 161.233
52.75000 160.795
52.76000 160.403
52.77000 160.097
52.78000 156.901
52.79000 154.170
52.80000 152.520
52.81000 153.333
52.82000 154.241
52.83000 155.709
52.84000 158.057
52.85000 160.415
52.86000 161.627
52.87000 157.918
52.88000 155.429
52.89000 153.833
52.90000 152.862
52.91000 152.028
52.92000 155.592
52.93000 161.277
52.94000 166.688
52.95000 163.119
52.96000 157.038
52.97000 151.756
52.98000 153.294
52.99000 156.387
53.00000 158.975
53.01000 158.814
53.02000 158.241
53.03000 157.782
53.04000 158.228
53.05000 158.656
53.06000 158.428
53.07000 156.545
53.08000 154.583
53.09000 154.529
53.10000 157.805
53.11000 161.141
53.12000 162.951
53.13000 164.747
53.14000 165.965
53.15000 163.750
53.16000 158.854
53.17000 154.012
53.18000 151.583
53.19000 150.439
53.20000 149.340
53.21000 153.977
53.22000 160.301
53.23000 165.808
53.24000 163.294
53.25000 158.742
53.26000 155.072
53.27000 156.786
53.28000 159.413
53.29000 161.562
53.30000 162.147
53.31000 162.490
53.32000 162.573
53.33000 161.930
53.34000 161.244
53.35000 159.988
53.36000 157.629
53.37000 155.243
53.38000 153.882
53.39000 162.246
53.40000 168.105
53.41000 167.808
53.42000 162.138
53.43000 156.542
53.44000 155.481
53.45000 157.099
53.46000 158.666
53.47000 159.367
53.48000 159.695
53.49000 160.173
53.50000 162.359
53.51000 165.026
53.52000 167.190
53.53000 165.888
53.54000 163.925
53.55000 162.286
53.56000 159.927
53.57000 157.896
53.58000 157.037
53.59000 159.797
53.60000 162.813
53.61000 162.873
53.62000 156.618
53.63000 150.154
53.64000 146.292
53.65000 151.897
53.66000 155.932
53.67000 157.360
53.68000 156.235
53.69000 155.101
53.70000 153.065
53.71000 150.437
53.72000 147.874
53.73000 150.545
53.74000 155.356
53.75000 159.889
53.76000 160.712
53.77000 160.375
53.78000 160.424
53.79000 163.499
53.80000 167.219
53.81000 170.388
53.82000 167.825
53.83000 165.001
53.84000 162.662
53.85000 161.983
53.86000 161.441
53.87000 161.767
53.88000 164.142
53.89000 166.604
53.90000 168.138
53.91000 162.641
53.92000 158.605
53.93000 158.323
53.94000 162.172
53.95000 165.998
53.96000 165.762
53.97000 162.565
53.98000 159.427
53.99000 160.110
54.00000 162.611
54.01000 164.768
54.02000 161.458
54.03000 156.255
54.04000 151.871
54.05000 154.817
54.06000 159.503
54.07000 163.568
54.08000 158.694
54.09000 153.347
54.10000 150.168
54.11000 155.212
54.12000 161.052
54.13000 163.502
54.14000 157.091
54.15000 150.217
54.16000 145.758
54.17000 151.316
54.18000 155.537
54.19000 157.680
54.20000 157.262
54.21000 156.837
54.22000 155.781
54.23000 154.214
54.24000 152.668
54.25000 153.253
54.26000 154.969
54.27000 156.572
54.28000 155.995
54.29000 154.583
54.30000 153.235
54.31000 152.540
54.32000 152.018
54.33000 151.557
54.34000 148.611
54.35000 145.690
54.36000 143.692
54.37000 145.586
54.38000 147.915
54.39000 150.364
54.40000 153.164
54.41000 155.986
54.42000 157.885
54.43000 163.495
54.44000 167.742
54.45000 167.088
54.46000 159.703
54.47000 152.280
54.48000 150.666
54.49000 154.332
54.50000 157.966
54.51000 158.495
54.52000 157.149
54.53000 155.800
54.54000 154.423
54.55000 153.033
54.56000 151.932
54.57000 154.303
54.58000 157.691
54.59000 160.727
54.60000 158.610
54.61000 155.870
54.62000 153.915
54.63000 155.652
54.64000 157.860
54.65000 159.145
54.66000 157.477
54.67000 155.588
54.68000 154.272
54.69000 156.664
54.70000 158.570
54.71000 158.019
54.72000 153.716
54.73000 149.372
54.74000 150.522
54.75000 157.284
54.76000 164.010
54.77000 165.145
54.78000 162.508
54.79000 160.026
54.80000 162.182
54.81000 166.509
54.82000 170.300
54.83000 166.490
54.84000 160.216
54.85000 154.510
54.86000 155.588
54.87000 157.868
54.88000 159.971
54.89000 161.145
54.90000 162.184
54.91000 162.880
54.92000 162.355
54.93000 161.724
54.94000 161.269
54.95000 155.181
54.96000 150.324
54.97000 148.540
54.98000 151.960
54.99000 155.466
55.00000 158.284
55.01000 160.315
55.02000 162.339
55.03000 162.776
55.04000 162.017
55.05000 161.258
55.06000 160.517
55.07000 159.786
55.08000 159.087
55.09000 158.921
55.10000 158.947
55.11000 158.970
55.12000 160.522
55.13000 162.249
55.14000 164.166
55.15000 167.206
55.16000 170.430
55.17000 171.761
55.18000 165.636
55.19000 158.750
55.20000 153.648
55.21000 156.541
55.22000 159.135
55.23000 161.383
55.24000 162.981
55.25000 164.563
55.26000 166.641
55.27000 169.353
55.28000 172.065
55.29000 172.541
55.30000 171.130
55.31000 169.699
55.32000 167.111
55.33000 163.859
55.34000 160.927
55.35000 164.579
55.36000 170.845
55.37000 176.689
55.38000 173.392
55.39000 168.139
55.40000 164.031
55.41000 167.546
55.42000 172.465
55.43000 176.953
55.44000 179.552
55.45000 181.929
55.46000 183.740
55.47000 172.628
55.48000 163.196
55.49000 159.723
55.50000 168.624
55.51000 177.907
55.52000 185.229
55.53000 189.755
55.54000 194.259
55.55000 194.492
55.56000 190.680
55.57000 186.928
55.58000 187.996
55.59000 192.132
55.60000 196.410
55.61000 204.354
55.62000 213.907
55.63000 222.917
55.64000 225.407
55.65000 225.874
55.66000 226.158
55.67000 225.055
55.68000 223.665
55.69000 224.191
55.70000 234.086
55.71000 245.236
55.72000 253.953
55.73000 262.880
55.74000 270.019
55.75000 276.771
55.76000 282.633
55.77000 288.461
55.78000 300.010
55.79000 320.626
55.80000 341.357
55.81000 352.050
55.82000 347.870
55.83000 345.075
55.84000 345.598
55.85000 348.465
55.86000 351.763
55.87000 369.320
55.88000 393.798
55.89000 417.118
55.90000 429.945
55.91000 438.562
55.92000 447.912
55.93000 463.570
55.94000 480.679
55.95000 496.258
55.96000 503.460
55.97000 509.391
55.98000 514.142
55.99000 513.042
56.00000 511.712
56.01000 513.981
56.02000 525.386
56.03000 537.241
56.04000 541.230
56.05000 531.395
56.06000 521.301
56.07000 515.805
56.08000 520.527
56.09000 523.754
56.10000 519.063
56.11000 508.140
56.12000 497.249
56.13000 487.780
56.14000 479.074
56.15000 470.704
56.16000 458.795
56.17000 446.403
56.18000 434.072
56.19000 422.352
56.20000 410.788
56.21000 399.456
56.22000 389.558
56.23000 379.905
56.24000 371.997
56.25000 361.714
56.26000 353.074
56.27000 344.043
56.28000 333.917
56.29000 323.726
56.30000 312.914
56.31000 300.897
56.32000 288.849
56.33000 281.954
56.34000 277.505
56.35000 274.410
56.36000 274.479
56.37000 277.332
56.38000 280.016
56.39000 272.064
56.40000 257.783
56.41000 243.942
56.42000 236.786
56.43000 232.614
56.44000 228.759
56.45000 228.545
56.46000 229.365
56.47000 229.157
56.48000 221.794
56.49000 213.057
56.50000 205.749
56.51000 209.776
56.52000 214.280
56.53000 216.610
56.54000 212.185
56.55000 207.277
56.56000 202.726
56.57000 198.945
56.58000 195.189
56.59000 192.939
56.60000 185.230
56.61000 179.720
56.62000 180.279
56.63000 186.831
56.64000 193.310
56.65000 192.750
56.66000 187.541
56.67000 182.457
56.68000 176.871
56.69000 171.309
56.70000 166.244
56.71000 167.867
56.72000 171.598
56.73000 173.926
56.74000 165.176
56.75000 154.049
56.76000 144.557
56.77000 155.242
56.78000 166.612
56.79000 174.635
56.80000 171.131
56.81000 166.657
56.82000 163.410
56.83000 163.082
56.84000 162.880
56.85000 162.754
56.86000 161.555
56.87000 160.679
56.88000 158.353
56.89000 154.417
56.90000 150.506
56.91000 150.852
56.92000 154.324
56.93000 157.734
56.94000 162.351
56.95000 167.396
56.96000 172.063
56.97000 170.670
56.98000 167.165
56.99000 163.849
57.00000 162.246
57.01000 161.052
57.02000 160.015
57.03000 161.896
57.04000 163.893
57.05000 164.186
57.06000 157.964
57.07000 151.105
57.08000 145.783
57.09000 144.509
57.10000 143.450
57.11000 142.761
57.12000 142.402
57.13000 142.143
57.14000 142.979
57.15000 145.173
57.16000 147.364
57.17000 146.489
57.18000 143.105
57.19000 139.764
57.20000 140.232
57.21000 142.755
57.22000 145.161
57.23000 145.306
57.24000 144.580
57.25000 143.971
57.26000 144.578
57.27000 145.508
57.28000 146.331
57.29000 143.665
57.30000 140.826
57.31000 138.665
57.32000 139.384
57.33000 140.427
57.34000 142.314
57.35000 146.654
57.36000 151.152
57.37000 154.187
57.38000 149.536
57.39000 145.913
57.40000 144.940
57.41000 147.637
57.42000 150.357
57.43000 151.447
57.44000 151.043
57.45000 150.643
57.46000 147.292
57.47000 142.214
57.48000 137.334
57.49000 137.229
57.50000 139.159
57.51000 141.047
57.52000 142.414
57.53000 143.629
57.54000 144.718
57.55000 144.842
57.56000 144.781
57.57000 143.975
57.58000 139.637
57.59000 134.844
57.60000 132.178
57.61000 136.368
57.62000 141.079
57.63000 144.368
57.64000 140.272
57.65000 136.973
57.66000 135.459
57.67000 136.691
57.68000 137.954
57.69000 140.095
57.70000 143.142
57.71000 146.173
57.72000 148.500
57.73000 150.323
57.74000 152.032
57.75000 150.221
57.76000 146.751
57.77000 143.705
57.78000 146.735
57.79000 151.751
57.80000 156.317
57.81000 151.800
57.82000 146.009
57.83000 141.691
57.84000 145.181
57.85000 149.814
57.86000 152.280
57.87000 147.003
57.88000 141.038
57.89000 136.738
57.90000 138.197
57.91000 139.520
57.92000 140.742
57.93000 141.792
57.94000 142.840
57.95000 144.889
57.96000 148.095
57.97000 151.295
57.98000 149.819
57.99000 144.807
58.00000 139.879
58.01000 138.387
58.02000 138.687
58.03000 139.054
58.04000 140.556
58.05000 142.469
58.06000 144.234
58.07000 145.277
58.08000 146.052
58.09000 146.837
58.10000 147.683
58.11000 148.540
58.12000 148.714
58.13000 146.182
58.14000 143.370
58.15000 141.283
58.16000 136.812
58.17000 133.233
58.18000 131.478
58.19000 133.171
58.20000 134.945
58.21000 134.168
58.22000 130.100
58.23000 126.021
58.24000 127.800
58.25000 134.554
58.26000 141.196
58.27000 141.515
58.28000 138.181
58.29000 134.853
58.30000 131.650
58.31000 128.497
58.32000 125.554
58.33000 129.014
58.34000 133.752
58.35000 138.197
58.36000 140.673
58.37000 142.784
58.38000 144.550
58.39000 144.798
58.40000 144.865
58.41000 144.916
58.42000 140.565
58.43000 136.900
58.44000 135.297
58.45000 138.007
58.46000 140.853
58.47000 142.555
58.48000 142.612
58.49000 142.657
58.50000 143.207
58.51000 144.241
58.52000 145.238
58.53000 143.196
58.54000 139.207
58.55000 135.271
58.56000 132.742
58.57000 130.833
58.58000 129.032
58.59000 126.486
58.60000 123.942
58.61000 122.165
58.62000 126.228
58.63000 131.505
58.64000 135.595
58.65000 133.835
58.66000 131.284
58.67000 129.286
58.68000 129.602
58.69000 130.003
58.70000 131.424
58.71000 135.203
58.72000 139.078
58.73000 140.627
58.74000 138.465
58.75000 136.254
58.76000 135.110
58.77000 138.696
58.78000 141.084
58.79000 138.666
58.80000 132.827
58.81000 127.169
58.82000 127.621
58.83000 131.060
58.84000 134.338
58.85000 139.147
58.86000 144.088
58.87000 148.228
58.88000 145.411
58.89000 140.982
58.90000 137.604
58.91000 140.033
58.92000 143.352
58.93000 146.014
58.94000 138.695
58.95000 132.009
58.96000 128.140
58.97000 131.472
58.98000 135.164
58.99000 137.670
59.00000 138.076
59.01000 138.442
59.02000 138.642
59.03000 136.533
59.04000 135.082
59.05000 134.229
59.06000 133.850
59.07000 133.511
59.08000 135.012
59.09000 137.510
59.10000 139.912
59.11000 138.102
59.12000 134.925
59.13000 132.398
59.14000 136.379
59.15000 142.039
59.16000 146.763
59.17000 145.680
59.18000 143.596
59.19000 141.886
59.20000 142.032
59.21000 142.318
59.22000 142.833
59.23000 143.995
59.24000 145.197
59.25000 144.742
59.26000 141.041
59.27000 137.254
59.28000 135.079
59.29000 128.952
59.30000 124.657
59.31000 124.897
59.32000 129.161
59.33000 133.390
59.34000 135.280
59.35000 135.769
59.36000 136.244
59.37000 137.330
59.38000 138.598
59.39000 139.718
59.40000 139.103
59.41000 137.991
59.42000 136.690
59.43000 134.055
59.44000 131.162
59.45000 128.738
59.46000 126.467
59.47000 124.594
59.48000 124.479
59.49000 129.866
59.50000 135.652
59.51000 140.384
59.52000 142.834
59.53000 145.204
59.54000 146.630
59.55000 137.634
59.56000 131.167
59.57000 129.429
59.58000 132.400
59.59000 135.333
59.60000 134.306
59.61000 130.645
59.62000 127.070
59.63000 128.886
59.64000 132.987
59.65000 136.668
59.66000 134.617
59.67000 130.747
59.68000 127.616
59.69000 130.383
59.70000 134.425
59.71000 137.877
59.72000 134.467
59.73000 130.777
59.74000 128.240
59.75000 129.699
59.76000 131.498
59.77000 133.989
59.78000 138.137
59.79000 142.357
59.80000 145.004
59.81000 143.924
59.82000 143.103
59.83000 139.552
59.84000 132.945
59.85000 126.368
59.86000 125.550
59.87000 128.995
59.88000 132.379
59.89000 132.843
59.90000 131.862
59.91000 130.871
59.92000 129.716
59.93000 128.502
59.94000 127.825
59.95000 132.047
59.96000 137.450
59.97000 142.149
59.98000 140.156
59.99000 137.544
60.00000 135.163
60.01000 133.671
60.02000 132.267
60.03000 132.234
60.04000 135.838
60.05000 139.637
60.06000 142.115
60.07000 138.267
60.08000 135.344
60.09000 135.183
60.10000 138.479
60.11000 141.775
60.12000 140.371
60.13000 135.087
60.14000 129.868
60.15000 128.392
60.16000 129.001
60.17000 129.516
60.18000 128.179
60.19000 126.124
60.20000 124.728
60.21000 130.279
60.22000 137.691
60.23000 144.246
60.24000 139.841
60.25000 134.332
60.26000 130.398
60.27000 133.206
60.28000 136.783
60.29000 138.589
60.30000 135.201
60.31000 131.477
60.32000 128.957
60.33000 125.273
60.34000 122.503
60.35000 123.318
60.36000 129.131
60.37000 134.976
60.38000 138.043
60.39000 138.542
60.40000 139.036
60.41000 135.087
60.42000 128.495
60.43000 122.242
60.44000 124.323
60.45000 129.981
60.46000 135.307
60.47000 136.536
60.48000 136.547
60.49000 136.557
60.50000 134.241
60.51000 131.804
60.52000 130.160
60.53000 132.300
60.54000 134.933
60.55000 136.692
60.56000 135.610
60.57000 134.310
60.58000 133.400
60.59000 131.359
60.60000 129.784
60.61000 128.775
60.62000 128.645
60.63000 128.525
60.64000 130.345
60.65000 134.182
60.66000 138.000
60.67000 136.935
60.68000 132.547
60.69000 128.329
60.70000 129.423
60.71000 133.040
60.72000 136.525
60.73000 138.105
60.74000 139.059
60.75000 139.927
60.76000 133.602
60.77000 126.566
60.78000 121.433
60.79000 126.466
60.80000 133.002
60.81000 137.721
60.82000 135.900
60.83000 133.491
60.84000 131.751
60.85000 135.576
60.86000 138.711
60.87000 139.323
60.88000 135.600
60.89000 131.801
60.90000 129.588
60.91000 129.221
60.92000 128.858
60.93000 131.775
60.94000 137.182
60.95000 142.452
60.96000 142.063
60.97000 138.699
60.98000 135.579
60.99000 136.723
61.00000 139.419
61.01000 141.908
61.02000 138.067
61.03000 133.203
61.04000 129.245
61.05000 130.717
61.06000 133.095
61.07000 134.206
61.08000 130.246
61.09000 125.757
61.10000 122.418
61.11000 126.956
61.12000 130.839
61.13000 132.919
61.14000 131.566
61.15000 130.130
61.16000 131.956
61.17000 138.023
61.18000 144.103
61.19000 144.468
61.20000 139.932
61.21000 135.456
61.22000 134.487
61.23000 135.559
61.24000 136.658
61.25000 138.315
61.26000 140.197
61.27000 141.955
61.28000 139.785
61.29000 136.827
61.30000 134.163
61.31000 133.495
61.32000 133.202
61.33000 133.448
61.34000 136.096
61.35000 139.032
61.36000 141.276
61.37000 142.401
61.38000 143.227
61.39000 142.233
61.40000 137.405
61.41000 132.453
61.42000 132.378
61.43000 139.367
61.44000 146.413
61.45000 150.868
61.46000 152.826
61.47000 154.764
61.48000 154.931
61.49000 153.956
61.50000 153.113
61.51000 155.783
61.52000 160.019
61.53000 164.020
61.54000 168.566
61.55000 172.893
61.56000 177.784
61.57000 187.015
61.58000 197.155
61.59000 208.130
61.60000 223.260
61.61000 238.955
61.62000 251.270
61.63000 260.036
61.64000 266.816
61.65000 275.179
61.66000 287.229
61.67000 299.430
61.68000 307.941
61.69000 310.517
61.70000 313.013
61.71000 314.311
61.72000 307.242
61.73000 302.499
61.74000 302.753
61.75000 306.593
61.76000 310.111
61.77000 302.551
61.78000 289.535
61.79000 277.118
61.80000 259.417
61.81000 241.313
61.82000 224.051
61.83000 214.192
61.84000 206.061
61.85000 197.865
61.86000 189.305
61.87000 180.689
61.88000 173.765
61.89000 167.327
61.90000 162.146
61.91000 158.197
61.92000 157.419
61.93000 156.802
61.94000 156.811
61.95000 157.936
61.96000 159.083
61.97000 159.712
61.98000 154.254
61.99000 150.491
62.00000 147.434
62.01000 144.940
62.02000 142.554
62.03000 145.168
62.04000 150.506
62.05000 155.645
62.06000 155.049
62.07000 152.460
62.08000 150.011
62.09000 148.985
62.10000 148.330
62.11000 147.717
62.12000 147.372
62.13000 147.073
62.14000 146.827
62.15000 147.507
62.16000 148.148
62.17000 148.285
62.18000 146.984
62.19000 145.595
62.20000 145.264
62.21000 147.021
62.22000 148.835
62.23000 149.879
62.24000 149.571
62.25000 149.351
62.26000 149.443
62.27000 149.814
62.28000 150.145
62.29000 147.795
62.30000 143.826
62.31000 139.975
62.32000 138.719
62.33000 138.556
62.34000 138.402
62.35000 138.359
62.36000 138.348
62.37000 138.395
62.38000 138.849
62.39000 139.382
62.40000 139.830
62.41000 138.397
62.42000 137.008
62.43000 137.254
62.44000 142.657
62.45000 148.436
62.46000 152.688
62.47000 153.604
62.48000 154.403
62.49000 154.884
62.50000 148.191
62.51000 143.377
62.52000 141.977
62.53000 144.008
62.54000 146.014
62.55000 145.305
62.56000 142.778
62.57000 140.308
62.58000 139.419
62.59000 139.266
62.60000 139.142
62.61000 139.426
62.62000 139.840
62.63000 140.482
62.64000 142.967
62.65000 145.854
62.66000 148.324
62.67000 143.761
62.68000 139.068
62.69000 136.324
62.70000 140.392
62.71000 145.046
62.72000 148.133
62.73000 147.434
62.74000 146.568
62.75000 146.023
62.76000 146.437
62.77000 146.747
62.78000 145.963
62.79000 143.944
62.80000 141.923
62.81000 139.831
62.82000 137.687
62.83000 135.580
62.84000 135.596
62.85000 136.658
62.86000 137.790
62.87000 140.064
62.88000 142.743
62.89000 145.373
62.90000 147.555
62.91000 149.629
62.92000 151.434
62.93000 147.793
62.94000 143.933
62.95000 140.766
62.96000 140.289
62.97000 140.082
62.98000 141.172
62.99000 145.729
63.00000 150.474
63.01000 153.577
63.02000 151.981
63.03000 150.733
63.04000 147.666
63.05000 142.305
63.06000 136.947
63.07000 136.537
63.08000 140.244
63.09000 143.906
63.10000 146.161
63.11000 147.584
63.12000 148.985
63.13000 149.951
63.14000 150.747
63.15000 151.377
63.16000 150.240
63.17000 148.626
63.18000 147.197
63.19000 146.607
63.20000 146.229
63.21000 146.463
63.22000 149.343
63.23000 152.527
63.24000 153.844
63.25000 149.646
63.26000 145.087
63.27000 141.995
63.28000 146.822
63.29000 150.597
63.30000 152.704
63.31000 152.465
63.32000 152.210
63.33000 151.727
63.34000 151.030
63.35000 150.338
63.36000 149.226
63.37000 147.875
63.38000 146.527
63.39000 145.263
63.40000 144.036
63.41000 143.105
63.42000 145.870
63.43000 149.740
63.44000 153.220
63.45000 152.098
63.46000 150.296
63.47000 149.023
63.48000 150.295
63.49000 151.900
63.50000 152.810
63.51000 151.443
63.52000 149.899
63.53000 148.815
63.54000 148.933
63.55000 149.057
63.56000 150.119
63.57000 152.646
63.58000 155.191
63.59000 155.140
63.60000 152.370
63.61000 149.612
63.62000 147.697
63.63000 146.382
63.64000 145.151
63.65000 146.558
63.66000 149.228
63.67000 151.848
63.68000 153.723
63.69000 155.351
63.70000 156.836
63.71000 156.814
63.72000 156.492
63.73000 156.587
63.74000 158.923
63.75000 161.594
63.76000 163.034
63.77000 160.010
63.78000 156.580
63.79000 154.096
63.80000 151.304
63.81000 149.149
63.82000 148.073
63.83000 148.868
63.84000 149.695
63.85000 149.365
63.86000 147.674
63.87000 145.986
63.88000 149.687
63.89000 157.522
63.90000 165.204
63.91000 166.373
63.92000 164.093
63.93000 161.923
63.94000 161.680
63.95000 162.145
63.96000 162.574
63.97000 165.339
63.98000 168.348
63.99000 170.692
64.00000 169.017
64.01000 166.665
64.02000 164.248
64.03000 161.570
64.04000 158.865
64.05000 156.848
64.06000 160.548
64.07000 163.689
64.08000 165.973
64.09000 166.615
64.10000 167.216
64.11000 164.472
64.12000 157.341
64.13000 150.197
64.14000 148.858
64.15000 152.541
64.16000 156.221
64.17000 159.740
64.18000 163.165
64.19000 166.292
64.20000 163.000
64.21000 157.104
64.22000 151.590
64.23000 157.250
64.24000 165.229
64.25000 171.797
64.26000 168.716
64.27000 163.813
64.28000 159.737
64.29000 159.375
64.30000 159.462
64.31000 159.529
64.32000 165.817
64.33000 171.126
64.34000 174.345
64.35000 173.134
64.36000 171.778
64.37000 170.279
64.38000 168.571
64.39000 166.862
64.40000 164.677
64.41000 162.032
64.42000 159.433
64.43000 161.044
64.44000 165.394
64.45000 169.679
64.46000 172.192
64.47000 173.910
64.48000 175.534
64.49000 170.324
64.50000 163.589
64.51000 158.086
64.52000 162.131
64.53000 168.193
64.54000 173.202
64.55000 172.934
64.56000 171.940
64.57000 171.159
64.58000 170.238
64.59000 169.491
64.60000 169.770
64.61000 172.455
64.62000 175.239
64.63000 176.469
64.64000 175.179
64.65000 173.854
64.66000 173.162
64.67000 171.896
64.68000 171.036
64.69000 169.627
64.70000 167.821
64.71000 166.085
64.72000 166.797
64.73000 168.722
64.74000 170.560
64.75000 175.960
64.76000 182.112
64.77000 187.806
64.78000 189.428
64.79000 190.091
64.80000 190.275
64.81000 187.766
64.82000 184.837
64.83000 182.480
64.84000 179.673
64.85000 177.361
64.86000 176.388
64.87000 178.888
64.88000 181.567
64.89000 183.237
64.90000 183.096
64.91000 182.919
64.92000 182.821
64.93000 188.022
64.94000 191.611
64.95000 194.254
64.96000 196.135
64.97000 197.953
64.98000 196.844
64.99000 194.126
65.00000 191.509
65.01000 188.217
65.02000 184.885
65.03000 182.352
65.04000 187.983
65.05000 195.752
65.06000 202.016
65.07000 198.773
65.08000 193.864
65.09000 189.823
65.10000 193.328
65.11000 196.896
65.12000 200.026
65.13000 201.901
65.14000 203.697
65.15000 206.034
65.16000 209.447
65.17000 212.890
65.18000 214.881
65.19000 211.307
65.20000 208.782
65.21000 210.598
65.22000 216.329
65.23000 222.053
65.24000 227.366
65.25000 232.429
65.26000 237.344
65.27000 235.143
65.28000 230.215
65.29000 226.063
65.30000 231.148
65.31000 238.915
65.32000 245.588
65.33000 244.430
65.34000 241.734
65.35000 239.468
65.36000 251.484
65.37000 263.000
65.38000 272.253
65.39000 274.314
65.40000 275.842
65.41000 277.905
65.42000 281.147
65.43000 284.432
65.44000 286.418
65.45000 308.139
65.46000 323.762
65.47000 330.834
65.48000 329.239
65.49000 327.760
65.50000 338.732
65.51000 358.113
65.52000 377.057
65.53000 385.927
65.54000 389.941
65.55000 393.657
65.56000 393.225
65.57000 391.457
65.58000 390.636
65.59000 397.512
65.60000 406.079
65.61000 413.415
65.62000 423.000
65.63000 431.362
65.64000 440.405
65.65000 451.846
65.66000 463.496
65.67000 476.994
65.68000 494.985
65.69000 513.178
65.70000 524.654
65.71000 565.742
65.72000 595.836
65.73000 638.969
65.74000 696.928
65.75000 754.918
65.76000 816.131
65.77000 879.767
65.78000 942.340
65.79000 993.234
65.80000 1036.651
65.81000 1078.922
65.82000 1102.011
65.83000 1118.266
65.84000 1134.535
65.85000 1150.940
65.86000 1167.379
65.87000 1181.711
65.88000 1191.136
65.89000 1198.511
65.90000 1203.663
65.91000 1200.126
65.92000 1195.711
65.93000 1186.536
65.94000 1164.563
65.95000 1141.884
65.96000 1127.011
65.97000 1056.309
65.98000 1003.385
65.99000 936.652
66.00000 852.368
66.01000 768.060
66.02000 703.539
66.03000 655.613
66.04000 608.249
66.05000 562.244
66.06000 518.119
66.07000 474.339
66.08000 437.576
66.09000 403.579
66.10000 371.885
66.11000 365.014
66.12000 364.890
66.13000 364.780
66.14000 355.221
66.15000 345.450
66.16000 335.958
66.17000 327.677
66.18000 319.537
66.19000 314.108
66.20000 316.742
66.21000 319.913
66.22000 322.068
66.23000 332.499
66.24000 340.473
66.25000 343.915
66.26000 340.939
66.27000 337.918
66.28000 345.535
66.29000 363.147
66.30000 380.624
66.31000 388.716
66.32000 390.844
66.33000 393.401
66.34000 406.792
66.35000 424.904
66.36000 441.961
66.37000 445.752
66.38000 445.543
66.39000 445.355
66.40000 456.991
66.41000 469.311
66.42000 479.137
66.43000 476.853
66.44000 472.963
66.45000 470.910
66.46000 474.911
66.47000 479.388
66.48000 482.536
66.49000 461.693
66.50000 445.195
66.51000 436.614
66.52000 440.490
66.53000 444.518
66.54000 435.291
66.55000 412.061
66.56000 388.932
66.57000 379.071
66.58000 378.523
66.59000 377.786
66.60000 370.887
66.61000 361.019
66.62000 351.466
66.63000 346.598
66.64000 343.294
66.65000 340.278
66.66000 331.030
66.67000 321.561
66.68000 314.514
66.69000 320.623
66.70000 328.710
66.71000 334.224
66.72000 330.333
66.73000 325.578
66.74000 322.128
66.75000 325.673
66.76000 328.659
66.77000 328.140
66.78000 321.505
66.79000 314.759
66.80000 317.925
66.81000 332.824
66.82000 347.712
66.83000 350.549
66.84000 344.006
66.85000 337.562
66.86000 335.421
66.87000 335.575
66.88000 335.862
66.89000 338.537
66.90000 342.093
66.91000 345.382
66.92000 342.243
66.93000 337.958
66.94000 335.349
66.95000 342.970
66.96000 352.325
66.97000 359.553
66.98000 358.140
66.99000 355.808
67.00000 354.066
67.01000 351.120
67.02000 348.768
67.03000 349.038
67.04000 354.373
67.05000 359.836
67.06000 362.174
67.07000 360.383
67.08000 358.574
67.09000 357.277
67.10000 356.428
67.11000 355.622
67.12000 357.410
67.13000 360.730
67.14000 364.098
67.15000 368.511
67.16000 373.353
67.17000 377.883
67.18000 376.752
67.19000 374.272
67.20000 372.525
67.21000 375.833
67.22000 380.104
67.23000 384.817
67.24000 391.525
67.25000 398.477
67.26000 403.813
67.27000 396.630
67.28000 390.254
67.29000 387.823
67.30000 393.827
67.31000 400.112
67.32000 405.198
67.33000 408.520
67.34000 411.827
67.35000 412.341
67.36000 410.118
67.37000 407.880
67.38000 404.191
67.39000 399.553
67.40000 395.046
67.41000 394.192
67.42000 394.987
67.43000 395.740
67.44000 404.388
67.45000 414.607
67.46000 424.050
67.47000 427.407
67.48000 429.468
67.49000 432.029
67.50000 437.110
67.51000 442.540
67.52000 446.816
67.53000 450.769
67.54000 453.914
67.55000 455.773
67.56000 454.591
67.57000 453.280
67.58000 450.651
67.59000 445.870
67.60000 441.059
67.61000 438.537
67.62000 447.832
67.63000 454.125
67.64000 459.246
67.65000 463.514
67.66000 467.597
67.67000 465.073
67.68000 459.247
67.69000 453.682
67.70000 456.509
67.71000 461.838
67.72000 466.640
67.73000 466.729
67.74000 465.700
67.75000 466.329
67.76000 476.352
67.77000 487.850
67.78000 497.120
67.79000 488.191
67.80000 479.507
67.81000 477.357
67.82000 492.283
67.83000 508.101
67.84000 517.692
67.85000 516.014
67.86000 514.104
67.87000 513.048
67.88000 518.200
67.89000 521.761
67.90000 524.042
67.91000 525.282
67.92000 526.508
67.93000 527.003
67.94000 527.095
67.95000 527.183
67.96000 531.042
67.97000 536.026
67.98000 541.028
67.99000 546.216
68.00000 551.454
68.01000 556.391
68.02000 559.409
68.03000 562.087
68.04000 564.295
68.05000 573.976
68.06000 582.631
68.07000 587.755
68.08000 582.672
68.09000 576.944
68.10000 573.357
68.11000 574.055
68.12000 574.874
68.13000 575.349
68.14000 582.020
68.15000 586.729
68.16000 592.949
68.17000 600.542
68.18000 608.068
68.19000 610.843
68.20000 610.707
68.21000 610.574
68.22000 606.672
68.23000 601.450
68.24000 596.986
68.25000 601.624
68.26000 608.927
68.27000 617.164
68.28000 632.135
68.29000 648.440
68.30000 662.159
68.31000 669.161
68.32000 674.284
68.33000 678.677
68.34000 680.731
68.35000 682.609
68.36000 687.624
68.37000 699.586
68.38000 711.801
68.39000 719.213
68.40000 719.114
68.41000 718.987
68.42000 723.982
68.43000 734.210
68.44000 744.427
68.45000 753.274
68.46000 761.188
68.47000 768.928
68.48000 769.664
68.49000 767.226
68.50000 766.424
68.51000 788.815
68.52000 818.727
68.53000 846.663
68.54000 858.377
68.55000 866.500
68.56000 873.467
68.57000 904.480
68.58000 933.627
68.59000 961.923
68.60000 987.200
68.61000 1012.212
68.62000 1041.253
68.63000 1080.161
68.64000 1119.520
68.65000 1144.419
68.66000 1210.891
68.67000 1259.574
68.68000 1317.694
68.69000 1386.635
68.70000 1455.560
68.71000 1518.527
68.72000 1576.984
68.73000 1634.486
68.74000 1686.944
68.75000 1735.186
68.76000 1784.176
68.77000 1845.836
68.78000 1912.044
68.79000 1980.099
68.80000 2065.544
68.81000 2155.276
68.82000 2233.606
68.83000 2330.225
68.84000 2415.461
68.85000 2513.126
68.86000 2659.744
68.87000 2811.360
68.88000 2991.679
68.89000 3249.756
68.90000 3512.184
68.91000 3684.743
68.92000 4521.836
68.93000 5149.436
68.94000 6188.083
68.95000 7753.273
68.96000 9322.092
68.97000 11857.309
68.98000 15209.588
68.99000 18523.621
69.00000 23053.697
69.01000 28156.301
69.02000 33268.832
69.03000 38586.363
69.04000 43985.266
69.05000 49266.148
69.06000 53261.699
69.07000 56905.234
69.08000 60138.566
69.09000 62011.234
69.10000 63416.668
69.11000 64655.551
69.12000 65164.395
69.13000 65587.563
69.14000 66085.180
69.15000 66805.945
69.16000 67541.719
69.17000 68043.227
69.18000 68896.680
69.19000 69542.625
69.20000 69724.008
69.21000 69242.555
69.22000 68755.844
69.23000 67006.680
69.24000 64061.402
69.25000 61137.848
69.26000 57674.031
69.27000 53929.313
69.28000 50208.555
69.29000 47104.684
69.30000 44271.563
69.31000 41499.754
69.32000 39508.680
69.33000 37754.715
69.34000 36174.355
69.35000 35125.672
69.36000 34301.816
69.37000 33450.891
69.38000 32467.521
69.39000 31466.428
69.40000 30290.561
69.41000 28534.543
69.42000 26732.379
69.43000 25462.229
69.44000 21867.986
69.45000 19072.385
69.46000 16384.283
69.47000 13866.580
69.48000 11351.021
69.49000 9317.506
69.50000 7797.449
69.51000 6283.931
69.52000 5171.523
69.53000 4350.980
69.54000 3540.038
69.55000 3046.843
69.56000 2707.878
69.57000 2376.555
69.58000 2160.484
69.59000 1983.174
69.60000 1821.156
69.61000 1713.595
69.62000 1629.194
69.63000 1548.906
69.64000 1491.148
69.65000 1436.807
69.66000 1382.662
69.67000 1329.237
69.68000 1275.878
69.69000 1237.081
69.70000 1199.720
69.71000 1171.031
69.72000 1141.060
69.73000 1108.835
69.74000 1076.569
69.75000 1049.856
69.76000 1029.769
69.77000 1009.734
69.78000 988.020
69.79000 965.099
69.80000 942.146
69.81000 917.760
69.82000 892.603
69.83000 868.375
69.84000 860.989
69.85000 859.871
69.86000 858.836
69.87000 845.491
69.88000 830.662
69.89000 815.058
69.90000 794.676
69.91000 773.476
69.92000 755.349
69.93000 749.788
69.94000 745.576
69.95000 742.424
69.96000 740.870
69.97000 739.732
69.98000 735.493
69.99000 725.221
70.00000 714.794
