20.00000 593.131
20.01000 589.684
20.02000 585.745
20.03000 583.283
20.04000 586.728
20.05000 590.789
20.06000 593.809
20.07000 579.290
20.08000 567.211
20.09000 556.802
20.10000 549.572
20.11000 542.418
20.12000 540.918
20.13000 546.771
20.14000 552.649
20.15000 565.182
20.16000 583.390
20.17000 601.313
20.18000 602.706
20.19000 594.480
20.20000 586.212
20.21000 577.063
20.22000 567.560
20.23000 558.681
20.24000 553.726
20.25000 550.219
20.26000 548.401
20.27000 558.011
20.28000 569.761
20.29000 577.658
20.30000 568.404
20.31000 557.099
20.32000 548.455
20.33000 555.754
20.34000 562.379
20.35000 566.427
20.36000 565.049
20.37000 563.497
20.38000 561.030
20.39000 557.236
20.40000 553.432
20.41000 554.946
20.42000 561.581
20.43000 568.087
20.44000 563.323
20.45000 551.285
20.46000 539.851
20.47000 544.473
20.48000 556.242
20.49000 567.358
20.50000 556.374
20.51000 540.045
20.52000 527.170
20.53000 540.835
20.54000 560.058
20.55000 574.636
20.56000 566.134
20.57000 554.488
20.58000 545.351
20.59000 554.196
20.60000 562.439
20.61000 567.622
20.62000 565.678
20.63000 563.444
20.64000 561.669
20.65000 560.635
20.66000 559.610
20.67000 559.078
20.68000 557.703
20.69000 556.776
20.70000 556.113
20.71000 555.638
20.72000 555.276
20.73000 558.808
20.74000 564.256
20.75000 569.453
20.76000 567.073
20.77000 562.465
20.78000 557.862
20.79000 553.307
20.80000 548.763
20.81000 545.619
20.82000 550.268
20.83000 556.120
20.84000 560.823
20.85000 566.282
20.86000 570.765
20.87000 571.700
20.88000 563.497
20.89000 554.832
20.90000 548.795
20.91000 547.443
20.92000 546.183
20.93000 545.492
20.94000 554.534
20.95000 560.745
20.96000 558.813
20.97000 550.371
20.98000 542.304
20.99000 551.658
21.00000 570.503
21.01000 588.641
21.02000 582.572
21.03000 568.306
21.04000 555.107
21.05000 552.693
21.06000 553.081
21.07000 552.983
21.08000 549.843
21.09000 546.174
21.10000 543.159
21.11000 539.281
21.12000 536.017
21.13000 534.460
21.14000 537.765
21.15000 541.369
21.16000 546.153
21.17000 553.266
21.18000 560.441
21.19000 564.575
21.20000 562.767
21.21000 561.481
21.22000 563.869
21.23000 569.541
21.24000 575.118
21.25000 574.292
21.26000 569.600
21.27000 565.049
21.28000 568.982
21.29000 576.068
21.30000 581.756
21.31000 571.016
21.32000 555.538
21.33000 542.381
21.34000 545.656
21.35000 552.134
21.36000 557.569
21.37000 547.284
21.38000 537.084
21.39000 529.496
21.40000 530.138
21.41000 531.383
21.42000 535.758
21.43000 546.966
21.44000 558.414
21.45000 565.317
21.46000 552.950
21.47000 544.011
21.48000 540.261
21.49000 541.722
21.50000 543.190
21.51000 545.453
21.52000 548.248
21.53000 550.979
21.54000 555.888
21.55000 561.552
21.56000 566.895
21.57000 567.813
21.58000 567.317
21.59000 566.357
21.60000 561.662
21.61000 556.153
21.62000 551.441
21.63000 552.820
21.64000 554.715
21.65000 557.501
21.66000 563.401
21.67000 569.568
21.68000 572.154
21.69000 566.093
21.70000 559.650
21.71000 555.598
21.72000 560.900
21.73000 564.841
21.74000 569.944
21.75000 576.358
21.76000 582.774
21.77000 589.105
21.78000 595.373
21.79000 601.534
21.80000 604.375
21.81000 605.484
21.82000 607.037
21.83000 615.913
21.84000 627.379
21.85000 637.154
21.86000 631.339
21.87000 621.739
21.88000 613.381
21.89000 614.716
21.90000 617.189
21.91000 621.904
21.92000 635.307
21.93000 649.579
21.94000 662.708
21.95000 672.787
21.96000 682.700
21.97000 689.183
21.98000 701.115
21.99000 709.968
22.00000 713.180
22.01000 709.281
22.02000 705.367
22.03000 705.352
22.04000 708.580
22.05000 711.768
22.06000 711.544
22.07000 709.445
22.08000 708.336
22.09000 727.070
22.10000 753.566
22.11000 777.791
22.12000 777.825
22.13000 771.335
22.14000 765.588
22.15000 761.834
22.16000 758.898
22.17000 753.608
22.18000 738.156
22.19000 721.535
22.20000 707.161
22.21000 699.423
22.22000 692.119
22.23000 687.166
22.24000 681.403
22.25000 677.088
22.26000 673.667
22.27000 671.504
22.28000 669.348
22.29000 661.969
22.30000 649.723
22.31000 637.574
22.32000 642.875
22.33000 658.824
22.34000 673.745
22.35000 663.086
22.36000 641.363
22.37000 620.711
22.38000 613.374
22.39000 610.021
22.40000 607.007
22.41000 596.615
22.42000 586.204
22.43000 577.816
22.44000 579.165
22.45000 581.794
22.46000 583.093
22.47000 580.046
22.48000 576.662
22.49000 574.288
22.50000 563.953
22.51000 555.902
22.52000 550.120
22.53000 547.882
22.54000 545.685
22.55000 543.160
22.56000 540.290
22.57000 537.434
22.58000 534.960
22.59000 532.777
22.60000 530.668
22.61000 530.914
22.62000 532.286
22.63000 533.841
22.64000 538.069
22.65000 543.184
22.66000 547.848
22.67000 540.890
22.68000 532.387
22.69000 524.842
22.70000 522.453
22.71000 520.831
22.72000 519.096
22.73000 516.948
22.74000 514.763
22.75000 513.181
22.76000 521.838
22.77000 528.859
22.78000 531.183
22.79000 525.374
22.80000 519.421
22.81000 520.531
22.82000 529.933
22.83000 539.327
22.84000 541.278
22.85000 537.484
22.86000 533.745
22.87000 532.374
22.88000 532.255
22.89000 532.195
22.90000 533.160
22.91000 534.502
22.92000 535.741
22.93000 533.790
22.94000 531.316
22.95000 528.930
22.96000 527.068
22.97000 525.295
22.98000 521.937
22.99000 512.200
23.00000 501.792
23.01000 494.033
23.02000 499.696
23.03000 504.714
23.04000 510.518
23.05000 517.828
23.06000 525.176
23.07000 529.322
23.08000 529.271
23.09000 529.202
23.10000 528.671
23.11000 527.743
23.12000 526.708
23.13000 519.313
23.14000 508.190
23.15000 497.585
23.16000 498.171
23.17000 503.294
23.18000 508.084
23.19000 510.863
23.20000 512.875
23.21000 514.761
23.22000 515.785
23.23000 516.646
23.24000 517.526
23.25000 518.488
23.26000 519.459
23.27000 520.204
23.28000 524.465
23.29000 528.024
23.30000 529.354
23.31000 525.959
23.32000 522.409
23.33000 520.866
23.34000 522.249
23.35000 523.657
23.36000 517.218
23.37000 503.159
23.38000 489.283
23.39000 492.088
23.40000 505.740
23.41000 518.974
23.42000 520.906
23.43000 517.772
23.44000 514.810
23.45000 509.885
23.46000 504.801
23.47000 501.210
23.48000 509.186
23.49000 519.605
23.50000 527.071
23.51000 519.751
23.52000 510.399
23.53000 503.048
23.54000 495.229
23.55000 488.940
23.56000 486.264
23.57000 492.066
23.58000 498.220
23.59000 504.293
23.60000 510.237
23.61000 516.179
23.62000 519.281
23.63000 517.500
23.64000 516.279
23.65000 512.779
23.66000 507.630
23.67000 502.560
23.68000 500.253
23.69000 499.316
23.70000 498.422
23.71000 505.323
23.72000 514.222
23.73000 522.374
23.74000 523.919
23.75000 523.908
23.76000 524.183
23.77000 526.066
23.78000 528.199
23.79000 529.916
23.80000 516.581
23.81000 504.592
23.82000 497.313
23.83000 502.250
23.84000 507.816
23.85000 513.634
23.86000 519.906
23.87000 526.186
23.88000 529.643
23.89000 521.927
23.90000 516.622
23.91000 521.372
23.92000 534.226
23.93000 546.736
23.94000 542.959
23.95000 530.242
23.96000 517.994
23.97000 525.973
23.98000 540.684
23.99000 552.957
24.00000 540.330
24.01000 521.185
24.02000 505.471
24.03000 511.427
24.04000 521.181
24.05000 529.207
24.06000 520.980
24.07000 512.738
24.08000 507.322
24.09000 510.010
24.10000 513.204
24.11000 517.858
24.12000 525.418
24.13000 533.057
24.14000 537.473
24.15000 518.436
24.16000 505.007
24.17000 505.760
24.18000 519.297
24.19000 532.630
24.20000 531.979
24.21000 522.825
24.22000 513.938
24.23000 503.240
24.24000 492.368
24.25000 482.575
24.26000 485.624
24.27000 492.402
24.28000 497.671
24.29000 492.157
24.30000 484.524
24.31000 478.112
24.32000 480.427
24.33000 483.276
24.34000 486.062
24.35000 488.646
24.36000 491.215
24.37000 491.760
24.38000 487.856
24.39000 483.793
24.40000 481.336
24.41000 490.057
24.42000 496.354
24.43000 500.310
24.44000 501.895
24.45000 503.423
24.46000 498.853
24.47000 490.166
24.48000 481.675
24.49000 486.263
24.50000 496.485
24.51000 505.902
24.52000 504.057
24.53000 498.587
24.54000 494.268
24.55000 499.292
24.56000 506.368
24.57000 512.428
24.58000 509.473
24.59000 505.885
24.60000 501.802
24.61000 495.976
24.62000 489.999
24.63000 486.828
24.64000 490.482
24.65000 494.443
24.66000 496.941
24.67000 482.318
24.68000 471.533
24.69000 472.563
24.70000 487.023
24.71000 501.422
24.72000 500.840
24.73000 489.002
24.74000 477.363
24.75000 478.904
24.76000 486.948
24.77000 494.330
24.78000 490.644
24.79000 483.015
24.80000 476.950
24.81000 485.451
24.82000 497.515
24.83000 508.032
24.84000 501.552
24.85000 493.651
24.86000 486.955
24.87000 484.965
24.88000 483.449
24.89000 481.733
24.90000 479.479
24.91000 477.195
24.92000 475.698
24.93000 468.659
24.94000 463.391
24.95000 465.651
24.96000 477.476
24.97000 489.324
24.98000 496.114
24.99000 498.663
25.00000 501.181
25.01000 494.971
25.02000 484.067
25.03000 473.369
25.04000 466.862
25.05000 462.005
25.06000 457.862
25.07000 461.401
25.08000 467.026
25.09000 472.013
25.10000 471.737
25.11000 470.667
25.12000 470.203
25.13000 472.374
25.14000 474.850
25.15000 475.662
25.16000 471.520
25.17000 467.050
25.18000 464.011
25.19000 466.242
25.20000 468.027
25.21000 467.861
25.22000 464.937
25.23000 461.993
25.24000 462.651
25.25000 466.692
25.26000 470.702
25.27000 472.631
25.28000 473.236
25.29000 473.828
25.30000 474.091
25.31000 474.210
25.32000 474.417
25.33000 475.730
25.34000 477.376
25.35000 478.857
25.36000 485.101
25.37000 491.428
25.38000 494.658
25.39000 482.866
25.40000 469.081
25.41000 458.602
25.42000 459.008
25.43000 460.270
25.44000 461.157
25.45000 459.058
25.46000 457.380
25.47000 458.722
25.48000 464.814
25.49000 470.963
25.50000 479.304
25.51000 489.960
25.52000 500.570
25.53000 492.773
25.54000 472.287
25.55000 452.329
25.56000 449.487
25.57000 454.889
25.58000 459.624
25.59000 454.434
25.60000 445.931
25.61000 438.170
25.62000 439.367
25.63000 442.245
25.64000 446.194
25.65000 455.965
25.66000 466.611
25.67000 475.684
25.68000 479.010
25.69000 481.809
25.70000 483.840
25.71000 488.714
25.72000 492.566
25.73000 492.145
25.74000 484.272
25.75000 476.263
25.76000 471.709
25.77000 471.242
25.78000 470.783
25.79000 466.762
25.80000 459.995
25.81000 453.370
25.82000 452.900
25.83000 455.712
25.84000 458.225
25.85000 455.418
25.86000 450.646
25.87000 446.233
25.88000 449.107
25.89000 453.351
25.90000 457.012
25.91000 457.115
25.92000 456.615
25.93000 457.358
25.94000 463.141
25.95000 469.460
25.96000 474.180
25.97000 463.621
25.98000 454.687
25.99000 448.198
26.00000 446.431
26.01000 444.782
26.02000 449.314
26.03000 462.010
26.04000 474.737
26.05000 474.243
26.06000 462.232
26.07000 450.419
26.08000 450.726
26.09000 458.189
26.10000 465.481
26.11000 469.016
26.12000 471.016
26.13000 472.889
26.14000 471.566
26.15000 469.545
26.16000 466.720
26.17000 458.355
26.18000 448.935
26.19000 441.556
26.20000 443.399
26.21000 446.365
26.22000 448.643
26.23000 451.171
26.24000 453.184
26.25000 453.408
26.26000 449.810
26.27000 446.084
26.28000 449.035
26.29000 461.799
26.30000 474.650
26.31000 475.013
26.32000 463.147
26.33000 451.393
26.34000 450.201
26.35000 455.930
26.36000 461.417
26.37000 460.270
26.38000 456.127
26.39000 452.208
26.40000 454.096
26.41000 457.501
26.42000 460.301
26.43000 458.369
26.44000 455.430
26.45000 452.957
26.46000 452.837
26.47000 453.043
26.48000 453.205
26.49000 454.575
26.50000 455.754
26.51000 455.674
26.52000 452.618
26.53000 449.437
26.54000 446.771
26.55000 444.947
26.56000 443.135
26.57000 442.185
26.58000 449.874
26.59000 455.057
26.60000 455.778
26.61000 453.249
26.62000 450.794
26.63000 451.051
26.64000 452.661
26.65000 454.199
26.66000 455.881
26.67000 457.491
26.68000 458.607
26.69000 455.296
26.70000 450.935
26.71000 447.932
26.72000 452.616
26.73000 458.506
26.74000 463.255
26.75000 454.032
26.76000 445.443
26.77000 439.849
26.78000 442.080
26.79000 444.718
26.80000 445.837
26.81000 444.207
26.82000 442.520
26.83000 441.588
26.84000 440.248
26.85000 439.329
26.86000 441.061
26.87000 444.944
26.88000 448.738
26.89000 448.197
26.90000 445.259
26.91000 442.428
26.92000 437.724
26.93000 432.629
26.94000 428.185
26.95000 430.461
26.96000 434.508
26.97000 437.949
26.98000 437.530
26.99000 436.429
27.00000 435.521
27.01000 440.453
27.02000 445.049
27.03000 449.534
27.04000 453.699
27.05000 457.844
27.06000 457.674
27.07000 448.864
27.08000 439.812
27.09000 434.562
27.10000 440.266
27.11000 444.316
27.12000 448.450
27.13000 452.662
27.14000 456.838
27.15000 458.487
27.16000 458.588
27.17000 458.686
27.18000 457.865
27.19000 456.716
27.20000 455.165
27.21000 448.774
27.22000 440.967
27.23000 434.488
27.24000 437.573
27.25000 442.554
27.26000 446.744
27.27000 445.673
27.28000 444.218
27.29000 442.877
27.30000 441.898
27.31000 440.946
27.32000 440.017
27.33000 439.140
27.34000 438.265
27.35000 437.734
27.36000 442.491
27.37000 445.926
27.38000 445.256
27.39000 440.393
27.40000 435.565
27.41000 434.770
27.42000 436.717
27.43000 438.622
27.44000 444.202
27.45000 451.204
27.46000 457.576
27.47000 455.027
27.48000 449.587
27.49000 444.409
27.50000 441.379
27.51000 438.825
27.52000 436.635
27.53000 430.685
27.54000 425.199
27.55000 420.975
27.56000 421.228
27.57000 421.876
27.58000 423.778
27.59000 428.752
27.60000 433.865
27.61000 437.100
27.62000 445.137
27.63000 451.020
27.64000 450.888
27.65000 443.863
27.66000 436.841
27.67000 432.093
27.68000 429.067
27.69000 426.090
27.70000 432.468
27.71000 443.330
27.72000 452.962
27.73000 441.769
27.74000 423.103
27.75000 407.209
27.76000 417.398
27.77000 434.015
27.78000 448.520
27.79000 432.967
27.80000 415.446
27.81000 404.298
27.82000 418.241
27.83000 434.744
27.84000 445.400
27.85000 440.220
27.86000 434.155
27.87000 430.167
27.88000 422.789
27.89000 417.300
27.90000 416.028
27.91000 420.157
27.92000 424.309
27.93000 430.689
27.94000 438.951
27.95000 447.120
27.96000 444.820
27.97000 436.717
27.98000 429.104
27.99000 431.595
28.00000 438.096
28.01000 443.852
28.02000 441.496
28.03000 436.919
28.04000 432.858
28.05000 434.877
28.06000 437.598
28.07000 439.124
28.08000 435.420
28.09000 431.102
28.10000 427.308
28.11000 425.084
28.12000 422.966
28.13000 421.522
28.14000 427.798
28.15000 432.666
28.16000 435.325
28.17000 434.833
28.18000 434.317
28.19000 432.322
28.20000 428.928
28.21000 425.558
28.22000 425.604
28.23000 427.784
28.24000 429.786
28.25000 427.175
28.26000 422.540
28.27000 418.425
28.28000 420.925
28.29000 425.433
28.30000 429.494
28.31000 436.736
28.32000 443.665
28.33000 449.214
28.34000 448.015
28.35000 445.914
28.36000 443.692
28.37000 441.071
28.38000 438.418
28.39000 436.548
28.40000 438.089
28.41000 439.359
28.42000 442.200
28.43000 447.529
28.44000 452.889
28.45000 450.547
28.46000 440.007
28.47000 429.508
28.48000 424.781
28.49000 424.139
28.50000 423.579
28.51000 425.782
28.52000 429.325
28.53000 432.500
28.54000 430.131
28.55000 425.898
28.56000 422.031
28.57000 424.114
28.58000 427.179
28.59000 428.860
28.60000 422.966
28.61000 415.924
28.62000 411.643
28.63000 417.524
28.64000 424.350
28.65000 429.312
28.66000 433.935
28.67000 437.478
28.68000 436.122
28.69000 426.158
28.70000 416.033
28.71000 412.850
28.72000 417.949
28.73000 423.054
28.74000 428.342
28.75000 433.747
28.76000 438.923
28.77000 433.981
28.78000 423.606
28.79000 413.616
28.80000 410.624
28.81000 410.236
28.82000 409.876
28.83000 417.036
28.84000 425.202
28.85000 431.859
28.86000 429.225
28.87000 425.002
28.88000 421.427
28.89000 420.499
28.90000 419.856
28.91000 419.374
28.92000 421.356
28.93000 423.018
28.94000 422.795
28.95000 418.907
28.96000 414.925
28.97000 415.354
28.98000 421.657
28.99000 427.985
29.00000 430.315
29.01000 429.129
29.02000 427.904
29.03000 424.192
29.04000 419.000
29.05000 414.054
29.06000 414.584
29.07000 417.366
29.08000 419.971
29.09000 418.325
29.10000 415.729
29.11000 413.803
29.12000 416.537
29.13000 420.165
29.14000 422.101
29.15000 416.324
29.16000 409.599
29.17000 404.427
29.18000 410.318
29.19000 415.605
29.20000 418.607
29.21000 416.694
29.22000 414.614
29.23000 416.403
29.24000 423.923
29.25000 431.495
29.26000 426.866
29.27000 410.186
29.28000 393.705
29.29000 396.508
29.30000 412.042
29.31000 427.009
29.32000 426.089
29.33000 417.945
29.34000 410.235
29.35000 415.282
29.36000 423.622
29.37000 430.628
29.38000 427.093
29.39000 421.297
29.40000 416.163
29.41000 414.394
29.42000 413.096
29.43000 412.073
29.44000 409.817
29.45000 407.924
29.46000 407.145
29.47000 409.016
29.48000 411.000
29.49000 412.700
29.50000 413.931
29.51000 415.155
29.52000 415.800
29.53000 409.041
29.54000 404.484
29.55000 405.110
29.56000 409.541
29.57000 413.980
29.58000 418.689
29.59000 423.534
29.60000 428.165
29.61000 428.600
29.62000 427.642
29.63000 426.409
29.64000 422.679
29.65000 418.353
29.66000 415.059
29.67000 417.658
29.68000 421.190
29.69000 424.042
29.70000 432.786
29.71000 440.362
29.72000 443.919
29.73000 436.898
29.74000 429.317
29.75000 424.626
29.76000 425.201
29.77000 425.887
29.78000 426.267
29.79000 413.697
29.80000 405.007
29.81000 402.929
29.82000 406.265
29.83000 409.636
29.84000 414.735
29.85000 420.797
29.86000 426.642
29.87000 427.804
29.88000 427.200
29.89000 426.525
29.90000 425.119
29.91000 423.520
29.92000 423.366
29.93000 432.503
29.94000 443.297
29.95000 452.206
29.96000 460.667
29.97000 467.595
29.98000 469.209
29.99000 455.352
30.00000 440.508
30.01000 433.162
30.02000 440.945
30.03000 449.158
30.04000 453.938
30.05000 442.293
30.06000 434.041
30.07000 432.182
30.08000 436.181
30.09000 440.158
30.10000 442.546
30.11000 443.953
30.12000 445.320
30.13000 447.628
30.14000 450.202
30.15000 452.017
30.16000 444.600
30.17000 434.461
30.18000 425.702
30.19000 426.980
30.20000 430.262
30.21000 433.027
30.22000 436.319
30.23000 439.122
30.24000 441.694
30.25000 443.519
30.26000 445.287
30.27000 444.457
30.28000 437.831
30.29000 430.990
30.30000 426.827
30.31000 429.483
30.32000 431.435
30.33000 432.799
30.34000 433.558
30.35000 434.287
30.36000 431.427
30.37000 426.106
30.38000 420.901
30.39000 424.302
30.40000 431.458
30.41000 437.930
30.42000 434.588
30.43000 428.041
30.44000 422.464
30.45000 424.917
30.46000 429.162
30.47000 432.807
30.48000 441.394
30.49000 449.267
30.50000 453.856
30.51000 446.710
30.52000 438.520
30.53000 431.454
30.54000 427.157
30.55000 422.988
30.56000 420.343
30.57000 420.727
30.58000 421.043
30.59000 423.755
30.60000 429.236
30.61000 434.708
30.62000 437.339
30.63000 437.800
30.64000 438.255
30.65000 442.153
30.66000 447.668
30.67000 453.079
30.68000 456.723
30.69000 459.727
30.70000 462.256
30.71000 460.267
30.72000 457.158
30.73000 454.440
30.74000 460.108
30.75000 466.149
30.76000 470.422
30.77000 467.681
30.78000 464.216
30.79000 461.771
30.80000 462.107
30.81000 462.602
30.82000 462.928
30.83000 464.335
30.84000 465.391
30.85000 471.427
30.86000 483.890
30.87000 496.367
30.88000 502.166
30.89000 502.273
30.90000 502.380
30.91000 506.233
30.92000 512.111
30.93000 518.002
30.94000 524.151
30.95000 530.403
30.96000 536.664
30.97000 543.016
30.98000 549.394
30.99000 555.060
31.00000 574.563
31.01000 593.704
31.02000 611.198
31.03000 621.413
31.04000 630.766
31.05000 644.919
31.06000 673.563
31.07000 703.193
31.08000 723.436
31.09000 751.541
31.10000 772.751
31.11000 803.476
31.12000 847.876
31.13000 892.385
31.14000 947.122
31.15000 1011.628
31.16000 1075.674
31.17000 1147.010
31.18000 1221.801
31.19000 1296.857
31.20000 1378.869
31.21000 1463.956
31.22000 1549.978
31.23000 1648.043
31.24000 1749.791
31.25000 1841.560
31.26000 1959.247
31.27000 2067.317
31.28000 2176.220
31.29000 2289.232
31.30000 2402.800
31.31000 2509.077
31.32000 2590.985
31.33000 2670.932
31.34000 2727.403
31.35000 2811.495
31.36000 2876.177
31.37000 2931.047
31.38000 2970.251
31.39000 3009.253
31.40000 3036.269
31.41000 3050.418
31.42000 3064.505
31.43000 3034.637
31.44000 2974.064
31.45000 2913.147
31.46000 2840.607
31.47000 2762.385
31.48000 2682.779
31.49000 2582.026
31.50000 2474.112
31.51000 2375.414
31.52000 2277.355
31.53000 2190.324
31.54000 2103.558
31.55000 2018.261
31.56000 1933.189
31.57000 1841.869
31.58000 1727.379
31.59000 1610.714
31.60000 1525.713
31.61000 1444.236
31.62000 1381.624
31.63000 1310.772
31.64000 1225.334
31.65000 1139.617
31.66000 1078.974
31.67000 1048.480
31.68000 1018.104
31.69000 968.897
31.70000 905.051
31.71000 841.638
31.72000 797.864
31.73000 764.713
31.74000 731.785
31.75000 702.967
31.76000 675.688
31.77000 650.418
31.78000 641.114
31.79000 636.448
31.80000 629.303
31.81000 606.771
31.82000 581.586
31.83000 558.725
31.84000 545.444
31.85000 533.203
31.86000 524.022
31.87000 520.736
31.88000 518.449
31.89000 516.862
31.90000 516.646
31.91000 516.465
31.92000 507.853
31.93000 487.931
31.94000 467.958
31.95000 460.183
31.96000 463.224
31.97000 466.174
31.98000 463.267
31.99000 456.849
32.00000 450.404
32.01000 443.336
32.02000 436.009
32.03000 429.142
32.04000 427.722
32.05000 427.849
32.06000 428.151
32.07000 429.688
32.08000 431.464
32.09000 431.127
32.10000 421.090
32.11000 409.847
32.12000 401.185
32.13000 404.723
32.14000 408.223
32.15000 411.111
32.16000 412.671
32.17000 414.186
32.18000 415.648
32.19000 417.034
32.20000 418.419
32.21000 416.166
32.22000 410.291
32.23000 404.461
32.24000 403.247
32.25000 405.103
32.26000 407.110
32.27000 413.428
32.28000 421.720
32.29000 429.576
32.30000 427.675
32.31000 423.074
32.32000 417.967
32.33000 408.828
32.34000 398.817
32.35000 390.691
32.36000 392.236
32.37000 395.147
32.38000 397.446
32.39000 396.851
32.40000 396.175
32.41000 397.681
32.42000 404.418
32.43000 411.382
32.44000 412.795
32.45000 405.012
32.46000 397.090
32.47000 392.906
32.48000 395.351
32.49000 397.022
32.50000 400.070
32.51000 404.137
32.52000 407.846
32.53000 398.222
32.54000 381.841
32.55000 366.172
32.56000 373.783
32.57000 388.481
32.58000 402.109
32.59000 405.964
32.60000 407.465
32.61000 407.479
32.62000 398.942
32.63000 389.040
32.64000 381.030
32.65000 377.607
32.66000 375.191
32.67000 374.230
32.68000 377.124
32.69000 380.225
32.70000 381.518
32.71000 379.492
32.72000 377.394
32.73000 376.226
32.74000 377.397
32.75000 378.208
32.76000 377.082
32.77000 374.360
32.78000 371.730
32.79000 373.818
32.80000 378.551
32.81000 383.119
32.82000 389.393
32.83000 395.922
32.84000 401.637
32.85000 398.775
32.86000 393.617
32.87000 390.000
32.88000 396.373
32.89000 404.541
32.90000 411.293
32.91000 406.104
32.92000 400.703
32.93000 396.193
32.94000 394.292
32.95000 392.559
32.96000 389.825
32.97000 385.056
32.98000 380.228
32.99000 377.409
33.00000 373.396
33.01000 370.569
33.02000 370.467
33.03000 372.884
33.04000 375.324
33.05000 379.531
33.06000 384.836
33.07000 389.994
33.08000 383.159
33.09000 371.763
33.10000 361.389
33.11000 363.590
33.12000 369.526
33.13000 373.902
33.14000 366.831
33.15000 357.455
33.16000 349.544
33.17000 352.684
33.18000 356.508
33.19000 358.485
33.20000 354.462
33.21000 349.979
33.22000 346.692
33.23000 346.091
33.24000 345.590
33.25000 345.285
33.26000 345.228
33.27000 345.189
33.28000 347.607
33.29000 352.577
33.30000 357.533
33.31000 360.846
33.32000 363.024
33.33000 365.156
33.34000 358.967
33.35000 349.230
33.36000 340.261
33.37000 342.439
33.38000 348.285
33.39000 353.900
33.40000 357.590
33.41000 360.848
33.42000 363.649
33.43000 355.895
33.44000 348.014
33.45000 342.459
33.46000 345.275
33.47000 348.844
33.48000 350.099
33.49000 345.605
33.50000 340.841
33.51000 337.810
33.52000 336.107
33.53000 334.887
33.54000 333.471
33.55000 331.828
33.56000 330.194
33.57000 330.801
33.58000 333.131
33.59000 335.425
33.60000 337.294
33.61000 338.891
33.62000 340.401
33.63000 340.409
33.64000 339.872
33.65000 339.377
33.66000 339.299
33.67000 339.325
33.68000 339.348
33.69000 337.265
33.70000 335.179
33.71000 334.021
33.72000 336.575
33.73000 339.516
33.74000 340.178
33.75000 334.577
33.76000 328.616
33.77000 324.676
33.78000 328.509
33.79000 331.476
33.80000 332.570
33.81000 331.227
33.82000 329.880
33.83000 333.286
33.84000 340.773
33.85000 348.179
33.86000 344.881
33.87000 335.573
33.88000 326.794
33.89000 329.285
33.90000 336.313
33.91000 342.774
33.92000 342.924
33.93000 341.320
33.94000 339.894
33.95000 339.803
33.96000 339.941
33.97000 339.656
33.98000 337.488
33.99000 335.094
34.00000 333.549
34.01000 334.584
34.02000 335.796
34.03000 336.626
34.04000 329.619
34.05000 324.182
34.06000 323.863
34.07000 330.955
34.08000 338.106
34.09000 340.922
34.10000 339.561
34.11000 338.209
34.12000 339.111
34.13000 341.431
34.14000 343.611
34.15000 342.047
34.16000 338.816
34.17000 335.958
34.18000 337.955
34.19000 341.449
34.20000 344.603
34.21000 348.945
34.22000 352.979
34.23000 355.535
34.24000 350.752
34.25000 344.968
34.26000 339.290
34.27000 333.964
34.28000 328.666
34.29000 324.916
34.30000 332.408
34.31000 338.451
34.32000 341.000
34.33000 337.932
34.34000 334.789
34.35000 333.571
34.36000 334.436
34.37000 335.300
34.38000 337.213
34.39000 339.854
34.40000 342.360
34.41000 340.185
34.42000 335.705
34.43000 331.185
34.44000 326.042
34.45000 320.686
34.46000 315.782
34.47000 321.814
34.48000 329.452
34.49000 336.616
34.50000 341.140
34.51000 345.256
34.52000 347.362
34.53000 341.957
34.54000 335.839
34.55000 331.372
34.56000 329.488
34.57000 328.137
34.58000 326.996
34.59000 326.229
34.60000 325.469
34.61000 329.291
34.62000 338.666
34.63000 348.037
34.64000 347.261
34.65000 338.408
34.66000 329.571
34.67000 321.487
34.68000 313.813
34.69000 306.812
34.70000 312.346
34.71000 322.612
34.72000 332.130
34.73000 335.420
34.74000 336.926
34.75000 338.080
34.76000 337.037
34.77000 335.611
34.78000 334.548
34.79000 334.990
34.80000 335.597
34.81000 336.053
34.82000 337.901
34.83000 339.413
34.84000 338.561
34.85000 333.040
34.86000 327.395
34.87000 323.520
34.88000 322.041
34.89000 320.575
34.90000 323.573
34.91000 330.554
34.92000 337.427
34.93000 337.036
34.94000 332.259
34.95000 327.497
34.96000 323.089
34.97000 318.829
34.98000 314.832
34.99000 318.814
35.00000 324.538
35.01000 328.758
35.02000 322.333
35.03000 313.833
35.04000 307.045
35.05000 308.185
35.06000 310.319
35.07000 311.966
35.08000 318.299
35.09000 323.592
35.10000 327.118
35.11000 326.785
35.12000 326.318
35.13000 323.410
35.14000 316.833
35.15000 310.220
35.16000 306.906
35.17000 310.804
35.18000 313.390
35.19000 314.429
35.20000 314.431
35.21000 314.465
35.22000 315.440
35.23000 316.848
35.24000 318.183
35.25000 318.307
35.26000 318.065
35.27000 317.491
35.28000 314.240
35.29000 310.406
35.30000 306.927
35.31000 305.285
35.32000 303.906
35.33000 302.814
35.34000 309.558
35.35000 315.520
35.36000 319.765
35.37000 319.863
35.38000 319.779
35.39000 317.175
35.40000 310.369
35.41000 303.497
35.42000 299.853
35.43000 301.297
35.44000 302.280
35.45000 302.945
35.46000 303.371
35.47000 303.863
35.48000 306.821
35.49000 311.038
35.50000 315.075
35.51000 313.983
35.52000 311.275
35.53000 309.028
35.54000 311.030
35.55000 314.062
35.56000 316.694
35.57000 316.995
35.58000 316.921
35.59000 316.861
35.60000 316.370
35.61000 315.935
35.62000 314.456
35.63000 310.190
35.64000 305.773
35.65000 305.248
35.66000 311.920
35.67000 318.751
35.68000 322.566
35.69000 312.664
35.70000 305.791
35.71000 305.260
35.72000 310.006
35.73000 314.644
35.74000 313.626
35.75000 309.411
35.76000 305.342
35.77000 302.582
35.78000 300.464
35.79000 298.722
35.80000 300.977
35.81000 304.310
35.82000 306.852
35.83000 304.221
35.84000 300.653
35.85000 297.699
35.86000 299.528
35.87000 301.492
35.88000 303.746
35.89000 306.859
35.90000 310.028
35.91000 311.177
35.92000 308.193
35.93000 305.086
35.94000 303.266
35.95000 304.082
35.96000 304.670
35.97000 305.985
35.98000 307.979
35.99000 309.977
36.00000 312.350
36.01000 314.956
36.02000 317.492
36.03000 311.178
36.04000 301.528
36.05000 292.660
36.06000 293.512
36.07000 297.272
36.08000 300.947
36.09000 303.986
36.10000 306.896
36.11000 309.354
36.12000 300.798
36.13000 292.434
36.14000 287.521
36.15000 293.895
36.16000 301.146
36.17000 306.167
36.18000 306.141
36.19000 305.922
36.20000 305.788
36.21000 304.793
36.22000 304.073
36.23000 300.452
36.24000 293.791
36.25000 287.193
36.26000 288.635
36.27000 295.671
36.28000 302.561
36.29000 305.073
36.30000 305.475
36.31000 305.503
36.32000 300.026
36.33000 292.724
36.34000 286.667
36.35000 291.112
36.36000 297.937
36.37000 303.813
36.38000 298.068
36.39000 291.735
36.40000 288.056
36.41000 293.999
36.42000 300.817
36.43000 304.066
36.44000 298.384
36.45000 292.275
36.46000 288.378
36.47000 286.472
36.48000 285.112
36.49000 288.046
36.50000 296.020
36.51000 303.978
36.52000 305.656
36.53000 302.467
36.54000 299.327
36.55000 299.123
36.56000 300.433
36.57000 301.602
36.58000 300.273
36.59000 298.029
36.60000 295.860
36.61000 294.418
36.62000 293.159
36.63000 292.056
36.64000 292.244
36.65000 292.590
36.66000 293.020
36.67000 293.785
36.68000 294.584
36.69000 295.030
36.70000 294.495
36.71000 293.902
36.72000 293.510
36.73000 292.526
36.74000 291.789
36.75000 292.388
36.76000 294.738
36.77000 297.101
36.78000 302.650
36.79000 310.957
36.80000 319.177
36.81000 313.361
36.82000 299.627
36.83000 286.530
36.84000 287.168
36.85000 293.374
36.86000 298.863
36.87000 296.280
36.88000 291.436
36.89000 287.124
36.90000 297.358
36.91000 308.636
36.92000 317.034
36.93000 312.519
36.94000 306.444
36.95000 303.227
36.96000 308.758
36.97000 314.899
36.98000 319.116
36.99000 318.621
37.00000 318.135
37.01000 314.446
37.02000 306.081
37.03000 297.676
37.04000 292.175
37.05000 289.494
37.06000 286.831
37.07000 287.301
37.08000 289.771
37.09000 292.229
37.10000 294.382
37.11000 296.397
37.12000 298.417
37.13000 300.499
37.14000 302.599
37.15000 304.496
37.16000 302.729
37.17000 300.494
37.18000 299.229
37.19000 302.825
37.20000 307.089
37.21000 309.507
37.22000 305.664
37.23000 301.305
37.24000 298.211
37.25000 294.776
37.26000 292.152
37.27000 290.982
37.28000 292.169
37.29000 293.388
37.30000 296.349
37.31000 301.212
37.32000 306.058
37.33000 305.892
37.34000 302.138
37.35000 298.498
37.36000 298.865
37.37000 301.220
37.38000 303.339
37.39000 301.757
37.40000 298.904
37.41000 296.290
37.42000 290.255
37.43000 284.163
37.44000 280.523
37.45000 290.640
37.46000 302.898
37.47000 311.779
37.48000 307.949
37.49000 302.901
37.50000 299.207
37.51000 301.385
37.52000 303.299
37.53000 303.616
37.54000 301.065
37.55000 298.457
37.56000 295.807
37.57000 293.106
37.58000 290.409
37.59000 291.275
37.60000 294.998
37.61000 298.607
37.62000 296.846
37.63000 292.136
37.64000 287.658
37.65000 287.565
37.66000 289.140
37.67000 290.601
37.68000 293.094
37.69000 295.584
37.70000 298.135
37.71000 301.066
37.72000 304.065
37.73000 306.008
37.74000 303.535
37.75000 300.575
37.76000 298.345
37.77000 295.003
37.78000 292.333
37.79000 292.256
37.80000 297.336
37.81000 302.557
37.82000 303.020
37.83000 297.000
37.84000 290.944
37.85000 290.504
37.86000 295.123
37.87000 299.679
37.88000 299.976
37.89000 297.682
37.90000 295.490
37.91000 295.679
37.92000 296.869
37.93000 297.986
37.94000 301.988
37.95000 306.401
37.96000 309.907
37.97000 306.943
37.98000 302.706
37.99000 298.066
38.00000 291.548
38.01000 284.792
38.02000 279.567
38.03000 282.311
38.04000 284.957
38.05000 287.692
38.06000 290.624
38.07000 293.563
38.08000 297.921
38.09000 304.432
38.10000 310.965
38.11000 314.252
38.12000 305.562
38.13000 299.792
38.14000 297.804
38.15000 298.370
38.16000 299.000
38.17000 301.518
38.18000 304.912
38.19000 308.133
38.20000 310.259
38.21000 311.894
38.22000 313.666
38.23000 316.551
38.24000 319.681
38.25000 322.069
38.26000 320.584
38.27000 318.541
38.28000 316.922
38.29000 324.210
38.30000 330.695
38.31000 335.445
38.32000 335.977
38.33000 336.318
38.34000 338.070
38.35000 342.193
38.36000 346.353
38.37000 348.568
38.38000 358.612
38.39000 365.443
38.40000 369.627
38.41000 371.822
38.42000 374.159
38.43000 382.052
38.44000 392.800
38.45000 403.095
38.46000 420.376
38.47000 438.814
38.48000 455.978
38.49000 461.280
38.50000 463.680
38.51000 468.211
38.52000 485.207
38.53000 504.227
38.54000 519.661
38.55000 562.627
38.56000 599.921
38.57000 631.134
38.58000 645.997
38.59000 659.959
38.60000 684.914
38.61000 730.345
38.62000 776.240
38.63000 801.962
38.64000 861.960
38.65000 903.609
38.66000 932.865
38.67000 951.728
38.68000 970.391
38.69000 978.315
38.70000 980.125
38.71000 981.873
38.72000 1004.548
38.73000 1033.692
38.74000 1060.091
38.75000 1056.918
38.76000 1045.708
38.77000 1036.049
38.78000 1036.619
38.79000 1039.058
38.80000 1041.080
38.81000 1008.383
38.82000 978.041
38.83000 947.114
38.84000 914.449
38.85000 881.669
38.86000 848.455
38.87000 814.345
38.88000 780.209
38.89000 760.144
38.90000 715.442
38.91000 683.797
38.92000 655.144
38.93000 629.301
38.94000 603.472
38.95000 578.707
38.96000 554.612
38.97000 531.163
38.98000 512.004
38.99000 495.538
39.00000 478.505
39.01000 454.338
39.02000 428.020
39.03000 403.182
39.04000 389.399
39.05000 377.878
39.06000 368.131
39.07000 355.555
39.08000 344.715
39.09000 335.069
39.10000 329.357
39.11000 323.954
39.12000 321.981
39.13000 327.826
39.14000 333.976
39.15000 337.753
39.16000 323.430
39.17000 313.006
39.18000 306.083
39.19000 302.858
39.20000 299.654
39.21000 299.032
39.22000 300.220
39.23000 301.384
39.24000 298.840
39.25000 294.675
39.26000 290.474
39.27000 285.743
39.28000 280.836
39.29000 276.567
39.30000 277.750
39.31000 280.177
39.32000 282.269
39.33000 280.138
39.34000 277.794
39.35000 276.082
39.36000 276.683
39.37000 277.496
39.38000 277.559
39.39000 275.730
39.40000 273.810
39.41000 272.582
39.42000 280.078
39.43000 285.653
39.44000 287.949
39.45000 286.366
39.46000 284.783
39.47000 285.282
39.48000 287.408
39.49000 289.501
39.50000 284.493
39.51000 275.961
39.52000 267.956
39.53000 269.390
39.54000 274.310
39.55000 278.501
39.56000 275.547
39.57000 270.779
39.58000 266.596
39.59000 265.846
39.60000 265.702
39.61000 266.807
39.62000 272.979
39.63000 279.690
39.64000 284.460
39.65000 283.818
39.66000 282.857
39.67000 282.219
39.68000 279.918
39.69000 278.186
39.70000 277.660
39.71000 278.730
39.72000 279.803
39.73000 277.375
39.74000 271.891
39.75000 266.463
39.76000 263.553
39.77000 262.160
39.78000 260.927
39.79000 263.219
39.80000 266.949
39.81000 270.421
39.82000 270.953
39.83000 270.654
39.84000 270.389
39.85000 265.314
39.86000 260.104
39.87000 256.340
39.88000 259.108
39.89000 262.672
39.90000 265.563
39.91000 266.377
39.92000 267.045
39.93000 267.504
39.94000 268.489
39.95000 269.241
39.96000 269.493
39.97000 269.009
39.98000 268.518
39.99000 266.095
40.00000 261.781
40.01000 257.494
40.02000 259.568
40.03000 265.720
40.04000 271.552
40.05000 268.560
40.06000 261.584
40.07000 255.171
40.08000 256.267
40.09000 259.711
40.10000 262.826
40.11000 262.233
40.12000 261.016
40.13000 260.505
40.14000 263.559
40.15000 267.107
40.16000 268.953
40.17000 264.983
40.18000 260.529
40.19000 257.361
40.20000 256.288
40.21000 255.539
40.22000 257.513
40.23000 263.936
40.24000 270.421
40.25000 271.452
40.26000 266.480
40.27000 261.521
40.28000 258.296
40.29000 256.349
40.30000 254.449
40.31000 254.212
40.32000 254.806
40.33000 255.382
40.34000 255.655
40.35000 255.825
40.36000 255.980
40.37000 260.869
40.38000 266.225
40.39000 270.666
40.40000 269.924
40.41000 268.368
40.42000 266.471
40.43000 263.283
40.44000 259.969
40.45000 257.540
40.46000 256.313
40.47000 255.415
40.48000 253.709
40.49000 250.544
40.50000 247.348
40.51000 247.047
40.52000 250.309
40.53000 253.575
40.54000 254.623
40.55000 253.873
40.56000 253.139
40.57000 253.212
40.58000 253.732
40.59000 254.426
40.60000 258.466
40.61000 263.787
40.62000 268.729
40.63000 270.708
40.64000 271.788
40.65000 271.577
40.66000 263.143
40.67000 253.255
40.68000 245.511
40.69000 246.813
40.70000 249.126
40.71000 250.871
40.72000 256.268
40.73000 260.678
40.74000 262.547
40.75000 259.330
40.76000 255.970
40.77000 253.850
40.78000 253.432
40.79000 253.025
40.80000 253.711
40.81000 255.390
40.82000 257.031
40.83000 256.026
40.84000 253.398
40.85000 250.903
40.86000 251.559
40.87000 253.548
40.88000 255.418
40.89000 258.668
40.90000 262.004
40.91000 264.631
40.92000 262.151
40.93000 258.659
40.94000 255.054
40.95000 250.921
40.96000 246.720
40.97000 243.465
40.98000 238.764
40.99000 234.944
41.00000 233.351
41.01000 236.691
41.02000 240.211
41.03000 244.014
41.04000 248.249
41.05000 252.488
41.06000 254.630
41.07000 253.491
41.08000 252.706
41.09000 249.419
41.10000 244.428
41.11000 239.652
41.12000 241.327
41.13000 246.021
41.14000 250.478
41.15000 252.564
41.16000 253.780
41.17000 254.585
41.18000 252.027
41.19000 248.725
41.20000 245.770
41.21000 244.641
41.22000 243.777
41.23000 243.091
41.24000 247.650
41.25000 251.692
41.26000 253.643
41.27000 250.474
41.28000 247.070
41.29000 246.351
41.30000 250.178
41.31000 254.080
41.32000 256.165
41.33000 247.266
41.34000 241.213
41.35000 239.725
41.36000 241.696
41.37000 243.681
41.38000 246.202
41.39000 249.000
41.40000 251.682
41.41000 250.419
41.42000 247.921
41.43000 245.455
41.44000 243.308
41.45000 241.238
41.46000 240.281
41.47000 245.887
41.48000 252.568
41.49000 257.998
41.50000 249.323
41.51000 241.070
41.52000 234.551
41.53000 232.727
41.54000 231.165
41.55000 229.731
41.56000 228.534
41.57000 227.342
41.58000 226.672
41.59000 233.299
41.60000 237.915
41.61000 241.230
41.62000 243.444
41.63000 245.580
41.64000 243.377
41.65000 238.685
41.66000 234.151
41.67000 235.186
41.68000 238.248
41.69000 241.380
41.70000 245.284
41.71000 249.399
41.72000 252.986
41.73000 253.061
41.74000 252.488
41.75000 252.013
41.76000 246.871
41.77000 242.166
41.78000 238.947
41.79000 240.181
41.80000 241.714
41.81000 244.530
41.82000 250.011
41.83000 255.574
41.84000 258.855
41.85000 244.987
41.86000 235.107
41.87000 232.397
41.88000 236.479
41.89000 240.521
41.90000 241.271
41.91000 239.926
41.92000 238.617
41.93000 242.044
41.94000 247.290
41.95000 252.101
41.96000 251.383
41.97000 248.985
41.98000 246.677
41.99000 245.049
42.00000 243.562
42.01000 242.301
42.02000 246.631
42.03000 250.884
42.04000 254.146
42.05000 254.115
42.06000 253.823
42.07000 253.506
42.08000 253.133
42.09000 252.758
42.10000 252.527
42.11000 246.743
42.12000 242.542
42.13000 240.500
42.14000 240.757
42.15000 241.007
42.16000 240.300
42.17000 238.916
42.18000 237.560
42.19000 237.954
42.20000 239.151
42.21000 240.394
42.22000 242.335
42.23000 244.511
42.24000 246.316
42.25000 244.933
42.26000 242.817
42.27000 240.990
42.28000 242.891
42.29000 244.984
42.30000 245.968
42.31000 242.869
42.32000 239.391
42.33000 236.260
42.34000 234.007
42.35000 231.798
42.36000 230.381
42.37000 247.856
42.38000 260.851
42.39000 263.595
42.40000 254.108
42.41000 244.617
42.42000 240.364
42.43000 240.235
42.44000 240.107
42.45000 241.837
42.46000 244.484
42.47000 246.907
42.48000 245.279
42.49000 242.144
42.50000 238.995
42.51000 235.703
42.52000 232.375
42.53000 229.452
42.54000 232.367
42.55000 235.731
42.56000 237.968
42.57000 235.600
42.58000 232.737
42.59000 231.319
42.60000 233.959
42.61000 236.843
42.62000 238.763
42.63000 230.820
42.64000 224.752
42.65000 223.011
42.66000 227.032
42.67000 231.080
42.68000 233.702
42.69000 235.069
42.70000 236.422
42.71000 238.142
42.72000 240.040
42.73000 241.802
42.74000 240.545
42.75000 238.046
42.76000 235.636
42.77000 234.257
42.78000 233.169
42.79000 232.200
42.80000 234.654
42.81000 237.363
42.82000 239.231
42.83000 237.274
42.84000 234.846
42.85000 234.085
42.86000 238.506
42.87000 243.298
42.88000 246.604
42.89000 238.487
42.90000 232.098
42.91000 229.524
42.92000 232.602
42.93000 235.732
42.94000 237.566
42.95000 238.120
42.96000 238.671
42.97000 237.866
42.98000 236.190
42.99000 234.451
43.00000 230.930
43.01000 226.598
43.02000 222.576
43.03000 222.732
43.04000 224.204
43.05000 225.537
43.06000 223.725
43.07000 221.533
43.08000 220.212
43.09000 223.325
43.10000 227.059
43.11000 230.336
43.12000 232.039
43.13000 233.609
43.14000 234.729
43.15000 229.422
43.16000 225.167
43.17000 222.245
43.18000 221.517
43.19000 220.820
43.20000 222.702
43.21000 227.446
43.22000 232.175
43.23000 232.655
43.24000 230.036
43.25000 227.460
43.26000 226.487
43.27000 226.319
43.28000 226.168
43.29000 226.277
43.30000 226.477
43.31000 226.661
43.32000 229.854
43.33000 233.344
43.34000 235.680
43.35000 231.431
43.36000 226.139
43.37000 222.575
43.38000 225.612
43.39000 229.296
43.40000 232.003
43.41000 225.906
43.42000 220.832
43.43000 218.246
43.44000 220.194
43.45000 222.238
43.46000 223.397
43.47000 223.459
43.48000 223.518
43.49000 222.410
43.50000 220.353
43.51000 218.388
43.52000 221.023
43.53000 226.221
43.54000 231.103
43.55000 229.864
43.56000 226.263
43.57000 222.916
43.58000 223.786
43.59000 225.583
43.60000 226.777
43.61000 224.095
43.62000 220.721
43.63000 219.251
43.64000 225.866
43.65000 233.395
43.66000 239.085
43.67000 230.370
43.68000 222.815
43.69000 218.931
43.70000 222.455
43.71000 226.191
43.72000 226.050
43.73000 220.547
43.74000 215.011
43.75000 213.014
43.76000 214.260
43.77000 215.532
43.78000 218.757
43.79000 223.186
43.80000 227.459
43.81000 227.963
43.82000 226.859
43.83000 225.821
43.84000 224.845
43.85000 223.970
43.86000 223.360
43.87000 224.674
43.88000 226.373
43.89000 228.266
43.90000 231.087
43.91000 234.027
43.92000 236.309
43.93000 234.506
43.94000 232.827
43.95000 229.897
43.96000 224.176
43.97000 218.352
43.98000 215.694
43.99000 217.908
44.00000 220.176
44.01000 221.327
44.02000 220.339
44.03000 219.690
44.04000 220.609
44.05000 222.602
44.06000 224.581
44.07000 226.154
44.08000 227.534
44.09000 228.846
44.10000 228.528
44.11000 227.743
44.12000 227.078
44.13000 227.411
44.14000 227.966
44.15000 228.716
44.16000 230.496
44.17000 232.426
44.18000 233.962
44.19000 223.676
44.20000 214.539
44.21000 209.573
44.22000 214.892
44.23000 220.689
44.24000 225.843
44.25000 229.900
44.26000 233.939
44.27000 236.105
44.28000 236.523
44.29000 236.792
44.30000 233.603
44.31000 227.773
44.32000 222.002
44.33000 218.598
44.34000 216.428
44.35000 214.347
44.36000 219.963
44.37000 227.808
44.38000 235.276
44.39000 239.163
44.40000 242.162
44.41000 244.480
44.42000 242.753
44.43000 240.358
44.44000 238.408
44.45000 232.406
44.46000 227.161
44.47000 224.570
44.48000 229.216
44.49000 234.273
44.50000 237.218
44.51000 236.174
44.52000 235.036
44.53000 234.393
44.54000 229.992
44.55000 226.929
44.56000 227.269
44.57000 230.507
44.58000 233.734
44.59000 236.284
44.60000 238.443
44.61000 240.531
44.62000 243.160
44.63000 245.846
44.64000 248.239
44.65000 247.412
44.66000 245.697
44.67000 244.174
44.68000 243.945
44.69000 243.956
44.70000 243.966
44.71000 249.095
44.72000 253.842
44.73000 257.855
44.74000 259.654
44.75000 261.302
44.76000 261.219
44.77000 257.513
44.78000 253.694
44.79000 251.435
44.80000 250.404
44.81000 249.682
44.82000 250.954
44.83000 254.130
44.84000 257.342
44.85000 263.592
44.86000 271.788
44.87000 279.772
44.88000 283.209
44.89000 284.570
44.90000 286.219
44.91000 291.578
44.92000 298.070
44.93000 303.834
44.94000 304.046
44.95000 303.105
44.96000 302.307
44.97000 309.646
44.98000 316.721
44.99000 322.224
45.00000 322.467
45.01000 322.289
45.02000 323.373
45.03000 327.380
45.04000 331.505
45.05000 334.054
45.06000 346.980
45.07000 356.362
45.08000 359.997
45.09000 357.459
45.10000 354.964
45.11000 358.982
45.12000 367.639
45.13000 376.127
45.14000 377.501
45.15000 375.477
45.16000 373.403
45.17000 370.573
45.18000 367.487
45.19000 364.646
45.20000 363.945
45.21000 363.740
45.22000 363.562
45.23000 359.138
45.24000 354.828
45.25000 350.826
45.26000 347.964
45.27000 345.209
45.28000 341.815
45.29000 336.789
45.30000 331.681
45.31000 328.394
45.32000 326.229
45.33000 324.665
45.34000 323.798
45.35000 323.769
45.36000 323.741
45.37000 323.603
45.38000 323.376
45.39000 323.153
45.40000 319.836
45.41000 314.989
45.42000 310.364
45.43000 309.823
45.44000 310.812
45.45000 310.667
45.46000 299.164
45.47000 284.733
45.48000 272.045
45.49000 277.334
45.50000 284.552
45.51000 289.952
45.52000 287.865
45.53000 284.966
45.54000 280.847
45.55000 273.276
45.56000 265.496
45.57000 260.300
45.58000 263.437
45.59000 265.924
45.60000 264.933
45.61000 259.274
45.62000 253.593
45.63000 250.618
45.64000 250.044
45.65000 249.476
45.66000 250.703
45.67000 252.959
45.68000 255.158
45.69000 256.076
45.70000 256.463
45.71000 256.750
45.72000 255.868
45.73000 254.651
45.74000 253.564
45.75000 248.531
45.76000 243.481
45.77000 239.273
45.78000 238.925
45.79000 239.056
45.80000 238.543
45.81000 236.015
45.82000 233.340
45.83000 231.490
45.84000 232.858
45.85000 233.970
45.86000 235.275
45.87000 236.869
45.88000 238.466
45.89000 237.462
45.90000 233.866
45.91000 230.292
45.92000 228.233
45.93000 227.195
45.94000 226.031
45.95000 221.257
45.96000 214.829
45.97000 209.035
45.98000 211.901
45.99000 217.516
46.00000 222.605
46.01000 219.922
46.02000 216.072
46.03000 212.056
46.04000 207.184
46.05000 202.190
46.06000 199.081
46.07000 202.505
46.08000 206.486
46.09000 209.330
46.10000 207.307
46.11000 205.602
46.12000 205.399
46.13000 207.685
46.14000 210.010
46.15000 213.396
46.16000 217.970
46.17000 222.531
46.18000 225.412
46.19000 227.038
46.20000 228.553
46.21000 225.935
46.22000 221.222
46.23000 216.658
46.24000 214.500
46.25000 213.188
46.26000 211.982
46.27000 212.300
46.28000 212.910
46.29000 213.293
46.30000 212.365
46.31000 211.227
46.32000 209.983
46.33000 208.332
46.34000 206.640
46.35000 205.394
46.36000 207.239
46.37000 208.796
46.38000 209.569
46.39000 208.903
46.40000 208.206
46.41000 203.686
46.42000 194.383
46.43000 185.077
46.44000 185.251
46.45000 193.222
46.46000 201.064
46.47000 202.366
46.48000 199.999
46.49000 197.768
46.50000 198.232
46.51000 199.744
46.52000 201.151
46.53000 201.627
46.54000 201.832
46.55000 202.007
46.56000 201.990
46.57000 201.938
46.58000 202.803
46.59000 207.593
46.60000 212.831
46.61000 216.798
46.62000 217.887
46.63000 218.595
46.64000 218.060
46.65000 214.999
46.66000 211.865
46.67000 209.259
46.68000 207.392
46.69000 205.530
46.70000 203.179
46.71000 200.379
46.72000 197.606
46.73000 196.813
46.74000 197.251
46.75000 197.839
46.76000 202.106
46.77000 207.954
46.78000 213.457
46.79000 212.295
46.80000 209.424
46.81000 206.693
46.82000 204.996
46.83000 203.506
46.84000 201.581
46.85000 197.578
46.86000 193.304
46.87000 189.981
46.88000 192.899
46.89000 195.603
46.90000 197.549
46.91000 197.791
46.92000 197.969
46.93000 198.230
46.94000 198.619
46.95000 199.009
46.96000 199.208
46.97000 197.549
46.98000 196.468
46.99000 199.284
47.00000 204.792
47.01000 209.920
47.02000 203.159
47.03000 190.752
47.04000 178.957
47.05000 184.875
47.06000 195.734
47.07000 205.077
47.08000 201.745
47.09000 195.564
47.10000 190.147
47.11000 188.810
47.12000 188.077
47.13000 187.492
47.14000 190.011
47.15000 192.269
47.16000 193.362
47.17000 191.560
47.18000 189.622
47.19000 188.193
47.20000 187.641
47.21000 187.105
47.22000 186.816
47.23000 199.131
47.24000 207.538
47.25000 210.175
47.26000 208.374
47.27000 206.570
47.28000 204.648
47.29000 202.664
47.30000 200.759
47.31000 199.260
47.32000 197.997
47.33000 196.640
47.34000 194.380
47.35000 191.893
47.36000 189.695
47.37000 189.220
47.38000 189.033
47.39000 188.881
47.40000 186.682
47.41000 184.710
47.42000 184.270
47.43000 188.036
47.44000 192.045
47.45000 195.135
47.46000 196.475
47.47000 197.773
47.48000 198.508
47.49000 189.285
47.50000 182.841
47.51000 179.152
47.52000 177.829
47.53000 176.521
47.54000 176.140
47.55000 176.299
47.56000 176.452
47.57000 184.270
47.58000 194.571
47.59000 203.784
47.60000 200.885
47.61000 194.620
47.62000 188.743
47.63000 185.489
47.64000 182.727
47.65000 180.426
47.66000 182.377
47.67000 184.415
47.68000 186.691
47.69000 189.692
47.70000 192.742
47.71000 192.514
47.72000 185.378
47.73000 178.021
47.74000 173.655
47.75000 178.402
47.76000 181.814
47.77000 184.466
47.78000 186.387
47.79000 188.304
47.80000 189.968
47.81000 191.469
47.82000 192.932
47.83000 187.322
47.84000 178.964
47.85000 171.416
47.86000 174.425
47.87000 180.686
47.88000 186.237
47.89000 186.321
47.90000 185.260
47.91000 184.358
47.92000 181.663
47.93000 179.195
47.94000 177.731
47.95000 179.646
47.96000 181.835
47.97000 183.031
47.98000 181.912
47.99000 180.698
48.00000 179.946
48.01000 183.973
48.02000 186.916
48.03000 187.350
48.04000 185.069
48.05000 182.801
48.06000 182.535
48.07000 183.707
48.08000 184.857
48.09000 190.713
48.10000 198.587
48.11000 205.620
48.12000 199.654
48.13000 189.252
48.14000 180.025
48.15000 181.117
48.16000 184.620
48.17000 187.651
48.18000 187.622
48.19000 187.196
48.20000 185.969
48.21000 181.749
48.22000 177.246
48.23000 174.975
48.24000 178.457
48.25000 182.230
48.26000 184.665
48.27000 181.415
48.28000 178.959
48.29000 178.141
48.30000 179.309
48.31000 180.483
48.32000 182.158
48.33000 184.233
48.34000 186.280
48.35000 185.448
48.36000 183.115
48.37000 181.007
48.38000 183.091
48.39000 186.756
48.40000 189.947
48.41000 188.343
48.42000 185.493
48.43000 182.984
48.44000 184.414
48.45000 186.235
48.46000 187.105
48.47000 184.021
48.48000 180.504
48.49000 176.956
48.50000 173.319
48.51000 169.676
48.52000 167.236
48.53000 174.391
48.54000 179.889
48.55000 182.071
48.56000 179.769
48.57000 177.445
48.58000 176.917
48.59000 177.997
48.60000 179.067
48.61000 180.057
48.62000 180.979
48.63000 181.768
48.64000 179.516
48.65000 175.995
48.66000 172.794
48.67000 173.345
48.68000 174.979
48.69000 176.440
48.70000 176.908
48.71000 177.146
48.72000 177.818
48.73000 180.493
48.74000 183.421
48.75000 184.140
48.76000 177.897
48.77000 171.144
48.78000 166.463
48.79000 175.617
48.80000 182.875
48.81000 185.780
48.82000 182.136
48.83000 178.428
48.84000 176.752
48.85000 177.119
48.86000 177.484
48.87000 178.662
48.88000 180.363
48.89000 181.942
48.90000 179.977
48.91000 176.377
48.92000 172.970
48.93000 172.234
48.94000 172.353
48.95000 172.460
48.96000 175.454
48.97000 178.651
48.98000 180.964
48.99000 178.700
49.00000 175.784
49.01000 173.907
49.02000 175.661
49.03000 177.727
49.04000 179.207
49.05000 176.858
49.06000 174.934
49.07000 173.907
49.08000 174.378
49.09000 174.872
49.10000 175.898
49.11000 177.524
49.12000 179.145
49.13000 179.122
49.14000 177.882
49.15000 176.608
49.16000 174.059
49.17000 170.859
49.18000 167.859
49.19000 168.170
49.20000 169.652
49.21000 171.015
49.22000 170.530
49.23000 169.697
49.24000 169.941
49.25000 176.442
49.26000 183.951
49.27000 189.454
49.28000 187.174
49.29000 184.117
49.30000 181.861
49.31000 180.018
49.32000 178.608
49.33000 179.082
49.34000 183.041
49.35000 187.077
49.36000 187.636
49.37000 183.811
49.38000 179.975
49.39000 178.671
49.40000 179.470
49.41000 180.253
49.42000 180.166
49.43000 179.589
49.44000 178.938
49.45000 176.809
49.46000 174.102
49.47000 171.581
49.48000 172.613
49.49000 174.413
49.50000 176.035
49.51000 176.491
49.52000 176.736
49.53000 176.175
49.54000 172.135
49.55000 167.694
49.56000 164.325
49.57000 167.618
49.58000 170.548
49.59000 173.122
49.60000 174.966
49.61000 176.788
49.62000 175.839
49.63000 170.997
49.64000 166.129
49.65000 165.607
49.66000 169.134
49.67000 172.603
49.68000 171.570
49.69000 167.717
49.70000 164.026
49.71000 164.381
49.72000 166.487
49.73000 168.470
49.74000 169.901
49.75000 171.058
49.76000 171.998
49.77000 171.329
49.78000 170.333
49.79000 169.616
49.80000 170.245
49.81000 171.050
49.82000 171.677
49.83000 172.437
49.84000 173.051
49.85000 173.242
49.86000 172.476
49.87000 171.675
49.88000 170.880
49.89000 170.096
49.90000 169.313
49.91000 168.912
49.92000 170.926
49.93000 172.289
49.94000 174.863
49.95000 178.282
49.96000 181.673
49.97000 184.192
49.98000 186.294
49.99000 188.293
50.00000 184.325
50.01000 178.824
50.02000 173.767
50.03000 172.466
50.04000 172.016
50.05000 171.165
50.06000 168.150
50.07000 164.813
50.08000 162.149
50.09000 168.290
50.10000 173.894
50.11000 177.803
50.12000 177.466
50.13000 176.927
50.14000 177.580
50.15000 180.298
50.16000 183.052
50.17000 184.541
50.18000 186.958
50.19000 188.603
50.20000 187.715
50.21000 184.863
50.22000 182.081
50.23000 182.269
50.24000 184.029
50.25000 185.719
50.26000 183.667
50.27000 180.464
50.28000 177.311
50.29000 174.633
50.30000 172.076
50.31000 170.496
50.32000 174.827
50.33000 180.152
50.34000 184.501
50.35000 188.786
50.36000 192.286
50.37000 193.862
50.38000 190.111
50.39000 186.049
50.40000 182.982
50.41000 181.823
50.42000 180.712
50.43000 180.080
50.44000 187.018
50.45000 191.873
50.46000 196.315
50.47000 200.399
50.48000 204.484
50.49000 208.667
50.50000 212.907
50.51000 217.011
50.52000 218.564
50.53000 219.053
50.54000 219.756
50.55000 222.862
50.56000 226.641
50.57000 230.283
50.58000 232.996
50.59000 235.534
50.60000 237.650
50.61000 242.293
50.62000 246.396
50.63000 248.832
50.64000 246.161
50.65000 243.134
50.66000 241.585
50.67000 243.169
50.68000 244.856
50.69000 245.861
50.70000 243.009
50.71000 240.966
50.72000 245.606
50.73000 256.738
50.74000 267.749
50.75000 267.886
50.76000 260.949
50.77000 254.185
50.78000 253.988
50.79000 256.612
50.80000 258.930
50.81000 257.207
50.82000 254.230
50.83000 251.372
50.84000 249.427
50.85000 247.676
50.86000 246.187
50.87000 248.347
50.88000 250.583
50.89000 250.110
50.90000 240.444
50.91000 230.021
50.92000 223.044
50.93000 224.151
50.94000 225.593
50.95000 226.489
50.96000 220.578
50.97000 216.254
50.98000 212.921
50.99000 210.671
51.00000 208.431
51.01000 207.822
51.02000 208.391
51.03000 208.950
51.04000 204.973
51.05000 198.970
51.06000 193.154
51.07000 190.268
51.08000 188.388
51.09000 186.921
51.10000 189.110
51.11000 192.159
51.12000 194.802
51.13000 182.750
51.14000 170.548
51.15000 162.780
51.16000 171.698
51.17000 182.217
51.18000 188.587
51.19000 184.192
51.20000 179.244
51.21000 176.042
51.22000 174.066
51.23000 172.639
51.24000 172.957
51.25000 175.409
51.26000 177.859
51.27000 178.028
51.28000 176.357
51.29000 174.708
51.30000 176.668
51.31000 180.501
51.32000 184.231
51.33000 186.008
51.34000 187.043
51.35000 187.494
51.36000 181.981
51.37000 174.906
51.38000 168.672
51.39000 168.345
51.40000 168.955
51.41000 169.252
51.42000 168.234
51.43000 167.071
51.44000 168.067
51.45000 175.258
51.46000 182.834
51.47000 187.920
51.48000 179.462
51.49000 172.904
51.50000 168.073
51.51000 165.592
51.52000 163.129
51.53000 165.953
51.54000 173.544
51.55000 181.068
51.56000 183.205
51.57000 182.089
51.58000 180.876
51.59000 177.423
51.60000 173.028
51.61000 168.836
51.62000 167.065
51.63000 165.999
51.64000 165.043
51.65000 162.636
51.66000 160.285
51.67000 158.323
51.68000 158.170
51.69000 158.246
51.70000 159.291
51.71000 163.418
51.72000 167.773
51.73000 170.799
51.74000 167.432
51.75000 164.722
51.76000 163.751
51.77000 165.415
51.78000 167.107
51.79000 168.307
51.80000 169.009
51.81000 169.708
51.82000 170.618
51.83000 171.658
51.84000 172.640
51.85000 171.923
51.86000 170.416
51.87000 168.858
51.88000 166.594
51.89000 164.103
51.90000 161.840
51.91000 160.560
51.92000 159.619
51.93000 158.852
51.94000 158.986
51.95000 159.250
51.96000 159.973
51.97000 162.315
51.98000 164.797
51.99000 166.579
52.00000 161.639
52.01000 157.630
52.02000 155.633
52.03000 157.018
52.04000 158.458
52.05000 159.546
52.06000 160.234
52.07000 160.919
52.08000 162.817
52.09000 165.605
52.10000 168.301
52.11000 167.432
52.12000 164.728
52.13000 162.278
52.14000 164.070
52.15000 167.374
52.16000 170.416
52.17000 167.532
52.18000 163.657
52.19000 161.065
52.20000 165.979
52.21000 172.112
52.22000 176.202
52.23000 172.303
52.24000 167.596
52.25000 164.116
52.26000 164.571
52.27000 165.092
52.28000 163.534
52.29000 158.102
52.30000 152.582
52.31000 150.927
52.32000 154.183
52.33000 157.453
52.34000 160.286
52.35000 162.747
52.36000 165.127
52.37000 163.115
52.38000 158.605
52.39000 154.275
52.40000 153.619
52.41000 154.411
52.42000 155.149
52.43000 156.038
52.44000 156.880
52.45000 157.669
52.46000 158.112
52.47000 158.492
52.48000 159.332
52.49000 162.173
52.50000 165.246
52.51000 167.583
52.52000 162.355
52.53000 157.848
52.54000 156.447
52.55000 161.447
52.56000 166.641
52.57000 168.000
52.58000 163.929
52.59000 159.819
52.60000 158.089
52.61000 158.594
52.62000 159.118
52.63000 161.194
52.64000 164.250
52.65000 167.103
52.66000 164.810
52.67000 160.274
52.68000 156.000
52.69000 151.742
52.70000 147.848
52.71000 144.807
52.72000 148.149
52.73000 152.796
52.74000 156.710
52.75000 157.067
52.76000 156.953
52.77000 156.864
52.78000 160.307
52.79000 163.273
52.80000 165.982
52.81000 168.102
52.82000 170.199
52.83000 168.256
52.84000 159.957
52.85000 151.581
52.86000 147.278
52.87000 149.978
52.88000 151.796
52.89000 153.609
52.90000 155.419
52.91000 157.207
52.92000 158.276
52.93000 158.998
52.94000 159.685
52.95000 158.535
52.96000 156.903
52.97000 155.930
52.98000 160.582
52.99000 166.517
53.00000 170.922
53.01000 167.016
53.02000 161.860
53.03000 157.737
53.04000 153.250
53.05000 149.596
53.06000 146.704
53.07000 145.731
53.08000 144.852
53.09000 145.064
53.10000 147.182
53.11000 149.335
53.12000 150.502
53.13000 149.278
53.14000 148.449
53.15000 151.173
53.16000 156.671
53.17000 162.124
53.18000 165.603
53.19000 168.029
53.20000 170.359
53.21000 165.040
53.22000 157.414
53.23000 150.694
53.24000 152.842
53.25000 157.244
53.26000 161.206
53.27000 162.488
53.28000 163.315
53.29000 163.992
53.30000 157.662
53.31000 151.867
53.32000 149.269
53.33000 155.585
53.34000 162.427
53.35000 165.495
53.36000 161.274
53.37000 156.870
53.38000 154.357
53.39000 155.082
53.40000 155.602
53.41000 159.548
53.42000 166.485
53.43000 173.287
53.44000 171.862
53.45000 165.577
53.46000 159.490
53.47000 162.208
53.48000 168.183
53.49000 173.439
53.50000 170.530
53.51000 165.316
53.52000 160.930
53.53000 162.246
53.54000 164.647
53.55000 166.653
53.56000 163.516
53.57000 160.392
53.58000 157.339
53.59000 154.505
53.60000 151.687
53.61000 151.182
53.62000 155.624
53.63000 160.230
53.64000 162.982
53.65000 160.253
53.66000 158.283
53.67000 157.772
53.68000 158.691
53.69000 159.587
53.70000 158.412
53.71000 155.880
53.72000 153.409
53.73000 152.765
53.74000 152.938
53.75000 153.188
53.76000 154.470
53.77000 156.075
53.78000 157.420
53.79000 156.737
53.80000 155.621
53.81000 154.671
53.82000 160.218
53.83000 165.641
53.84000 167.954
53.85000 159.638
53.86000 150.438
53.87000 145.838
53.88000 152.107
53.89000 158.836
53.90000 163.031
53.91000 156.323
53.92000 151.376
53.93000 148.584
53.94000 148.163
53.95000 147.754
53.96000 149.054
53.97000 151.600
53.98000 154.099
53.99000 155.550
54.00000 156.443
54.01000 157.051
54.02000 153.129
54.03000 147.640
54.04000 143.133
54.05000 147.428
54.06000 153.812
54.07000 159.351
54.08000 156.649
54.09000 153.246
54.10000 150.949
54.11000 152.846
54.12000 155.150
54.13000 157.391
54.14000 159.469
54.15000 161.538
54.16000 162.880
54.17000 160.384
54.18000 158.499
54.19000 156.178
54.20000 153.321
54.21000 150.469
54.22000 150.135
54.23000 151.847
54.24000 153.536
54.25000 152.650
54.26000 150.403
54.27000 148.256
54.28000 148.055
54.29000 148.598
54.30000 149.012
54.31000 148.087
54.32000 146.809
54.33000 145.682
54.34000 146.955
54.35000 148.420
54.36000 150.092
54.37000 152.643
54.38000 155.292
54.39000 156.882
54.40000 155.411
54.41000 153.746
54.42000 152.626
54.43000 153.560
54.44000 154.297
54.45000 155.229
54.46000 156.430
54.47000 157.633
54.48000 158.967
54.49000 160.420
54.50000 161.859
54.51000 160.970
54.52000 158.698
54.53000 156.451
54.54000 154.797
54.55000 153.395
54.56000 152.189
54.57000 153.346
54.58000 155.195
54.59000 156.853
54.60000 158.020
54.61000 158.955
54.62000 159.509
54.63000 158.270
54.64000 156.803
54.65000 156.045
54.66000 157.557
54.67000 159.241
54.68000 160.413
54.69000 159.932
54.70000 159.524
54.71000 159.265
54.72000 159.233
54.73000 159.205
54.74000 159.544
54.75000 160.261
54.76000 160.973
54.77000 159.602
54.78000 156.846
54.79000 154.284
54.80000 157.576
54.81000 163.608
54.82000 169.251
54.83000 169.394
54.84000 167.752
54.85000 166.259
54.86000 164.544
54.87000 162.984
54.88000 161.601
54.89000 161.146
54.90000 160.825
54.91000 160.527
54.92000 160.306
54.93000 160.092
54.94000 159.938
54.95000 157.578
54.96000 155.693
54.97000 155.371
54.98000 157.693
54.99000 160.060
55.00000 161.914
55.01000 163.183
55.02000 164.447
55.03000 165.196
55.04000 165.551
55.05000 165.785
55.06000 161.211
55.07000 154.147
55.08000 147.751
55.09000 152.674
55.10000 161.659
55.11000 169.938
55.12000 165.502
55.13000 158.727
55.14000 153.491
55.15000 157.335
55.16000 162.667
55.17000 166.282
55.18000 163.134
55.19000 159.295
55.20000 156.450
55.21000 168.197
55.22000 177.950
55.23000 180.845
55.24000 170.869
55.25000 160.596
55.26000 158.076
55.27000 165.488
55.28000 172.930
55.29000 176.249
55.30000 176.083
55.31000 175.935
55.32000 176.741
55.33000 178.094
55.34000 179.302
55.35000 177.489
55.36000 174.479
55.37000 171.670
55.38000 170.844
55.39000 170.587
55.40000 170.674
55.41000 173.051
55.42000 175.849
55.43000 178.787
55.44000 182.338
55.45000 185.960
55.46000 188.720
55.47000 187.272
55.48000 185.910
55.49000 185.979
55.50000 189.019
55.51000 192.151
55.52000 193.001
55.53000 190.594
55.54000 188.163
55.55000 187.693
55.56000 189.079
55.57000 190.524
55.58000 196.691
55.59000 205.863
55.60000 214.812
55.61000 218.025
55.62000 218.719
55.63000 219.374
55.64000 225.101
55.65000 231.761
55.66000 237.930
55.67000 240.394
55.68000 242.095
55.69000 244.579
55.70000 250.896
55.71000 257.726
55.72000 263.065
55.73000 269.655
55.74000 274.994
55.75000 284.058
55.76000 301.674
55.77000 319.629
55.78000 331.520
55.79000 333.799
55.80000 335.957
55.81000 337.070
55.82000 361.262
55.83000 377.590
55.84000 397.795
55.85000 420.740
55.86000 443.397
55.87000 456.549
55.88000 465.089
55.89000 473.225
55.90000 479.112
55.91000 483.866
55.92000 489.488
55.93000 502.578
55.94000 517.386
55.95000 530.193
55.96000 532.035
55.97000 532.215
55.98000 532.359
55.99000 537.966
56.00000 542.912
56.01000 544.932
56.02000 539.520
56.03000 533.742
56.04000 524.680
56.05000 509.846
56.06000 494.904
56.07000 486.769
56.08000 497.401
56.09000 504.670
56.10000 496.677
56.11000 476.671
56.12000 456.750
56.13000 440.659
56.14000 426.624
56.15000 413.131
56.16000 401.102
56.17000 390.343
56.18000 380.262
56.19000 376.892
56.20000 375.240
56.21000 371.900
56.22000 358.169
56.23000 342.660
56.24000 329.956
56.25000 322.515
56.26000 316.877
56.27000 312.113
56.28000 309.803
56.29000 307.641
56.30000 299.936
56.31000 281.448
56.32000 262.682
56.33000 251.943
56.34000 247.930
56.35000 245.149
56.36000 240.126
56.37000 233.131
56.38000 226.197
56.39000 223.129
56.40000 222.361
56.41000 221.617
56.42000 216.564
56.43000 210.100
56.44000 203.973
56.45000 201.714
56.46000 200.554
56.47000 199.824
56.48000 202.085
56.49000 204.921
56.50000 207.292
56.51000 203.266
56.52000 199.266
56.53000 195.904
56.54000 194.524
56.55000 193.286
56.56000 189.279
56.57000 179.310
56.58000 169.140
56.59000 163.045
56.60000 172.233
56.61000 178.858
56.62000 178.927
56.63000 172.522
56.64000 166.176
56.65000 165.719
56.66000 169.148
56.67000 172.496
56.68000 171.247
56.69000 168.053
56.70000 164.836
56.71000 161.318
56.72000 157.705
56.73000 154.414
56.74000 153.678
56.75000 153.489
56.76000 153.328
56.77000 155.117
56.78000 156.852
56.79000 158.349
56.80000 159.024
56.81000 159.630
56.82000 158.608
56.83000 153.708
56.84000 148.641
56.85000 145.473
56.86000 154.157
56.87000 160.550
56.88000 161.932
56.89000 157.755
56.90000 153.593
56.91000 152.622
56.92000 153.992
56.93000 155.339
56.94000 152.066
56.95000 146.662
56.96000 141.671
56.97000 143.329
56.98000 147.306
56.99000 150.965
57.00000 151.761
57.01000 151.872
57.02000 151.968
57.03000 149.455
57.04000 146.960
57.05000 144.777
57.06000 143.785
57.07000 142.909
57.08000 143.035
57.09000 145.795
57.10000 148.695
57.11000 150.581
57.12000 153.313
57.13000 155.329
57.14000 155.952
57.15000 154.846
57.16000 153.728
57.17000 149.676
57.18000 143.223
57.19000 136.852
57.20000 139.359
57.21000 146.617
57.22000 153.631
57.23000 155.890
57.24000 156.315
57.25000 156.337
57.26000 152.148
57.27000 146.840
57.28000 142.151
57.29000 140.808
57.30000 140.164
57.31000 139.048
57.32000 135.926
57.33000 132.578
57.34000 131.017
57.35000 134.660
57.36000 138.636
57.37000 141.319
57.38000 145.285
57.39000 148.264
57.40000 148.278
57.41000 144.189
57.42000 140.076
57.43000 140.670
57.44000 145.580
57.45000 150.448
57.46000 150.230
57.47000 146.933
57.48000 143.700
57.49000 141.982
57.50000 140.909
57.51000 140.122
57.52000 142.795
57.53000 146.489
57.54000 149.803
57.55000 146.708
57.56000 142.882
57.57000 139.225
57.58000 136.364
57.59000 133.605
57.60000 132.021
57.61000 134.226
57.62000 136.718
57.63000 138.459
57.64000 137.208
57.65000 136.180
57.66000 135.620
57.67000 135.780
57.68000 135.948
57.69000 137.912
57.70000 141.726
57.71000 145.521
57.72000 146.003
57.73000 144.236
57.74000 142.510
57.75000 142.032
57.76000 142.144
57.77000 142.459
57.78000 145.695
57.79000 149.884
57.80000 153.697
57.81000 147.784
57.82000 140.631
57.83000 135.245
57.84000 139.227
57.85000 144.582
57.86000 149.044
57.87000 150.317
57.88000 151.306
57.89000 152.020
57.90000 151.959
57.91000 151.885
57.92000 149.574
57.93000 143.445
57.94000 137.252
57.95000 132.648
57.96000 129.881
57.97000 127.123
57.98000 126.549
57.99000 127.636
58.00000 128.717
58.01000 129.592
58.02000 130.358
58.03000 131.261
58.04000 134.510
58.05000 138.608
58.06000 142.387
58.07000 146.073
58.08000 149.355
58.09000 151.637
58.10000 147.968
58.11000 143.314
58.12000 139.426
58.13000 138.570
58.14000 138.028
58.15000 137.625
58.16000 140.365
58.17000 142.633
58.18000 144.239
58.19000 144.591
58.20000 144.914
58.21000 143.969
58.22000 141.389
58.23000 138.804
58.24000 137.541
58.25000 137.405
58.26000 137.262
58.27000 136.704
58.28000 135.908
58.29000 135.109
58.30000 134.258
58.31000 133.387
58.32000 132.573
58.33000 133.128
58.34000 133.974
58.35000 135.115
58.36000 138.237
58.37000 141.728
58.38000 143.754
58.39000 139.314
58.40000 134.107
58.41000 130.134
58.42000 138.341
58.43000 145.462
58.44000 148.831
58.45000 144.352
58.46000 139.625
58.47000 138.313
58.48000 141.907
58.49000 145.541
58.50000 144.079
58.51000 137.751
58.52000 131.492
58.53000 130.982
58.54000 134.158
58.55000 137.230
58.56000 137.595
58.57000 136.763
58.58000 135.978
58.59000 134.730
58.60000 133.456
58.61000 132.194
58.62000 131.023
58.63000 129.872
58.64000 128.939
58.65000 129.087
58.66000 129.381
58.67000 129.611
58.68000 130.608
58.69000 131.454
58.70000 131.644
58.71000 130.317
58.72000 128.928
58.73000 129.026
58.74000 131.496
58.75000 133.998
58.76000 135.293
58.77000 138.066
58.78000 139.944
58.79000 142.844
58.80000 146.470
58.81000 149.948
58.82000 148.435
58.83000 144.481
58.84000 140.712
58.85000 137.080
58.86000 133.755
58.87000 130.937
58.88000 132.529
58.89000 135.145
58.90000 137.376
58.91000 137.487
58.92000 137.274
58.93000 137.103
58.94000 135.823
58.95000 134.701
58.96000 134.494
58.97000 136.628
58.98000 138.878
58.99000 140.132
59.00000 139.622
59.01000 139.077
59.02000 138.780
59.03000 136.449
59.04000 134.848
59.05000 133.966
59.06000 133.656
59.07000 133.279
59.08000 129.864
59.09000 124.806
59.10000 119.940
59.11000 117.917
59.12000 117.020
59.13000 116.747
59.14000 122.734
59.15000 130.334
59.16000 136.636
59.17000 134.870
59.18000 131.714
59.19000 129.124
59.20000 132.820
59.21000 136.413
59.22000 139.540
59.23000 141.349
59.24000 143.078
59.25000 143.959
59.26000 143.179
59.27000 142.355
59.28000 141.882
59.29000 136.694
59.30000 133.052
59.31000 132.232
59.32000 133.916
59.33000 135.578
59.34000 135.748
59.35000 135.024
59.36000 134.323
59.37000 133.522
59.38000 132.724
59.39000 132.356
59.40000 136.992
59.41000 143.061
59.42000 147.951
59.43000 144.575
59.44000 139.600
59.45000 135.432
59.46000 130.498
59.47000 126.316
59.48000 124.706
59.49000 131.149
59.50000 138.175
59.51000 142.596
59.52000 141.370
59.53000 139.950
59.54000 139.097
59.55000 134.467
59.56000 131.150
59.57000 127.448
59.58000 123.362
59.59000 119.318
59.60000 119.539
59.61000 122.598
59.62000 125.584
59.63000 126.779
59.64000 127.137
59.65000 127.413
59.66000 126.556
59.67000 125.339
59.68000 124.829
59.69000 129.958
59.70000 136.307
59.71000 141.730
59.72000 139.513
59.73000 136.737
59.74000 133.994
59.75000 131.365
59.76000 128.747
59.77000 127.326
59.78000 128.778
59.79000 130.354
59.80000 131.343
59.81000 128.137
59.82000 125.776
59.83000 126.045
59.84000 129.259
59.85000 132.467
59.86000 134.431
59.87000 135.474
59.88000 136.499
59.89000 136.703
59.90000 136.499
59.91000 136.278
59.92000 135.798
59.93000 135.226
59.94000 134.999
59.95000 137.914
59.96000 141.586
59.97000 144.780
59.98000 141.630
59.99000 138.077
60.00000 135.153
60.01000 134.651
60.02000 134.389
60.03000 133.543
60.04000 131.147
60.05000 128.668
60.06000 127.051
60.07000 131.186
60.08000 134.311
60.09000 135.891
60.10000 135.536
60.11000 135.172
60.12000 133.530
60.13000 130.835
60.14000 128.172
60.15000 129.595
60.16000 133.214
60.17000 136.611
60.18000 135.605
60.19000 132.888
60.20000 130.344
60.21000 129.622
60.22000 129.388
60.23000 129.181
60.24000 135.581
60.25000 142.137
60.26000 146.846
60.27000 143.636
60.28000 139.524
60.29000 135.200
60.30000 130.252
60.31000 125.263
60.32000 121.889
60.33000 124.692
60.34000 126.915
60.35000 129.443
60.36000 132.397
60.37000 135.354
60.38000 137.480
60.39000 138.840
60.40000 140.189
60.41000 138.503
60.42000 134.994
60.43000 131.630
60.44000 131.812
60.45000 133.517
60.46000 135.001
60.47000 133.756
60.48000 131.702
60.49000 129.857
60.50000 132.148
60.51000 134.882
60.52000 136.997
60.53000 136.154
60.54000 134.926
60.55000 134.366
60.56000 135.970
60.57000 137.741
60.58000 138.980
60.59000 133.910
60.60000 129.897
60.61000 130.237
60.62000 137.322
60.63000 144.485
60.64000 144.816
60.65000 138.049
60.66000 131.315
60.67000 131.803
60.68000 137.218
60.69000 142.426
60.70000 141.127
60.71000 136.738
60.72000 132.622
60.73000 132.473
60.74000 133.629
60.75000 134.682
60.76000 134.034
60.77000 133.122
60.78000 132.076
60.79000 130.315
60.80000 128.448
60.81000 128.668
60.82000 136.398
60.83000 144.803
60.84000 150.875
60.85000 146.689
60.86000 143.107
60.87000 138.190
60.88000 130.975
60.89000 123.721
60.90000 121.128
60.91000 123.965
60.92000 126.804
60.93000 128.583
60.94000 129.541
60.95000 130.451
60.96000 129.341
60.97000 127.168
60.98000 125.255
60.99000 127.854
61.00000 132.096
61.01000 136.011
61.02000 134.591
61.03000 132.120
61.04000 130.498
61.05000 133.972
61.06000 138.295
61.07000 141.641
61.08000 141.076
61.09000 140.104
61.10000 139.381
61.11000 138.150
61.12000 137.170
61.13000 135.680
61.14000 133.220
61.15000 130.737
61.16000 129.852
61.17000 131.047
61.18000 132.250
61.19000 133.022
61.20000 133.423
61.21000 133.839
61.22000 135.124
61.23000 136.915
61.24000 138.663
61.25000 139.490
61.26000 139.946
61.27000 140.372
61.28000 141.255
61.29000 142.172
61.30000 142.903
61.31000 142.381
61.32000 141.625
61.33000 140.499
61.34000 137.728
61.35000 134.760
61.36000 132.491
61.37000 131.660
61.38000 131.083
61.39000 131.703
61.40000 134.846
61.41000 138.070
61.42000 138.970
61.43000 136.507
61.44000 134.016
61.45000 135.022
61.46000 139.396
61.47000 143.769
61.48000 147.961
61.49000 152.037
61.50000 156.033
61.51000 157.874
61.52000 158.755
61.53000 159.588
61.54000 170.078
61.55000 182.438
61.56000 195.152
61.57000 210.584
61.58000 226.586
61.59000 241.503
61.60000 251.028
61.61000 259.819
61.62000 266.716
61.63000 267.162
61.64000 267.099
61.65000 269.096
61.66000 275.893
61.67000 282.886
61.68000 286.573
61.69000 284.942
61.70000 283.240
61.71000 282.355
61.72000 289.947
61.73000 295.015
61.74000 290.700
61.75000 279.650
61.76000 268.646
61.77000 259.210
61.78000 250.546
61.79000 242.280
61.80000 229.133
61.81000 215.384
61.82000 202.242
61.83000 194.426
61.84000 187.855
61.85000 180.868
61.86000 171.565
61.87000 161.905
61.88000 154.142
61.89000 149.773
61.90000 146.494
61.91000 144.467
61.92000 145.668
61.93000 147.032
61.94000 147.579
61.95000 146.665
61.96000 145.723
61.97000 145.206
61.98000 141.298
61.99000 138.616
62.00000 139.902
62.01000 144.362
62.02000 148.737
62.03000 149.128
62.04000 147.347
62.05000 145.634
62.06000 143.084
62.07000 140.396
62.08000 138.203
62.09000 141.024
62.10000 145.148
62.11000 148.235
62.12000 144.824
62.13000 140.282
62.14000 136.551
62.15000 136.052
62.16000 135.934
62.17000 136.075
62.18000 136.956
62.19000 137.882
62.20000 138.685
62.21000 139.243
62.22000 139.794
62.23000 140.112
62.24000 134.387
62.25000 130.358
62.26000 130.109
62.27000 133.239
62.28000 136.331
62.29000 136.878
62.30000 135.889
62.31000 134.929
62.32000 135.018
62.33000 135.517
62.34000 135.777
62.35000 133.219
62.36000 129.850
62.37000 127.213
62.38000 129.774
62.39000 133.347
62.40000 136.345
62.41000 138.985
62.42000 141.146
62.43000 142.127
62.44000 139.390
62.45000 136.381
62.46000 134.748
62.47000 136.118
62.48000 137.594
62.49000 138.484
62.50000 143.554
62.51000 147.193
62.52000 149.048
62.53000 149.111
62.54000 149.142
62.55000 145.808
62.56000 140.219
62.57000 134.758
62.58000 137.116
62.59000 142.830
62.60000 148.224
62.61000 149.189
62.62000 148.739
62.63000 148.057
62.64000 145.510
62.65000 142.556
62.66000 140.030
62.67000 139.909
62.68000 140.096
62.69000 141.822
62.70000 148.925
62.71000 156.491
62.72000 159.750
62.73000 152.612
62.74000 145.014
62.75000 140.235
62.76000 135.944
62.77000 132.846
62.78000 133.991
62.79000 139.922
62.80000 145.840
62.81000 148.336
62.82000 148.281
62.83000 148.227
62.84000 146.230
62.85000 143.340
62.86000 140.513
62.87000 138.729
62.88000 137.313
62.89000 136.281
62.90000 138.784
62.91000 142.145
62.92000 145.071
62.93000 146.139
62.94000 146.795
62.95000 147.100
62.96000 146.041
62.97000 144.845
62.98000 144.656
62.99000 147.155
63.00000 149.800
63.01000 151.530
63.02000 149.202
63.03000 147.425
63.04000 145.334
63.05000 142.845
63.06000 140.361
63.07000 140.584
63.08000 143.059
63.09000 145.504
63.10000 147.039
63.11000 148.035
63.12000 149.042
63.13000 150.290
63.14000 151.632
63.15000 152.872
63.16000 153.033
63.17000 152.903
63.18000 152.787
63.19000 153.417
63.20000 154.078
63.21000 154.124
63.22000 151.520
63.23000 148.611
63.24000 147.766
63.25000 153.020
63.26000 158.674
63.27000 162.508
63.28000 157.358
63.29000 153.319
63.30000 152.014
63.31000 154.553
63.32000 157.117
63.33000 157.851
63.34000 156.880
63.35000 155.916
63.36000 152.549
63.37000 147.759
63.38000 143.117
63.39000 142.139
63.40000 142.747
63.41000 143.520
63.42000 146.350
63.43000 149.796
63.44000 152.894
63.45000 151.857
63.46000 150.215
63.47000 149.162
63.48000 150.950
63.49000 153.112
63.50000 154.644
63.51000 154.120
63.52000 153.436
63.53000 152.956
63.54000 151.922
63.55000 151.124
63.56000 148.658
63.57000 143.588
63.58000 138.486
63.59000 138.902
63.60000 145.099
63.61000 151.267
63.62000 153.371
63.63000 152.653
63.64000 151.976
63.65000 152.594
63.66000 153.832
63.67000 154.871
63.68000 152.984
63.69000 150.126
63.70000 147.520
63.71000 143.712
63.72000 140.094
63.73000 138.188
63.74000 145.507
63.75000 154.200
63.76000 160.119
63.77000 155.975
63.78000 150.915
63.79000 147.252
63.80000 155.779
63.81000 162.773
63.82000 166.903
63.83000 166.073
63.84000 165.154
63.85000 162.271
63.86000 157.080
63.87000 151.898
63.88000 150.100
63.89000 150.921
63.90000 151.713
63.91000 151.279
63.92000 150.197
63.93000 149.329
63.94000 152.249
63.95000 156.559
63.96000 160.541
63.97000 161.890
63.98000 162.505
63.99000 163.125
64.00000 163.776
64.01000 164.432
64.02000 163.396
64.03000 155.547
64.04000 146.980
64.05000 140.594
64.06000 144.586
64.07000 148.166
64.08000 150.661
64.09000 151.073
64.10000 151.434
64.11000 153.532
64.12000 157.909
64.13000 162.292
64.14000 165.490
64.15000 167.658
64.16000 169.802
64.17000 170.481
64.18000 170.302
64.19000 169.886
64.20000 164.371
64.21000 156.786
64.22000 149.694
64.23000 150.939
64.24000 154.188
64.25000 157.188
64.26000 158.476
64.27000 159.442
64.28000 160.549
64.29000 162.293
64.30000 164.113
64.31000 165.507
64.32000 166.668
64.33000 167.572
64.34000 169.278
64.35000 172.686
64.36000 176.150
64.37000 176.477
64.38000 172.224
64.39000 167.933
64.40000 165.233
64.41000 164.079
64.42000 162.965
64.43000 165.497
64.44000 170.401
64.45000 175.058
64.46000 173.027
64.47000 167.996
64.48000 163.241
64.49000 164.187
64.50000 166.682
64.51000 168.920
64.52000 169.157
64.53000 168.971
64.54000 168.896
64.55000 169.373
64.56000 169.927
64.57000 170.362
64.58000 166.353
64.59000 162.851
64.60000 161.506
64.61000 165.220
64.62000 169.144
64.63000 169.966
64.64000 165.760
64.65000 161.484
64.66000 159.252
64.67000 167.502
64.68000 173.077
64.69000 177.240
64.70000 180.382
64.71000 183.362
64.72000 180.642
64.73000 175.094
64.74000 169.798
64.75000 173.017
64.76000 178.726
64.77000 183.552
64.78000 180.542
64.79000 175.687
64.80000 172.159
64.81000 176.080
64.82000 181.161
64.83000 185.250
64.84000 181.882
64.85000 178.569
64.86000 176.649
64.87000 178.347
64.88000 180.230
64.89000 181.775
64.90000 182.711
64.91000 183.636
64.92000 184.145
64.93000 186.448
64.94000 188.035
64.95000 188.676
64.96000 188.554
64.97000 188.500
64.98000 191.681
64.99000 196.639
65.00000 201.413
65.01000 203.578
65.02000 204.679
65.03000 205.434
65.04000 202.655
65.05000 198.950
65.06000 195.992
65.07000 197.750
65.08000 200.334
65.09000 202.461
65.10000 200.640
65.11000 198.784
65.12000 196.476
65.13000 192.870
65.14000 189.183
65.15000 190.938
65.16000 203.517
65.17000 216.393
65.18000 223.837
65.19000 215.033
65.20000 208.802
65.21000 210.989
65.22000 220.768
65.23000 230.460
65.24000 234.153
65.25000 234.197
65.26000 234.240
65.27000 237.907
65.28000 242.833
65.29000 247.606
65.30000 250.562
65.31000 252.990
65.32000 255.301
65.33000 256.781
65.34000 258.097
65.35000 259.203
65.36000 268.070
65.37000 276.277
65.38000 284.729
65.39000 293.961
65.40000 303.250
65.41000 310.246
65.42000 312.197
65.43000 313.968
65.44000 315.039
65.45000 323.068
65.46000 328.840
65.47000 334.837
65.48000 341.061
65.49000 347.286
65.50000 353.698
65.51000 360.236
65.52000 366.627
65.53000 374.721
65.54000 383.235
65.55000 391.600
65.56000 397.865
65.57000 403.453
65.58000 409.165
65.59000 415.883
65.60000 422.821
65.61000 428.764
65.62000 430.678
65.63000 431.804
65.64000 435.514
65.65000 448.323
65.66000 461.925
65.67000 481.530
65.68000 515.740
65.69000 550.606
65.70000 572.599
65.71000 622.049
65.72000 658.175
65.73000 701.241
65.74000 752.200
65.75000 803.165
65.76000 853.644
65.77000 903.759
65.78000 953.037
65.79000 991.733
65.80000 1023.896
65.81000 1055.619
65.82000 1079.969
65.83000 1101.692
65.84000 1122.248
65.85000 1131.928
65.86000 1138.947
65.87000 1145.067
65.88000 1145.932
65.89000 1145.942
65.90000 1141.953
65.91000 1122.335
65.92000 1101.137
65.93000 1072.431
65.94000 1023.528
65.95000 973.511
65.96000 940.710
65.97000 839.956
65.98000 764.731
65.99000 699.261
66.00000 646.191
66.01000 593.179
66.02000 547.769
66.03000 508.735
66.04000 470.159
66.05000 438.574
66.06000 411.645
66.07000 385.149
66.08000 367.457
66.09000 353.235
66.10000 340.136
66.11000 339.128
66.12000 341.408
66.13000 343.428
66.14000 334.372
66.15000 324.780
66.16000 316.972
66.17000 316.918
66.18000 317.766
66.19000 317.315
66.20000 313.000
66.21000 308.428
66.22000 305.320
66.23000 320.373
66.24000 332.022
66.25000 340.468
66.26000 344.379
66.27000 348.259
66.28000 357.481
66.29000 371.722
66.30000 385.855
66.31000 395.297
66.32000 401.667
66.33000 408.099
66.34000 416.090
66.35000 424.759
66.36000 432.893
66.37000 434.290
66.38000 433.656
66.39000 433.086
66.40000 440.972
66.41000 449.401
66.42000 456.271
66.43000 455.575
66.44000 453.876
66.45000 449.969
66.46000 438.787
66.47000 427.033
66.48000 418.769
66.49000 423.281
66.50000 427.077
66.51000 425.935
66.52000 417.025
66.53000 408.020
66.54000 395.535
66.55000 379.375
66.56000 363.286
66.57000 351.943
66.58000 344.013
66.59000 336.134
66.60000 329.928
66.61000 324.528
66.62000 319.680
66.63000 323.053
66.64000 329.169
66.65000 334.753
66.66000 332.679
66.67000 329.287
66.68000 326.666
66.69000 328.233
66.70000 330.429
66.71000 330.720
66.72000 324.046
66.73000 316.731
66.74000 311.424
66.75000 322.229
66.76000 331.134
66.77000 337.328
66.78000 338.791
66.79000 340.168
66.80000 336.178
66.81000 325.834
66.82000 315.501
66.83000 315.172
66.84000 322.619
66.85000 329.965
66.86000 332.942
66.87000 333.587
66.88000 334.220
66.89000 334.607
66.90000 334.903
66.91000 335.177
66.92000 334.468
66.93000 333.606
66.94000 333.508
66.95000 338.068
66.96000 343.418
66.97000 348.228
66.98000 350.848
66.99000 353.235
67.00000 355.018
67.01000 350.509
67.02000 346.704
67.03000 345.656
67.04000 349.931
67.05000 354.340
67.06000 358.860
67.07000 363.525
67.08000 368.188
67.09000 366.786
67.10000 360.101
67.11000 353.551
67.12000 355.261
67.13000 361.851
67.14000 368.208
67.15000 369.434
67.16000 368.566
67.17000 367.753
67.18000 370.185
67.19000 373.228
67.20000 376.331
67.21000 379.858
67.22000 383.464
67.23000 386.423
67.24000 386.454
67.25000 386.128
67.26000 385.877
67.27000 392.427
67.28000 397.983
67.29000 400.121
67.30000 394.950
67.31000 389.536
67.32000 385.139
67.33000 382.237
67.34000 379.347
67.35000 380.969
67.36000 387.009
67.37000 393.048
67.38000 398.899
67.39000 404.627
67.40000 410.266
67.41000 413.423
67.42000 415.459
67.43000 417.385
67.44000 419.804
67.45000 422.169
67.46000 424.228
67.47000 423.891
67.48000 423.044
67.49000 421.633
67.50000 417.374
67.51000 412.720
67.52000 409.055
67.53000 420.143
67.54000 430.011
67.55000 437.600
67.56000 439.801
67.57000 441.774
67.58000 441.784
67.59000 438.590
67.60000 435.350
67.61000 433.652
67.62000 449.090
67.63000 459.510
67.64000 462.894
67.65000 461.151
67.66000 459.362
67.67000 455.942
67.68000 451.706
67.69000 447.660
67.70000 450.060
67.71000 454.366
67.72000 458.551
67.73000 461.659
67.74000 464.511
67.75000 467.777
67.76000 473.390
67.77000 479.371
67.78000 484.194
67.79000 474.857
67.80000 466.160
67.81000 461.562
67.82000 467.674
67.83000 474.344
67.84000 478.766
67.85000 479.117
67.86000 479.384
67.87000 479.532
67.88000 490.683
67.89000 498.386
67.90000 503.210
67.91000 505.693
67.92000 508.182
67.93000 510.980
67.94000 513.948
67.95000 516.809
67.96000 525.084
67.97000 534.809
67.98000 543.866
67.99000 546.016
68.00000 546.344
68.01000 546.740
68.02000 547.570
68.03000 548.476
68.04000 549.223
68.05000 545.877
68.06000 542.746
68.07000 542.095
68.08000 548.614
68.09000 555.585
68.10000 562.803
68.11000 570.516
68.12000 578.243
68.13000 582.725
68.14000 585.493
68.15000 587.428
68.16000 590.479
68.17000 594.544
68.18000 598.563
68.19000 599.311
68.20000 598.056
68.21000 596.836
68.22000 604.455
68.23000 615.242
68.24000 625.311
68.25000 626.727
68.26000 625.611
68.27000 625.120
68.28000 629.128
68.29000 634.028
68.30000 638.151
68.31000 648.190
68.32000 657.192
68.33000 666.032
68.34000 674.356
68.35000 682.640
68.36000 687.150
68.37000 683.295
68.38000 679.137
68.39000 676.614
68.40000 694.952
68.41000 708.194
68.42000 722.790
68.43000 738.768
68.44000 754.714
68.45000 767.014
68.46000 776.833
68.47000 786.435
68.48000 783.357
68.49000 774.711
68.50000 768.326
68.51000 793.989
68.52000 830.047
68.53000 863.250
68.54000 873.012
68.55000 877.586
68.56000 881.508
68.57000 906.177
68.58000 929.561
68.59000 955.506
68.60000 990.538
68.61000 1026.370
68.62000 1066.316
68.63000 1116.342
68.64000 1166.827
68.65000 1198.766
68.66000 1251.878
68.67000 1290.633
68.68000 1345.281
68.69000 1418.146
68.70000 1491.005
68.71000 1558.114
68.72000 1620.868
68.73000 1682.598
68.74000 1726.839
68.75000 1760.889
68.76000 1797.070
68.77000 1869.368
68.78000 1954.630
68.79000 2036.838
68.80000 2090.289
68.81000 2136.652
68.82000 2177.124
68.83000 2289.102
68.84000 2394.944
68.85000 2515.942
68.86000 2696.638
68.87000 2883.429
68.88000 3132.371
68.89000 3549.680
68.90000 3976.410
68.91000 4257.007
68.92000 5827.190
68.93000 7005.148
68.94000 8835.525
68.95000 11501.638
68.96000 14172.635
68.97000 17871.480
68.98000 22439.344
68.99000 26955.096
69.00000 31957.428
69.01000 37112.586
69.02000 42225.902
69.03000 46475.332
69.04000 50381.840
69.05000 54134.488
69.06000 56211.445
69.07000 57829.477
69.08000 59265.348
69.09000 60065.016
69.10000 60656.355
69.11000 61229.582
69.12000 61723.398
69.13000 62207.891
69.14000 62762.332
69.15000 63526.418
69.16000 64304.602
69.17000 64835.020
69.18000 64792.895
69.19000 64748.207
69.20000 63844.328
69.21000 61714.590
69.22000 59575.434
69.23000 56738.367
69.24000 53240.066
69.25000 49767.570
69.26000 46460.324
69.27000 43310.977
69.28000 40197.223
69.29000 37999.910
69.30000 36204.824
69.31000 34464.754
69.32000 33425.199
69.33000 32598.395
69.34000 31853.426
69.35000 30957.195
69.36000 30143.521
69.37000 29237.943
69.38000 27882.822
69.39000 26467.527
69.40000 24831.143
69.41000 22460.865
69.42000 20032.209
69.43000 18320.516
69.44000 14982.643
69.45000 12402.411
69.46000 10159.497
69.47000 8451.257
69.48000 6749.749
69.49000 5457.647
69.50000 4601.633
69.51000 3749.338
69.52000 3178.238
69.53000 2809.642
69.54000 2444.716
69.55000 2201.237
69.56000 2016.706
69.57000 1836.795
69.58000 1726.552
69.59000 1639.742
69.60000 1560.418
69.61000 1474.003
69.62000 1395.805
69.63000 1323.760
69.64000 1285.422
69.65000 1252.196
69.66000 1217.098
69.67000 1175.106
69.68000 1132.474
69.69000 1101.477
69.70000 1071.561
69.71000 1048.586
69.72000 1026.591
69.73000 1006.319
69.74000 986.079
69.75000 963.042
69.76000 936.670
69.77000 910.342
69.78000 891.555
69.79000 878.769
69.80000 865.997
69.81000 853.817
69.82000 841.954
69.83000 830.134
69.84000 819.080
69.85000 808.312
69.86000 798.345
69.87000 781.261
69.88000 764.268
69.89000 747.902
69.90000 735.403
69.91000 723.564
69.92000 714.675
69.93000 717.850
69.94000 722.320
69.95000 725.667
69.96000 719.771
69.97000 714.740
69.98000 709.745
69.99000 704.824
70.00000 699.904
