20.00000 572.748
20.01000 571.408
20.02000 569.876
20.03000 568.672
20.04000 568.784
20.05000 569.033
20.06000 569.217
20.07000 572.637
20.08000 575.442
20.09000 577.678
20.10000 578.830
20.11000 579.957
20.12000 577.664
20.13000 570.924
20.14000 564.170
20.15000 566.050
20.16000 575.326
20.17000 584.454
20.18000 585.103
20.19000 580.817
20.20000 576.559
20.21000 572.892
20.22000 569.462
20.23000 566.258
20.24000 567.589
20.25000 569.939
20.26000 571.591
20.27000 568.519
20.28000 564.563
20.29000 560.438
20.30000 555.566
20.31000 550.605
20.32000 546.812
20.33000 564.226
20.34000 579.115
20.35000 587.428
20.36000 581.891
20.37000 575.910
20.38000 568.964
20.39000 560.620
20.40000 552.264
20.41000 554.702
20.42000 567.531
20.43000 580.256
20.44000 583.787
20.45000 581.385
20.46000 578.803
20.47000 571.456
20.48000 561.987
20.49000 553.042
20.50000 560.907
20.51000 572.877
20.52000 582.521
20.53000 574.285
20.54000 562.305
20.55000 552.234
20.56000 551.648
20.57000 552.354
20.58000 552.908
20.59000 556.421
20.60000 559.422
20.61000 562.322
20.62000 564.990
20.63000 567.648
20.64000 566.322
20.65000 558.589
20.66000 550.770
20.67000 546.706
20.68000 577.352
20.69000 597.918
20.70000 596.902
20.71000 580.405
20.72000 564.170
20.73000 556.963
20.74000 554.201
20.75000 551.566
20.76000 554.671
20.77000 559.370
20.78000 562.437
20.79000 551.177
20.80000 536.570
20.81000 526.547
20.82000 542.032
20.83000 561.453
20.84000 577.058
20.85000 567.890
20.86000 558.554
20.87000 552.888
20.88000 556.673
20.89000 560.936
20.90000 562.205
20.91000 558.136
20.92000 553.962
20.93000 551.673
20.94000 557.692
20.95000 561.841
20.96000 564.348
20.97000 565.544
20.98000 566.712
20.99000 566.626
21.00000 565.855
21.01000 565.113
21.02000 563.906
21.03000 562.609
21.04000 562.152
21.05000 570.196
21.06000 580.447
21.07000 587.523
21.08000 574.714
21.09000 558.448
21.10000 545.084
21.11000 546.884
21.12000 549.726
21.13000 552.765
21.14000 556.362
21.15000 559.993
21.16000 559.839
21.17000 552.213
21.18000 544.387
21.19000 539.878
21.20000 548.845
21.21000 555.171
21.22000 557.947
21.23000 557.547
21.24000 557.208
21.25000 560.901
21.26000 567.028
21.27000 572.972
21.28000 571.566
21.29000 567.326
21.30000 563.502
21.31000 564.571
21.32000 567.051
21.33000 569.305
21.34000 569.949
21.35000 570.280
21.36000 570.558
21.37000 566.232
21.38000 562.151
21.39000 559.447
21.40000 561.089
21.41000 563.048
21.42000 565.807
21.43000 570.309
21.44000 574.872
21.45000 577.624
21.46000 581.739
21.47000 584.677
21.48000 585.959
21.49000 585.578
21.50000 585.194
21.51000 584.550
21.52000 583.732
21.53000 582.933
21.54000 584.376
21.55000 586.748
21.56000 589.189
21.57000 592.589
21.58000 596.295
21.59000 599.643
21.60000 600.107
21.61000 599.942
21.62000 599.801
21.63000 601.578
21.64000 603.307
21.65000 604.504
21.66000 603.840
21.67000 603.016
21.68000 605.449
21.69000 615.747
21.70000 626.392
21.71000 633.087
21.72000 656.380
21.73000 673.412
21.74000 684.004
21.75000 687.332
21.76000 690.702
21.77000 703.340
21.78000 722.885
21.79000 742.096
21.80000 751.546
21.81000 755.865
21.82000 760.858
21.83000 776.964
21.84000 797.001
21.85000 814.973
21.86000 813.902
21.87000 808.210
21.88000 803.253
21.89000 813.237
21.90000 823.820
21.91000 833.120
21.92000 837.449
21.93000 841.280
21.94000 847.565
21.95000 860.396
21.96000 873.584
21.97000 882.208
21.98000 879.858
21.99000 877.953
22.00000 868.931
22.01000 850.937
22.02000 832.949
22.03000 831.850
22.04000 844.799
22.05000 857.592
22.06000 850.675
22.07000 833.075
22.08000 815.778
22.09000 804.571
22.10000 795.746
22.11000 786.756
22.12000 776.007
22.13000 764.783
22.14000 754.846
22.15000 752.316
22.16000 751.288
22.17000 745.892
22.18000 721.648
22.19000 695.235
22.20000 676.953
22.21000 682.682
22.22000 689.984
22.23000 694.936
22.24000 672.986
22.25000 656.021
22.26000 645.064
22.27000 642.546
22.28000 640.085
22.29000 633.189
22.30000 622.162
22.31000 611.222
22.32000 607.877
22.33000 609.265
22.34000 610.376
22.35000 604.583
22.36000 595.804
22.37000 587.527
22.38000 585.496
22.39000 585.333
22.40000 585.187
22.41000 587.786
22.42000 590.550
22.43000 590.913
22.44000 579.720
22.45000 567.009
22.46000 557.868
22.47000 560.404
22.48000 563.847
22.49000 566.262
22.50000 566.878
22.51000 567.292
22.52000 565.736
22.53000 561.105
22.54000 556.437
22.55000 553.909
22.56000 553.622
22.57000 553.336
22.58000 554.413
22.59000 556.418
22.60000 558.426
22.61000 560.553
22.62000 562.739
22.63000 564.432
22.64000 558.899
22.65000 550.971
22.66000 543.741
22.67000 536.972
22.68000 531.063
22.69000 525.796
22.70000 523.987
22.71000 522.693
22.72000 522.977
22.73000 528.983
22.74000 535.509
22.75000 540.233
22.76000 534.788
22.77000 530.234
22.78000 527.331
22.79000 527.287
22.80000 527.293
22.81000 525.245
22.82000 520.785
22.83000 516.332
22.84000 518.438
22.85000 525.586
22.86000 532.528
22.87000 530.703
22.88000 524.239
22.89000 518.074
22.90000 517.185
22.91000 518.231
22.92000 519.197
22.93000 513.170
22.94000 506.181
22.95000 501.848
22.96000 513.586
22.97000 528.026
22.98000 538.548
22.99000 533.293
23.00000 526.378
23.01000 521.223
23.02000 519.272
23.03000 517.898
23.04000 514.823
23.05000 508.489
23.06000 502.073
23.07000 502.120
23.08000 510.635
23.09000 519.182
23.10000 522.253
23.11000 520.586
23.12000 518.973
23.13000 520.608
23.14000 524.146
23.15000 527.672
23.16000 530.945
23.17000 534.116
23.18000 537.080
23.19000 530.153
23.20000 521.349
23.21000 513.471
23.22000 511.911
23.23000 511.544
23.24000 510.390
23.25000 505.709
23.26000 500.601
23.27000 496.688
23.28000 503.381
23.29000 509.250
23.30000 514.686
23.31000 519.202
23.32000 523.688
23.33000 522.890
23.34000 514.383
23.35000 505.810
23.36000 502.182
23.37000 503.357
23.38000 504.475
23.39000 500.477
23.40000 493.153
23.41000 486.314
23.42000 492.619
23.43000 504.816
23.44000 516.346
23.45000 518.398
23.46000 517.580
23.47000 517.034
23.48000 518.595
23.49000 520.602
23.50000 522.492
23.51000 523.803
23.52000 525.033
23.53000 526.000
23.54000 525.630
23.55000 525.246
23.56000 522.113
23.57000 512.534
23.58000 502.687
23.59000 501.227
23.60000 513.355
23.61000 525.670
23.62000 532.098
23.63000 515.368
23.64000 504.082
23.65000 498.596
23.66000 497.302
23.67000 496.135
23.68000 499.423
23.69000 504.919
23.70000 510.166
23.71000 511.812
23.72000 512.191
23.73000 512.801
23.74000 515.448
23.75000 518.575
23.76000 520.114
23.77000 512.750
23.78000 503.999
23.79000 496.956
23.80000 496.968
23.81000 497.526
23.82000 498.819
23.83000 502.016
23.84000 505.311
23.85000 506.891
23.86000 505.389
23.87000 503.826
23.88000 502.965
23.89000 503.702
23.90000 504.209
23.91000 503.764
23.92000 502.551
23.93000 501.339
23.94000 500.135
23.95000 498.935
23.96000 497.780
23.97000 500.687
23.98000 504.865
23.99000 508.451
24.00000 505.980
24.01000 501.924
24.02000 498.489
24.03000 498.972
24.04000 500.141
24.05000 501.104
24.06000 507.186
24.07000 512.653
24.08000 514.747
24.09000 507.169
24.10000 498.988
24.11000 493.652
24.12000 493.971
24.13000 494.444
24.14000 494.718
24.15000 496.458
24.16000 497.683
24.17000 498.516
24.18000 498.993
24.19000 499.429
24.20000 496.966
24.21000 492.741
24.22000 488.639
24.23000 493.855
24.24000 502.521
24.25000 510.552
24.26000 511.048
24.27000 509.355
24.28000 507.577
24.29000 505.191
24.30000 502.685
24.31000 500.579
24.32000 499.855
24.33000 499.397
24.34000 499.636
24.35000 502.086
24.36000 504.699
24.37000 504.211
24.38000 496.903
24.39000 489.352
24.40000 484.785
24.41000 490.727
24.42000 495.040
24.43000 493.322
24.44000 485.499
24.45000 477.760
24.46000 479.127
24.47000 486.644
24.48000 493.990
24.49000 493.852
24.50000 490.387
24.51000 487.553
24.52000 493.562
24.53000 502.416
24.54000 510.177
24.55000 509.048
24.56000 505.966
24.57000 503.327
24.58000 496.045
24.59000 489.336
24.60000 483.562
24.61000 481.078
24.62000 478.881
24.63000 477.030
24.64000 476.018
24.65000 475.044
24.66000 474.430
24.67000 486.746
24.68000 495.813
24.69000 500.053
24.70000 498.807
24.71000 497.544
24.72000 494.253
24.73000 489.438
24.74000 484.703
24.75000 481.265
24.76000 478.584
24.77000 476.389
24.78000 482.316
24.79000 491.136
24.80000 498.624
24.81000 493.702
24.82000 485.745
24.83000 478.808
24.84000 482.730
24.85000 487.590
24.86000 493.041
24.87000 500.802
24.88000 508.795
24.89000 511.664
24.90000 500.755
24.91000 489.087
24.92000 481.435
24.93000 477.046
24.94000 473.872
24.95000 475.962
24.96000 484.738
24.97000 493.521
24.98000 493.632
24.99000 486.473
25.00000 479.397
25.01000 479.805
25.02000 484.357
25.03000 488.676
25.04000 488.250
25.05000 485.953
25.06000 484.401
25.07000 490.870
25.08000 499.518
25.09000 507.184
25.10000 498.243
25.11000 487.877
25.12000 479.984
25.13000 482.844
25.14000 486.954
25.15000 487.963
25.16000 479.754
25.17000 470.932
25.18000 464.935
25.19000 473.486
25.20000 480.197
25.21000 484.687
25.22000 486.033
25.23000 487.355
25.24000 487.828
25.25000 487.503
25.26000 487.180
25.27000 487.854
25.28000 489.135
25.29000 490.447
25.30000 492.540
25.31000 494.972
25.32000 497.094
25.33000 495.302
25.34000 492.330
25.35000 489.656
25.36000 477.526
25.37000 465.199
25.38000 456.436
25.39000 464.964
25.40000 475.785
25.41000 483.662
25.42000 481.844
25.43000 479.265
25.44000 477.451
25.45000 486.408
25.46000 493.511
25.47000 495.676
25.48000 490.075
25.49000 484.379
25.50000 479.930
25.51000 476.799
25.52000 473.681
25.53000 478.771
25.54000 489.503
25.55000 499.769
25.56000 494.947
25.57000 482.856
25.58000 471.336
25.59000 468.317
25.60000 468.135
25.61000 467.970
25.62000 469.538
25.63000 471.282
25.64000 473.081
25.65000 475.182
25.66000 477.329
25.67000 478.480
25.68000 475.991
25.69000 473.167
25.70000 471.118
25.71000 487.201
25.72000 500.236
25.73000 503.362
25.74000 489.207
25.75000 474.737
25.76000 464.860
25.77000 460.419
25.78000 455.996
25.79000 458.497
25.80000 466.365
25.81000 474.109
25.82000 476.527
25.83000 476.105
25.84000 475.855
25.85000 478.667
25.86000 482.609
25.87000 486.255
25.88000 478.308
25.89000 468.526
25.90000 461.640
25.91000 472.428
25.92000 486.212
25.93000 495.164
25.94000 484.501
25.95000 471.754
25.96000 462.233
25.97000 464.187
25.98000 466.238
25.99000 468.505
26.00000 471.186
26.01000 473.878
26.02000 474.735
26.03000 473.169
26.04000 471.593
26.05000 471.374
26.06000 472.336
26.07000 473.338
26.08000 476.727
26.09000 481.526
26.10000 485.800
26.11000 478.568
26.12000 466.636
26.13000 455.471
26.14000 452.751
26.15000 452.443
26.16000 453.091
26.17000 460.324
26.18000 468.810
26.19000 475.069
26.20000 471.262
26.21000 466.228
26.22000 462.364
26.23000 466.871
26.24000 470.900
26.25000 473.886
26.26000 474.642
26.27000 475.325
26.28000 472.360
26.29000 464.034
26.30000 455.660
26.31000 450.532
26.32000 448.581
26.33000 446.722
26.34000 453.575
26.35000 466.136
26.36000 478.375
26.37000 481.761
26.38000 481.148
26.39000 480.568
26.40000 474.176
26.41000 466.629
26.42000 460.334
26.43000 463.845
26.44000 469.443
26.45000 475.405
26.46000 483.208
26.47000 491.266
26.48000 497.611
26.49000 491.287
26.50000 485.376
26.51000 479.597
26.52000 474.129
26.53000 468.675
26.54000 464.605
26.55000 462.795
26.56000 461.018
26.57000 460.086
26.58000 463.040
26.59000 465.036
26.60000 465.975
26.61000 466.145
26.62000 466.135
26.63000 459.679
26.64000 450.004
26.65000 440.761
26.66000 441.141
26.67000 444.589
26.68000 448.634
26.69000 458.013
26.70000 468.658
26.71000 476.064
26.72000 465.142
26.73000 451.343
26.74000 440.218
26.75000 441.616
26.76000 443.737
26.77000 448.066
26.78000 458.165
26.79000 468.565
26.80000 472.824
26.81000 465.972
26.82000 458.892
26.83000 454.981
26.84000 456.044
26.85000 456.780
26.86000 454.891
26.87000 450.870
26.88000 446.952
26.89000 448.026
26.90000 451.861
26.91000 455.556
26.92000 459.255
26.93000 462.732
26.94000 465.248
26.95000 457.846
26.96000 447.828
26.97000 440.222
26.98000 447.982
26.99000 458.458
27.00000 467.092
27.01000 455.342
27.02000 443.798
27.03000 436.803
27.04000 442.951
27.05000 449.928
27.06000 457.374
27.07000 465.761
27.08000 474.173
27.09000 479.053
27.10000 485.232
27.11000 489.569
27.12000 486.624
27.13000 477.061
27.14000 467.558
27.15000 462.308
27.16000 459.664
27.17000 457.097
27.18000 455.711
27.19000 454.870
27.20000 454.137
27.21000 454.710
27.22000 455.666
27.23000 456.413
27.24000 455.659
27.25000 454.607
27.26000 453.722
27.27000 462.885
27.28000 471.596
27.29000 476.133
27.30000 467.315
27.31000 457.497
27.32000 451.249
27.33000 452.913
27.34000 454.863
27.35000 456.047
27.36000 465.495
27.37000 472.300
27.38000 470.191
27.39000 458.978
27.40000 447.787
27.41000 439.081
27.42000 432.065
27.43000 425.204
27.44000 428.508
27.45000 436.238
27.46000 443.863
27.47000 449.980
27.48000 455.610
27.49000 460.195
27.50000 456.213
27.51000 450.335
27.52000 445.295
27.53000 451.321
27.54000 457.768
27.55000 461.482
27.56000 455.505
27.57000 448.675
27.58000 442.902
27.59000 439.715
27.60000 436.645
27.61000 434.704
27.62000 443.871
27.63000 450.649
27.64000 454.235
27.65000 454.166
27.66000 454.087
27.67000 452.695
27.68000 450.311
27.69000 447.965
27.70000 448.013
27.71000 449.260
27.72000 450.119
27.73000 444.415
27.74000 436.357
27.75000 429.407
27.76000 432.887
27.77000 438.936
27.78000 444.217
27.79000 445.193
27.80000 445.424
27.81000 445.606
27.82000 445.593
27.83000 445.560
27.84000 444.009
27.85000 438.350
27.86000 432.461
27.87000 428.589
27.88000 436.400
27.89000 442.349
27.90000 445.208
27.91000 444.108
27.92000 442.996
27.93000 443.409
27.94000 445.111
27.95000 446.792
27.96000 450.665
27.97000 455.671
27.98000 460.267
27.99000 456.413
28.00000 449.206
28.01000 442.408
28.02000 440.067
28.03000 438.947
28.04000 437.953
28.05000 437.862
28.06000 437.927
28.07000 438.412
28.08000 440.735
28.09000 443.274
28.10000 446.655
28.11000 452.561
28.12000 458.636
28.13000 462.777
28.14000 453.677
28.15000 446.572
28.16000 441.546
28.17000 439.483
28.18000 437.445
28.19000 443.105
28.20000 456.057
28.21000 468.912
28.22000 468.260
28.23000 459.171
28.24000 450.403
28.25000 449.906
28.26000 453.039
28.27000 455.648
28.28000 451.599
28.29000 445.529
28.30000 440.061
28.31000 435.723
28.32000 432.122
28.33000 429.400
28.34000 430.977
28.35000 433.129
28.36000 434.166
28.37000 431.500
28.38000 428.539
28.39000 426.453
28.40000 430.330
28.41000 433.449
28.42000 435.432
28.43000 435.617
28.44000 435.778
28.45000 435.356
28.46000 434.311
28.47000 433.271
28.48000 433.146
28.49000 433.663
28.50000 434.122
28.51000 432.666
28.52000 430.281
28.53000 427.921
28.54000 425.916
28.55000 424.030
28.56000 422.307
28.57000 424.434
28.58000 427.109
28.59000 430.416
28.60000 437.181
28.61000 444.470
28.62000 448.872
28.63000 442.651
28.64000 435.443
28.65000 430.203
28.66000 433.673
28.67000 436.671
28.68000 435.158
28.69000 425.719
28.70000 416.131
28.71000 412.996
28.72000 417.560
28.73000 422.130
28.74000 425.855
28.75000 428.900
28.76000 431.846
28.77000 430.444
28.78000 426.707
28.79000 423.227
28.80000 424.412
28.81000 427.332
28.82000 430.035
28.83000 431.115
28.84000 431.712
28.85000 431.976
28.86000 430.187
28.87000 428.046
28.88000 425.812
28.89000 423.195
28.90000 420.537
28.91000 418.548
28.92000 423.491
28.93000 427.672
28.94000 428.854
28.95000 424.200
28.96000 419.396
28.97000 419.309
28.98000 425.503
28.99000 431.724
29.00000 433.252
29.01000 430.656
29.02000 428.044
29.03000 424.399
29.04000 420.140
29.05000 415.961
29.06000 413.566
29.07000 411.903
29.08000 410.346
29.09000 416.407
29.10000 423.887
29.11000 430.487
29.12000 430.965
29.13000 430.268
29.14000 429.350
29.15000 427.424
29.16000 425.373
29.17000 423.796
29.18000 430.712
29.19000 436.663
29.20000 439.369
29.21000 435.090
29.22000 430.574
29.23000 426.189
29.24000 421.997
29.25000 417.806
29.26000 422.409
29.27000 435.696
29.28000 448.878
29.29000 451.946
29.30000 448.337
29.31000 444.710
29.32000 440.578
29.33000 436.217
29.34000 432.088
29.35000 436.008
29.36000 441.948
29.37000 447.296
29.38000 447.971
29.39000 447.644
29.40000 446.319
29.41000 439.913
29.42000 432.795
29.43000 427.182
29.44000 427.007
29.45000 427.233
29.46000 425.795
29.47000 420.397
29.48000 414.829
29.49000 411.270
29.50000 411.014
29.51000 410.807
29.52000 410.698
29.53000 421.436
29.54000 428.692
29.55000 430.496
29.56000 428.299
29.57000 426.245
29.58000 429.408
29.59000 435.195
29.60000 440.726
29.61000 439.633
29.62000 436.468
29.63000 433.234
29.64000 429.391
29.65000 425.402
29.66000 423.096
29.67000 430.398
29.68000 439.221
29.69000 446.345
29.70000 451.172
29.71000 454.914
29.72000 456.096
29.73000 450.546
29.74000 444.640
29.75000 445.183
29.76000 457.478
29.77000 470.021
29.78000 476.975
29.79000 462.086
29.80000 451.795
29.81000 455.239
29.82000 469.930
29.83000 484.351
29.84000 485.317
29.85000 478.790
29.86000 472.497
29.87000 473.630
29.88000 477.388
29.89000 480.977
29.90000 482.806
29.91000 484.168
29.92000 486.303
29.93000 493.405
29.94000 501.393
29.95000 507.986
29.96000 501.621
29.97000 495.173
29.98000 492.236
29.99000 499.515
30.00000 507.448
30.01000 511.130
30.02000 506.242
30.03000 501.109
30.04000 498.122
30.05000 488.495
30.06000 481.702
30.07000 476.180
30.08000 471.822
30.09000 467.530
30.10000 468.037
30.11000 471.506
30.12000 474.878
30.13000 475.281
30.14000 474.461
30.15000 473.326
30.16000 468.354
30.17000 462.252
30.18000 456.488
30.19000 453.196
30.20000 450.397
30.21000 448.038
30.22000 447.778
30.23000 447.787
30.24000 448.231
30.25000 450.081
30.26000 452.038
30.27000 451.609
30.28000 445.857
30.29000 439.908
30.30000 436.288
30.31000 456.378
30.32000 470.914
30.33000 472.307
30.34000 460.162
30.35000 448.074
30.36000 442.753
30.37000 442.070
30.38000 441.402
30.39000 449.800
30.40000 461.960
30.41000 473.447
30.42000 475.281
30.43000 473.963
30.44000 472.033
30.45000 465.029
30.46000 456.893
30.47000 449.906
30.48000 450.893
30.49000 452.715
30.50000 457.004
30.51000 470.112
30.52000 484.003
30.53000 489.616
30.54000 474.809
30.55000 459.055
30.56000 449.062
30.57000 456.504
30.58000 462.118
30.59000 466.859
30.60000 470.591
30.61000 474.301
30.62000 472.925
30.63000 467.670
30.64000 462.499
30.65000 460.215
30.66000 459.462
30.67000 459.119
30.68000 465.806
30.69000 475.035
30.70000 483.489
30.71000 484.588
30.72000 483.861
30.73000 483.225
30.74000 491.148
30.75000 499.145
30.76000 506.182
30.77000 509.415
30.78000 512.255
30.79000 514.547
30.80000 515.340
30.81000 516.049
30.82000 516.516
30.83000 520.159
30.84000 522.899
30.85000 533.443
30.86000 554.058
30.87000 574.694
30.88000 583.182
30.89000 581.319
30.90000 579.477
30.91000 593.640
30.92000 616.501
30.93000 639.476
30.94000 664.828
30.95000 691.132
30.96000 717.732
30.97000 747.607
30.98000 778.385
30.99000 805.727
31.00000 898.169
31.01000 988.823
31.02000 1080.638
31.03000 1177.581
31.04000 1275.131
31.05000 1387.322
31.06000 1543.704
31.07000 1703.094
31.08000 1811.992
31.09000 2083.614
31.10000 2290.644
31.11000 2510.101
31.12000 2747.417
31.13000 2984.878
31.14000 3250.896
31.15000 3544.189
31.16000 3835.389
31.17000 4120.028
31.18000 4395.975
31.19000 4671.853
31.20000 4945.916
31.21000 5219.178
31.22000 5486.457
31.23000 5676.701
31.24000 5843.385
31.25000 5993.721
31.26000 6111.000
31.27000 6207.947
31.28000 6294.767
31.29000 6331.667
31.30000 6361.826
31.31000 6368.759
31.32000 6298.053
31.33000 6221.101
31.34000 6166.747
31.35000 5928.757
31.36000 5742.483
31.37000 5533.865
31.38000 5289.577
31.39000 5044.826
31.40000 4790.213
31.41000 4525.013
31.42000 4260.878
31.43000 3999.359
31.44000 3742.216
31.45000 3485.561
31.46000 3245.388
31.47000 3013.270
31.48000 2782.697
31.49000 2575.707
31.50000 2376.704
31.51000 2194.698
31.52000 2011.052
31.53000 1847.474
31.54000 1690.511
31.55000 1570.065
31.56000 1455.204
31.57000 1349.472
31.58000 1277.584
31.59000 1208.873
31.60000 1158.810
31.61000 1081.079
31.62000 1020.153
31.63000 966.024
31.64000 923.923
31.65000 882.053
31.66000 843.232
31.67000 808.076
31.68000 772.992
31.69000 739.022
31.70000 706.091
31.71000 673.599
31.72000 660.957
31.73000 659.052
31.74000 656.455
31.75000 641.124
31.76000 621.023
31.77000 602.402
31.78000 583.268
31.79000 565.937
31.80000 549.895
31.81000 541.863
31.82000 535.212
31.83000 527.484
31.84000 515.321
31.85000 502.676
31.86000 493.193
31.87000 493.151
31.88000 493.566
31.89000 491.626
31.90000 485.075
31.91000 478.402
31.92000 474.058
31.93000 472.837
31.94000 471.634
31.95000 467.033
31.96000 459.428
31.97000 451.826
31.98000 444.364
31.99000 436.986
32.00000 429.910
32.01000 429.667
32.02000 432.256
32.03000 434.682
32.04000 436.417
32.05000 437.817
32.06000 438.925
32.07000 437.990
32.08000 436.660
32.09000 435.229
32.10000 433.335
32.11000 431.383
32.12000 429.879
32.13000 425.189
32.14000 421.293
32.15000 417.650
32.16000 414.558
32.17000 411.484
32.18000 411.514
32.19000 416.176
32.20000 420.883
32.21000 422.887
32.22000 422.199
32.23000 421.516
32.24000 421.270
32.25000 421.315
32.26000 421.376
32.27000 421.892
32.28000 422.615
32.29000 423.301
32.30000 420.295
32.31000 416.448
32.32000 412.448
32.33000 407.219
32.34000 401.725
32.35000 397.743
32.36000 401.520
32.37000 406.394
32.38000 410.245
32.39000 417.943
32.40000 424.386
32.41000 427.522
32.42000 422.731
32.43000 417.595
32.44000 413.867
32.45000 412.471
32.46000 411.110
32.47000 410.391
32.48000 413.117
32.49000 414.951
32.50000 413.375
32.51000 409.275
32.52000 405.147
32.53000 399.927
32.54000 394.155
32.55000 388.634
32.56000 391.411
32.57000 396.711
32.58000 401.584
32.59000 402.568
32.60000 402.615
32.61000 402.530
32.62000 401.684
32.63000 400.717
32.64000 399.934
32.65000 397.048
32.66000 394.530
32.67000 393.590
32.68000 396.832
32.69000 400.298
32.70000 405.418
32.71000 413.572
32.72000 421.792
32.73000 426.367
32.74000 410.727
32.75000 399.885
32.76000 395.366
32.77000 396.066
32.78000 396.740
32.79000 396.061
32.80000 394.623
32.81000 393.236
32.82000 397.646
32.83000 403.915
32.84000 410.109
32.85000 415.510
32.86000 420.699
32.87000 424.992
32.88000 423.476
32.89000 420.916
32.90000 418.800
32.91000 427.587
32.92000 435.856
32.93000 441.667
32.94000 440.268
32.95000 438.402
32.96000 436.512
32.97000 434.574
32.98000 432.635
32.99000 431.503
33.00000 419.096
33.01000 410.318
33.02000 404.088
33.03000 400.212
33.04000 396.350
33.05000 393.473
33.06000 391.208
33.07000 389.007
33.08000 387.869
33.09000 387.221
33.10000 386.217
33.11000 380.845
33.12000 374.176
33.13000 368.925
33.14000 374.087
33.15000 381.345
33.16000 387.468
33.17000 379.391
33.18000 371.099
33.19000 365.951
33.20000 371.012
33.21000 376.856
33.22000 379.312
33.23000 374.156
33.24000 368.715
33.25000 365.393
33.26000 377.774
33.27000 386.756
33.28000 387.443
33.29000 379.516
33.30000 371.650
33.31000 371.438
33.32000 376.512
33.33000 381.479
33.34000 377.984
33.35000 370.771
33.36000 363.783
33.37000 360.069
33.38000 357.433
33.39000 355.109
33.40000 355.410
33.41000 356.301
33.42000 357.067
33.43000 359.704
33.44000 362.170
33.45000 364.484
33.46000 366.253
33.47000 367.973
33.48000 367.525
33.49000 361.688
33.50000 355.598
33.51000 351.723
33.52000 347.707
33.53000 344.788
33.54000 343.070
33.55000 342.753
33.56000 342.461
33.57000 347.843
33.58000 357.586
33.59000 367.178
33.60000 368.976
33.61000 366.751
33.62000 364.558
33.63000 362.920
33.64000 361.483
33.65000 360.391
33.66000 362.615
33.67000 365.668
33.68000 368.339
33.69000 362.968
33.70000 357.216
33.71000 352.622
33.72000 352.659
33.73000 353.179
33.74000 353.728
33.75000 354.362
33.76000 355.000
33.77000 355.422
33.78000 353.285
33.79000 351.663
33.80000 349.737
33.81000 347.417
33.82000 345.100
33.83000 345.826
33.84000 349.164
33.85000 352.466
33.86000 353.050
33.87000 352.075
33.88000 351.171
33.89000 351.784
33.90000 353.008
33.91000 354.427
33.92000 358.022
33.93000 362.222
33.94000 365.958
33.95000 352.919
33.96000 338.874
33.97000 328.487
33.98000 334.378
33.99000 342.215
34.00000 346.782
34.01000 341.408
34.02000 335.350
34.03000 331.200
34.04000 341.443
34.05000 349.459
34.06000 353.950
34.07000 353.335
34.08000 352.678
34.09000 351.605
34.10000 350.132
34.11000 348.669
34.12000 347.450
34.13000 346.406
34.14000 345.424
34.15000 346.114
34.16000 347.548
34.17000 348.472
34.18000 342.743
34.19000 334.966
34.20000 327.944
34.21000 333.745
34.22000 341.205
34.23000 347.782
34.24000 349.974
34.25000 351.567
34.26000 352.415
34.27000 350.752
34.28000 348.885
34.29000 347.563
34.30000 343.417
34.31000 340.178
34.32000 337.869
34.33000 337.055
34.34000 336.260
34.35000 334.399
34.36000 331.384
34.37000 328.379
34.38000 331.837
34.39000 339.855
34.40000 347.685
34.41000 349.020
34.42000 347.156
34.43000 345.001
34.44000 338.324
34.45000 330.105
34.46000 322.581
34.47000 331.469
34.48000 342.787
34.49000 351.900
34.50000 348.738
34.51000 343.682
34.52000 340.460
34.53000 344.090
34.54000 348.370
34.55000 351.496
34.56000 349.225
34.57000 347.263
34.58000 343.822
34.59000 337.745
34.60000 331.615
34.61000 329.495
34.62000 332.233
34.63000 334.977
34.64000 335.853
34.65000 335.238
34.66000 334.642
34.67000 334.951
34.68000 335.752
34.69000 336.472
34.70000 335.676
34.71000 334.308
34.72000 333.040
34.73000 334.314
34.74000 336.057
34.75000 337.216
34.76000 334.723
34.77000 331.596
34.78000 330.017
34.79000 334.868
34.80000 340.422
34.81000 344.596
34.82000 334.563
34.83000 326.035
34.84000 322.913
34.85000 330.458
34.86000 338.289
34.87000 341.302
34.88000 337.801
34.89000 334.266
34.90000 332.656
34.91000 332.766
34.92000 332.886
34.93000 333.703
34.94000 334.940
34.95000 336.113
34.96000 335.814
34.97000 334.900
34.98000 334.042
34.99000 331.759
35.00000 329.305
35.01000 326.689
35.02000 322.930
35.03000 318.948
35.04000 316.688
35.05000 322.394
35.06000 329.100
35.07000 334.276
35.08000 329.766
35.09000 325.629
35.10000 323.954
35.11000 327.656
35.12000 331.546
35.13000 334.088
35.14000 334.602
35.15000 335.096
35.16000 335.343
35.17000 325.592
35.18000 319.174
35.19000 321.811
35.20000 330.517
35.21000 339.095
35.22000 343.950
35.23000 347.087
35.24000 350.062
35.25000 345.458
35.26000 338.983
35.27000 333.530
35.28000 336.298
35.29000 340.858
35.30000 343.873
35.31000 338.901
35.32000 332.791
35.33000 327.954
35.34000 317.157
35.35000 308.067
35.36000 304.394
35.37000 313.796
35.38000 323.776
35.39000 328.645
35.40000 324.983
35.41000 321.189
35.42000 319.177
35.43000 318.138
35.44000 317.436
35.45000 317.516
35.46000 318.179
35.47000 318.896
35.48000 321.685
35.49000 325.531
35.50000 329.212
35.51000 330.967
35.52000 331.968
35.53000 332.459
35.54000 328.257
35.55000 322.915
35.56000 316.960
35.57000 307.455
35.58000 297.377
35.59000 289.213
35.60000 295.509
35.61000 301.814
35.62000 307.395
35.63000 311.043
35.64000 314.586
35.65000 318.898
35.66000 324.633
35.67000 330.400
35.68000 333.621
35.69000 327.158
35.70000 322.659
35.71000 317.371
35.72000 311.427
35.73000 305.571
35.74000 304.363
35.75000 305.781
35.76000 307.150
35.77000 314.499
35.78000 323.624
35.79000 331.672
35.80000 328.233
35.81000 321.695
35.82000 315.398
35.83000 310.670
35.84000 306.227
35.85000 302.549
35.86000 312.985
35.87000 322.938
35.88000 329.000
35.89000 323.568
35.90000 317.384
35.91000 314.071
35.92000 316.637
35.93000 319.378
35.94000 320.983
35.95000 324.045
35.96000 326.206
35.97000 323.788
35.98000 317.103
35.99000 310.444
36.00000 305.806
36.01000 302.436
36.02000 299.157
36.03000 301.114
36.04000 305.132
36.05000 309.313
36.06000 315.530
36.07000 322.358
36.08000 328.339
36.09000 328.055
36.10000 326.499
36.11000 325.184
36.12000 321.110
36.13000 317.400
36.14000 314.264
36.15000 313.004
36.16000 311.890
36.17000 311.438
36.18000 312.486
36.19000 313.590
36.20000 314.267
36.21000 319.124
36.22000 322.637
36.23000 325.425
36.24000 327.452
36.25000 329.448
36.26000 327.395
36.27000 322.526
36.28000 317.758
36.29000 313.039
36.30000 308.526
36.31000 304.050
36.32000 300.121
36.33000 296.371
36.34000 294.120
36.35000 304.520
36.36000 317.785
36.37000 329.205
36.38000 323.493
36.39000 316.492
36.40000 310.132
36.41000 306.098
36.42000 302.275
36.43000 302.312
36.44000 312.009
36.45000 322.167
36.46000 328.648
36.47000 331.330
36.48000 333.231
36.49000 330.423
36.50000 322.085
36.51000 313.774
36.52000 314.273
36.53000 321.601
36.54000 328.817
36.55000 329.393
36.56000 326.545
36.57000 323.698
36.58000 320.862
36.59000 318.030
36.60000 315.577
36.61000 316.802
36.62000 318.953
36.63000 320.838
36.64000 324.896
36.65000 328.691
36.66000 330.462
36.67000 324.078
36.68000 316.837
36.69000 313.492
36.70000 320.932
36.71000 329.000
36.72000 334.347
36.73000 329.262
36.74000 325.315
36.75000 323.489
36.76000 324.441
36.77000 325.399
36.78000 320.599
36.79000 310.816
36.80000 301.134
36.81000 305.620
36.82000 318.127
36.83000 330.006
36.84000 328.336
36.85000 321.171
36.86000 315.130
36.87000 321.723
36.88000 331.853
36.89000 340.872
36.90000 335.901
36.91000 329.287
36.92000 323.247
36.93000 319.780
36.94000 316.624
36.95000 313.574
36.96000 310.848
36.97000 308.145
36.98000 306.288
36.99000 312.293
37.00000 316.987
37.01000 321.126
37.02000 324.454
37.03000 327.776
37.04000 327.992
37.05000 325.192
37.06000 322.411
37.07000 318.596
37.08000 314.178
37.09000 309.797
37.10000 306.415
37.11000 303.482
37.12000 300.848
37.13000 302.161
37.14000 304.699
37.15000 306.993
37.16000 316.574
37.17000 326.355
37.18000 333.564
37.19000 327.889
37.20000 320.442
37.21000 314.233
37.22000 312.223
37.23000 310.558
37.24000 309.377
37.25000 306.332
37.26000 303.956
37.27000 303.227
37.28000 305.165
37.29000 307.141
37.30000 309.794
37.31000 313.186
37.32000 316.567
37.33000 315.935
37.34000 312.435
37.35000 309.140
37.36000 313.068
37.37000 320.579
37.38000 327.426
37.39000 323.888
37.40000 316.781
37.41000 310.270
37.42000 308.121
37.43000 307.122
37.44000 305.706
37.45000 301.952
37.46000 297.834
37.47000 296.526
37.48000 305.793
37.49000 316.074
37.50000 323.597
37.51000 316.742
37.52000 310.881
37.53000 308.070
37.54000 310.735
37.55000 313.511
37.56000 313.519
37.57000 310.145
37.58000 306.769
37.59000 307.580
37.60000 311.750
37.61000 315.794
37.62000 313.887
37.63000 308.714
37.64000 303.850
37.65000 304.846
37.66000 308.069
37.67000 311.060
37.68000 312.978
37.69000 314.453
37.70000 315.814
37.71000 316.462
37.72000 316.984
37.73000 317.233
37.74000 316.338
37.75000 315.316
37.76000 314.546
37.77000 312.271
37.78000 310.417
37.79000 309.475
37.80000 310.344
37.81000 311.263
37.82000 311.790
37.83000 311.782
37.84000 311.771
37.85000 312.615
37.86000 314.229
37.87000 315.838
37.88000 317.063
37.89000 318.056
37.90000 319.157
37.91000 322.810
37.92000 327.534
37.93000 331.969
37.94000 328.243
37.95000 322.684
37.96000 317.651
37.97000 316.376
37.98000 315.839
37.99000 315.973
38.00000 319.236
38.01000 322.895
38.02000 325.724
38.03000 330.080
38.04000 333.626
38.05000 335.476
38.06000 333.593
38.07000 331.578
38.08000 327.320
38.09000 319.664
38.10000 311.973
38.11000 308.103
38.12000 327.417
38.13000 340.242
38.14000 344.443
38.15000 342.822
38.16000 341.381
38.17000 345.275
38.18000 351.649
38.19000 357.696
38.20000 359.788
38.21000 360.542
38.22000 361.310
38.23000 362.190
38.24000 363.095
38.25000 364.643
38.26000 369.545
38.27000 374.929
38.28000 379.197
38.29000 380.040
38.30000 380.478
38.31000 385.304
38.32000 400.799
38.33000 416.774
38.34000 427.843
38.35000 430.666
38.36000 433.357
38.37000 434.790
38.38000 443.310
38.39000 449.134
38.40000 458.682
38.41000 471.028
38.42000 483.286
38.43000 492.141
38.44000 499.247
38.45000 506.052
38.46000 512.529
38.47000 518.459
38.48000 524.600
38.49000 532.695
38.50000 541.268
38.51000 548.922
38.52000 551.202
38.53000 552.609
38.54000 553.751
38.55000 569.533
38.56000 583.605
38.57000 592.784
38.58000 588.812
38.59000 584.113
38.60000 578.104
38.61000 569.653
38.62000 561.146
38.63000 556.379
38.64000 541.753
38.65000 531.602
38.66000 527.627
38.67000 528.831
38.68000 529.869
38.69000 522.032
38.70000 509.143
38.71000 496.693
38.72000 487.627
38.73000 480.339
38.74000 472.899
38.75000 463.823
38.76000 454.303
38.77000 445.263
38.78000 439.394
38.79000 434.105
38.80000 429.719
38.81000 419.105
38.82000 409.740
38.83000 402.825
38.84000 403.200
38.85000 404.059
38.86000 401.257
38.87000 390.909
38.88000 380.332
38.89000 374.115
38.90000 370.898
38.91000 368.646
38.92000 365.790
38.93000 362.369
38.94000 358.923
38.95000 353.492
38.96000 346.809
38.97000 340.305
38.98000 336.356
38.99000 333.656
39.00000 330.856
39.01000 326.803
39.02000 322.373
39.03000 318.353
39.04000 317.400
39.05000 317.073
39.06000 316.797
39.07000 319.929
39.08000 322.929
39.09000 324.249
39.10000 320.033
39.11000 315.381
39.12000 310.679
39.13000 305.861
39.14000 301.039
39.15000 298.077
39.16000 297.960
39.17000 297.902
39.18000 299.394
39.19000 302.524
39.20000 305.635
39.21000 306.122
39.22000 304.771
39.23000 303.446
39.24000 305.741
39.25000 309.625
39.26000 313.090
39.27000 310.338
39.28000 305.511
39.29000 301.326
39.30000 302.620
39.31000 305.166
39.32000 307.360
39.33000 297.626
39.34000 287.854
39.35000 280.872
39.36000 284.086
39.37000 288.237
39.38000 291.227
39.39000 291.290
39.40000 291.211
39.41000 291.160
39.42000 294.259
39.43000 296.557
39.44000 298.261
39.45000 299.261
39.46000 300.255
39.47000 300.017
39.48000 298.815
39.49000 297.632
39.50000 292.789
39.51000 286.196
39.52000 279.990
39.53000 280.699
39.54000 283.962
39.55000 286.913
39.56000 286.818
39.57000 285.948
39.58000 285.185
39.59000 281.018
39.60000 276.943
39.61000 273.784
39.62000 274.339
39.63000 275.289
39.64000 276.401
39.65000 277.964
39.66000 279.553
39.67000 280.609
39.68000 284.444
39.69000 287.332
39.70000 285.795
39.71000 278.413
39.72000 271.010
39.73000 269.094
39.74000 271.968
39.75000 274.812
39.76000 278.511
39.77000 282.625
39.78000 286.430
39.79000 283.487
39.80000 277.787
39.81000 272.386
39.82000 270.393
39.83000 269.361
39.84000 268.441
39.85000 269.196
39.86000 270.130
39.87000 270.835
39.88000 270.503
39.89000 270.045
39.90000 269.942
39.91000 270.936
39.92000 272.008
39.93000 272.745
39.94000 276.324
39.95000 279.081
39.96000 279.125
39.97000 275.181
39.98000 271.202
39.99000 270.273
40.00000 272.330
40.01000 274.374
40.02000 274.859
40.03000 274.329
40.04000 273.875
40.05000 275.498
40.06000 278.058
40.07000 280.453
40.08000 280.649
40.09000 280.158
40.10000 279.713
40.11000 269.695
40.12000 259.081
40.13000 250.728
40.14000 253.794
40.15000 258.444
40.16000 262.021
40.17000 261.932
40.18000 261.537
40.19000 261.256
40.20000 257.050
40.21000 253.721
40.22000 254.095
40.23000 260.513
40.24000 267.016
40.25000 270.849
40.26000 271.744
40.27000 272.633
40.28000 271.728
40.29000 269.533
40.30000 267.333
40.31000 264.960
40.32000 262.502
40.33000 260.374
40.34000 263.488
40.35000 268.417
40.36000 272.938
40.37000 273.010
40.38000 272.134
40.39000 271.231
40.40000 270.182
40.41000 269.110
40.42000 268.699
40.43000 270.795
40.44000 273.133
40.45000 274.848
40.46000 270.858
40.47000 267.547
40.48000 264.529
40.49000 262.040
40.50000 259.563
40.51000 256.556
40.52000 252.898
40.53000 249.244
40.54000 251.863
40.55000 259.547
40.56000 267.143
40.57000 270.418
40.58000 271.304
40.59000 272.040
40.60000 269.885
40.61000 266.622
40.62000 263.593
40.63000 257.097
40.64000 250.415
40.65000 245.171
40.66000 249.095
40.67000 254.639
40.68000 259.648
40.69000 262.400
40.70000 264.899
40.71000 266.785
40.72000 262.375
40.73000 258.609
40.74000 257.108
40.75000 260.141
40.76000 263.302
40.77000 265.129
40.78000 265.125
40.79000 265.109
40.80000 265.753
40.81000 266.996
40.82000 268.201
40.83000 266.756
40.84000 263.689
40.85000 260.742
40.86000 260.676
40.87000 261.829
40.88000 262.913
40.89000 260.952
40.90000 258.350
40.91000 256.410
40.92000 259.249
40.93000 263.034
40.94000 266.079
40.95000 265.640
40.96000 264.757
40.97000 264.072
40.98000 257.718
40.99000 252.334
41.00000 249.445
41.01000 252.084
41.02000 254.923
41.03000 257.593
41.04000 260.002
41.05000 262.409
41.06000 263.625
41.07000 263.811
41.08000 263.874
41.09000 257.033
41.10000 245.495
41.11000 234.427
41.12000 237.520
41.13000 247.243
41.14000 256.474
41.15000 259.488
41.16000 260.410
41.17000 261.242
41.18000 261.342
41.19000 261.281
41.20000 260.750
41.21000 257.758
41.22000 254.409
41.23000 251.748
41.24000 258.596
41.25000 264.783
41.26000 267.874
41.27000 263.385
41.28000 258.551
41.29000 254.806
41.30000 252.908
41.31000 251.041
41.32000 250.043
41.33000 254.839
41.34000 258.109
41.35000 260.691
41.36000 262.751
41.37000 264.669
41.38000 260.927
41.39000 254.254
41.40000 247.859
41.41000 246.789
41.42000 247.573
41.43000 248.636
41.44000 252.326
41.45000 256.664
41.46000 259.749
41.47000 255.444
41.48000 249.928
41.49000 245.445
41.50000 248.064
41.51000 250.793
41.52000 253.832
41.53000 257.710
41.54000 261.634
41.55000 262.271
41.56000 256.739
41.57000 251.065
41.58000 247.874
41.59000 247.083
41.60000 246.537
41.61000 243.949
41.62000 239.636
41.63000 235.459
41.64000 238.796
41.65000 246.441
41.66000 253.831
41.67000 258.318
41.68000 261.463
41.69000 264.120
41.70000 261.444
41.71000 257.308
41.72000 253.372
41.73000 250.765
41.74000 248.403
41.75000 246.442
41.76000 250.221
41.77000 253.903
41.78000 255.116
41.79000 248.929
41.80000 242.244
41.81000 240.155
41.82000 247.609
41.83000 255.356
41.84000 259.925
41.85000 256.848
41.86000 254.636
41.87000 254.169
41.88000 255.356
41.89000 256.476
41.90000 252.056
41.91000 244.112
41.92000 236.378
41.93000 240.566
41.94000 249.543
41.95000 257.710
41.96000 255.569
41.97000 250.298
41.98000 245.835
41.99000 247.465
42.00000 250.351
42.01000 252.797
42.02000 246.491
42.03000 240.228
42.04000 234.859
42.05000 232.461
42.06000 230.299
42.07000 231.934
42.08000 242.287
42.09000 252.985
42.10000 259.576
42.11000 256.633
42.12000 254.435
42.13000 251.531
42.14000 247.876
42.15000 244.227
42.16000 241.368
42.17000 239.067
42.18000 236.812
42.19000 236.546
42.20000 237.218
42.21000 237.914
42.22000 238.990
42.23000 240.192
42.24000 240.455
42.25000 232.636
42.26000 222.957
42.27000 214.603
42.28000 221.285
42.29000 228.891
42.30000 235.025
42.31000 235.740
42.32000 235.951
42.33000 235.611
42.34000 233.868
42.35000 232.055
42.36000 230.893
42.37000 235.692
42.38000 239.272
42.39000 241.825
42.40000 243.155
42.41000 244.467
42.42000 241.486
42.43000 235.125
42.44000 228.856
42.45000 228.071
42.46000 230.169
42.47000 232.306
42.48000 235.180
42.49000 238.327
42.50000 241.083
42.51000 239.961
42.52000 237.847
42.53000 235.991
42.54000 236.192
42.55000 236.667
42.56000 237.289
42.57000 238.514
42.58000 239.804
42.59000 241.364
42.60000 243.682
42.61000 246.047
42.62000 247.622
42.63000 244.919
42.64000 242.837
42.65000 241.242
42.66000 240.296
42.67000 239.353
42.68000 237.777
42.69000 235.646
42.70000 233.535
42.71000 231.536
42.72000 229.643
42.73000 227.959
42.74000 230.903
42.75000 235.752
42.76000 240.084
42.77000 238.472
42.78000 235.171
42.79000 232.225
42.80000 237.576
42.81000 243.620
42.82000 248.498
42.83000 248.066
42.84000 246.981
42.85000 246.421
42.86000 247.491
42.87000 248.678
42.88000 249.496
42.89000 240.687
42.90000 233.825
42.91000 231.418
42.92000 235.615
42.93000 239.873
42.94000 242.494
42.95000 243.498
42.96000 244.497
42.97000 242.801
42.98000 239.375
42.99000 236.193
43.00000 239.850
43.01000 246.617
43.02000 253.023
43.03000 254.553
43.04000 254.547
43.05000 254.541
43.06000 252.181
43.07000 249.655
43.08000 247.212
43.09000 245.187
43.10000 243.220
43.11000 241.918
43.12000 242.906
43.13000 244.087
43.14000 244.928
43.15000 241.919
43.16000 239.499
43.17000 238.732
43.18000 240.684
43.19000 242.676
43.20000 241.661
43.21000 237.309
43.22000 232.970
43.23000 230.666
43.24000 229.862
43.25000 229.120
43.26000 230.617
43.27000 233.241
43.28000 235.604
43.29000 233.778
43.30000 230.492
43.31000 227.475
43.32000 230.069
43.33000 233.579
43.34000 236.490
43.35000 235.981
43.36000 234.931
43.37000 233.804
43.38000 232.388
43.39000 230.944
43.40000 229.883
43.41000 231.655
43.42000 233.141
43.43000 234.593
43.44000 235.982
43.45000 237.370
43.46000 238.360
43.47000 238.859
43.48000 239.355
43.49000 239.060
43.50000 238.120
43.51000 237.213
43.52000 237.925
43.53000 239.538
43.54000 241.167
43.55000 243.098
43.56000 245.145
43.57000 247.048
43.58000 246.944
43.59000 246.369
43.60000 245.217
43.61000 240.363
43.62000 234.850
43.63000 230.334
43.64000 230.061
43.65000 230.267
43.66000 230.423
43.67000 239.721
43.68000 247.470
43.69000 250.763
43.70000 245.069
43.71000 239.118
43.72000 231.957
43.73000 223.122
43.74000 214.278
43.75000 215.636
43.76000 226.337
43.77000 236.946
43.78000 240.955
43.79000 240.889
43.80000 240.963
43.81000 244.387
43.82000 249.241
43.83000 253.805
43.84000 249.594
43.85000 243.386
43.86000 237.839
43.87000 237.102
43.88000 237.325
43.89000 237.627
43.90000 238.299
43.91000 239.019
43.92000 239.578
43.93000 236.766
43.94000 234.327
43.95000 235.663
43.96000 245.424
43.97000 255.497
43.98000 258.325
43.99000 250.011
44.00000 241.573
44.01000 237.292
44.02000 228.264
44.03000 222.279
44.04000 223.721
44.05000 230.257
44.06000 236.612
44.07000 237.466
44.08000 235.725
44.09000 234.071
44.10000 234.875
44.11000 236.359
44.12000 237.629
44.13000 237.115
44.14000 236.203
44.15000 235.447
44.16000 235.520
44.17000 235.714
44.18000 235.869
44.19000 244.769
44.20000 252.568
44.21000 257.337
44.22000 254.630
44.23000 251.576
44.24000 252.023
44.25000 258.445
44.26000 264.966
44.27000 268.465
44.28000 261.926
44.29000 257.450
44.30000 252.395
44.31000 246.896
44.32000 241.613
44.33000 245.070
44.34000 253.087
44.35000 260.774
44.36000 262.533
44.37000 262.175
44.38000 261.792
44.39000 261.175
44.40000 260.500
44.41000 260.777
44.42000 266.724
44.43000 273.608
44.44000 279.211
44.45000 286.933
44.46000 293.418
44.47000 298.263
44.48000 298.634
44.49000 298.752
44.50000 299.183
44.51000 300.204
44.52000 301.239
44.53000 301.823
44.54000 303.996
44.55000 305.520
44.56000 312.992
44.57000 325.533
44.58000 338.034
44.59000 348.267
44.60000 357.189
44.61000 365.816
44.62000 370.485
44.63000 373.398
44.64000 376.816
44.65000 385.801
44.66000 396.322
44.67000 407.020
44.68000 418.904
44.69000 431.009
44.70000 441.075
44.71000 448.138
44.72000 453.689
44.73000 459.099
44.74000 464.085
44.75000 469.042
44.76000 473.527
44.77000 477.026
44.78000 480.494
44.79000 482.546
44.80000 492.301
44.81000 499.238
44.82000 503.508
44.83000 505.230
44.84000 506.924
44.85000 506.171
44.86000 503.851
44.87000 501.590
44.88000 505.124
44.89000 510.937
44.90000 516.053
44.91000 512.190
44.92000 505.581
44.93000 499.861
44.94000 500.922
44.95000 503.392
44.96000 505.487
44.97000 500.140
44.98000 494.814
44.99000 489.388
45.00000 483.629
45.01000 477.842
45.02000 470.967
45.03000 461.571
45.04000 452.075
45.05000 446.207
45.06000 446.325
45.07000 446.467
45.08000 439.985
45.09000 426.392
45.10000 412.838
45.11000 405.275
45.12000 401.977
45.13000 398.743
45.14000 395.658
45.15000 392.756
45.16000 389.670
45.17000 383.758
45.18000 376.889
45.19000 370.800
45.20000 371.489
45.21000 373.749
45.22000 375.703
45.23000 371.902
45.24000 367.927
45.25000 363.091
45.26000 355.064
45.27000 346.739
45.28000 339.066
45.29000 333.062
45.30000 327.142
45.31000 323.333
45.32000 311.533
45.33000 302.810
45.34000 299.499
45.35000 302.697
45.36000 305.894
45.37000 304.748
45.38000 300.155
45.39000 295.627
45.40000 291.884
45.41000 288.659
45.42000 285.578
45.43000 285.124
45.44000 285.654
45.45000 286.099
45.46000 285.691
45.47000 285.064
45.48000 284.512
45.49000 276.685
45.50000 268.872
45.51000 263.210
45.52000 266.409
45.53000 270.569
45.54000 273.020
45.55000 270.641
45.56000 267.968
45.57000 266.183
45.58000 264.815
45.59000 263.810
45.60000 262.446
45.61000 260.601
45.62000 258.756
45.63000 260.236
45.64000 264.664
45.65000 269.050
45.66000 269.420
45.67000 267.426
45.68000 265.399
45.69000 262.617
45.70000 259.522
45.71000 256.491
45.72000 254.196
45.73000 252.112
45.74000 250.250
45.75000 241.909
45.76000 233.550
45.77000 227.490
45.78000 231.984
45.79000 237.789
45.80000 241.834
45.81000 240.371
45.82000 238.510
45.83000 237.223
45.84000 238.436
45.85000 239.413
45.86000 236.988
45.87000 229.486
45.88000 221.936
45.89000 221.646
45.90000 228.590
45.91000 235.493
45.92000 234.367
45.93000 227.989
45.94000 221.776
45.95000 220.290
45.96000 220.968
45.97000 221.336
45.98000 217.471
45.99000 212.262
46.00000 207.539
46.01000 213.604
46.02000 221.010
46.03000 226.412
46.04000 221.535
46.05000 215.206
46.06000 210.834
46.07000 213.250
46.08000 216.243
46.09000 218.381
46.10000 220.326
46.11000 221.804
46.12000 221.944
46.13000 219.869
46.14000 217.760
46.15000 213.600
46.16000 207.146
46.17000 200.711
46.18000 203.731
46.19000 213.668
46.20000 223.382
46.21000 224.778
46.22000 221.959
46.23000 219.229
46.24000 217.953
46.25000 217.187
46.26000 216.483
46.27000 212.799
46.28000 208.869
46.29000 206.624
46.30000 214.078
46.31000 223.082
46.32000 228.719
46.33000 221.400
46.34000 212.798
46.35000 206.464
46.36000 209.113
46.37000 211.537
46.38000 211.752
46.39000 207.912
46.40000 203.985
46.41000 205.555
46.42000 214.002
46.43000 222.459
46.44000 223.477
46.45000 218.370
46.46000 213.335
46.47000 211.966
46.48000 212.655
46.49000 213.232
46.50000 211.600
46.51000 209.110
46.52000 206.793
46.53000 208.550
46.54000 211.124
46.55000 213.685
46.56000 216.163
46.57000 218.626
46.58000 219.165
46.59000 211.469
46.60000 202.834
46.61000 196.294
46.62000 201.982
46.63000 207.068
46.64000 210.233
46.65000 209.497
46.66000 208.647
46.67000 207.865
46.68000 207.177
46.69000 206.489
46.70000 207.085
46.71000 208.866
46.72000 210.568
46.73000 206.418
46.74000 198.627
46.75000 191.186
46.76000 192.324
46.77000 197.147
46.78000 201.685
46.79000 201.627
46.80000 200.326
46.81000 199.087
46.82000 198.298
46.83000 197.599
46.84000 196.862
46.85000 195.939
46.86000 194.993
46.87000 194.256
46.88000 197.142
46.89000 199.660
46.90000 202.139
46.91000 204.529
46.92000 206.916
46.93000 206.633
46.94000 202.210
46.95000 197.740
46.96000 195.463
46.97000 201.363
46.98000 205.288
46.99000 205.137
47.00000 202.171
47.01000 199.390
47.02000 202.416
47.03000 208.200
47.04000 213.699
47.05000 212.778
47.06000 209.973
47.07000 207.217
47.08000 204.876
47.09000 202.629
47.10000 200.843
47.11000 201.524
47.12000 202.570
47.13000 203.404
47.14000 200.276
47.15000 197.466
47.16000 195.159
47.17000 194.104
47.18000 193.107
47.19000 193.687
47.20000 196.976
47.21000 200.312
47.22000 202.108
47.23000 197.325
47.24000 194.054
47.25000 191.964
47.26000 190.783
47.27000 189.562
47.28000 186.727
47.29000 183.044
47.30000 179.509
47.31000 182.996
47.32000 188.644
47.33000 194.349
47.34000 200.603
47.35000 206.993
47.36000 211.801
47.37000 207.112
47.38000 200.840
47.39000 195.726
47.40000 204.587
47.41000 213.021
47.42000 217.319
47.43000 210.251
47.44000 202.530
47.45000 195.831
47.46000 191.079
47.47000 186.374
47.48000 183.709
47.49000 180.037
47.50000 177.484
47.51000 178.915
47.52000 183.766
47.53000 188.620
47.54000 193.628
47.55000 198.727
47.56000 203.660
47.57000 201.905
47.58000 197.703
47.59000 193.970
47.60000 195.459
47.61000 198.398
47.62000 200.452
47.63000 196.508
47.64000 191.440
47.65000 187.219
47.66000 188.729
47.67000 190.548
47.68000 192.797
47.69000 196.354
47.70000 200.001
47.71000 200.734
47.72000 195.330
47.73000 189.728
47.74000 186.404
47.75000 192.690
47.76000 197.195
47.77000 199.451
47.78000 199.543
47.79000 199.620
47.80000 198.335
47.81000 196.171
47.82000 194.062
47.83000 194.099
47.84000 195.045
47.85000 195.798
47.86000 194.039
47.87000 191.505
47.88000 189.481
47.89000 191.378
47.90000 194.096
47.91000 196.405
47.92000 196.787
47.93000 196.886
47.94000 196.670
47.95000 195.389
47.96000 194.021
47.97000 193.241
47.98000 193.832
47.99000 194.479
48.00000 194.880
48.01000 191.413
48.02000 188.882
48.03000 186.819
48.04000 185.262
48.05000 183.717
48.06000 183.851
48.07000 185.190
48.08000 186.503
48.09000 190.639
48.10000 195.961
48.11000 200.875
48.12000 199.470
48.13000 195.910
48.14000 192.788
48.15000 193.516
48.16000 195.144
48.17000 196.552
48.18000 195.743
48.19000 194.765
48.20000 192.975
48.21000 188.154
48.22000 183.045
48.23000 180.160
48.24000 183.002
48.25000 186.135
48.26000 188.156
48.27000 187.461
48.28000 186.915
48.29000 187.265
48.30000 188.700
48.31000 190.136
48.32000 191.158
48.33000 191.849
48.34000 192.530
48.35000 191.314
48.36000 189.127
48.37000 187.131
48.38000 188.684
48.39000 191.578
48.40000 193.838
48.41000 189.689
48.42000 183.875
48.43000 178.757
48.44000 176.655
48.45000 175.298
48.46000 176.181
48.47000 186.371
48.48000 197.580
48.49000 205.086
48.50000 202.043
48.51000 198.352
48.52000 195.881
48.53000 196.156
48.54000 196.416
48.55000 196.083
48.56000 194.949
48.57000 193.810
48.58000 191.878
48.59000 189.235
48.60000 186.618
48.61000 184.314
48.62000 182.243
48.63000 180.435
48.64000 184.680
48.65000 191.452
48.66000 197.796
48.67000 199.122
48.68000 199.000
48.69000 198.892
48.70000 200.539
48.71000 202.272
48.72000 203.206
48.73000 200.435
48.74000 197.200
48.75000 194.327
48.76000 192.594
48.77000 190.944
48.78000 189.800
48.79000 188.347
48.80000 187.244
48.81000 189.423
48.82000 196.537
48.83000 203.701
48.84000 202.981
48.85000 194.342
48.86000 185.752
48.87000 182.378
48.88000 182.499
48.89000 182.593
48.90000 181.919
48.91000 180.891
48.92000 180.141
48.93000 183.239
48.94000 187.568
48.95000 191.496
48.96000 192.722
48.97000 193.284
48.98000 193.746
48.99000 193.687
49.00000 193.553
49.01000 191.610
49.02000 183.345
49.03000 174.536
49.04000 168.229
49.05000 177.420
49.06000 184.965
49.07000 188.107
49.08000 183.900
49.09000 179.579
49.10000 179.762
49.11000 185.022
49.12000 190.272
49.13000 190.574
49.14000 187.212
49.15000 183.899
49.16000 182.448
49.17000 181.948
49.18000 181.626
49.19000 184.265
49.20000 187.951
49.21000 191.341
49.22000 187.616
49.23000 182.745
49.24000 178.994
49.25000 181.748
49.26000 185.549
49.27000 188.758
49.28000 189.667
49.29000 190.346
49.30000 190.847
49.31000 192.171
49.32000 193.231
49.33000 192.794
49.34000 189.588
49.35000 186.320
49.36000 185.233
49.37000 186.894
49.38000 188.562
49.39000 187.747
49.40000 184.874
49.41000 182.117
49.42000 185.391
49.43000 192.074
49.44000 198.348
49.45000 196.426
49.46000 191.297
49.47000 186.521
49.48000 189.708
49.49000 194.533
49.50000 198.375
49.51000 195.790
49.52000 192.041
49.53000 189.610
49.54000 192.871
49.55000 196.786
49.56000 199.758
49.57000 190.673
49.58000 182.914
49.59000 179.140
49.60000 183.523
49.61000 188.147
49.62000 188.427
49.63000 182.603
49.64000 176.737
49.65000 175.969
49.66000 179.947
49.67000 183.842
49.68000 181.345
49.69000 174.841
49.70000 168.817
49.71000 174.745
49.72000 185.843
49.73000 196.295
49.74000 198.916
49.75000 199.171
49.76000 198.915
49.77000 194.876
49.78000 190.068
49.79000 185.658
49.80000 183.164
49.81000 180.922
49.82000 179.175
49.83000 184.958
49.84000 190.031
49.85000 192.173
49.86000 187.680
49.87000 182.932
49.88000 180.920
49.89000 183.180
49.90000 185.490
49.91000 186.671
49.92000 189.873
49.93000 191.990
49.94000 189.803
49.95000 184.621
49.96000 179.619
49.97000 180.402
49.98000 183.950
49.99000 187.327
50.00000 187.721
50.01000 187.172
50.02000 186.981
50.03000 189.817
50.04000 193.337
50.05000 196.325
50.06000 196.443
50.07000 196.134
50.08000 195.887
50.09000 191.262
50.10000 187.206
50.11000 185.000
50.12000 187.425
50.13000 190.070
50.14000 191.807
50.15000 191.970
50.16000 192.105
50.17000 192.178
50.18000 207.431
50.19000 217.861
50.20000 221.568
50.21000 220.065
50.22000 218.629
50.23000 220.021
50.24000 222.910
50.25000 225.685
50.26000 229.520
50.27000 233.472
50.28000 237.085
50.29000 237.408
50.30000 236.903
50.31000 236.504
50.32000 236.745
50.33000 237.094
50.34000 237.379
50.35000 242.825
50.36000 247.726
50.37000 251.718
50.38000 253.196
50.39000 254.528
50.40000 258.342
50.41000 266.917
50.42000 275.609
50.43000 280.549
50.44000 286.503
50.45000 290.648
50.46000 289.949
50.47000 285.055
50.48000 280.303
50.49000 283.977
50.50000 292.591
50.51000 300.931
50.52000 301.269
50.53000 298.520
50.54000 296.143
50.55000 297.946
50.56000 300.920
50.57000 302.747
50.58000 296.747
50.59000 289.268
50.60000 283.031
50.61000 282.237
50.62000 282.124
50.63000 281.594
50.64000 279.789
50.65000 277.894
50.66000 274.413
50.67000 267.568
50.68000 260.613
50.69000 256.472
50.70000 256.783
50.71000 257.031
50.72000 254.812
50.73000 250.197
50.74000 245.584
50.75000 241.160
50.76000 236.858
50.77000 232.663
50.78000 231.076
50.79000 230.677
50.80000 230.060
50.81000 226.562
50.82000 222.171
50.83000 218.446
50.84000 219.898
50.85000 222.442
50.86000 224.607
50.87000 219.790
50.88000 214.936
50.89000 209.654
50.90000 202.915
50.91000 196.056
50.92000 192.979
50.93000 198.771
50.94000 204.932
50.95000 208.762
50.96000 205.106
50.97000 202.399
50.98000 201.971
50.99000 204.031
51.00000 206.069
51.01000 204.392
51.02000 200.029
51.03000 195.748
51.04000 194.942
51.05000 195.827
51.06000 196.734
51.07000 197.980
51.08000 199.343
51.09000 200.348
51.10000 198.181
51.11000 195.267
51.12000 192.743
51.13000 186.855
51.14000 181.399
51.15000 177.409
51.16000 178.938
51.17000 180.996
51.18000 182.867
51.19000 184.254
51.20000 185.616
51.21000 186.497
51.22000 185.651
51.23000 185.006
51.24000 182.683
51.25000 178.310
51.26000 173.952
51.27000 176.940
51.28000 185.849
51.29000 194.639
51.30000 192.234
51.31000 183.919
51.32000 176.014
51.33000 175.866
51.34000 178.668
51.35000 181.214
51.36000 181.150
51.37000 180.403
51.38000 179.744
51.39000 179.525
51.40000 179.402
51.41000 180.071
51.42000 184.058
51.43000 188.411
51.44000 191.487
51.45000 190.894
51.46000 190.074
51.47000 189.523
51.48000 180.134
51.49000 172.983
51.50000 168.671
51.51000 168.228
51.52000 167.808
51.53000 167.825
51.54000 168.237
51.55000 168.644
51.56000 169.730
51.57000 171.199
51.58000 172.639
51.59000 173.405
51.60000 173.887
51.61000 174.122
51.62000 171.428
51.63000 167.882
51.64000 164.708
51.65000 165.681
51.66000 167.241
51.67000 168.207
51.68000 166.404
51.69000 164.250
51.70000 163.078
51.71000 165.023
51.72000 167.198
51.73000 168.710
51.74000 173.269
51.75000 176.786
51.76000 177.274
51.77000 173.170
51.78000 169.018
51.79000 166.896
51.80000 166.831
51.81000 166.765
51.82000 167.840
51.83000 169.660
51.84000 171.557
51.85000 175.735
51.86000 180.972
51.87000 185.490
51.88000 179.958
51.89000 171.189
51.90000 163.224
51.91000 168.339
51.92000 175.397
51.93000 180.367
51.94000 174.457
51.95000 166.980
51.96000 161.917
51.97000 165.350
51.98000 169.523
51.99000 172.517
52.00000 168.447
52.01000 165.093
52.02000 165.636
52.03000 172.734
52.04000 179.936
52.05000 182.155
52.06000 178.708
52.07000 175.265
52.08000 170.697
52.09000 165.322
52.10000 160.035
52.11000 158.160
52.12000 158.039
52.13000 158.027
52.14000 159.813
52.15000 162.239
52.16000 164.474
52.17000 168.780
52.18000 173.085
52.19000 176.587
52.20000 175.383
52.21000 173.415
52.22000 171.874
52.23000 172.001
52.24000 172.298
52.25000 172.517
52.26000 169.804
52.27000 167.574
52.28000 165.740
52.29000 164.644
52.30000 163.565
52.31000 163.284
52.32000 164.018
52.33000 164.755
52.34000 164.345
52.35000 162.976
52.36000 161.635
52.37000 161.764
52.38000 162.730
52.39000 163.687
52.40000 164.471
52.41000 165.186
52.42000 165.852
52.43000 169.159
52.44000 172.800
52.45000 175.969
52.46000 176.014
52.47000 175.489
52.48000 174.815
52.49000 173.488
52.50000 172.086
52.51000 171.020
52.52000 170.917
52.53000 170.886
52.54000 169.290
52.55000 164.469
52.56000 159.550
52.57000 158.699
52.58000 163.607
52.59000 168.556
52.60000 172.814
52.61000 176.422
52.62000 179.919
52.63000 174.534
52.64000 163.544
52.65000 152.988
52.66000 153.446
52.67000 158.703
52.68000 163.657
52.69000 167.034
52.70000 169.690
52.71000 171.979
52.72000 171.523
52.73000 170.504
52.74000 168.842
52.75000 164.054
52.76000 158.852
52.77000 154.792
52.78000 159.830
52.79000 164.418
52.80000 168.851
52.81000 172.933
52.82000 177.002
52.83000 179.714
52.84000 180.292
52.85000 180.844
52.86000 181.128
52.87000 170.393
52.88000 163.228
52.89000 163.787
52.90000 169.763
52.91000 175.596
52.92000 176.795
52.93000 175.760
52.94000 174.775
52.95000 168.949
52.96000 162.059
52.97000 156.310
52.98000 160.296
52.99000 166.504
53.00000 171.515
53.01000 170.021
53.02000 167.549
53.03000 165.572
53.04000 167.613
53.05000 169.562
53.06000 171.595
53.07000 173.841
53.08000 176.098
53.09000 176.338
53.10000 173.061
53.11000 169.720
53.12000 167.908
53.13000 165.514
53.14000 163.873
53.15000 162.361
53.16000 160.948
53.17000 159.652
53.18000 163.431
53.19000 169.916
53.20000 176.147
53.21000 172.621
53.22000 165.947
53.23000 159.985
53.24000 161.010
53.25000 163.810
53.26000 166.417
53.27000 167.848
53.28000 169.079
53.29000 170.086
53.30000 167.452
53.31000 164.977
53.32000 163.946
53.33000 166.944
53.34000 170.180
53.35000 171.458
53.36000 168.956
53.37000 166.359
53.38000 164.878
53.39000 164.601
53.40000 164.412
53.41000 163.918
53.42000 163.157
53.43000 162.451
53.44000 165.171
53.45000 169.914
53.46000 174.508
53.47000 173.366
53.48000 170.070
53.49000 166.896
53.50000 165.107
53.51000 163.708
53.52000 162.575
53.53000 163.274
53.54000 164.322
53.55000 165.197
53.56000 161.531
53.57000 158.029
53.58000 156.127
53.59000 159.159
53.60000 162.540
53.61000 164.894
53.62000 165.053
53.63000 165.139
53.64000 165.190
53.65000 158.955
53.66000 154.493
53.67000 153.548
53.68000 156.048
53.69000 158.507
53.70000 157.151
53.71000 153.295
53.72000 149.534
53.73000 148.857
53.74000 149.540
53.75000 150.488
53.76000 154.960
53.77000 160.534
53.78000 165.358
53.79000 164.310
53.80000 162.013
53.81000 160.056
53.82000 158.088
53.83000 156.432
53.84000 154.532
53.85000 151.798
53.86000 148.995
53.87000 147.207
53.88000 147.821
53.89000 148.536
53.90000 148.982
53.91000 149.806
53.92000 150.403
53.93000 150.356
53.94000 149.599
53.95000 148.850
53.96000 149.535
53.97000 151.264
53.98000 152.961
53.99000 154.145
54.00000 155.039
54.01000 155.950
54.02000 157.129
54.03000 158.402
54.04000 159.477
54.05000 158.788
54.06000 157.680
54.07000 156.718
54.08000 156.737
54.09000 156.884
54.10000 156.640
54.11000 154.913
54.12000 153.043
54.13000 152.919
54.14000 157.361
54.15000 162.041
54.16000 165.078
54.17000 158.228
54.18000 153.063
54.19000 151.707
54.20000 155.040
54.21000 158.381
54.22000 159.870
54.23000 159.853
54.24000 159.837
54.25000 161.081
54.26000 162.972
54.27000 164.603
54.28000 161.260
54.29000 156.014
54.30000 151.511
54.31000 154.694
54.32000 159.904
54.33000 164.501
54.34000 162.501
54.35000 159.771
54.36000 157.539
54.37000 157.409
54.38000 157.515
54.39000 157.555
54.40000 157.403
54.41000 157.240
54.42000 157.130
54.43000 158.962
54.44000 160.364
54.45000 162.197
54.46000 164.624
54.47000 167.052
54.48000 166.033
54.49000 161.879
54.50000 157.761
54.51000 155.902
54.52000 155.437
54.53000 155.108
54.54000 158.043
54.55000 162.360
54.56000 166.570
54.57000 169.506
54.58000 172.069
54.59000 174.367
54.60000 170.112
54.61000 165.263
54.62000 161.479
54.63000 162.711
54.64000 164.583
54.65000 165.761
54.66000 164.716
54.67000 163.504
54.68000 162.660
54.69000 164.703
54.70000 166.324
54.71000 166.853
54.72000 165.716
54.73000 164.560
54.74000 163.687
54.75000 163.102
54.76000 162.520
54.77000 160.091
54.78000 156.452
54.79000 153.014
54.80000 155.638
54.81000 161.101
54.82000 166.241
54.83000 166.809
54.84000 165.895
54.85000 165.063
54.86000 167.138
54.87000 169.542
54.88000 171.686
54.89000 172.464
54.90000 173.042
54.91000 171.907
54.92000 164.690
54.93000 156.938
54.94000 151.363
54.95000 155.135
54.96000 158.350
54.97000 162.743
54.98000 169.134
54.99000 175.557
55.00000 180.619
55.01000 184.119
55.02000 187.609
55.03000 187.658
55.04000 185.119
55.05000 182.580
55.06000 180.060
55.07000 177.550
55.08000 175.199
55.09000 175.544
55.10000 176.857
55.11000 178.067
55.12000 181.246
55.13000 184.525
55.14000 187.129
55.15000 185.740
55.16000 183.698
55.17000 182.646
55.18000 185.496
55.19000 188.744
55.20000 191.151
55.21000 196.136
55.22000 200.118
55.23000 203.628
55.24000 206.249
55.25000 208.850
55.26000 209.423
55.27000 207.398
55.28000 205.365
55.29000 209.459
55.30000 218.709
55.31000 227.828
55.32000 229.679
55.33000 227.362
55.34000 225.342
55.35000 229.463
55.36000 236.020
55.37000 242.137
55.38000 253.581
55.39000 265.267
55.40000 275.980
55.41000 280.214
55.42000 283.254
55.43000 288.633
55.44000 304.262
55.45000 321.093
55.46000 333.915
55.47000 341.039
55.48000 346.346
55.49000 354.825
55.50000 369.888
55.51000 385.155
55.52000 403.854
55.53000 427.448
55.54000 451.077
55.55000 466.617
55.56000 474.491
55.57000 482.391
55.58000 492.445
55.59000 503.869
55.60000 515.280
55.61000 526.349
55.62000 537.267
55.63000 547.565
55.64000 558.620
55.65000 568.961
55.66000 578.150
55.67000 578.644
55.68000 577.345
55.69000 576.507
55.70000 577.917
55.71000 579.628
55.72000 580.966
55.73000 587.514
55.74000 593.071
55.75000 590.904
55.76000 571.002
55.77000 550.399
55.78000 538.032
55.79000 538.717
55.80000 539.567
55.81000 540.006
55.82000 526.177
55.83000 516.856
55.84000 507.186
55.85000 497.268
55.86000 487.229
55.87000 473.156
55.88000 457.125
55.89000 441.852
55.90000 435.555
55.91000 432.518
55.92000 428.518
55.93000 416.233
55.94000 402.042
55.95000 387.087
55.96000 367.949
55.97000 348.177
55.98000 332.341
55.99000 337.838
56.00000 343.889
56.01000 345.082
56.02000 333.942
56.03000 322.195
56.04000 312.100
56.05000 304.909
56.06000 297.772
56.07000 293.886
56.08000 288.609
56.09000 284.971
56.10000 276.698
56.11000 264.776
56.12000 252.944
56.13000 245.105
56.14000 239.412
56.15000 233.939
56.16000 232.279
56.17000 232.053
56.18000 231.802
56.19000 231.308
56.20000 230.752
56.21000 230.062
56.22000 228.554
56.23000 226.906
56.24000 225.556
56.25000 210.929
56.26000 197.767
56.27000 189.901
56.28000 196.908
56.29000 204.804
56.30000 208.413
56.31000 203.679
56.32000 198.730
56.33000 195.897
56.34000 190.662
56.35000 187.001
56.36000 186.196
56.37000 187.904
56.38000 189.563
56.39000 188.083
56.40000 184.736
56.41000 181.493
56.42000 178.179
56.43000 175.014
56.44000 172.071
56.45000 171.685
56.46000 172.026
56.47000 172.259
56.48000 171.752
56.49000 171.103
56.50000 170.559
56.51000 170.141
56.52000 169.807
56.53000 169.864
56.54000 171.137
56.55000 172.497
56.56000 172.953
56.57000 171.462
56.58000 169.906
56.59000 168.973
56.60000 170.718
56.61000 171.975
56.62000 168.238
56.63000 159.569
56.64000 150.997
56.65000 151.797
56.66000 158.786
56.67000 165.608
56.68000 164.919
56.69000 160.993
56.70000 157.127
56.71000 154.070
56.72000 151.267
56.73000 148.552
56.74000 146.539
56.75000 144.676
56.76000 143.086
56.77000 149.447
56.78000 155.738
56.79000 160.257
56.80000 158.676
56.81000 156.582
56.82000 153.903
56.83000 149.829
56.84000 145.696
56.85000 143.112
56.86000 149.924
56.87000 154.939
56.88000 156.923
56.89000 155.544
56.90000 154.157
56.91000 151.785
56.92000 148.691
56.93000 145.652
56.94000 149.644
56.95000 156.912
56.96000 163.740
56.97000 163.508
56.98000 160.813
56.99000 157.959
57.00000 153.660
57.01000 149.017
57.02000 144.983
57.03000 141.847
57.04000 139.294
57.05000 138.399
57.06000 143.836
57.07000 149.894
57.08000 154.486
57.09000 155.221
57.10000 155.752
57.11000 156.097
57.12000 154.591
57.13000 153.458
57.14000 152.833
57.15000 152.838
57.16000 152.839
57.17000 150.558
57.18000 146.407
57.19000 142.309
57.20000 141.288
57.21000 141.962
57.22000 142.651
57.23000 143.614
57.24000 144.683
57.25000 145.724
57.26000 146.473
57.27000 147.145
57.28000 147.739
57.29000 146.318
57.30000 144.782
57.31000 143.334
57.32000 142.266
57.33000 141.241
57.34000 141.487
57.35000 145.434
57.36000 149.618
57.37000 152.442
57.38000 153.100
57.39000 153.543
57.40000 154.078
57.41000 154.739
57.42000 155.398
57.43000 152.122
57.44000 145.236
57.45000 138.409
57.46000 136.313
57.47000 137.122
57.48000 137.928
57.49000 138.644
57.50000 139.321
57.51000 139.963
57.52000 140.185
57.53000 140.283
57.54000 140.370
57.55000 144.431
57.56000 148.674
57.57000 152.410
57.58000 153.741
57.59000 154.761
57.60000 154.519
57.61000 150.206
57.62000 145.584
57.63000 142.357
57.64000 145.078
57.65000 147.299
57.66000 146.854
57.67000 142.310
57.68000 137.720
57.69000 139.129
57.70000 146.718
57.71000 154.269
57.72000 155.044
57.73000 151.220
57.74000 147.395
57.75000 143.567
57.76000 139.738
57.77000 136.363
57.78000 139.501
57.79000 144.767
57.80000 149.561
57.81000 144.935
57.82000 138.981
57.83000 133.916
57.84000 133.559
57.85000 133.891
57.86000 134.904
57.87000 138.348
57.88000 142.007
57.89000 144.645
57.90000 141.933
57.91000 139.664
57.92000 137.356
57.93000 134.979
57.94000 132.601
57.95000 134.853
57.96000 142.456
57.97000 150.046
57.98000 149.360
57.99000 142.401
58.00000 135.621
58.01000 136.144
58.02000 140.477
58.03000 144.815
58.04000 149.254
58.05000 153.729
58.06000 157.857
58.07000 154.523
58.08000 149.877
58.09000 145.592
58.10000 143.458
58.11000 141.679
58.12000 139.838
58.13000 137.746
58.14000 135.629
58.15000 134.057
58.16000 141.697
58.17000 148.040
58.18000 151.633
58.19000 150.026
58.20000 148.297
58.21000 146.175
58.22000 143.547
58.23000 140.918
58.24000 142.689
58.25000 148.197
58.26000 153.581
58.27000 151.994
58.28000 146.378
58.29000 140.988
58.30000 140.314
58.31000 141.525
58.32000 142.656
58.33000 143.282
58.34000 143.724
58.35000 143.959
58.36000 142.809
58.37000 141.402
58.38000 140.065
58.39000 139.038
58.40000 138.049
58.41000 137.293
58.42000 140.805
58.43000 143.801
58.44000 145.381
58.45000 143.999
58.46000 142.525
58.47000 140.140
58.48000 136.445
58.49000 132.740
58.50000 132.349
58.51000 135.124
58.52000 137.888
58.53000 139.857
58.54000 141.315
58.55000 142.763
58.56000 143.939
58.57000 144.993
58.58000 145.989
58.59000 147.697
58.60000 149.464
58.61000 150.734
58.62000 148.227
58.63000 144.934
58.64000 142.128
58.65000 141.722
58.66000 141.640
58.67000 141.576
58.68000 142.506
58.69000 143.313
58.70000 143.939
58.71000 144.149
58.72000 144.342
58.73000 143.925
58.74000 142.535
58.75000 141.133
58.76000 140.406
58.77000 146.275
58.78000 150.205
58.79000 149.835
58.80000 146.401
58.81000 142.995
58.82000 140.508
58.83000 138.470
58.84000 136.527
58.85000 141.075
58.86000 147.332
58.87000 152.899
58.88000 152.466
58.89000 150.641
58.90000 148.511
58.91000 144.693
58.92000 140.617
58.93000 137.346
58.94000 137.861
58.95000 138.566
58.96000 138.469
58.97000 136.318
58.98000 134.066
58.99000 133.822
59.00000 137.137
59.01000 140.519
59.02000 142.368
59.03000 137.812
59.04000 134.686
59.05000 135.404
59.06000 139.171
59.07000 142.898
59.08000 144.757
59.09000 145.605
59.10000 146.421
59.11000 140.726
59.12000 133.097
59.13000 126.553
59.14000 130.861
59.15000 137.968
59.16000 143.926
59.17000 142.744
59.18000 140.331
59.19000 138.351
59.20000 133.516
59.21000 129.294
59.22000 126.656
59.23000 128.499
59.24000 130.612
59.25000 131.861
59.26000 131.414
59.27000 130.923
59.28000 130.640
59.29000 129.112
59.30000 128.042
59.31000 130.134
59.32000 135.031
59.33000 139.842
59.34000 139.112
59.35000 135.060
59.36000 131.131
59.37000 132.519
59.38000 135.922
59.39000 139.195
59.40000 140.957
59.41000 142.287
59.42000 143.140
59.43000 140.647
59.44000 137.507
59.45000 134.877
59.46000 134.735
59.47000 134.875
59.48000 135.304
59.49000 136.642
59.50000 138.046
59.51000 139.193
59.52000 139.783
59.53000 140.353
59.54000 140.696
59.55000 138.610
59.56000 137.110
59.57000 135.703
59.58000 134.389
59.59000 133.069
59.60000 131.187
59.61000 128.932
59.62000 126.730
59.63000 124.988
59.64000 123.522
59.65000 122.272
59.66000 123.959
59.67000 126.577
59.68000 129.206
59.69000 131.917
59.70000 134.646
59.71000 136.977
59.72000 139.179
59.73000 141.018
59.74000 142.231
59.75000 141.271
59.76000 140.126
59.77000 138.782
59.78000 136.965
59.79000 135.126
59.80000 133.973
59.81000 141.273
59.82000 146.639
59.83000 146.523
59.84000 140.274
59.85000 134.046
59.86000 132.394
59.87000 134.129
59.88000 135.834
59.89000 135.557
59.90000 134.321
59.91000 133.243
59.92000 134.744
59.93000 137.150
59.94000 139.035
59.95000 136.147
59.96000 132.110
59.97000 128.599
59.98000 127.730
59.99000 127.349
60.00000 127.919
60.01000 132.149
60.02000 136.742
60.03000 139.166
60.04000 135.840
60.05000 132.205
60.06000 129.835
60.07000 132.907
60.08000 135.247
60.09000 135.328
60.10000 132.581
60.11000 129.834
60.12000 130.429
60.13000 133.785
60.14000 137.099
60.15000 139.882
60.16000 142.303
60.17000 144.442
60.18000 140.976
60.19000 135.334
60.20000 130.403
60.21000 132.969
60.22000 137.542
60.23000 141.586
60.24000 136.467
60.25000 130.619
60.26000 126.235
60.27000 128.118
60.28000 130.715
60.29000 133.106
60.30000 134.895
60.31000 136.644
60.32000 137.827
60.33000 139.983
60.34000 141.610
60.35000 142.031
60.36000 140.772
60.37000 139.501
60.38000 138.301
60.39000 137.165
60.40000 136.039
60.41000 135.041
60.42000 134.140
60.43000 133.214
60.44000 131.667
60.45000 129.852
60.46000 128.093
60.47000 127.002
60.48000 126.110
60.49000 125.309
60.50000 128.842
60.51000 132.697
60.52000 136.080
60.53000 137.208
60.54000 138.042
60.55000 138.786
60.56000 139.237
60.57000 139.666
60.58000 139.966
60.59000 137.966
60.60000 136.388
60.61000 134.982
60.62000 133.844
60.63000 132.708
60.64000 132.227
60.65000 132.426
60.66000 132.624
60.67000 133.685
60.68000 135.323
60.69000 136.934
60.70000 137.731
60.71000 138.141
60.72000 138.555
60.73000 139.032
60.74000 139.528
60.75000 139.980
60.76000 136.269
60.77000 132.152
60.78000 129.517
60.79000 134.802
60.80000 141.257
60.81000 146.297
60.82000 146.247
60.83000 145.738
60.84000 145.371
60.85000 143.014
60.86000 141.135
60.87000 140.345
60.88000 141.426
60.89000 142.540
60.90000 143.283
60.91000 143.594
60.92000 143.904
60.93000 141.631
60.94000 137.395
60.95000 133.273
60.96000 133.856
60.97000 136.911
60.98000 139.978
60.99000 143.267
61.00000 146.635
61.01000 149.745
61.02000 144.684
61.03000 138.313
61.04000 132.719
61.05000 131.788
61.06000 131.635
61.07000 132.379
61.08000 136.707
61.09000 141.410
61.10000 144.908
61.11000 144.652
61.12000 144.285
61.13000 144.466
61.14000 145.688
61.15000 146.936
61.16000 146.687
61.17000 144.491
61.18000 142.289
61.19000 141.167
61.20000 140.972
61.21000 140.748
61.22000 138.801
61.23000 135.852
61.24000 133.058
61.25000 133.595
61.26000 135.473
61.27000 137.227
61.28000 135.489
61.29000 133.031
61.30000 130.957
61.31000 131.482
61.32000 132.494
61.33000 133.777
61.34000 136.267
61.35000 138.901
61.36000 140.915
61.37000 144.015
61.38000 146.520
61.39000 148.257
61.40000 148.375
61.41000 148.442
61.42000 147.354
61.43000 144.593
61.44000 141.819
61.45000 143.400
61.46000 149.175
61.47000 154.943
61.48000 159.971
61.49000 164.522
61.50000 169.194
61.51000 177.094
61.52000 186.431
61.53000 195.251
61.54000 212.290
61.55000 230.253
61.56000 247.448
61.57000 258.738
61.58000 268.790
61.59000 280.256
61.60000 298.751
61.61000 318.205
61.62000 333.468
61.63000 346.383
61.64000 356.558
61.65000 364.097
61.66000 365.493
61.67000 366.638
61.68000 369.166
61.69000 373.920
61.70000 378.704
61.71000 381.191
61.72000 388.938
61.73000 394.098
61.74000 387.980
61.75000 373.769
61.76000 359.519
61.77000 343.925
61.78000 327.669
61.79000 312.161
61.80000 292.675
61.81000 273.329
61.82000 254.058
61.83000 235.447
61.84000 216.990
61.85000 199.859
61.86000 190.105
61.87000 181.490
61.88000 174.567
61.89000 168.599
61.90000 163.835
61.91000 161.054
61.92000 163.378
61.93000 165.962
61.94000 165.606
61.95000 160.008
61.96000 154.307
61.97000 151.180
61.98000 147.618
61.99000 145.176
62.00000 145.899
62.01000 149.154
62.02000 152.335
62.03000 152.157
62.04000 150.148
62.05000 148.214
62.06000 148.954
62.07000 150.595
62.08000 151.958
62.09000 150.504
62.10000 148.317
62.11000 147.030
62.12000 151.384
62.13000 156.718
62.14000 161.101
62.15000 157.052
62.16000 152.967
62.17000 149.459
62.18000 147.594
62.19000 145.831
62.20000 145.868
62.21000 149.457
62.22000 153.142
62.23000 155.265
62.24000 152.600
62.25000 150.716
62.26000 148.535
62.27000 146.088
62.28000 143.694
62.29000 144.881
62.30000 148.230
62.31000 151.480
62.32000 151.881
62.33000 151.134
62.34000 150.445
62.35000 150.441
62.36000 150.633
62.37000 151.061
62.38000 153.158
62.39000 155.580
62.40000 157.612
62.41000 153.079
62.42000 148.622
62.43000 145.840
62.44000 148.340
62.45000 151.228
62.46000 151.542
62.47000 146.234
62.48000 140.729
62.49000 137.409
62.50000 144.744
62.51000 150.042
62.52000 153.038
62.53000 153.723
62.54000 154.416
62.55000 156.040
62.56000 158.288
62.57000 160.484
62.58000 157.032
62.59000 151.231
62.60000 145.725
62.61000 144.301
62.62000 144.182
62.63000 144.171
62.64000 145.022
62.65000 146.061
62.66000 146.949
62.67000 145.770
62.68000 144.528
62.69000 143.843
62.70000 145.109
62.71000 146.542
62.72000 148.750
62.73000 152.826
62.74000 156.985
62.75000 159.600
62.76000 155.357
62.77000 152.211
62.78000 152.134
62.79000 155.517
62.80000 158.890
62.81000 159.559
62.82000 158.212
62.83000 156.888
62.84000 156.130
62.85000 155.677
62.86000 155.248
62.87000 155.224
62.88000 155.343
62.89000 155.454
62.90000 155.487
62.91000 155.500
62.92000 155.512
62.93000 156.246
62.94000 156.973
62.95000 157.508
62.96000 157.300
62.97000 157.017
62.98000 155.436
62.99000 150.387
63.00000 145.149
63.01000 141.723
63.02000 139.683
63.03000 138.207
63.04000 139.037
63.05000 142.777
63.06000 146.526
63.07000 150.267
63.08000 154.000
63.09000 157.688
63.10000 158.505
63.11000 157.719
63.12000 156.753
63.13000 152.165
63.14000 146.159
63.15000 140.703
63.16000 141.099
63.17000 143.075
63.18000 144.824
63.19000 149.970
63.20000 154.953
63.21000 158.518
63.22000 155.963
63.23000 152.704
63.24000 149.895
63.25000 148.411
63.26000 147.014
63.27000 146.066
63.28000 147.399
63.29000 148.443
63.30000 148.725
63.31000 147.938
63.32000 147.143
63.33000 147.630
63.34000 149.313
63.35000 150.983
63.36000 152.923
63.37000 154.996
63.38000 156.867
63.39000 153.724
63.40000 148.412
63.41000 143.587
63.42000 144.839
63.43000 147.910
63.44000 150.671
63.45000 150.040
63.46000 148.885
63.47000 148.226
63.48000 149.952
63.49000 151.992
63.50000 154.035
63.51000 156.086
63.52000 158.138
63.53000 159.577
63.54000 156.981
63.55000 154.899
63.56000 154.183
63.57000 155.599
63.58000 157.040
63.59000 157.277
63.60000 156.253
63.61000 155.233
63.62000 154.039
63.63000 152.740
63.64000 151.578
63.65000 154.829
63.66000 160.190
63.67000 165.168
63.68000 164.516
63.69000 161.997
63.70000 159.700
63.71000 157.362
63.72000 155.280
63.73000 153.488
63.74000 153.253
63.75000 153.250
63.76000 153.986
63.77000 157.398
63.78000 161.054
63.79000 163.701
63.80000 160.096
63.81000 157.099
63.82000 156.165
63.83000 158.803
63.84000 161.505
63.85000 160.256
63.86000 154.369
63.87000 148.487
63.88000 147.286
63.89000 149.701
63.90000 152.182
63.91000 157.502
63.92000 164.325
63.93000 170.697
63.94000 169.113
63.95000 164.612
63.96000 160.453
63.97000 162.641
63.98000 166.040
63.99000 168.670
64.00000 166.650
64.01000 163.847
64.02000 162.982
64.03000 169.922
64.04000 177.684
64.05000 183.471
64.06000 170.021
64.07000 158.674
64.08000 151.434
64.09000 152.073
64.10000 152.906
64.11000 155.030
64.12000 158.847
64.13000 162.669
64.14000 164.744
64.15000 165.305
64.16000 165.842
64.17000 164.925
64.18000 163.157
64.19000 161.538
64.20000 163.157
64.21000 166.089
64.22000 168.830
64.23000 169.573
64.24000 169.738
64.25000 170.079
64.26000 171.612
64.27000 173.370
64.28000 174.632
64.29000 173.669
64.30000 172.438
64.31000 171.494
64.32000 170.624
64.33000 169.942
64.34000 170.104
64.35000 172.056
64.36000 174.067
64.37000 176.663
64.38000 180.116
64.39000 183.576
64.40000 183.808
64.41000 180.904
64.42000 177.991
64.43000 174.183
64.44000 169.794
64.45000 165.554
64.46000 165.394
64.47000 167.062
64.48000 168.640
64.49000 171.315
64.50000 174.085
64.51000 176.763
64.52000 178.724
64.53000 180.534
64.54000 182.509
64.55000 185.310
64.56000 188.226
64.57000 190.518
64.58000 191.984
64.59000 193.103
64.60000 194.052
64.61000 194.600
64.62000 195.132
64.63000 194.652
64.64000 192.532
64.65000 190.391
64.66000 189.272
64.67000 184.226
64.68000 180.841
64.69000 182.232
64.70000 187.075
64.71000 191.817
64.72000 192.962
64.73000 192.324
64.74000 191.715
64.75000 190.940
64.76000 190.168
64.77000 189.618
64.78000 191.052
64.79000 192.952
64.80000 195.664
64.81000 202.932
64.82000 210.910
64.83000 217.331
64.84000 218.196
64.85000 218.465
64.86000 217.960
64.87000 215.447
64.88000 212.830
64.89000 212.911
64.90000 217.836
64.91000 222.859
64.92000 225.624
64.93000 231.146
64.94000 234.957
64.95000 239.597
64.96000 244.905
64.97000 250.220
64.98000 255.845
64.99000 261.642
65.00000 267.225
65.01000 282.480
65.02000 300.258
65.03000 316.914
65.04000 322.106
65.05000 324.297
65.06000 327.061
65.07000 333.449
65.08000 340.473
65.09000 346.254
65.10000 361.081
65.11000 374.095
65.12000 387.465
65.13000 401.854
65.14000 416.306
65.15000 431.280
65.16000 447.290
65.17000 463.328
65.18000 472.601
65.19000 479.906
65.20000 485.022
65.21000 497.119
65.22000 515.512
65.23000 533.800
65.24000 544.915
65.25000 551.666
65.26000 558.220
65.27000 567.650
65.28000 577.746
65.29000 587.074
65.30000 587.280
65.31000 584.835
65.32000 582.755
65.33000 583.284
65.34000 584.327
65.35000 585.204
65.36000 578.768
65.37000 572.634
65.38000 567.328
65.39000 564.646
65.40000 562.159
65.41000 562.350
65.42000 568.430
65.43000 574.721
65.44000 578.526
65.45000 562.710
65.46000 551.294
65.47000 540.755
65.48000 531.103
65.49000 521.485
65.50000 515.497
65.51000 511.961
65.52000 508.504
65.53000 503.353
65.54000 497.661
65.55000 491.918
65.56000 485.452
65.57000 478.753
65.58000 473.067
65.59000 475.617
65.60000 479.976
65.61000 483.709
65.62000 486.504
65.63000 488.748
65.64000 492.791
65.65000 503.168
65.66000 514.096
65.67000 531.142
65.68000 563.068
65.69000 595.662
65.70000 616.222
65.71000 701.435
65.72000 763.887
65.73000 832.865
65.74000 909.264
65.75000 985.660
65.76000 1059.692
65.77000 1131.949
65.78000 1202.998
65.79000 1282.702
65.80000 1364.099
65.81000 1443.481
65.82000 1489.169
65.83000 1522.850
65.84000 1553.794
65.85000 1559.220
65.86000 1558.404
65.87000 1557.693
65.88000 1556.867
65.89000 1556.145
65.90000 1550.332
65.91000 1524.620
65.92000 1496.897
65.93000 1469.023
65.94000 1440.739
65.95000 1412.432
65.96000 1393.869
65.97000 1256.319
65.98000 1153.184
65.99000 1053.991
66.00000 959.806
66.01000 865.659
66.02000 782.006
66.03000 707.154
66.04000 633.181
66.05000 579.536
66.06000 538.495
66.07000 498.034
66.08000 469.362
66.09000 445.337
66.10000 422.216
66.11000 408.833
66.12000 398.097
66.13000 388.580
66.14000 379.788
66.15000 372.291
66.16000 364.809
66.17000 357.391
66.18000 349.980
66.19000 347.148
66.20000 357.937
66.21000 369.630
66.22000 377.580
66.23000 374.799
66.24000 372.481
66.25000 374.340
66.26000 382.114
66.27000 389.933
66.28000 401.895
66.29000 417.752
66.30000 433.488
66.31000 450.949
66.32000 469.185
66.33000 487.147
66.34000 498.199
66.35000 506.238
66.36000 514.341
66.37000 523.248
66.38000 532.397
66.39000 540.632
66.40000 548.954
66.41000 556.265
66.42000 562.547
66.43000 563.836
66.44000 564.464
66.45000 564.442
66.46000 562.284
66.47000 559.957
66.48000 558.321
66.49000 556.625
66.50000 555.338
66.51000 548.913
66.52000 534.402
66.53000 519.793
66.54000 500.204
66.55000 475.355
66.56000 450.615
66.57000 432.943
66.58000 420.362
66.59000 407.801
66.60000 395.867
66.61000 384.235
66.62000 373.409
66.63000 374.572
66.64000 379.738
66.65000 384.454
66.66000 376.124
66.67000 366.090
66.68000 357.421
66.69000 356.167
66.70000 356.027
66.71000 357.649
66.72000 365.702
66.73000 374.346
66.74000 380.618
66.75000 368.220
66.76000 357.996
66.77000 351.830
66.78000 352.747
66.79000 353.792
66.80000 355.944
66.81000 359.407
66.82000 362.864
66.83000 361.065
66.84000 355.189
66.85000 349.599
66.86000 356.426
66.87000 369.874
66.88000 382.780
66.89000 386.006
66.90000 385.656
66.91000 385.332
66.92000 378.428
66.93000 370.726
66.94000 364.564
66.95000 367.808
66.96000 372.647
66.97000 376.743
66.98000 377.828
66.99000 378.593
67.00000 379.164
67.01000 390.121
67.02000 399.140
67.03000 406.275
67.04000 409.769
67.05000 413.171
67.06000 414.900
67.07000 414.420
67.08000 413.929
67.09000 411.786
67.10000 408.208
67.11000 404.757
67.12000 409.126
67.13000 418.113
67.14000 426.709
67.15000 426.727
67.16000 423.242
67.17000 419.980
67.18000 419.418
67.19000 419.600
67.20000 420.469
67.21000 426.078
67.22000 432.588
67.23000 436.926
67.24000 431.440
67.25000 424.757
67.26000 419.626
67.27000 431.646
67.28000 442.105
67.29000 448.398
67.30000 445.787
67.31000 442.881
67.32000 441.477
67.33000 442.283
67.34000 443.107
67.35000 443.613
67.36000 443.806
67.37000 444.027
67.38000 446.824
67.39000 451.311
67.40000 455.664
67.41000 456.319
67.42000 455.304
67.43000 454.344
67.44000 461.566
67.45000 470.558
67.46000 478.292
67.47000 476.185
67.48000 471.983
67.49000 469.176
67.50000 473.416
67.51000 478.635
67.52000 482.744
67.53000 482.703
67.54000 482.394
67.55000 484.673
67.56000 493.070
67.57000 501.724
67.58000 510.417
67.59000 519.173
67.60000 527.931
67.61000 532.520
67.62000 524.168
67.63000 518.533
67.64000 517.297
67.65000 519.268
67.66000 521.138
67.67000 519.417
67.68000 515.903
67.69000 512.546
67.70000 523.262
67.71000 537.754
67.72000 551.057
67.73000 553.714
67.74000 553.846
67.75000 554.331
67.76000 556.820
67.77000 559.624
67.78000 561.884
67.79000 559.498
67.80000 557.195
67.81000 557.610
67.82000 565.131
67.83000 573.023
67.84000 577.813
67.85000 576.990
67.86000 576.051
67.87000 575.533
67.88000 581.080
67.89000 584.900
67.90000 582.255
67.91000 574.356
67.92000 566.616
67.93000 566.606
67.94000 570.871
67.95000 574.981
67.96000 588.335
67.97000 604.212
67.98000 618.959
67.99000 622.048
68.00000 622.061
68.01000 622.346
68.02000 624.374
68.03000 626.710
68.04000 628.635
68.05000 633.541
68.06000 637.854
68.07000 642.051
68.08000 645.916
68.09000 649.759
68.10000 655.172
68.11000 663.730
68.12000 672.375
68.13000 677.391
68.14000 675.215
68.15000 673.660
68.16000 678.100
68.17000 687.989
68.18000 697.743
68.19000 698.006
68.20000 692.452
68.21000 687.058
68.22000 696.089
68.23000 710.464
68.24000 724.507
68.25000 734.556
68.26000 743.436
68.27000 750.793
68.28000 747.171
68.29000 741.373
68.30000 736.496
68.31000 752.919
68.32000 768.884
68.33000 783.805
68.34000 795.386
68.35000 806.716
68.36000 814.512
68.37000 814.475
68.38000 814.153
68.39000 813.958
68.40000 824.834
68.41000 832.679
68.42000 845.634
68.43000 863.812
68.44000 881.880
68.45000 887.619
68.46000 884.967
68.47000 882.373
68.48000 907.934
68.49000 945.087
68.50000 980.584
68.51000 992.612
68.52000 997.030
68.53000 1003.164
68.54000 1023.393
68.55000 1046.742
68.56000 1066.765
68.57000 1096.375
68.58000 1122.563
68.59000 1153.169
68.60000 1199.446
68.61000 1247.102
68.62000 1297.852
68.63000 1356.181
68.64000 1414.856
68.65000 1451.975
68.66000 1578.743
68.67000 1671.708
68.68000 1764.071
68.69000 1855.746
68.70000 1947.359
68.71000 2025.721
68.72000 2094.049
68.73000 2161.262
68.74000 2240.380
68.75000 2322.922
68.76000 2404.961
68.77000 2478.474
68.78000 2548.927
68.79000 2624.395
68.80000 2747.085
68.81000 2881.417
68.82000 2998.678
68.83000 3165.867
68.84000 3315.922
68.85000 3491.149
68.86000 3765.525
68.87000 4050.023
68.88000 4404.341
68.89000 4947.798
68.90000 5501.838
68.91000 5866.149
68.92000 7828.889
68.93000 9301.114
68.94000 11676.506
68.95000 15208.836
68.96000 18748.074
68.97000 23795.309
68.98000 30117.508
68.99000 36367.582
69.00000 43953.492
69.01000 52105.934
69.02000 60196.617
69.03000 67012.125
69.04000 73321.453
69.05000 79415.297
69.06000 83162.336
69.07000 86266.648
69.08000 89021.469
69.09000 90184.367
69.10000 90937.867
69.11000 91697.398
69.12000 92483.352
69.13000 93272.398
69.14000 94097.234
69.15000 95029.328
69.16000 95968.633
69.17000 96608.875
69.18000 96728.203
69.19000 96805.383
69.20000 96029.984
69.21000 94038.172
69.22000 92036.891
69.23000 88638.047
69.24000 83915.102
69.25000 79226.992
69.26000 74109.195
69.27000 68806.938
69.28000 63555.480
69.29000 59612.133
69.30000 56242.914
69.31000 52974.238
69.32000 50985.758
69.33000 49386.082
69.34000 47944.738
69.35000 46642.621
69.36000 45525.410
69.37000 44274.223
69.38000 42367.699
69.39000 40373.453
69.40000 38118.637
69.41000 34998.871
69.42000 31810.303
69.43000 29563.027
69.44000 24778.998
69.45000 21074.684
69.46000 17621.109
69.47000 14564.973
69.48000 11513.842
69.49000 9142.808
69.50000 7496.194
69.51000 5856.705
69.52000 4779.950
69.53000 4107.786
69.54000 3443.650
69.55000 3045.214
69.56000 2775.744
69.57000 2512.605
69.58000 2344.938
69.59000 2209.379
69.60000 2085.512
69.61000 1988.909
69.62000 1908.683
69.63000 1827.655
69.64000 1742.231
69.65000 1656.140
69.66000 1576.588
69.67000 1521.105
69.68000 1467.860
69.69000 1429.145
69.70000 1393.448
69.71000 1366.098
69.72000 1339.212
69.73000 1313.142
69.74000 1287.087
69.75000 1254.347
69.76000 1213.632
69.77000 1172.979
69.78000 1143.329
69.79000 1122.447
69.80000 1101.465
69.81000 1076.099
69.82000 1048.378
69.83000 1021.154
69.84000 1002.954
69.85000 988.111
69.86000 974.373
69.87000 951.100
69.88000 927.985
69.89000 907.413
69.90000 902.496
69.91000 900.256
69.92000 898.341
69.93000 897.754
69.94000 897.310
69.95000 896.978
69.96000 858.730
69.97000 827.115
69.98000 808.382
69.99000 814.722
70.00000 821.707
