20.00000 559.365
20.01000 565.820
20.02000 573.197
20.03000 578.665
20.04000 576.505
20.05000 573.551
20.06000 571.353
20.07000 562.904
20.08000 556.053
20.09000 551.471
20.10000 551.209
20.11000 551.050
20.12000 557.634
20.13000 572.987
20.14000 588.366
20.15000 590.793
20.16000 582.116
20.17000 573.493
20.18000 568.008
20.19000 564.348
20.20000 561.056
20.21000 565.596
20.22000 573.288
20.23000 580.475
20.24000 576.159
20.25000 569.344
20.26000 563.376
20.27000 563.141
20.28000 563.979
20.29000 564.861
20.30000 565.937
20.31000 567.037
20.32000 567.878
20.33000 574.633
20.34000 580.282
20.35000 582.231
20.36000 576.385
20.37000 570.291
20.38000 566.450
20.39000 565.873
20.40000 565.323
20.41000 563.576
20.42000 560.678
20.43000 557.835
20.44000 559.873
20.45000 565.061
20.46000 570.007
20.47000 568.535
20.48000 564.206
20.49000 560.117
20.50000 562.739
20.51000 567.042
20.52000 570.601
20.53000 568.435
20.54000 565.070
20.55000 562.554
20.56000 564.261
20.57000 566.543
20.58000 568.333
20.59000 577.964
20.60000 586.176
20.61000 589.353
20.62000 580.807
20.63000 571.782
20.64000 566.926
20.65000 568.773
20.66000 570.711
20.67000 571.718
20.68000 569.730
20.69000 568.398
20.70000 568.680
20.71000 570.120
20.72000 571.390
20.73000 566.775
20.74000 559.264
20.75000 552.099
20.76000 547.819
20.77000 544.760
20.78000 542.175
20.79000 543.748
20.80000 546.292
20.81000 548.137
20.82000 546.086
20.83000 543.434
20.84000 541.303
20.85000 541.596
20.86000 542.020
20.87000 543.629
20.88000 548.290
20.89000 553.106
20.90000 559.062
20.91000 567.049
20.92000 575.077
20.93000 579.480
20.94000 573.883
20.95000 570.015
20.96000 565.536
20.97000 560.568
20.98000 555.720
20.99000 556.458
21.00000 560.238
21.01000 563.876
21.02000 562.789
21.03000 560.097
21.04000 557.751
21.05000 558.912
21.06000 560.983
21.07000 562.887
21.08000 563.746
21.09000 564.423
21.10000 564.979
21.11000 562.459
21.12000 560.111
21.13000 558.731
21.14000 560.105
21.15000 561.648
21.16000 562.166
21.17000 560.661
21.18000 559.101
21.19000 558.203
21.20000 555.719
21.21000 553.973
21.22000 551.440
21.23000 548.203
21.24000 545.056
21.25000 547.868
21.26000 554.278
21.27000 560.497
21.28000 556.265
21.29000 548.118
21.30000 540.469
21.31000 538.669
21.32000 538.557
21.33000 538.908
21.34000 542.532
21.35000 546.795
21.36000 550.371
21.37000 565.470
21.38000 579.239
21.39000 587.051
21.40000 576.084
21.41000 563.743
21.42000 553.779
21.43000 549.005
21.44000 544.413
21.45000 541.645
21.46000 550.157
21.47000 556.295
21.48000 558.398
21.49000 556.448
21.50000 554.568
21.51000 560.075
21.52000 570.532
21.53000 580.748
21.54000 572.209
21.55000 555.746
21.56000 540.787
21.57000 546.619
21.58000 559.093
21.59000 570.428
21.60000 572.586
21.61000 572.744
21.62000 572.880
21.63000 563.830
21.64000 555.095
21.65000 549.078
21.66000 552.556
21.67000 556.850
21.68000 559.975
21.69000 560.276
21.70000 560.453
21.71000 560.563
21.72000 582.424
21.73000 598.478
21.74000 609.855
21.75000 615.959
21.76000 621.986
21.77000 614.244
21.78000 596.239
21.79000 578.542
21.80000 571.893
21.81000 570.917
21.82000 570.638
21.83000 581.873
21.84000 597.180
21.85000 612.150
21.86000 624.009
21.87000 635.113
21.88000 644.782
21.89000 653.554
21.90000 660.922
21.91000 666.690
21.92000 666.249
21.93000 665.188
21.94000 668.860
21.95000 685.166
21.96000 702.160
21.97000 713.273
21.98000 716.597
21.99000 718.912
22.00000 724.906
22.01000 735.539
22.02000 746.191
22.03000 758.675
22.04000 772.685
22.05000 786.525
22.06000 785.135
22.07000 775.390
22.08000 765.995
22.09000 763.596
22.10000 763.933
22.11000 764.447
22.12000 766.835
22.13000 769.730
22.14000 772.292
22.15000 766.184
22.16000 759.542
22.17000 753.227
22.18000 748.321
22.19000 743.577
22.20000 738.495
22.21000 732.412
22.22000 726.264
22.23000 722.095
22.24000 712.596
22.25000 705.394
22.26000 699.672
22.27000 696.029
22.28000 692.400
22.29000 687.086
22.30000 680.204
22.31000 673.377
22.32000 674.477
22.33000 680.437
22.34000 685.724
22.35000 674.247
22.36000 655.520
22.37000 637.212
22.38000 624.108
22.39000 612.560
22.40000 602.178
22.41000 606.693
22.42000 613.294
22.43000 616.748
22.44000 605.056
22.45000 591.375
22.46000 580.720
22.47000 579.965
22.48000 579.979
22.49000 579.989
22.50000 589.500
22.51000 596.972
22.52000 593.449
22.53000 572.762
22.54000 551.873
22.55000 545.229
22.56000 553.503
22.57000 561.741
22.58000 567.840
22.59000 572.401
22.60000 576.750
22.61000 574.385
22.62000 568.809
22.63000 563.030
22.64000 554.253
22.65000 544.483
22.66000 535.573
22.67000 532.283
22.68000 530.496
22.69000 529.621
22.70000 533.664
22.71000 538.440
22.72000 540.820
22.73000 534.515
22.74000 527.420
22.75000 522.284
22.76000 521.932
22.77000 521.837
22.78000 521.922
22.79000 522.319
22.80000 522.722
22.81000 524.176
22.82000 526.863
22.83000 529.545
22.84000 529.252
22.85000 526.668
22.86000 524.196
22.87000 526.496
22.88000 531.321
22.89000 535.855
22.90000 535.267
22.91000 532.801
22.92000 530.523
22.93000 524.297
22.94000 517.817
22.95000 512.167
22.96000 511.545
22.97000 511.768
22.98000 513.493
22.99000 521.270
23.00000 529.683
23.01000 535.954
23.02000 532.877
23.03000 530.056
23.04000 526.399
23.05000 521.140
23.06000 515.842
23.07000 517.257
23.08000 527.473
23.09000 537.721
23.10000 538.438
23.11000 530.920
23.12000 523.426
23.13000 517.352
23.14000 512.110
23.15000 507.162
23.16000 508.569
23.17000 512.553
23.18000 516.277
23.19000 520.056
23.20000 523.501
23.21000 525.225
23.22000 515.191
23.23000 502.939
23.24000 494.106
23.25000 500.607
23.26000 508.960
23.27000 515.359
23.28000 503.110
23.29000 492.411
23.30000 487.714
23.31000 495.747
23.32000 504.195
23.33000 509.068
23.34000 508.723
23.35000 508.334
23.36000 510.058
23.37000 513.833
23.38000 517.559
23.39000 516.788
23.40000 513.093
23.41000 509.689
23.42000 514.159
23.43000 522.159
23.44000 529.721
23.45000 523.696
23.46000 514.288
23.47000 506.045
23.48000 506.832
23.49000 509.527
23.50000 511.270
23.51000 508.254
23.52000 504.583
23.53000 501.698
23.54000 500.754
23.55000 500.126
23.56000 502.982
23.57000 514.009
23.58000 525.376
23.59000 529.409
23.60000 521.558
23.61000 513.543
23.62000 509.360
23.63000 501.031
23.64000 495.458
23.65000 499.699
23.66000 511.034
23.67000 522.146
23.68000 525.456
23.69000 524.898
23.70000 524.366
23.71000 514.915
23.72000 503.291
23.73000 493.452
23.74000 499.435
23.75000 509.143
23.76000 517.206
23.77000 516.035
23.78000 513.427
23.79000 511.328
23.80000 510.855
23.81000 510.598
23.82000 512.384
23.83000 519.469
23.84000 526.826
23.85000 527.140
23.86000 514.804
23.87000 502.215
23.88000 495.285
23.89000 502.948
23.90000 508.238
23.91000 508.830
23.92000 505.635
23.93000 502.475
23.94000 500.934
23.95000 500.282
23.96000 499.654
23.97000 506.060
23.98000 514.585
23.99000 522.902
24.00000 529.083
24.01000 534.706
24.02000 538.981
24.03000 534.744
24.04000 529.016
24.05000 524.302
24.06000 519.389
24.07000 515.332
24.08000 508.944
24.09000 495.869
24.10000 482.379
24.11000 477.807
24.12000 490.965
24.13000 504.609
24.14000 512.497
24.15000 508.357
24.16000 505.410
24.17000 506.459
24.18000 511.111
24.19000 515.691
24.20000 515.348
24.21000 512.012
24.22000 508.774
24.23000 504.726
24.24000 500.563
24.25000 496.712
24.26000 496.563
24.27000 497.491
24.28000 498.572
24.29000 500.757
24.30000 503.158
24.31000 505.175
24.32000 505.793
24.33000 506.161
24.34000 506.226
24.35000 505.330
24.36000 504.363
24.37000 501.776
24.38000 495.624
24.39000 489.346
24.40000 485.548
24.41000 483.898
24.42000 482.738
24.43000 487.859
24.44000 499.343
24.45000 510.723
24.46000 510.992
24.47000 503.757
24.48000 496.686
24.49000 490.461
24.50000 484.873
24.51000 479.400
24.52000 475.552
24.53000 472.227
24.54000 469.434
24.55000 470.961
24.56000 473.436
24.57000 475.556
24.58000 488.446
24.59000 500.632
24.60000 508.870
24.61000 503.210
24.62000 496.341
24.63000 492.079
24.64000 494.156
24.65000 496.518
24.66000 498.008
24.67000 492.359
24.68000 488.186
24.69000 490.053
24.70000 498.783
24.71000 507.452
24.72000 502.277
24.73000 486.701
24.74000 471.386
24.75000 464.193
24.76000 461.275
24.77000 459.118
24.78000 469.692
24.79000 484.800
24.80000 498.308
24.81000 496.904
24.82000 491.852
24.83000 487.448
24.84000 488.587
24.85000 490.330
24.86000 491.161
24.87000 488.428
24.88000 485.336
24.89000 484.039
24.90000 487.569
24.91000 491.365
24.92000 493.854
24.93000 493.618
24.94000 493.398
24.95000 492.081
24.96000 489.368
24.97000 486.652
24.98000 484.639
24.99000 483.215
25.00000 481.807
25.01000 480.199
25.02000 478.520
25.03000 477.002
25.04000 478.764
25.05000 481.819
25.06000 484.854
25.07000 487.675
25.08000 490.439
25.09000 492.888
25.10000 490.685
25.11000 488.041
25.12000 484.817
25.13000 479.069
25.14000 473.028
25.15000 468.115
25.16000 466.558
25.17000 465.224
25.18000 464.316
25.19000 472.456
25.20000 478.737
25.21000 481.477
25.22000 479.205
25.23000 476.896
25.24000 475.257
25.25000 474.248
25.26000 473.247
25.27000 476.526
25.28000 482.406
25.29000 488.047
25.30000 487.667
25.31000 484.665
25.32000 481.693
25.33000 479.097
25.34000 476.615
25.35000 474.382
25.36000 473.642
25.37000 473.262
25.38000 472.285
25.39000 468.413
25.40000 464.158
25.41000 459.849
25.42000 455.364
25.43000 450.865
25.44000 447.702
25.45000 457.689
25.46000 465.643
25.47000 471.142
25.48000 472.777
25.49000 474.366
25.50000 472.451
25.51000 466.834
25.52000 461.242
25.53000 459.788
25.54000 461.221
25.55000 462.793
25.56000 468.887
25.57000 477.160
25.58000 484.682
25.59000 481.038
25.60000 473.667
25.61000 466.938
25.62000 473.197
25.63000 481.380
25.64000 487.784
25.65000 484.524
25.66000 479.811
25.67000 476.148
25.68000 476.320
25.69000 476.844
25.70000 477.225
25.71000 468.267
25.72000 461.035
25.73000 458.656
25.74000 464.742
25.75000 470.981
25.76000 473.044
25.77000 470.165
25.78000 467.284
25.79000 463.514
25.80000 459.072
25.81000 454.803
25.82000 457.995
25.83000 465.164
25.84000 471.863
25.85000 470.169
25.86000 465.374
25.87000 460.941
25.88000 463.671
25.89000 467.757
25.90000 470.214
25.91000 462.729
25.92000 453.560
25.93000 447.066
25.94000 451.433
25.95000 456.954
25.96000 461.078
25.97000 466.622
25.98000 471.009
25.99000 472.454
26.00000 468.217
26.01000 463.838
26.02000 459.046
26.03000 453.712
26.04000 448.379
26.05000 450.122
26.06000 458.029
26.07000 465.843
26.08000 468.018
26.09000 466.861
26.10000 465.777
26.11000 466.273
26.12000 467.415
26.13000 468.483
26.14000 468.655
26.15000 468.582
26.16000 468.063
26.17000 464.467
26.18000 460.286
26.19000 457.964
26.20000 464.039
26.21000 471.138
26.22000 476.587
26.23000 462.051
26.24000 449.447
26.25000 439.539
26.26000 435.389
26.27000 431.430
26.28000 433.108
26.29000 443.072
26.30000 453.110
26.31000 461.187
26.32000 467.344
26.33000 473.500
26.34000 479.598
26.35000 485.658
26.36000 491.150
26.37000 481.020
26.38000 463.834
26.39000 447.578
26.40000 445.716
26.41000 448.141
26.42000 449.862
26.43000 446.064
26.44000 441.093
26.45000 438.026
26.46000 444.574
26.47000 452.457
26.48000 458.663
26.49000 464.643
26.50000 469.419
26.51000 470.754
26.52000 463.960
26.53000 456.822
26.54000 451.029
26.55000 447.432
26.56000 443.867
26.57000 441.998
26.58000 442.080
26.59000 442.165
26.60000 447.101
26.61000 455.572
26.62000 463.671
26.63000 458.485
26.64000 446.664
26.65000 435.372
26.66000 438.969
26.67000 447.103
26.68000 454.620
26.69000 456.614
26.70000 457.299
26.71000 458.425
26.72000 462.047
26.73000 466.060
26.74000 469.296
26.75000 460.756
26.76000 452.894
26.77000 447.369
26.78000 447.950
26.79000 448.850
26.80000 449.314
26.81000 448.990
26.82000 448.650
26.83000 448.462
26.84000 448.539
26.85000 448.588
26.86000 446.757
26.87000 443.398
26.88000 440.067
26.89000 438.045
26.90000 436.746
26.91000 435.494
26.92000 441.743
26.93000 450.313
26.94000 457.972
26.95000 456.224
26.96000 451.995
26.97000 447.709
26.98000 443.051
26.99000 438.328
27.00000 434.436
27.01000 447.951
27.02000 460.673
27.03000 468.252
27.04000 460.967
27.05000 452.745
27.06000 448.734
27.07000 453.155
27.08000 457.812
27.09000 460.514
27.10000 457.124
27.11000 454.718
27.12000 450.445
27.13000 444.477
27.14000 438.624
27.15000 440.931
27.16000 448.236
27.17000 455.331
27.18000 455.040
27.19000 451.795
27.20000 448.430
27.21000 443.617
27.22000 438.381
27.23000 434.040
27.24000 436.149
27.25000 439.536
27.26000 442.385
27.27000 440.321
27.28000 438.077
27.29000 435.113
27.30000 429.847
27.31000 424.408
27.32000 422.991
27.33000 430.483
27.34000 438.299
27.35000 443.041
27.36000 445.783
27.37000 447.723
27.38000 451.738
27.39000 457.870
27.40000 463.936
27.41000 462.404
27.42000 455.703
27.43000 449.151
27.44000 442.669
27.45000 436.485
27.46000 430.955
27.47000 434.702
27.48000 441.457
27.49000 446.933
27.50000 441.920
27.51000 434.587
27.52000 428.299
27.53000 431.179
27.54000 434.735
27.55000 436.467
27.56000 431.729
27.57000 426.423
27.58000 423.315
27.59000 425.593
27.60000 428.116
27.61000 429.712
27.62000 437.750
27.63000 443.653
27.64000 446.895
27.65000 447.089
27.66000 447.273
27.67000 446.202
27.68000 444.182
27.69000 442.194
27.70000 437.614
27.71000 431.882
27.72000 426.636
27.73000 429.619
27.74000 435.555
27.75000 440.604
27.76000 437.307
27.77000 431.954
27.78000 427.281
27.79000 428.671
27.80000 430.711
27.81000 432.497
27.82000 433.278
27.83000 433.956
27.84000 433.795
27.85000 431.360
27.86000 428.798
27.87000 427.114
27.88000 424.241
27.89000 422.106
27.90000 423.937
27.91000 430.846
27.92000 437.767
27.93000 440.021
27.94000 438.332
27.95000 436.662
27.96000 437.237
27.97000 439.055
27.98000 440.558
27.99000 435.543
28.00000 427.941
28.01000 421.318
28.02000 425.346
28.03000 432.290
28.04000 438.452
28.05000 449.783
28.06000 460.425
28.07000 467.468
28.08000 458.736
28.09000 448.154
28.10000 440.587
28.11000 442.052
28.12000 444.124
28.13000 445.536
28.14000 443.790
28.15000 442.413
28.16000 439.074
28.17000 432.935
28.18000 426.774
28.19000 421.109
28.20000 415.912
28.21000 410.753
28.22000 413.497
28.23000 421.139
28.24000 428.605
28.25000 431.541
28.26000 432.490
28.27000 433.010
28.28000 428.082
28.29000 421.499
28.30000 415.569
28.31000 419.392
28.32000 424.510
28.33000 428.707
28.34000 428.399
28.35000 427.489
28.36000 428.327
28.37000 434.969
28.38000 442.072
28.39000 447.078
28.40000 441.639
28.41000 437.202
28.42000 431.553
28.43000 423.986
28.44000 416.395
28.45000 414.256
28.46000 417.925
28.47000 421.579
28.48000 429.799
28.49000 441.130
28.50000 452.175
28.51000 453.730
28.52000 450.681
28.53000 447.300
28.54000 438.921
28.55000 428.861
28.56000 419.669
28.57000 418.238
28.58000 418.551
28.59000 419.339
28.60000 422.725
28.61000 426.505
28.62000 429.393
28.63000 428.998
28.64000 428.299
28.65000 427.791
28.66000 433.572
28.67000 438.257
28.68000 439.573
28.69000 434.968
28.70000 430.252
28.71000 427.432
28.72000 426.874
28.73000 426.322
28.74000 424.326
28.75000 421.210
28.76000 418.195
28.77000 419.662
28.78000 423.536
28.79000 427.084
28.80000 424.724
28.81000 420.167
28.82000 415.949
28.83000 422.177
28.84000 430.177
28.85000 436.633
28.86000 433.578
28.87000 428.897
28.88000 423.439
28.89000 414.801
28.90000 405.822
28.91000 399.102
28.92000 408.576
28.93000 416.723
28.94000 424.307
28.95000 430.795
28.96000 437.254
28.97000 435.787
28.98000 423.765
28.99000 411.698
29.00000 409.412
29.01000 415.723
29.02000 421.902
29.03000 419.785
29.04000 412.733
29.05000 406.035
29.06000 407.194
29.07000 411.585
29.08000 415.698
29.09000 419.580
29.10000 423.051
29.11000 424.293
29.12000 410.030
29.13000 392.793
29.14000 380.288
29.15000 389.338
29.16000 401.040
29.17000 410.039
29.18000 416.679
29.19000 421.799
29.20000 423.571
29.21000 418.137
29.22000 412.460
29.23000 411.368
29.24000 417.068
29.25000 422.831
29.26000 426.256
29.27000 427.374
29.28000 428.471
29.29000 427.485
29.30000 425.123
29.31000 422.689
29.32000 418.206
29.33000 412.793
29.34000 407.668
29.35000 407.113
29.36000 407.927
29.37000 408.925
29.38000 411.373
29.39000 414.134
29.40000 416.570
29.41000 417.360
29.42000 417.919
29.43000 418.360
29.44000 421.344
29.45000 423.908
29.46000 424.880
29.47000 422.059
29.48000 419.077
29.49000 414.374
29.50000 406.843
29.51000 399.270
29.52000 395.286
29.53000 398.061
29.54000 399.968
29.55000 405.779
29.56000 414.457
29.57000 423.009
29.58000 426.999
29.59000 428.694
29.60000 430.314
29.61000 426.693
29.62000 421.624
29.63000 416.869
29.64000 414.955
29.65000 413.719
29.66000 412.571
29.67000 411.932
29.68000 411.372
29.69000 410.921
29.70000 417.445
29.71000 423.304
29.72000 428.382
29.73000 431.405
29.74000 434.319
29.75000 432.937
29.76000 423.726
29.77000 414.350
29.78000 409.151
29.79000 416.588
29.80000 421.739
29.81000 422.727
29.82000 420.307
29.83000 417.926
29.84000 417.468
29.85000 418.083
29.86000 418.675
29.87000 418.721
29.88000 418.567
29.89000 418.996
29.90000 425.513
29.91000 433.647
29.92000 440.907
29.93000 442.545
29.94000 443.181
29.95000 443.706
29.96000 445.836
29.97000 447.739
29.98000 448.199
29.99000 444.456
30.00000 440.444
30.01000 438.671
30.02000 441.411
30.03000 444.281
30.04000 445.951
30.05000 449.702
30.06000 452.347
30.07000 455.389
30.08000 458.795
30.09000 462.198
30.10000 465.471
30.11000 468.664
30.12000 471.766
30.13000 462.344
30.14000 448.317
30.15000 435.931
30.16000 443.486
30.17000 456.921
30.18000 468.049
30.19000 462.396
30.20000 453.391
30.21000 445.806
30.22000 444.352
30.23000 443.799
30.24000 442.061
30.25000 436.504
30.26000 430.656
30.27000 425.224
30.28000 420.719
30.29000 416.248
30.30000 413.527
30.31000 424.981
30.32000 433.274
30.33000 436.431
30.34000 434.297
30.35000 432.153
30.36000 428.773
30.37000 424.547
30.38000 420.413
30.39000 423.835
30.40000 430.538
30.41000 436.858
30.42000 437.684
30.43000 436.717
30.44000 435.435
30.45000 431.550
30.46000 427.085
30.47000 423.251
30.48000 420.748
30.49000 418.797
30.50000 419.890
30.51000 431.863
30.52000 444.804
30.53000 454.062
30.54000 454.237
30.55000 453.990
30.56000 453.834
30.57000 444.151
30.58000 437.008
30.59000 435.853
30.60000 441.618
30.61000 447.375
30.62000 449.111
30.63000 447.781
30.64000 446.471
30.65000 447.927
30.66000 450.734
30.67000 453.348
30.68000 452.670
30.69000 450.802
30.70000 449.844
30.71000 457.543
30.72000 467.390
30.73000 475.997
30.74000 473.239
30.75000 469.269
30.76000 466.516
30.77000 468.588
30.78000 471.158
30.79000 472.992
30.80000 472.815
30.81000 472.525
30.82000 472.333
30.83000 478.598
30.84000 483.328
30.85000 488.161
30.86000 493.126
30.87000 498.088
30.88000 500.286
30.89000 500.131
30.90000 499.977
30.91000 506.989
30.92000 517.879
30.93000 528.670
30.94000 537.409
30.95000 545.328
30.96000 553.443
30.97000 563.724
30.98000 574.602
30.99000 584.266
31.00000 598.863
31.01000 612.317
31.02000 625.593
31.03000 638.086
31.04000 650.487
31.05000 662.279
31.06000 672.235
31.07000 682.067
31.08000 688.784
31.09000 741.889
31.10000 782.708
31.11000 826.076
31.12000 873.107
31.13000 920.166
31.14000 969.315
31.15000 1020.459
31.16000 1071.238
31.17000 1118.674
31.18000 1163.244
31.19000 1209.117
31.20000 1289.102
31.21000 1384.162
31.22000 1480.792
31.23000 1597.652
31.24000 1720.699
31.25000 1831.678
31.26000 1944.603
31.27000 2044.116
31.28000 2149.428
31.29000 2283.322
31.30000 2421.074
31.31000 2549.339
31.32000 2645.887
31.33000 2739.885
31.34000 2806.279
31.35000 2934.860
31.36000 3034.370
31.37000 3119.153
31.38000 3180.425
31.39000 3241.392
31.40000 3284.674
31.41000 3308.969
31.42000 3333.160
31.43000 3328.637
31.44000 3303.911
31.45000 3278.602
31.46000 3233.636
31.47000 3179.062
31.48000 3123.046
31.49000 3045.030
31.50000 2959.564
31.51000 2881.397
31.52000 2767.474
31.53000 2658.842
31.54000 2549.712
31.55000 2437.835
31.56000 2325.539
31.57000 2214.106
31.58000 2105.880
31.59000 1997.955
31.60000 1919.321
31.61000 1792.283
31.62000 1692.588
31.63000 1594.666
31.64000 1499.879
31.65000 1405.152
31.66000 1323.474
31.67000 1257.486
31.68000 1191.649
31.69000 1132.871
31.70000 1079.940
31.71000 1027.213
31.72000 983.751
31.73000 945.299
31.74000 906.936
31.75000 870.212
31.76000 834.103
31.77000 800.651
31.78000 766.152
31.79000 734.872
31.80000 706.140
31.81000 693.228
31.82000 683.043
31.83000 671.266
31.84000 652.928
31.85000 633.879
31.86000 619.593
31.87000 593.217
31.88000 572.044
31.89000 554.416
31.90000 543.737
31.91000 533.240
31.92000 523.423
31.93000 514.518
31.94000 505.622
31.95000 499.471
31.96000 495.758
31.97000 492.070
31.98000 489.971
31.99000 488.824
32.00000 487.481
32.01000 481.733
32.02000 474.160
32.03000 467.062
32.04000 462.792
32.05000 459.642
32.06000 455.986
32.07000 448.770
32.08000 440.867
32.09000 434.957
32.10000 438.203
32.11000 442.585
32.12000 445.962
32.13000 436.858
32.14000 428.933
32.15000 422.711
32.16000 420.179
32.17000 417.775
32.18000 413.730
32.19000 407.237
32.20000 400.721
32.21000 399.095
32.22000 402.341
32.23000 405.563
32.24000 406.471
32.25000 405.840
32.26000 405.146
32.27000 402.668
32.28000 399.372
32.29000 396.249
32.30000 394.836
32.31000 394.034
32.32000 393.696
32.33000 397.049
32.34000 401.200
32.35000 404.459
32.36000 403.144
32.37000 401.182
32.38000 399.632
32.39000 403.361
32.40000 406.716
32.41000 406.472
32.42000 397.601
32.43000 388.355
32.44000 383.941
32.45000 387.533
32.46000 391.245
32.47000 393.206
32.48000 384.035
32.49000 377.860
32.50000 382.158
32.51000 394.205
32.52000 405.933
32.53000 405.784
32.54000 399.617
32.55000 393.718
32.56000 392.836
32.57000 393.655
32.58000 393.744
32.59000 387.176
32.60000 379.003
32.61000 372.555
32.62000 376.031
32.63000 381.092
32.64000 385.186
32.65000 390.896
32.66000 395.672
32.67000 398.016
32.68000 393.911
32.69000 389.459
32.70000 386.912
32.71000 387.858
32.72000 388.880
32.73000 389.448
32.74000 385.037
32.75000 381.979
32.76000 379.917
32.77000 378.678
32.78000 377.577
32.79000 383.540
32.80000 393.467
32.81000 403.044
32.82000 408.009
32.83000 410.996
32.84000 413.655
32.85000 412.867
32.86000 411.155
32.87000 410.236
32.88000 414.451
32.89000 419.588
32.90000 423.835
32.91000 427.815
32.92000 431.072
32.93000 432.757
32.94000 429.835
32.95000 426.614
32.96000 423.491
32.97000 420.566
32.98000 417.646
32.99000 415.942
33.00000 418.166
33.01000 419.747
33.02000 419.025
33.03000 416.173
33.04000 413.323
33.05000 410.563
33.06000 407.858
33.07000 405.230
33.08000 399.087
33.09000 391.811
33.10000 384.530
33.11000 377.185
33.12000 369.822
33.13000 363.494
33.14000 364.762
33.15000 367.560
33.16000 369.920
33.17000 362.244
33.18000 354.741
33.19000 349.246
33.20000 350.276
33.21000 351.806
33.22000 353.157
33.23000 354.105
33.24000 355.037
33.25000 355.606
33.26000 359.067
33.27000 361.565
33.28000 362.045
33.29000 360.428
33.30000 358.833
33.31000 359.874
33.32000 362.735
33.33000 365.535
33.34000 363.062
33.35000 358.284
33.36000 353.762
33.37000 352.964
33.38000 353.392
33.39000 353.367
33.40000 349.549
33.41000 344.879
33.42000 340.864
33.43000 339.961
33.44000 339.586
33.45000 339.379
33.46000 339.775
33.47000 340.227
33.48000 339.777
33.49000 337.090
33.50000 334.298
33.51000 332.522
33.52000 342.295
33.53000 349.541
33.54000 351.783
33.55000 348.199
33.56000 344.602
33.57000 339.874
33.58000 334.277
33.59000 328.768
33.60000 332.357
33.61000 340.468
33.62000 348.145
33.63000 348.279
33.64000 345.667
33.65000 343.329
33.66000 343.621
33.67000 344.572
33.68000 345.404
33.69000 345.154
33.70000 344.786
33.71000 345.406
33.72000 349.978
33.73000 354.962
33.74000 358.170
33.75000 356.500
33.76000 354.548
33.77000 353.259
33.78000 351.366
33.79000 349.959
33.80000 348.390
33.81000 346.610
33.82000 344.835
33.83000 346.549
33.84000 351.261
33.85000 355.922
33.86000 357.018
33.87000 356.062
33.88000 354.832
33.89000 347.763
33.90000 338.343
33.91000 329.856
33.92000 331.740
33.93000 336.506
33.94000 340.745
33.95000 337.840
33.96000 334.157
33.97000 332.034
33.98000 336.854
33.99000 342.503
34.00000 346.516
34.01000 345.551
34.02000 344.242
34.03000 343.346
34.04000 351.833
34.05000 358.414
34.06000 360.945
34.07000 357.609
34.08000 354.225
34.09000 351.741
34.10000 350.124
34.11000 348.517
34.12000 345.489
34.13000 341.605
34.14000 337.795
34.15000 335.963
34.16000 335.012
34.17000 333.696
34.18000 327.645
34.19000 320.134
34.20000 313.353
34.21000 322.643
34.22000 333.767
34.23000 343.893
34.24000 349.059
34.25000 353.548
34.26000 355.532
34.27000 349.075
34.28000 341.932
34.29000 336.875
34.30000 327.385
34.31000 320.035
34.32000 318.636
34.33000 326.808
34.34000 335.108
34.35000 333.911
34.36000 322.432
34.37000 310.993
34.38000 313.243
34.39000 325.202
34.40000 336.864
34.41000 338.342
34.42000 334.806
34.43000 331.338
34.44000 328.934
34.45000 326.893
34.46000 325.024
34.47000 334.083
34.48000 344.413
34.49000 352.175
34.50000 345.643
34.51000 336.906
34.52000 329.572
34.53000 327.485
34.54000 325.896
34.55000 324.735
34.56000 330.744
34.57000 335.656
34.58000 339.343
34.59000 340.846
34.60000 342.306
34.61000 341.088
34.62000 336.623
34.63000 332.159
34.64000 331.446
34.65000 333.724
34.66000 335.921
34.67000 334.410
34.68000 330.880
34.69000 327.294
34.70000 322.685
34.71000 317.690
34.72000 313.059
34.73000 314.853
34.74000 317.972
34.75000 320.620
34.76000 320.319
34.77000 319.506
34.78000 319.612
34.79000 323.533
34.80000 327.872
34.81000 331.132
34.82000 330.550
34.83000 329.910
34.84000 327.936
34.85000 323.331
34.86000 318.654
34.87000 316.685
34.88000 318.376
34.89000 320.086
34.90000 319.344
34.91000 316.413
34.92000 313.501
34.93000 311.801
34.94000 310.833
34.95000 310.033
34.96000 313.090
34.97000 317.755
34.98000 322.132
34.99000 326.142
35.00000 329.700
35.01000 331.857
35.02000 324.092
35.03000 314.394
35.04000 307.737
35.05000 315.159
35.06000 324.346
35.07000 331.437
35.08000 329.010
35.09000 326.533
35.10000 325.840
35.11000 329.041
35.12000 332.379
35.13000 331.009
35.14000 322.562
35.15000 314.045
35.16000 309.777
35.17000 319.204
35.18000 325.431
35.19000 325.021
35.20000 320.165
35.21000 315.652
35.22000 321.081
35.23000 331.099
35.24000 340.596
35.25000 335.956
35.26000 327.517
35.27000 320.078
35.28000 320.689
35.29000 323.053
35.30000 325.288
35.31000 326.855
35.32000 328.326
35.33000 329.491
35.34000 322.464
35.35000 316.251
35.36000 313.389
35.37000 318.619
35.38000 324.207
35.39000 324.512
35.40000 316.000
35.41000 307.352
35.42000 302.766
35.43000 320.118
35.44000 331.875
35.45000 332.892
35.46000 325.902
35.47000 318.955
35.48000 313.673
35.49000 309.241
35.50000 304.999
35.51000 308.122
35.52000 313.459
35.53000 318.288
35.54000 318.423
35.55000 317.419
35.56000 316.138
35.57000 313.256
35.58000 310.116
35.59000 307.573
35.60000 311.136
35.61000 314.535
35.62000 316.203
35.63000 313.251
35.64000 310.048
35.65000 308.518
35.66000 310.081
35.67000 311.713
35.68000 312.624
35.69000 315.838
35.70000 318.062
35.71000 317.505
35.72000 314.635
35.73000 311.806
35.74000 311.119
35.75000 311.642
35.76000 312.148
35.77000 310.077
35.78000 307.179
35.79000 304.793
35.80000 307.876
35.81000 312.434
35.82000 316.441
35.83000 316.840
35.84000 316.586
35.85000 316.375
35.86000 316.104
35.87000 315.876
35.88000 313.428
35.89000 304.429
35.90000 295.000
35.91000 291.879
35.92000 301.666
35.93000 311.835
35.94000 317.793
35.95000 302.908
35.96000 292.325
35.97000 291.203
35.98000 298.895
35.99000 306.548
36.00000 311.257
36.01000 314.122
36.02000 316.908
36.03000 312.537
36.04000 305.431
36.05000 298.854
36.06000 298.839
36.07000 300.787
36.08000 302.264
36.09000 300.242
36.10000 297.511
36.11000 295.204
36.12000 296.988
36.13000 298.930
36.14000 299.413
36.15000 295.124
36.16000 290.465
36.17000 288.040
36.18000 290.673
36.19000 293.499
36.20000 295.229
36.21000 298.601
36.22000 301.030
36.23000 299.425
36.24000 293.598
36.25000 287.809
36.26000 287.013
36.27000 289.693
36.28000 292.316
36.29000 294.538
36.30000 296.488
36.31000 298.560
36.32000 302.432
36.33000 306.900
36.34000 311.128
36.35000 313.330
36.36000 315.074
36.37000 316.575
36.38000 312.978
36.39000 309.289
36.40000 306.531
36.41000 307.153
36.42000 308.083
36.43000 308.425
36.44000 307.296
36.45000 306.098
36.46000 305.333
36.47000 305.596
36.48000 305.800
36.49000 305.006
36.50000 303.042
36.51000 301.072
36.52000 298.221
36.53000 294.686
36.54000 291.206
36.55000 292.613
36.56000 296.486
36.57000 300.440
36.58000 305.813
36.59000 311.706
36.60000 317.294
36.61000 319.925
36.62000 321.811
36.63000 323.464
36.64000 313.293
36.65000 302.861
36.66000 294.254
36.67000 292.992
36.68000 292.503
36.69000 293.259
36.70000 297.461
36.71000 301.864
36.72000 304.781
36.73000 298.389
36.74000 293.498
36.75000 293.487
36.76000 299.873
36.77000 306.282
36.78000 309.297
36.79000 309.372
36.80000 309.447
36.81000 311.887
36.82000 315.629
36.83000 318.996
36.84000 314.259
36.85000 306.237
36.86000 299.155
36.87000 302.642
36.88000 309.089
36.89000 314.829
36.90000 314.652
36.91000 313.528
36.92000 312.388
36.93000 311.174
36.94000 309.952
36.95000 308.298
36.96000 305.322
36.97000 302.253
36.98000 300.146
36.99000 304.459
37.00000 307.850
37.01000 306.545
37.02000 298.388
37.03000 290.173
37.04000 288.752
37.05000 293.928
37.06000 299.071
37.07000 305.789
37.08000 313.415
37.09000 320.710
37.10000 319.044
37.11000 313.359
37.12000 307.763
37.13000 303.339
37.14000 299.279
37.15000 295.608
37.16000 294.840
37.17000 294.704
37.18000 295.369
37.19000 300.049
37.20000 305.281
37.21000 307.462
37.22000 299.290
37.23000 290.267
37.24000 283.864
37.25000 286.952
37.26000 289.601
37.27000 291.041
37.28000 290.522
37.29000 289.976
37.30000 291.478
37.31000 295.213
37.32000 298.937
37.33000 295.711
37.34000 287.534
37.35000 279.557
37.36000 278.592
37.37000 281.105
37.38000 283.744
37.39000 288.348
37.40000 293.627
37.41000 298.464
37.42000 296.525
37.43000 293.377
37.44000 290.742
37.45000 290.984
37.46000 291.675
37.47000 292.852
37.48000 295.865
37.49000 299.054
37.50000 301.388
37.51000 300.049
37.52000 298.870
37.53000 297.949
37.54000 297.488
37.55000 297.037
37.56000 297.029
37.57000 297.562
37.58000 298.096
37.59000 296.763
37.60000 293.937
37.61000 291.227
37.62000 294.040
37.63000 299.883
37.64000 305.382
37.65000 304.375
37.66000 300.894
37.67000 297.663
37.68000 293.060
37.69000 288.589
37.70000 285.334
37.71000 289.766
37.72000 295.546
37.73000 300.010
37.74000 298.969
37.75000 297.320
37.76000 296.079
37.77000 301.195
37.78000 305.509
37.79000 307.268
37.80000 303.945
37.81000 300.482
37.82000 300.824
37.83000 306.347
37.84000 311.899
37.85000 309.887
37.86000 301.065
37.87000 292.340
37.88000 290.258
37.89000 292.218
37.90000 293.977
37.91000 291.064
37.92000 286.187
37.93000 281.608
37.94000 285.598
37.95000 291.505
37.96000 296.274
37.97000 292.916
37.98000 287.961
37.99000 284.103
38.00000 285.367
38.01000 287.278
38.02000 288.757
38.03000 288.636
38.04000 288.447
38.05000 289.686
38.06000 294.069
38.07000 298.564
38.08000 301.916
38.09000 303.539
38.10000 305.144
38.11000 305.951
38.12000 307.451
38.13000 308.448
38.14000 308.905
38.15000 308.997
38.16000 309.050
38.17000 307.961
38.18000 306.341
38.19000 304.803
38.20000 305.116
38.21000 305.953
38.22000 306.735
38.23000 307.076
38.24000 307.320
38.25000 308.152
38.26000 312.057
38.27000 316.404
38.28000 319.850
38.29000 311.539
38.30000 304.032
38.31000 302.542
38.32000 315.682
38.33000 329.480
38.34000 336.760
38.35000 333.082
38.36000 329.229
38.37000 327.179
38.38000 335.245
38.39000 340.737
38.40000 344.793
38.41000 347.770
38.42000 351.020
38.43000 364.922
38.44000 384.301
38.45000 402.860
38.46000 407.563
38.47000 407.344
38.48000 408.680
38.49000 424.500
38.50000 443.863
38.51000 463.089
38.52000 481.514
38.53000 499.810
38.54000 514.655
38.55000 542.902
38.56000 567.033
38.57000 590.767
38.58000 613.435
38.59000 636.043
38.60000 662.353
38.61000 695.556
38.62000 728.914
38.63000 747.610
38.64000 799.649
38.65000 835.790
38.66000 865.673
38.67000 890.307
38.68000 914.865
38.69000 935.315
38.70000 953.424
38.71000 970.917
38.72000 991.624
38.73000 1012.334
38.74000 1031.295
38.75000 1031.408
38.76000 1026.398
38.77000 1021.593
38.78000 1018.134
38.79000 1014.921
38.80000 1012.257
38.81000 998.328
38.82000 985.740
38.83000 968.232
38.84000 936.088
38.85000 902.972
38.86000 869.815
38.87000 836.572
38.88000 803.327
38.89000 783.786
38.90000 751.743
38.91000 729.084
38.92000 702.229
38.93000 671.432
38.94000 640.612
38.95000 607.989
38.96000 574.229
38.97000 541.373
38.98000 517.360
38.99000 498.162
39.00000 478.973
39.01000 459.904
39.02000 440.871
39.03000 422.806
39.04000 411.979
39.05000 402.634
39.06000 394.727
39.07000 378.042
39.08000 363.103
39.09000 349.449
39.10000 340.029
39.11000 330.942
39.12000 324.719
39.13000 325.025
39.14000 325.585
39.15000 325.930
39.16000 315.495
39.17000 307.923
39.18000 308.435
39.19000 317.487
39.20000 326.484
39.21000 328.090
39.22000 324.511
39.23000 321.006
39.24000 316.120
39.25000 310.782
39.26000 305.634
39.27000 303.330
39.28000 301.975
39.29000 300.101
39.30000 293.813
39.31000 286.518
39.32000 280.229
39.33000 283.242
39.34000 286.982
39.35000 289.519
39.36000 287.662
39.37000 285.401
39.38000 285.225
39.39000 290.305
39.40000 295.640
39.41000 299.053
39.42000 297.298
39.43000 295.951
39.44000 293.618
39.45000 290.121
39.46000 286.629
39.47000 285.419
39.48000 285.990
39.49000 286.553
39.50000 279.730
39.51000 269.291
39.52000 259.607
39.53000 263.454
39.54000 272.299
39.55000 280.715
39.56000 284.935
39.57000 288.089
39.58000 290.855
39.59000 281.962
39.60000 272.628
39.61000 266.138
39.62000 271.198
39.63000 277.486
39.64000 281.311
39.65000 278.272
39.66000 274.827
39.67000 272.538
39.68000 274.010
39.69000 275.167
39.70000 273.408
39.71000 267.794
39.72000 262.174
39.73000 267.262
39.74000 281.697
39.75000 295.985
39.76000 297.750
39.77000 292.241
39.78000 286.669
39.79000 279.703
39.80000 272.168
39.81000 265.196
39.82000 264.625
39.83000 265.860
39.84000 266.961
39.85000 269.296
39.86000 271.531
39.87000 272.896
39.88000 270.324
39.89000 267.272
39.90000 265.391
39.91000 267.127
39.92000 269.117
39.93000 270.487
39.94000 265.822
39.95000 262.170
39.96000 260.227
39.97000 260.794
39.98000 261.384
39.99000 259.776
40.00000 256.016
40.01000 252.279
40.02000 255.373
40.03000 262.833
40.04000 270.006
40.05000 269.305
40.06000 265.046
40.07000 261.272
40.08000 263.964
40.09000 268.676
40.10000 272.940
40.11000 268.781
40.12000 263.542
40.13000 260.397
40.14000 267.830
40.15000 276.732
40.16000 283.809
40.17000 284.652
40.18000 284.976
40.19000 285.206
40.20000 276.315
40.21000 269.251
40.22000 266.478
40.23000 270.711
40.24000 275.044
40.25000 275.943
40.26000 273.065
40.27000 270.194
40.28000 268.474
40.29000 267.600
40.30000 266.663
40.31000 263.465
40.32000 259.137
40.33000 255.245
40.34000 258.263
40.35000 263.673
40.36000 268.635
40.37000 266.777
40.38000 263.680
40.39000 260.430
40.40000 256.315
40.41000 252.063
40.42000 248.720
40.43000 248.825
40.44000 249.264
40.45000 249.586
40.46000 256.037
40.47000 261.267
40.48000 266.328
40.49000 271.084
40.50000 275.833
40.51000 273.757
40.52000 263.275
40.53000 252.786
40.54000 248.458
40.55000 249.133
40.56000 249.816
40.57000 250.887
40.58000 252.172
40.59000 253.153
40.60000 248.290
40.61000 241.190
40.62000 234.595
40.63000 238.960
40.64000 245.504
40.65000 252.040
40.66000 258.523
40.67000 264.996
40.68000 269.926
40.69000 268.349
40.70000 266.045
40.71000 264.307
40.72000 263.538
40.73000 262.983
40.74000 262.746
40.75000 263.143
40.76000 263.558
40.77000 262.165
40.78000 258.290
40.79000 254.401
40.80000 252.670
40.81000 252.901
40.82000 253.142
40.83000 254.115
40.84000 255.537
40.85000 256.832
40.86000 255.110
40.87000 252.110
40.88000 249.292
40.89000 246.556
40.90000 244.081
40.91000 242.108
40.92000 243.746
40.93000 246.100
40.94000 249.297
40.95000 256.457
40.96000 264.122
40.97000 270.061
40.98000 261.393
40.99000 253.639
41.00000 248.289
41.01000 248.267
41.02000 248.439
41.03000 250.853
41.04000 256.693
41.05000 262.569
41.06000 265.538
41.07000 250.809
41.08000 241.017
41.09000 238.377
41.10000 240.602
41.11000 242.785
41.12000 243.701
41.13000 244.024
41.14000 244.331
41.15000 249.913
41.16000 256.643
41.17000 261.991
41.18000 255.990
41.19000 247.478
41.20000 240.052
41.21000 238.335
41.22000 237.447
41.23000 236.741
41.24000 240.509
41.25000 243.860
41.26000 247.557
41.27000 252.104
41.28000 256.689
41.29000 258.092
41.30000 254.104
41.31000 250.029
41.32000 247.851
41.33000 237.825
41.34000 231.026
41.35000 233.545
41.36000 243.117
41.37000 252.572
41.38000 257.343
41.39000 259.689
41.40000 261.937
41.41000 259.047
41.42000 254.629
41.43000 250.536
41.44000 249.510
41.45000 249.239
41.46000 249.164
41.47000 250.249
41.48000 251.525
41.49000 252.561
41.50000 245.478
41.51000 239.022
41.52000 234.090
41.53000 233.288
41.54000 232.717
41.55000 235.146
41.56000 243.203
41.57000 251.390
41.58000 255.995
41.59000 245.843
41.60000 238.767
41.61000 236.005
41.62000 236.892
41.63000 237.747
41.64000 236.920
41.65000 235.128
41.66000 233.397
41.67000 234.568
41.68000 236.760
41.69000 238.702
41.70000 237.928
41.71000 236.409
41.72000 235.521
41.73000 238.835
41.74000 242.922
41.75000 246.316
41.76000 243.205
41.77000 240.002
41.78000 238.793
41.79000 243.559
41.80000 248.727
41.81000 251.204
41.82000 248.091
41.83000 244.805
41.84000 242.868
41.85000 242.860
41.86000 242.864
41.87000 241.813
41.88000 239.762
41.89000 237.706
41.90000 235.193
41.91000 232.390
41.92000 229.660
41.93000 232.804
41.94000 238.257
41.95000 243.446
41.96000 245.285
41.97000 246.107
41.98000 246.322
41.99000 241.957
42.00000 236.648
42.01000 232.151
42.02000 230.521
42.03000 229.478
42.04000 229.429
42.05000 232.680
42.06000 236.194
42.07000 239.365
42.08000 241.748
42.09000 244.100
42.10000 245.549
42.11000 235.665
42.12000 228.471
42.13000 229.283
42.14000 238.622
42.15000 247.921
42.16000 251.510
42.17000 251.064
42.18000 250.626
42.19000 249.981
42.20000 249.263
42.21000 248.277
42.22000 243.239
42.23000 236.838
42.24000 231.238
42.25000 232.535
42.26000 235.419
42.27000 237.909
42.28000 234.778
42.29000 231.397
42.30000 228.314
42.31000 226.326
42.32000 224.439
42.33000 224.576
42.34000 229.850
42.35000 235.378
42.36000 238.924
42.37000 242.564
42.38000 245.218
42.39000 244.254
42.40000 238.973
42.41000 233.706
42.42000 234.998
42.43000 241.455
42.44000 247.818
42.45000 249.809
42.46000 249.463
42.47000 249.249
42.48000 251.423
42.49000 254.485
42.50000 256.445
42.51000 247.484
42.52000 235.727
42.53000 225.403
42.54000 233.338
42.55000 242.841
42.56000 249.435
42.57000 244.129
42.58000 237.546
42.59000 231.858
42.60000 228.683
42.61000 225.659
42.62000 223.645
42.63000 235.724
42.64000 244.934
42.65000 248.734
42.66000 245.332
42.67000 241.892
42.68000 236.911
42.69000 230.574
42.70000 224.300
42.71000 226.087
42.72000 232.532
42.73000 238.443
42.74000 232.472
42.75000 221.614
42.76000 211.969
42.77000 216.266
42.78000 224.524
42.79000 231.894
42.80000 230.925
42.81000 228.689
42.82000 227.748
42.83000 232.710
42.84000 238.399
42.85000 242.783
42.86000 243.115
42.87000 243.157
42.88000 243.186
42.89000 241.175
42.90000 239.611
42.91000 239.111
42.92000 240.184
42.93000 241.272
42.94000 240.270
42.95000 237.205
42.96000 234.158
42.97000 234.865
42.98000 238.004
42.99000 240.971
43.00000 239.108
43.01000 235.047
43.02000 231.220
43.03000 230.557
43.04000 230.892
43.05000 231.194
43.06000 226.939
43.07000 222.328
43.08000 219.442
43.09000 225.332
43.10000 232.452
43.11000 238.686
43.12000 241.873
43.13000 244.804
43.14000 246.893
43.15000 246.647
43.16000 246.382
43.17000 246.353
43.18000 246.711
43.19000 247.074
43.20000 245.115
43.21000 240.580
43.22000 236.059
43.23000 232.660
43.24000 230.106
43.25000 227.639
43.26000 228.362
43.27000 230.688
43.28000 232.734
43.29000 230.280
43.30000 226.258
43.31000 222.564
43.32000 220.198
43.33000 218.370
43.34000 216.926
43.35000 217.676
43.36000 218.773
43.37000 219.969
43.38000 221.545
43.39000 223.158
43.40000 224.343
43.41000 221.820
43.42000 219.716
43.43000 219.859
43.44000 224.097
43.45000 228.420
43.46000 230.614
43.47000 230.165
43.48000 229.708
43.49000 231.387
43.50000 234.802
43.51000 238.140
43.52000 237.596
43.53000 234.891
43.54000 232.350
43.55000 232.979
43.56000 234.831
43.57000 236.553
43.58000 231.574
43.59000 225.472
43.60000 220.546
43.61000 223.180
43.62000 227.162
43.63000 231.552
43.64000 237.677
43.65000 243.998
43.66000 248.776
43.67000 234.231
43.68000 221.857
43.69000 214.977
43.70000 219.178
43.71000 223.695
43.72000 226.078
43.73000 225.506
43.74000 224.916
43.75000 224.277
43.76000 223.592
43.77000 222.951
43.78000 225.477
43.79000 229.960
43.80000 234.209
43.81000 232.850
43.82000 229.100
43.83000 225.573
43.84000 224.467
43.85000 224.109
43.86000 223.388
43.87000 220.038
43.88000 216.163
43.89000 213.556
43.90000 216.960
43.91000 221.140
43.92000 224.384
43.93000 227.757
43.94000 230.447
43.95000 231.004
43.96000 226.800
43.97000 222.421
43.98000 221.230
43.99000 224.942
44.00000 228.709
44.01000 230.621
44.02000 224.636
44.03000 220.662
44.04000 220.930
44.05000 224.106
44.06000 227.148
44.07000 226.066
44.08000 223.041
44.09000 220.166
44.10000 219.365
44.11000 219.251
44.12000 219.590
44.13000 223.677
44.14000 228.601
44.15000 232.821
44.16000 233.317
44.17000 233.267
44.18000 233.227
44.19000 227.696
44.20000 222.845
44.21000 220.337
44.22000 223.612
44.23000 227.154
44.24000 227.624
44.25000 222.855
44.26000 217.997
44.27000 215.391
44.28000 224.537
44.29000 230.778
44.30000 234.141
44.31000 235.308
44.32000 236.433
44.33000 235.905
44.34000 234.515
44.35000 233.181
44.36000 226.440
44.37000 218.319
44.38000 212.104
44.39000 224.006
44.40000 240.407
44.41000 254.129
44.42000 251.907
44.43000 247.051
44.44000 243.097
44.45000 240.609
44.46000 238.701
44.47000 236.937
44.48000 235.569
44.49000 234.223
44.50000 232.764
44.51000 231.091
44.52000 229.413
44.53000 228.466
44.54000 238.782
44.55000 245.970
44.56000 246.404
44.57000 241.082
44.58000 235.838
44.59000 235.005
44.60000 236.719
44.61000 238.378
44.62000 239.350
44.63000 240.010
44.64000 240.641
44.65000 240.962
44.66000 241.197
44.67000 241.388
44.68000 241.280
44.69000 241.116
44.70000 240.980
44.71000 251.188
44.72000 260.652
44.73000 268.385
44.74000 270.895
44.75000 273.050
44.76000 273.319
44.77000 269.646
44.78000 265.848
44.79000 263.601
44.80000 270.080
44.81000 274.707
44.82000 278.355
44.83000 281.066
44.84000 283.769
44.85000 285.735
44.86000 287.229
44.87000 288.685
44.88000 295.780
44.89000 304.922
44.90000 313.365
44.91000 312.796
44.92000 309.471
44.93000 307.994
44.94000 320.596
44.95000 336.123
44.96000 349.297
44.97000 351.074
44.98000 351.273
44.99000 351.438
45.00000 351.485
45.01000 351.524
45.02000 354.319
45.03000 363.490
45.04000 372.917
45.05000 378.742
45.06000 376.962
45.07000 375.612
45.08000 379.393
45.09000 388.685
45.10000 397.923
45.11000 399.098
45.12000 394.532
45.13000 390.056
45.14000 391.331
45.15000 395.265
45.16000 398.823
45.17000 396.635
45.18000 392.501
45.19000 389.161
45.20000 392.731
45.21000 397.903
45.22000 402.372
45.23000 397.237
45.24000 391.627
45.25000 387.442
45.26000 388.538
45.27000 390.131
45.28000 388.369
45.29000 378.029
45.30000 367.262
45.31000 360.334
45.32000 359.912
45.33000 359.694
45.34000 360.552
45.35000 362.703
45.36000 364.829
45.37000 358.245
45.38000 344.752
45.39000 331.449
45.40000 323.448
45.41000 318.461
45.42000 313.639
45.43000 311.844
45.44000 311.183
45.45000 310.374
45.46000 308.075
45.47000 305.393
45.48000 303.034
45.49000 303.980
45.50000 305.284
45.51000 305.321
45.52000 300.132
45.53000 294.376
45.54000 289.707
45.55000 288.107
45.56000 286.695
45.57000 285.751
45.58000 280.356
45.59000 276.272
45.60000 272.572
45.61000 269.388
45.62000 266.210
45.63000 266.758
45.64000 270.613
45.65000 274.431
45.66000 269.288
45.67000 258.993
45.68000 249.290
45.69000 252.998
45.70000 262.264
45.71000 270.202
45.72000 262.718
45.73000 250.819
45.74000 240.188
45.75000 242.639
45.76000 246.977
45.77000 250.580
45.78000 250.805
45.79000 250.611
45.80000 250.596
45.81000 251.146
45.82000 251.736
45.83000 252.144
45.84000 239.784
45.85000 230.156
45.86000 227.092
45.87000 233.823
45.88000 240.649
45.89000 241.604
45.90000 236.712
45.91000 231.849
45.92000 230.560
45.93000 231.635
45.94000 232.595
45.95000 230.272
45.96000 226.444
45.97000 222.980
45.98000 224.478
45.99000 227.551
46.00000 230.337
46.01000 232.263
46.02000 233.797
46.03000 235.012
46.04000 234.582
46.05000 233.920
46.06000 232.464
46.07000 228.254
46.08000 223.809
46.09000 220.633
46.10000 219.990
46.11000 219.583
46.12000 219.332
46.13000 219.342
46.14000 219.356
46.15000 221.270
46.16000 225.308
46.17000 229.335
46.18000 225.328
46.19000 215.452
46.20000 205.819
46.21000 205.281
46.22000 209.350
46.23000 213.188
46.24000 213.250
46.25000 211.986
46.26000 210.825
46.27000 209.447
46.28000 208.171
46.29000 207.013
46.30000 206.534
46.31000 206.163
46.32000 206.232
46.33000 207.994
46.34000 209.924
46.35000 211.344
46.36000 216.610
46.37000 220.845
46.38000 219.432
46.39000 207.647
46.40000 195.639
46.41000 192.401
46.42000 200.136
46.43000 207.894
46.44000 211.550
46.45000 211.818
46.46000 212.005
46.47000 208.086
46.48000 201.864
46.49000 195.926
46.50000 195.600
46.51000 197.455
46.52000 199.180
46.53000 201.400
46.54000 203.525
46.55000 204.882
46.56000 201.258
46.57000 196.740
46.58000 193.035
46.59000 192.813
46.60000 192.989
46.61000 193.123
46.62000 200.524
46.63000 206.703
46.64000 210.609
46.65000 209.897
46.66000 209.051
46.67000 206.669
46.68000 202.147
46.69000 197.611
46.70000 195.274
46.71000 194.969
46.72000 194.653
46.73000 193.582
46.74000 192.040
46.75000 190.617
46.76000 192.123
46.77000 194.886
46.78000 197.486
46.79000 200.668
46.80000 203.733
46.81000 206.491
46.82000 206.989
46.83000 207.032
46.84000 205.384
46.85000 195.663
46.86000 184.891
46.87000 176.515
46.88000 184.738
46.89000 192.297
46.90000 195.821
46.91000 190.278
46.92000 184.394
46.93000 184.210
46.94000 192.860
46.95000 201.611
46.96000 206.070
46.97000 197.382
46.98000 191.571
46.99000 187.940
47.00000 185.815
47.01000 183.920
47.02000 189.221
47.03000 197.939
47.04000 206.228
47.05000 207.714
47.06000 207.019
47.07000 205.701
47.08000 199.173
47.09000 191.475
47.10000 184.937
47.11000 184.603
47.12000 185.185
47.13000 185.650
47.14000 189.731
47.15000 193.287
47.16000 195.409
47.17000 193.969
47.18000 192.361
47.19000 191.626
47.20000 192.393
47.21000 193.185
47.22000 193.612
47.23000 198.102
47.24000 201.173
47.25000 203.611
47.26000 205.562
47.27000 207.361
47.28000 202.833
47.29000 194.981
47.30000 187.447
47.31000 188.761
47.32000 193.001
47.33000 197.064
47.34000 199.427
47.35000 201.364
47.36000 202.533
47.37000 199.085
47.38000 194.868
47.39000 191.430
47.40000 195.020
47.41000 198.553
47.42000 200.512
47.43000 198.143
47.44000 195.525
47.45000 193.232
47.46000 191.557
47.47000 189.897
47.48000 188.957
47.49000 190.952
47.50000 192.341
47.51000 187.824
47.52000 178.235
47.53000 168.849
47.54000 171.293
47.55000 180.622
47.56000 189.649
47.57000 194.630
47.58000 197.796
47.59000 200.737
47.60000 201.162
47.61000 200.889
47.62000 199.733
47.63000 192.600
47.64000 184.347
47.65000 177.473
47.66000 177.657
47.67000 178.508
47.68000 180.227
47.69000 184.583
47.70000 189.120
47.71000 192.093
47.72000 191.768
47.73000 191.338
47.74000 191.083
47.75000 188.448
47.76000 186.569
47.77000 188.172
47.78000 193.128
47.79000 198.058
47.80000 200.670
47.81000 201.786
47.82000 202.874
47.83000 201.274
47.84000 198.605
47.85000 195.572
47.86000 187.792
47.87000 178.548
47.88000 170.613
47.89000 172.733
47.90000 176.959
47.91000 180.549
47.92000 184.578
47.93000 188.011
47.94000 191.024
47.95000 192.628
47.96000 194.118
47.97000 193.729
47.98000 188.967
47.99000 184.025
48.00000 180.963
48.01000 187.508
48.02000 192.309
48.03000 194.610
48.04000 194.207
48.05000 193.807
48.06000 194.104
48.07000 194.900
48.08000 195.681
48.09000 195.971
48.10000 196.019
48.11000 195.759
48.12000 190.735
48.13000 184.085
48.14000 178.144
48.15000 178.424
48.16000 180.157
48.17000 181.657
48.18000 179.499
48.19000 177.185
48.20000 176.242
48.21000 180.418
48.22000 185.081
48.23000 187.181
48.24000 182.682
48.25000 177.849
48.26000 174.730
48.27000 177.191
48.28000 179.068
48.29000 180.256
48.30000 180.608
48.31000 180.954
48.32000 180.057
48.33000 178.165
48.34000 176.299
48.35000 178.687
48.36000 183.261
48.37000 187.594
48.38000 187.447
48.39000 185.609
48.40000 183.894
48.41000 183.430
48.42000 183.290
48.43000 183.166
48.44000 184.029
48.45000 184.919
48.46000 184.964
48.47000 181.500
48.48000 177.651
48.49000 175.702
48.50000 179.162
48.51000 182.955
48.52000 185.495
48.53000 183.151
48.54000 181.315
48.55000 183.068
48.56000 189.671
48.57000 196.296
48.58000 195.512
48.59000 188.102
48.60000 180.760
48.61000 179.198
48.62000 181.086
48.63000 182.928
48.64000 183.687
48.65000 183.995
48.66000 184.159
48.67000 182.648
48.68000 180.654
48.69000 178.871
48.70000 178.975
48.71000 179.387
48.72000 179.874
48.73000 180.710
48.74000 181.590
48.75000 182.352
48.76000 182.746
48.77000 183.113
48.78000 183.368
48.79000 183.066
48.80000 182.824
48.81000 181.457
48.82000 178.397
48.83000 175.321
48.84000 175.230
48.85000 178.137
48.86000 181.027
48.87000 178.171
48.88000 171.551
48.89000 165.232
48.90000 167.644
48.91000 174.086
48.92000 180.314
48.93000 183.579
48.94000 185.896
48.95000 188.000
48.96000 182.887
48.97000 176.986
48.98000 171.635
48.99000 169.128
49.00000 167.027
49.01000 166.664
49.02000 172.381
49.03000 178.620
49.04000 183.088
49.05000 182.568
49.06000 182.002
49.07000 181.562
49.08000 181.330
49.09000 181.102
49.10000 180.682
49.11000 180.046
49.12000 179.412
49.13000 179.584
49.14000 180.352
49.15000 181.156
49.16000 183.358
49.17000 186.275
49.18000 189.349
49.19000 195.015
49.20000 201.598
49.21000 207.653
49.22000 200.857
49.23000 191.998
49.24000 183.989
49.25000 180.916
49.26000 178.639
49.27000 177.415
49.28000 180.278
49.29000 183.549
49.30000 185.963
49.31000 181.627
49.32000 177.982
49.33000 174.585
49.34000 171.645
49.35000 168.716
49.36000 167.393
49.37000 168.097
49.38000 168.806
49.39000 168.285
49.40000 166.746
49.41000 165.327
49.42000 170.179
49.43000 178.576
49.44000 186.623
49.45000 187.663
49.46000 185.962
49.47000 184.377
49.48000 186.176
49.49000 188.627
49.50000 190.103
49.51000 185.193
49.52000 179.126
49.53000 173.270
49.54000 168.325
49.55000 163.484
49.56000 159.810
49.57000 167.260
49.58000 173.686
49.59000 177.641
49.60000 176.538
49.61000 175.286
49.62000 177.155
49.63000 183.411
49.64000 189.696
49.65000 189.262
49.66000 182.571
49.67000 175.900
49.68000 170.850
49.69000 166.815
49.70000 163.040
49.71000 165.769
49.72000 171.310
49.73000 176.528
49.74000 178.109
49.75000 178.560
49.76000 179.326
49.77000 182.421
49.78000 185.989
49.79000 188.232
49.80000 184.098
49.81000 179.125
49.82000 175.252
49.83000 182.972
49.84000 189.840
49.85000 193.104
49.86000 188.213
49.87000 183.009
49.88000 180.052
49.89000 180.602
49.90000 181.193
49.91000 181.496
49.92000 186.470
49.93000 189.752
49.94000 185.332
49.95000 175.552
49.96000 166.086
49.97000 166.620
49.98000 171.939
49.99000 176.999
50.00000 174.916
50.01000 170.798
50.02000 167.671
50.03000 172.911
50.04000 180.046
50.05000 185.767
50.06000 183.869
50.07000 180.835
50.08000 178.413
50.09000 179.910
50.10000 181.407
50.11000 182.952
50.12000 184.617
50.13000 186.289
50.14000 187.153
50.15000 186.618
50.16000 186.058
50.17000 185.755
50.18000 187.006
50.19000 187.848
50.20000 184.888
50.21000 178.980
50.22000 173.187
50.23000 172.285
50.24000 173.971
50.25000 175.591
50.26000 178.393
50.27000 181.419
50.28000 184.151
50.29000 184.022
50.30000 183.172
50.31000 182.677
50.32000 184.331
50.33000 186.346
50.34000 187.991
50.35000 184.823
50.36000 181.816
50.37000 180.269
50.38000 182.759
50.39000 185.485
50.40000 187.849
50.41000 189.517
50.42000 191.169
50.43000 192.107
50.44000 197.263
50.45000 200.863
50.46000 200.868
50.47000 197.758
50.48000 194.751
50.49000 197.841
50.50000 204.506
50.51000 210.957
50.52000 214.699
50.53000 217.198
50.54000 219.774
50.55000 223.228
50.56000 226.927
50.57000 229.901
50.58000 227.914
50.59000 224.992
50.60000 222.554
50.61000 231.693
50.62000 240.430
50.63000 246.816
50.64000 245.999
50.65000 244.679
50.66000 245.124
50.67000 249.312
50.68000 253.623
50.69000 256.190
50.70000 257.295
50.71000 258.069
50.72000 259.762
50.73000 262.347
50.74000 264.909
50.75000 265.319
50.76000 264.329
50.77000 263.365
50.78000 264.055
50.79000 265.422
50.80000 266.755
50.81000 267.631
50.82000 268.364
50.83000 268.130
50.84000 260.393
50.85000 251.072
50.86000 243.143
50.87000 244.116
50.88000 245.963
50.89000 246.882
50.90000 244.658
50.91000 242.175
50.92000 239.545
50.93000 236.571
50.94000 233.582
50.95000 231.725
50.96000 223.137
50.97000 216.887
50.98000 215.065
50.99000 218.075
51.00000 221.052
51.01000 218.271
51.02000 211.328
51.03000 204.515
51.04000 203.757
51.05000 205.921
51.06000 208.032
51.07000 209.310
51.08000 210.301
51.09000 210.297
51.10000 201.462
51.11000 190.548
51.12000 181.092
51.13000 183.085
51.14000 186.297
51.15000 188.060
51.16000 184.365
51.17000 180.146
51.18000 179.042
51.19000 186.013
51.20000 193.400
51.21000 198.179
51.22000 195.049
51.23000 192.643
51.24000 190.798
51.25000 189.639
51.26000 188.484
51.27000 188.589
51.28000 189.708
51.29000 190.812
51.30000 189.213
51.31000 186.214
51.32000 183.268
51.33000 181.317
51.34000 179.745
51.35000 178.264
51.36000 177.720
51.37000 177.422
51.38000 177.160
51.39000 177.391
51.40000 177.664
51.41000 178.003
51.42000 178.613
51.43000 179.253
51.44000 180.097
51.45000 181.523
51.46000 182.986
51.47000 183.968
51.48000 187.127
51.49000 189.517
51.50000 189.046
51.51000 184.675
51.52000 180.281
51.53000 175.604
51.54000 170.673
51.55000 165.787
51.56000 161.319
51.57000 157.187
51.58000 153.362
51.59000 156.667
51.60000 162.971
51.61000 168.809
51.62000 169.128
51.63000 167.843
51.64000 166.692
51.65000 164.018
51.66000 161.423
51.67000 160.007
51.68000 164.084
51.69000 168.856
51.70000 172.907
51.71000 174.661
51.72000 176.246
51.73000 177.347
51.74000 176.048
51.75000 175.003
51.76000 171.452
51.77000 164.101
51.78000 156.711
51.79000 153.011
51.80000 153.051
51.81000 153.090
51.82000 154.002
51.83000 155.485
51.84000 156.995
51.85000 159.318
51.86000 162.020
51.87000 164.603
51.88000 165.538
51.89000 165.942
51.90000 166.309
51.91000 167.746
51.92000 169.223
51.93000 171.110
51.94000 175.130
51.95000 179.458
51.96000 181.691
51.97000 176.547
51.98000 170.763
51.99000 166.611
52.00000 167.493
52.01000 168.340
52.02000 168.079
52.03000 165.954
52.04000 163.799
52.05000 163.351
52.06000 164.842
52.07000 166.331
52.08000 165.612
52.09000 163.251
52.10000 160.897
52.11000 158.839
52.12000 156.933
52.13000 155.203
52.14000 156.426
52.15000 158.701
52.16000 160.795
52.17000 161.430
52.18000 161.678
52.19000 162.202
52.20000 164.347
52.21000 166.755
52.22000 168.345
52.23000 166.741
52.24000 164.813
52.25000 163.388
52.26000 157.185
52.27000 152.169
52.28000 151.083
52.29000 157.320
52.30000 163.722
52.31000 166.946
52.32000 166.131
52.33000 165.303
52.34000 162.289
52.35000 157.455
52.36000 152.824
52.37000 159.059
52.38000 171.482
52.39000 183.132
52.40000 179.077
52.41000 168.833
52.42000 159.286
52.43000 158.261
52.44000 159.429
52.45000 160.048
52.46000 157.044
52.47000 153.379
52.48000 150.093
52.49000 148.457
52.50000 147.012
52.51000 145.914
52.52000 149.587
52.53000 152.726
52.54000 156.047
52.55000 159.743
52.56000 163.451
52.57000 166.281
52.58000 167.868
52.59000 169.446
52.60000 169.772
52.61000 168.921
52.62000 168.050
52.63000 165.486
52.64000 161.855
52.65000 158.405
52.66000 159.556
52.67000 162.711
52.68000 165.685
52.69000 164.229
52.70000 161.673
52.71000 159.093
52.72000 156.332
52.73000 153.533
52.74000 150.861
52.75000 148.800
52.76000 146.821
52.77000 145.276
52.78000 151.521
52.79000 156.989
52.80000 159.970
52.81000 157.278
52.82000 154.366
52.83000 153.562
52.84000 156.075
52.85000 158.628
52.86000 159.939
52.87000 159.818
52.88000 159.727
52.89000 158.480
52.90000 156.423
52.91000 154.399
52.92000 153.488
52.93000 153.114
52.94000 152.757
52.95000 157.781
52.96000 164.097
52.97000 169.374
52.98000 165.787
52.99000 160.177
53.00000 155.100
53.01000 152.923
53.02000 151.182
53.03000 149.790
53.04000 155.965
53.05000 161.518
53.06000 165.222
53.07000 164.266
53.08000 163.083
53.09000 162.914
53.10000 164.514
53.11000 166.146
53.12000 167.032
53.13000 162.978
53.14000 160.201
53.15000 159.350
53.16000 160.002
53.17000 160.668
53.18000 161.871
53.19000 163.363
53.20000 164.796
53.21000 162.219
53.22000 158.419
53.23000 154.964
53.24000 154.882
53.25000 155.656
53.26000 156.701
53.27000 159.392
53.28000 162.363
53.29000 164.793
53.30000 165.842
53.31000 166.580
53.32000 166.646
53.33000 164.839
53.34000 162.922
53.35000 162.970
53.36000 166.816
53.37000 170.757
53.38000 173.005
53.39000 169.213
53.40000 166.550
53.41000 164.984
53.42000 164.374
53.43000 163.765
53.44000 163.127
53.45000 162.472
53.46000 161.839
53.47000 161.127
53.48000 160.422
53.49000 159.863
53.50000 160.953
53.51000 162.507
53.52000 163.867
53.53000 163.885
53.54000 163.648
53.55000 163.450
53.56000 166.415
53.57000 169.197
53.58000 170.091
53.59000 165.165
53.60000 159.828
53.61000 156.582
53.62000 157.806
53.63000 159.179
53.64000 159.999
53.65000 161.038
53.66000 161.776
53.67000 162.983
53.68000 164.650
53.69000 166.305
53.70000 166.808
53.71000 166.556
53.72000 166.310
53.73000 162.589
53.74000 157.533
53.75000 152.812
53.76000 152.570
53.77000 153.728
53.78000 155.040
53.79000 157.553
53.80000 160.323
53.81000 162.682
53.82000 160.816
53.83000 158.755
53.84000 157.327
53.85000 158.063
53.86000 158.980
53.87000 159.381
53.88000 158.565
53.89000 157.696
53.90000 157.155
53.91000 159.931
53.92000 161.965
53.93000 163.622
53.94000 164.861
53.95000 166.075
53.96000 163.105
53.97000 157.087
53.98000 151.179
53.99000 152.333
54.00000 156.850
54.01000 161.035
54.02000 159.957
54.03000 157.058
54.04000 154.532
54.05000 155.355
54.06000 156.973
54.07000 158.376
54.08000 152.052
54.09000 145.632
54.10000 141.544
54.11000 146.302
54.12000 151.918
54.13000 155.318
54.14000 152.928
54.15000 150.236
54.16000 148.489
54.17000 147.025
54.18000 145.957
54.19000 146.289
54.20000 148.346
54.21000 150.409
54.22000 153.165
54.23000 156.485
54.24000 159.761
54.25000 158.641
54.26000 155.186
54.27000 152.137
54.28000 156.872
54.29000 164.588
54.30000 171.281
54.31000 167.406
54.32000 160.745
54.33000 154.867
54.34000 151.872
54.35000 149.729
54.36000 148.911
54.37000 153.682
54.38000 159.078
54.39000 163.050
54.40000 162.903
54.41000 162.497
54.42000 162.223
54.43000 165.456
54.44000 167.931
54.45000 168.775
54.46000 167.376
54.47000 165.965
54.48000 165.493
54.49000 165.877
54.50000 166.257
54.51000 164.008
54.52000 160.222
54.53000 156.564
54.54000 155.959
54.55000 156.647
54.56000 157.213
54.57000 156.311
54.58000 154.980
54.59000 153.787
54.60000 156.639
54.61000 159.829
54.62000 162.802
54.63000 164.751
54.64000 166.570
54.65000 166.963
54.66000 162.798
54.67000 158.291
54.68000 155.152
54.69000 155.150
54.70000 155.235
54.71000 155.192
54.72000 154.953
54.73000 154.712
54.74000 154.081
54.75000 153.051
54.76000 152.027
54.77000 152.557
54.78000 154.125
54.79000 155.697
54.80000 157.385
54.81000 159.127
54.82000 160.684
54.83000 159.624
54.84000 157.716
54.85000 155.980
54.86000 159.608
54.87000 163.866
54.88000 167.382
54.89000 166.999
54.90000 166.051
54.91000 164.866
54.92000 162.845
54.93000 160.749
54.94000 159.242
54.95000 160.237
54.96000 161.086
54.97000 161.467
54.98000 161.054
54.99000 160.627
55.00000 160.328
55.01000 160.176
55.02000 160.023
55.03000 161.968
55.04000 165.478
55.05000 168.862
55.06000 167.268
55.07000 163.096
55.08000 159.105
55.09000 158.178
55.10000 158.351
55.11000 158.511
55.12000 162.095
55.13000 166.060
55.14000 169.316
55.15000 168.398
55.16000 166.795
55.17000 165.669
55.18000 166.425
55.19000 167.372
55.20000 168.074
55.21000 165.170
55.22000 162.759
55.23000 163.522
55.24000 170.241
55.25000 177.098
55.26000 179.074
55.27000 174.799
55.28000 170.505
55.29000 168.832
55.30000 169.374
55.31000 169.934
55.32000 171.501
55.33000 173.646
55.34000 175.671
55.35000 175.226
55.36000 173.800
55.37000 172.471
55.38000 169.850
55.39000 167.156
55.40000 165.741
55.41000 172.839
55.42000 181.506
55.43000 187.221
55.44000 180.003
55.45000 171.267
55.46000 164.612
55.47000 176.643
55.48000 187.104
55.49000 194.694
55.50000 196.323
55.51000 197.769
55.52000 199.785
55.53000 202.615
55.54000 205.451
55.55000 208.900
55.56000 212.931
55.57000 216.916
55.58000 217.256
55.59000 215.275
55.60000 213.468
55.61000 216.095
55.62000 220.669
55.63000 224.983
55.64000 231.636
55.65000 238.384
55.66000 244.480
55.67000 245.667
55.68000 245.840
55.69000 246.221
55.70000 247.617
55.71000 249.149
55.72000 250.347
55.73000 271.676
55.74000 289.978
55.75000 303.962
55.76000 308.031
55.77000 311.707
55.78000 322.699
55.79000 345.286
55.80000 368.019
55.81000 379.745
55.82000 386.533
55.83000 391.138
55.84000 400.270
55.85000 412.602
55.86000 424.956
55.87000 438.056
55.88000 451.518
55.89000 464.343
55.90000 476.360
55.91000 487.244
55.92000 498.571
55.93000 513.719
55.94000 529.746
55.95000 543.783
55.96000 546.921
55.97000 548.406
55.98000 549.596
55.99000 549.233
56.00000 548.823
56.01000 548.948
56.02000 550.430
56.03000 551.979
56.04000 549.089
56.05000 538.398
56.06000 527.561
56.07000 521.661
56.08000 513.955
56.09000 508.662
56.10000 502.745
56.11000 496.335
56.12000 489.904
56.13000 482.543
56.14000 474.683
56.15000 467.127
56.16000 450.363
56.17000 431.447
56.18000 414.016
56.19000 411.278
56.20000 412.303
56.21000 411.303
56.22000 397.840
56.23000 382.245
56.24000 369.470
56.25000 357.666
56.26000 348.073
56.27000 337.995
56.28000 326.554
56.29000 315.031
56.30000 304.065
56.31000 294.180
56.32000 284.323
56.33000 278.681
56.34000 272.267
56.35000 267.783
56.36000 262.445
56.37000 256.354
56.38000 250.302
56.39000 246.768
56.40000 244.731
56.41000 242.757
56.42000 238.036
56.43000 232.497
56.44000 227.167
56.45000 224.242
56.46000 222.001
56.47000 219.759
56.48000 217.503
56.49000 215.246
56.50000 213.357
56.51000 205.825
56.52000 198.990
56.53000 193.443
56.54000 191.898
56.55000 190.638
56.56000 190.681
56.57000 193.525
56.58000 196.464
56.59000 198.225
56.60000 198.853
56.61000 199.292
56.62000 197.287
56.63000 192.869
56.64000 188.474
56.65000 186.439
56.66000 185.961
56.67000 185.494
56.68000 181.429
56.69000 175.974
56.70000 170.611
56.71000 166.475
56.72000 162.726
56.73000 159.467
56.74000 160.089
56.75000 161.543
56.76000 162.783
56.77000 162.085
56.78000 161.269
56.79000 161.440
56.80000 165.016
56.81000 168.878
56.82000 170.265
56.83000 165.763
56.84000 161.008
56.85000 158.035
56.86000 154.165
56.87000 151.363
56.88000 152.906
56.89000 159.273
56.90000 165.593
56.91000 163.358
56.92000 154.841
56.93000 146.476
56.94000 146.645
56.95000 150.954
56.96000 154.902
56.97000 153.059
56.98000 149.197
56.99000 145.481
57.00000 143.084
57.01000 141.003
57.02000 139.195
57.03000 141.434
57.04000 143.889
57.05000 145.584
57.06000 144.376
57.07000 142.882
57.08000 141.967
57.09000 142.573
57.10000 143.260
57.11000 143.706
57.12000 147.341
57.13000 150.055
57.14000 150.375
57.15000 147.722
57.16000 145.067
57.17000 144.922
57.18000 146.831
57.19000 148.716
57.20000 149.681
57.21000 150.121
57.22000 150.548
57.23000 150.717
57.24000 150.787
57.25000 150.670
57.26000 148.591
57.27000 145.992
57.28000 143.696
57.29000 145.604
57.30000 147.899
57.31000 149.904
57.32000 150.676
57.33000 151.309
57.34000 151.690
57.35000 151.338
57.36000 150.940
57.37000 150.671
57.38000 145.330
57.39000 141.248
57.40000 139.500
57.41000 140.979
57.42000 142.481
57.43000 146.188
57.44000 151.918
57.45000 157.600
57.46000 153.727
57.47000 144.137
57.48000 134.916
57.49000 134.603
57.50000 138.089
57.51000 141.433
57.52000 143.043
57.53000 144.141
57.54000 145.126
57.55000 146.338
57.56000 147.438
57.57000 147.574
57.58000 143.149
57.59000 138.135
57.60000 133.914
57.61000 132.250
57.62000 130.780
57.63000 129.754
57.64000 142.857
57.65000 153.147
57.66000 158.001
57.67000 154.493
57.68000 150.892
57.69000 144.929
57.70000 136.531
57.71000 128.176
57.72000 129.253
57.73000 136.710
57.74000 144.002
57.75000 146.245
57.76000 146.108
57.77000 146.164
57.78000 148.984
57.79000 152.707
57.80000 156.095
57.81000 149.607
57.82000 141.914
57.83000 136.129
57.84000 140.457
57.85000 146.267
57.86000 149.918
57.87000 145.856
57.88000 141.108
57.89000 137.686
57.90000 140.539
57.91000 142.949
57.92000 144.034
57.93000 142.861
57.94000 141.649
57.95000 142.220
57.96000 144.852
57.97000 147.480
57.98000 145.416
57.99000 139.807
58.00000 134.255
58.01000 131.017
58.02000 128.987
58.03000 127.135
58.04000 128.349
58.05000 130.671
58.06000 132.813
58.07000 137.677
58.08000 142.639
58.09000 146.674
58.10000 145.192
58.11000 142.797
58.12000 140.881
58.13000 140.869
58.14000 141.052
58.15000 141.189
58.16000 141.558
58.17000 141.855
58.18000 141.449
58.19000 139.715
58.20000 137.949
58.21000 137.655
58.22000 139.258
58.23000 140.868
58.24000 140.860
58.25000 139.475
58.26000 138.075
58.27000 135.800
58.28000 133.019
58.29000 130.572
58.30000 135.122
58.31000 142.469
58.32000 149.327
58.33000 145.395
58.34000 139.132
58.35000 133.820
58.36000 134.895
58.37000 137.155
58.38000 138.550
58.39000 136.116
58.40000 133.230
58.41000 131.026
58.42000 139.706
58.43000 147.130
58.44000 150.260
58.45000 144.408
58.46000 138.275
58.47000 135.556
58.48000 137.747
58.49000 139.976
58.50000 139.763
58.51000 137.215
58.52000 134.685
58.53000 133.594
58.54000 133.425
58.55000 133.229
58.56000 132.286
58.57000 131.015
58.58000 129.815
58.59000 133.448
58.60000 138.136
58.61000 142.530
58.62000 144.683
58.63000 146.369
58.64000 147.271
58.65000 144.303
58.66000 140.812
58.67000 138.078
58.68000 141.902
58.69000 145.378
58.70000 146.619
58.71000 142.691
58.72000 138.556
58.73000 137.809
58.74000 142.472
58.75000 147.207
58.76000 149.658
58.77000 145.883
58.78000 143.334
58.79000 140.751
58.80000 138.143
58.81000 135.580
58.82000 134.541
58.83000 134.245
58.84000 133.964
58.85000 129.578
58.86000 124.221
58.87000 120.161
58.88000 127.379
58.89000 137.214
58.90000 145.201
58.91000 142.993
58.92000 139.224
58.93000 136.201
58.94000 130.611
58.95000 125.889
58.96000 123.647
58.97000 127.745
58.98000 132.160
58.99000 137.072
59.00000 142.864
59.01000 148.673
59.02000 151.848
59.03000 145.566
59.04000 141.242
59.05000 138.814
59.06000 137.891
59.07000 137.013
59.08000 138.146
59.09000 140.367
59.10000 142.503
59.11000 144.791
59.12000 146.990
59.13000 148.632
59.14000 144.703
59.15000 139.336
59.16000 135.117
59.17000 138.021
59.18000 142.154
59.19000 145.545
59.20000 148.774
59.21000 151.409
59.22000 153.021
59.23000 151.738
59.24000 150.280
59.25000 147.726
59.26000 143.026
59.27000 138.268
59.28000 135.537
59.29000 136.562
59.30000 137.292
59.31000 138.040
59.32000 138.803
59.33000 139.506
59.34000 136.364
59.35000 130.917
59.36000 125.634
59.37000 128.068
59.38000 133.403
59.39000 138.327
59.40000 138.484
59.41000 137.275
59.42000 136.376
59.43000 137.652
59.44000 139.349
59.45000 140.771
59.46000 133.614
59.47000 126.775
59.48000 122.424
59.49000 125.856
59.50000 129.852
59.51000 132.314
59.52000 131.452
59.53000 130.475
59.54000 129.888
59.55000 135.492
59.56000 139.520
59.57000 141.881
59.58000 142.584
59.59000 143.261
59.60000 141.452
59.61000 137.988
59.62000 134.606
59.63000 133.129
59.64000 132.551
59.65000 131.915
59.66000 130.487
59.67000 128.806
59.68000 127.503
59.69000 129.206
59.70000 131.560
59.71000 133.570
59.72000 133.047
59.73000 132.304
59.74000 131.808
59.75000 132.165
59.76000 132.595
59.77000 133.476
59.78000 135.437
59.79000 137.444
59.80000 138.704
59.81000 128.048
59.82000 120.219
59.83000 118.595
59.84000 123.913
59.85000 129.219
59.86000 131.374
59.87000 131.199
59.88000 131.027
59.89000 129.811
59.90000 128.127
59.91000 126.620
59.92000 128.000
59.93000 130.395
59.94000 132.900
59.95000 136.408
59.96000 140.158
59.97000 143.420
59.98000 141.202
59.99000 138.563
60.00000 136.512
60.01000 136.725
60.02000 137.161
60.03000 137.650
60.04000 138.277
60.05000 138.912
60.06000 139.326
60.07000 139.947
60.08000 140.407
60.09000 141.307
60.10000 142.758
60.11000 144.210
60.12000 145.156
60.13000 145.684
60.14000 146.205
60.15000 139.756
60.16000 129.662
60.17000 120.202
60.18000 123.273
60.19000 131.212
60.20000 138.622
60.21000 140.441
60.22000 140.764
60.23000 141.049
60.24000 138.720
60.25000 136.301
60.26000 133.699
60.27000 130.318
60.28000 126.848
60.29000 125.631
60.30000 131.018
60.31000 136.833
60.32000 140.767
60.33000 136.116
60.34000 132.464
60.35000 131.616
60.36000 134.678
60.37000 137.765
60.38000 139.453
60.39000 139.848
60.40000 140.240
60.41000 139.364
60.42000 137.730
60.43000 136.045
60.44000 133.105
60.45000 129.626
60.46000 126.625
60.47000 129.514
60.48000 134.152
60.49000 138.319
60.50000 134.244
60.51000 129.226
60.52000 125.580
60.53000 128.487
60.54000 132.247
60.55000 135.019
60.56000 134.584
60.57000 133.902
60.58000 133.426
60.59000 133.025
60.60000 132.725
60.61000 132.309
60.62000 131.715
60.63000 131.118
60.64000 134.401
60.65000 141.715
60.66000 148.994
60.67000 153.797
60.68000 156.855
60.69000 159.610
60.70000 152.892
60.71000 141.674
60.72000 131.387
60.73000 134.623
60.74000 142.310
60.75000 149.313
60.76000 146.503
60.77000 142.061
60.78000 137.941
60.79000 135.546
60.80000 133.406
60.81000 131.541
60.82000 130.666
60.83000 129.880
60.84000 129.312
60.85000 128.444
60.86000 127.767
60.87000 127.536
60.88000 128.071
60.89000 128.620
60.90000 131.343
60.91000 136.600
60.92000 141.848
60.93000 143.701
60.94000 142.947
60.95000 142.128
60.96000 138.580
60.97000 133.600
60.98000 128.935
60.99000 129.774
61.00000 132.616
61.01000 135.240
61.02000 133.185
61.03000 130.292
61.04000 128.102
61.05000 130.130
61.06000 132.861
61.07000 134.871
61.08000 133.997
61.09000 132.823
61.10000 131.949
61.11000 134.796
61.12000 137.177
61.13000 138.509
61.14000 137.846
61.15000 137.134
61.16000 137.524
61.17000 139.347
61.18000 141.175
61.19000 141.446
61.20000 140.382
61.21000 139.350
61.22000 140.151
61.23000 142.020
61.24000 143.873
61.25000 145.395
61.26000 146.784
61.27000 148.081
61.28000 148.335
61.29000 148.302
61.30000 147.947
61.31000 145.415
61.32000 142.474
61.33000 140.172
61.34000 140.711
61.35000 141.589
61.36000 142.261
61.37000 139.509
61.38000 137.152
61.39000 135.212
61.40000 134.149
61.41000 133.115
61.42000 134.162
61.43000 138.223
61.44000 142.308
61.45000 144.149
61.46000 143.829
61.47000 143.531
61.48000 145.167
61.49000 148.052
61.50000 151.077
61.51000 157.840
61.52000 166.266
61.53000 174.225
61.54000 186.985
61.55000 200.054
61.56000 212.652
61.57000 221.631
61.58000 229.851
61.59000 238.560
61.60000 249.697
61.61000 261.165
61.62000 270.162
61.63000 279.840
61.64000 287.625
61.65000 292.522
61.66000 290.696
61.67000 288.595
61.68000 289.662
61.69000 295.826
61.70000 302.059
61.71000 305.300
61.72000 298.532
61.73000 293.959
61.74000 289.639
61.75000 285.500
61.76000 281.418
61.77000 279.280
61.78000 278.099
61.79000 276.973
61.80000 261.629
61.81000 242.885
61.82000 225.151
61.83000 216.278
61.84000 209.477
61.85000 201.353
61.86000 185.867
61.87000 169.243
61.88000 155.885
61.89000 153.200
61.90000 151.844
61.91000 151.041
61.92000 151.662
61.93000 152.355
61.94000 151.447
61.95000 147.684
61.96000 143.865
61.97000 141.770
61.98000 142.585
61.99000 143.151
62.00000 143.870
62.01000 144.712
62.02000 145.520
62.03000 144.749
62.04000 143.118
62.05000 141.548
62.06000 145.952
62.07000 152.201
62.08000 157.667
62.09000 155.221
62.10000 150.719
62.11000 146.789
62.12000 146.446
62.13000 146.728
62.14000 146.959
62.15000 147.104
62.16000 147.215
62.17000 147.852
62.18000 149.985
62.19000 152.210
62.20000 151.143
62.21000 143.575
62.22000 135.833
62.23000 131.371
62.24000 137.518
62.25000 141.861
62.26000 145.229
62.27000 147.724
62.28000 150.182
62.29000 150.129
62.30000 148.559
62.31000 147.037
62.32000 146.492
62.33000 146.362
62.34000 146.217
62.35000 145.899
62.36000 145.531
62.37000 145.072
62.38000 143.970
62.39000 142.742
62.40000 141.712
62.41000 141.924
62.42000 142.231
62.43000 141.954
62.44000 139.840
62.45000 137.591
62.46000 136.573
62.47000 138.247
62.48000 140.015
62.49000 141.081
62.50000 146.541
62.51000 150.458
62.52000 151.866
62.53000 150.753
62.54000 149.637
62.55000 148.314
62.56000 146.850
62.57000 145.420
62.58000 140.101
62.59000 133.290
62.60000 127.487
62.61000 135.632
62.62000 148.236
62.63000 159.160
62.64000 156.547
62.65000 150.984
62.66000 146.226
62.67000 143.703
62.68000 141.845
62.69000 140.258
62.70000 139.617
62.71000 139.058
62.72000 139.089
62.73000 140.545
62.74000 142.064
62.75000 143.019
62.76000 144.029
62.77000 144.760
62.78000 142.477
62.79000 136.793
62.80000 131.141
62.81000 132.087
62.82000 137.952
62.83000 143.717
62.84000 146.037
62.85000 146.578
62.86000 147.097
62.87000 147.248
62.88000 147.270
62.89000 147.210
62.90000 146.407
62.91000 145.423
62.92000 144.567
62.93000 142.626
62.94000 140.819
62.95000 140.258
62.96000 144.531
62.97000 149.288
62.98000 152.966
62.99000 153.764
63.00000 154.405
63.01000 154.824
63.02000 152.289
63.03000 150.378
63.04000 147.723
63.05000 144.131
63.06000 140.546
63.07000 142.522
63.08000 149.124
63.09000 155.646
63.10000 155.308
63.11000 151.198
63.12000 147.351
63.13000 148.790
63.14000 152.296
63.15000 155.379
63.16000 153.957
63.17000 151.318
63.18000 148.982
63.19000 147.452
63.20000 146.254
63.21000 145.059
63.22000 143.872
63.23000 142.687
63.24000 141.955
63.25000 142.562
63.26000 143.258
63.27000 143.729
63.28000 151.188
63.29000 156.906
63.30000 158.470
63.31000 154.201
63.32000 149.890
63.33000 146.291
63.34000 143.355
63.35000 140.443
63.36000 140.597
63.37000 142.637
63.38000 144.658
63.39000 146.188
63.40000 147.507
63.41000 148.918
63.42000 151.488
63.43000 154.405
63.44000 157.028
63.45000 155.457
63.46000 153.336
63.47000 151.429
63.48000 150.557
63.49000 149.821
63.50000 149.438
63.51000 150.209
63.52000 151.070
63.53000 151.674
63.54000 158.022
63.55000 162.993
63.56000 163.849
63.57000 158.281
63.58000 152.637
63.59000 150.547
63.60000 152.179
63.61000 153.804
63.62000 154.786
63.63000 155.315
63.64000 155.862
63.65000 156.987
63.66000 158.390
63.67000 159.677
63.68000 159.258
63.69000 158.275
63.70000 157.378
63.71000 152.590
63.72000 147.564
63.73000 144.338
63.74000 150.807
63.75000 158.722
63.76000 165.663
63.77000 169.075
63.78000 172.165
63.79000 174.402
63.80000 162.174
63.81000 152.255
63.82000 146.695
63.83000 148.686
63.84000 150.812
63.85000 151.470
63.86000 150.405
63.87000 149.340
63.88000 150.921
63.89000 154.534
63.90000 158.073
63.91000 158.512
63.92000 157.310
63.93000 156.080
63.94000 154.346
63.95000 152.427
63.96000 150.654
63.97000 153.471
63.98000 157.038
63.99000 160.002
64.00000 159.308
64.01000 157.999
64.02000 156.370
64.03000 153.455
64.04000 150.404
64.05000 148.130
64.06000 146.525
64.07000 145.306
64.08000 145.654
64.09000 149.006
64.10000 152.433
64.11000 156.469
64.12000 161.303
64.13000 166.137
64.14000 167.680
64.15000 166.375
64.16000 165.087
64.17000 164.799
64.18000 165.097
64.19000 165.512
64.20000 168.462
64.21000 172.439
64.22000 176.159
64.23000 169.172
64.24000 160.105
64.25000 152.648
64.26000 156.189
64.27000 161.806
64.28000 166.050
64.29000 164.132
64.30000 161.469
64.31000 159.430
64.32000 162.366
64.33000 164.958
64.34000 165.252
64.35000 160.668
64.36000 155.924
64.37000 155.201
64.38000 160.348
64.39000 165.544
64.40000 166.705
64.41000 163.945
64.42000 161.231
64.43000 162.724
64.44000 166.954
64.45000 171.098
64.46000 172.938
64.47000 173.744
64.48000 174.507
64.49000 175.780
64.50000 177.096
64.51000 177.821
64.52000 173.968
64.53000 169.149
64.54000 165.513
64.55000 167.808
64.56000 170.919
64.57000 173.364
64.58000 173.486
64.59000 173.431
64.60000 172.411
64.61000 169.129
64.62000 165.753
64.63000 164.697
64.64000 167.401
64.65000 170.156
64.66000 171.595
64.67000 179.861
64.68000 185.411
64.69000 184.122
64.70000 177.885
64.71000 171.845
64.72000 172.659
64.73000 176.874
64.74000 180.898
64.75000 180.633
64.76000 179.017
64.77000 177.932
64.78000 181.550
64.79000 186.275
64.80000 189.438
64.81000 183.835
64.82000 176.867
64.83000 171.259
64.84000 175.128
64.85000 179.006
64.86000 182.090
64.87000 183.113
64.88000 184.030
64.89000 183.771
64.90000 181.397
64.91000 178.980
64.92000 177.650
64.93000 176.968
64.94000 176.508
64.95000 179.093
64.96000 184.132
64.97000 189.102
64.98000 190.760
64.99000 190.600
65.00000 190.447
65.01000 193.891
65.02000 198.410
65.03000 202.487
65.04000 202.057
65.05000 200.446
65.06000 199.332
65.07000 201.356
65.08000 203.930
65.09000 206.049
65.10000 210.747
65.11000 214.846
65.12000 216.532
65.13000 211.297
65.14000 205.630
65.15000 203.735
65.16000 209.341
65.17000 215.152
65.18000 218.511
65.19000 220.124
65.20000 221.249
65.21000 223.691
65.22000 227.322
65.23000 230.973
65.24000 235.905
65.25000 241.618
65.26000 247.164
65.27000 247.103
65.28000 244.808
65.29000 242.974
65.30000 246.612
65.31000 251.841
65.32000 257.304
65.33000 264.439
65.34000 271.903
65.35000 278.173
65.36000 279.163
65.37000 279.430
65.38000 281.221
65.39000 287.855
65.40000 294.847
65.41000 303.912
65.42000 317.534
65.43000 331.320
65.44000 339.659
65.45000 345.848
65.46000 350.243
65.47000 355.800
65.48000 362.535
65.49000 369.278
65.50000 376.907
65.51000 385.135
65.52000 393.177
65.53000 392.040
65.54000 386.860
65.55000 382.673
65.56000 392.378
65.57000 406.554
65.58000 420.372
65.59000 431.276
65.60000 441.540
65.61000 450.330
65.62000 458.738
65.63000 465.788
65.64000 472.648
65.65000 478.840
65.66000 484.975
65.67000 494.908
65.68000 514.080
65.69000 533.667
65.70000 546.022
65.71000 592.157
65.72000 625.954
65.73000 674.756
65.74000 740.618
65.75000 806.489
65.76000 870.388
65.77000 932.806
65.78000 994.182
65.79000 1043.025
65.80000 1084.033
65.81000 1124.268
65.82000 1151.569
65.83000 1174.261
65.84000 1195.979
65.85000 1208.613
65.86000 1219.025
65.87000 1228.102
65.88000 1237.980
65.89000 1246.535
65.90000 1252.306
65.91000 1247.193
65.92000 1240.982
65.93000 1226.343
65.94000 1189.042
65.95000 1150.491
65.96000 1125.209
65.97000 1033.586
65.98000 965.102
65.99000 896.377
66.00000 827.345
66.01000 758.328
66.02000 697.240
66.03000 642.805
66.04000 589.008
66.05000 542.786
66.06000 501.903
66.07000 461.518
66.08000 431.252
66.09000 404.973
66.10000 380.719
66.11000 378.276
66.12000 381.763
66.13000 384.853
66.14000 367.820
66.15000 349.891
66.16000 335.581
66.17000 337.015
66.18000 340.279
66.19000 342.143
66.20000 339.839
66.21000 337.258
66.22000 335.504
66.23000 339.419
66.24000 342.470
66.25000 343.616
66.26000 342.066
66.27000 340.498
66.28000 346.727
66.29000 360.283
66.30000 373.735
66.31000 384.468
66.32000 393.331
66.33000 402.360
66.34000 415.592
66.35000 430.655
66.36000 445.604
66.37000 459.115
66.38000 472.193
66.39000 483.964
66.40000 486.358
66.41000 486.775
66.42000 486.194
66.43000 480.771
66.44000 474.707
66.45000 471.656
66.46000 478.539
66.47000 486.202
66.48000 491.591
66.49000 493.607
66.50000 495.034
66.51000 484.715
66.52000 455.917
66.53000 426.893
66.54000 408.834
66.55000 402.358
66.56000 395.913
66.57000 385.382
66.58000 372.127
66.59000 359.159
66.60000 355.523
66.61000 356.383
66.62000 356.919
66.63000 352.622
66.64000 346.710
66.65000 341.314
66.66000 341.600
66.67000 343.005
66.68000 343.088
66.69000 335.984
66.70000 327.799
66.71000 321.603
66.72000 322.674
66.73000 324.412
66.74000 325.673
66.75000 338.677
66.76000 349.109
66.77000 353.009
66.78000 345.515
66.79000 337.813
66.80000 331.821
66.81000 327.854
66.82000 323.898
66.83000 326.374
66.84000 333.835
66.85000 341.212
66.86000 344.994
66.87000 346.858
66.88000 348.680
66.89000 349.763
66.90000 350.573
66.91000 351.322
66.92000 345.845
66.93000 339.505
66.94000 335.024
66.95000 341.897
66.96000 350.694
66.97000 357.269
66.98000 354.823
66.99000 351.418
67.00000 348.874
67.01000 350.460
67.02000 351.887
67.03000 354.826
67.04000 360.688
67.05000 366.624
67.06000 373.637
67.07000 382.074
67.08000 390.513
67.09000 393.630
67.10000 392.105
67.11000 390.552
67.12000 387.298
67.13000 383.039
67.14000 379.307
67.15000 387.107
67.16000 399.619
67.17000 411.328
67.18000 405.857
67.19000 396.480
67.20000 387.589
67.21000 382.049
67.22000 377.147
67.23000 373.770
67.24000 377.283
67.25000 381.637
67.26000 384.979
67.27000 388.122
67.28000 390.595
67.29000 395.249
67.30000 404.565
67.31000 414.037
67.32000 420.821
67.33000 423.653
67.34000 426.450
67.35000 424.549
67.36000 418.048
67.37000 411.647
67.38000 414.769
67.39000 424.130
67.40000 433.229
67.41000 435.083
67.42000 433.665
67.43000 432.323
67.44000 426.053
67.45000 418.871
67.46000 412.858
67.47000 416.001
67.48000 421.093
67.49000 425.810
67.50000 428.634
67.51000 431.195
67.52000 433.212
67.53000 441.801
67.54000 449.121
67.55000 453.332
67.56000 450.196
67.57000 446.750
67.58000 446.743
67.59000 452.353
67.60000 458.041
67.61000 461.023
67.62000 470.577
67.63000 476.996
67.64000 474.292
67.65000 464.940
67.66000 455.927
67.67000 459.079
67.68000 468.307
67.69000 477.123
67.70000 485.162
67.71000 492.386
67.72000 498.857
67.73000 498.580
67.74000 496.702
67.75000 495.580
67.76000 498.737
67.77000 502.567
67.78000 505.655
67.79000 513.490
67.80000 520.227
67.81000 522.689
67.82000 513.977
67.83000 504.682
67.84000 500.435
67.85000 505.326
67.86000 510.405
67.87000 513.212
67.88000 523.521
67.89000 530.625
67.90000 529.903
67.91000 522.823
67.92000 515.996
67.93000 521.474
67.94000 533.755
67.95000 545.591
67.96000 556.154
67.97000 565.623
67.98000 573.918
67.99000 570.089
68.00000 563.061
68.01000 555.883
68.02000 547.744
68.03000 539.435
68.04000 532.587
68.05000 539.537
68.06000 546.526
68.07000 554.081
68.08000 563.274
68.09000 572.569
68.10000 580.691
68.11000 586.462
68.12000 592.168
68.13000 595.477
68.14000 593.849
68.15000 592.688
68.16000 597.294
68.17000 607.144
68.18000 616.902
68.19000 620.170
68.20000 619.461
68.21000 618.772
68.22000 617.989
68.23000 617.208
68.24000 617.403
68.25000 629.323
68.26000 644.675
68.27000 659.190
68.28000 667.664
68.29000 674.942
68.30000 681.065
68.31000 683.734
68.32000 685.592
68.33000 688.251
68.34000 693.473
68.35000 698.887
68.36000 705.772
68.37000 715.915
68.38000 726.177
68.39000 732.403
68.40000 750.386
68.41000 763.305
68.42000 764.232
68.43000 752.908
68.44000 741.767
68.45000 751.439
68.46000 775.273
68.47000 798.581
68.48000 800.516
68.49000 792.776
68.50000 786.818
68.51000 806.117
68.52000 833.608
68.53000 859.874
68.54000 876.077
68.55000 890.053
68.56000 902.039
68.57000 926.075
68.58000 947.857
68.59000 974.577
68.60000 1018.811
68.61000 1064.588
68.62000 1108.465
68.63000 1147.690
68.64000 1186.702
68.65000 1211.382
68.66000 1295.169
68.67000 1356.611
68.68000 1416.203
68.69000 1473.673
68.70000 1531.145
68.71000 1589.491
68.72000 1648.500
68.73000 1706.547
68.74000 1765.220
68.75000 1822.322
68.76000 1880.242
68.77000 1952.022
68.78000 2028.778
68.79000 2107.483
68.80000 2204.550
68.81000 2306.142
68.82000 2394.825
68.83000 2510.043
68.84000 2612.349
68.85000 2726.681
68.86000 2888.383
68.87000 3054.921
68.88000 3265.131
68.89000 3593.646
68.90000 3928.781
68.91000 4149.149
68.92000 5260.941
68.93000 6094.644
68.94000 7474.352
68.95000 9553.480
68.96000 11637.005
68.97000 14758.862
68.98000 18758.600
68.99000 22712.707
69.00000 27803.455
69.01000 33408.871
69.02000 39000.113
69.03000 44298.680
69.04000 49481.070
69.05000 54528.781
69.06000 58109.711
69.07000 61288.938
69.08000 64110.230
69.09000 65517.754
69.10000 66511.664
69.11000 67425.164
69.12000 67986.219
69.13000 68505.914
69.14000 69083.398
69.15000 69834.094
69.16000 70596.438
69.17000 71116.063
69.18000 71938.023
69.19000 72559.305
69.20000 72407.875
69.21000 71154.000
69.22000 69891.570
69.23000 67574.227
69.24000 64257.406
69.25000 60965.047
69.26000 57301.090
69.27000 53465.043
69.28000 49661.047
69.29000 46682.125
69.30000 44065.336
69.31000 41512.574
69.32000 39775.113
69.33000 38285.270
69.34000 36942.883
69.35000 35891.457
69.36000 35021.645
69.37000 34100.750
69.38000 32930.000
69.39000 31725.805
69.40000 30293.135
69.41000 28102.049
69.42000 25850.635
69.43000 24263.859
69.44000 20579.633
69.45000 17722.586
69.46000 15052.411
69.47000 12678.439
69.48000 10308.197
69.49000 8412.021
69.50000 7020.808
69.51000 5635.588
69.52000 4656.940
69.53000 3972.631
69.54000 3295.908
69.55000 2870.308
69.56000 2566.599
69.57000 2271.277
69.58000 2102.440
69.59000 1976.143
69.60000 1860.739
69.61000 1749.949
69.62000 1652.493
69.63000 1559.460
69.64000 1490.647
69.65000 1425.507
69.66000 1368.200
69.67000 1339.731
69.68000 1313.942
69.69000 1295.190
69.70000 1227.569
69.71000 1173.693
69.72000 1134.013
69.73000 1119.285
69.74000 1105.023
69.75000 1084.076
69.76000 1055.152
69.77000 1026.270
69.78000 993.258
69.79000 957.176
69.80000 921.390
69.81000 898.728
69.82000 883.115
69.83000 867.983
69.84000 861.561
69.85000 858.380
69.86000 855.436
69.87000 857.108
69.88000 859.673
69.89000 858.443
69.90000 833.842
69.91000 805.245
69.92000 781.582
69.93000 778.100
69.94000 776.786
69.95000 775.802
69.96000 785.260
69.97000 793.129
69.98000 792.578
69.99000 775.645
70.00000 758.290
