20.00000 583.733
20.01000 572.573
20.02000 559.818
20.03000 549.882
20.04000 551.210
20.05000 553.711
20.06000 555.572
20.07000 573.632
20.08000 588.405
20.09000 592.168
20.10000 574.972
20.11000 557.270
20.12000 550.266
20.13000 557.176
20.14000 564.138
20.15000 563.634
20.16000 556.733
20.17000 549.997
20.18000 552.897
20.19000 561.402
20.20000 569.631
20.21000 571.974
20.22000 571.948
20.23000 571.923
20.24000 572.003
20.25000 572.101
20.26000 570.830
20.27000 560.291
20.28000 548.018
20.29000 539.015
20.30000 544.565
20.31000 551.855
20.32000 557.430
20.33000 557.600
20.34000 557.440
20.35000 559.309
20.36000 565.451
20.37000 571.730
20.38000 570.752
20.39000 559.266
20.40000 547.695
20.41000 545.130
20.42000 551.236
20.43000 557.312
20.44000 560.658
20.45000 562.244
20.46000 563.851
20.47000 566.020
20.48000 568.440
20.49000 570.726
20.50000 571.617
20.51000 572.041
20.52000 571.530
20.53000 563.831
20.54000 554.627
20.55000 547.649
20.56000 551.735
20.57000 557.327
20.58000 561.715
20.59000 557.449
20.60000 553.474
20.61000 551.672
20.62000 554.929
20.63000 558.392
20.64000 558.498
20.65000 553.205
20.66000 547.840
20.67000 545.051
20.68000 546.929
20.69000 548.212
20.70000 551.596
20.71000 556.487
20.72000 561.401
20.73000 567.121
20.74000 573.238
20.75000 579.073
20.76000 571.823
20.77000 560.951
20.78000 551.516
20.79000 554.695
20.80000 560.821
20.81000 564.808
20.82000 556.898
20.83000 547.151
20.84000 539.320
20.85000 553.916
20.86000 567.471
20.87000 575.967
20.88000 571.438
20.89000 566.248
20.90000 562.064
20.91000 559.673
20.92000 557.317
20.93000 556.025
20.94000 549.943
20.95000 545.761
20.96000 544.715
20.97000 546.177
20.98000 547.659
20.99000 550.078
21.00000 553.007
21.01000 555.827
21.02000 559.210
21.03000 562.585
21.04000 565.176
21.05000 559.847
21.06000 552.460
21.07000 545.611
21.08000 542.126
21.09000 539.227
21.10000 536.845
21.11000 540.128
21.12000 543.334
21.13000 546.311
21.14000 548.634
21.15000 550.917
21.16000 551.672
21.17000 549.409
21.18000 547.065
21.19000 545.714
21.20000 554.255
21.21000 560.268
21.22000 561.923
21.23000 559.682
21.24000 557.438
21.25000 555.040
21.26000 552.550
21.27000 550.133
21.28000 547.925
21.29000 545.914
21.30000 543.954
21.31000 542.594
21.32000 541.407
21.33000 542.216
21.34000 557.155
21.35000 574.847
21.36000 589.690
21.37000 579.805
21.38000 568.998
21.39000 559.857
21.40000 555.969
21.41000 552.465
21.42000 549.858
21.43000 549.205
21.44000 548.622
21.45000 548.270
21.46000 541.401
21.47000 536.466
21.48000 539.900
21.49000 551.736
21.50000 563.464
21.51000 563.787
21.52000 556.468
21.53000 549.317
21.54000 545.197
21.55000 542.589
21.56000 540.720
21.57000 549.055
21.58000 560.650
21.59000 570.533
21.60000 566.628
21.61000 559.721
21.62000 553.813
21.63000 549.470
21.64000 545.996
21.65000 543.083
21.66000 542.130
21.67000 541.345
21.68000 543.946
21.69000 554.722
21.70000 565.860
21.71000 572.864
21.72000 566.094
21.73000 561.043
21.74000 558.943
21.75000 560.172
21.76000 561.409
21.77000 563.575
21.78000 566.434
21.79000 569.245
21.80000 569.826
21.81000 569.289
21.82000 569.275
21.83000 577.903
21.84000 589.587
21.85000 599.585
21.86000 594.035
21.87000 584.712
21.88000 576.594
21.89000 585.289
21.90000 595.029
21.91000 604.601
21.92000 613.518
21.93000 622.371
21.94000 627.159
21.95000 621.097
21.96000 614.446
21.97000 610.096
21.98000 640.411
21.99000 663.243
22.00000 673.171
22.01000 666.833
22.02000 660.444
22.03000 655.200
22.04000 650.908
22.05000 646.667
22.06000 655.370
22.07000 670.986
22.08000 685.993
22.09000 688.802
22.10000 686.841
22.11000 685.709
22.12000 693.420
22.13000 703.516
22.14000 712.455
22.15000 702.617
22.16000 691.165
22.17000 679.875
22.18000 669.286
22.19000 658.778
22.20000 652.034
22.21000 656.406
22.22000 661.508
22.23000 664.967
22.24000 654.956
22.25000 647.193
22.26000 647.834
22.27000 660.278
22.28000 672.798
22.29000 664.715
22.30000 637.439
22.31000 610.380
22.32000 602.034
22.33000 605.353
22.34000 608.337
22.35000 603.003
22.36000 594.070
22.37000 585.661
22.38000 583.761
22.39000 583.807
22.40000 583.849
22.41000 579.209
22.42000 574.314
22.43000 570.616
22.44000 572.678
22.45000 575.495
22.46000 579.149
22.47000 585.535
22.48000 592.133
22.49000 596.761
22.50000 586.559
22.51000 578.409
22.52000 572.854
22.53000 571.349
22.54000 569.892
22.55000 561.284
22.56000 545.186
22.57000 529.162
22.58000 526.512
22.59000 533.096
22.60000 539.718
22.61000 547.556
22.62000 555.975
22.63000 562.720
22.64000 544.861
22.65000 518.849
22.66000 495.127
22.67000 504.528
22.68000 519.513
22.69000 533.068
22.70000 538.916
22.71000 543.617
22.72000 544.533
22.73000 531.726
22.74000 517.672
22.75000 507.499
22.76000 520.180
22.77000 530.754
22.78000 536.892
22.79000 535.349
22.80000 533.670
22.81000 532.644
22.82000 532.383
22.83000 532.124
22.84000 529.517
22.85000 525.116
22.86000 520.809
22.87000 520.484
22.88000 522.266
22.89000 523.881
22.90000 522.542
22.91000 520.119
22.92000 517.881
22.93000 516.814
22.94000 516.121
22.95000 515.375
22.96000 514.303
22.97000 513.177
22.98000 513.982
22.99000 522.563
23.00000 531.962
23.01000 538.968
23.02000 533.908
23.03000 529.421
23.04000 528.386
23.05000 533.972
23.06000 539.720
23.07000 537.661
23.08000 525.366
23.09000 513.035
23.10000 504.517
23.11000 499.309
23.12000 494.188
23.13000 494.215
23.14000 497.260
23.15000 500.437
23.16000 506.463
23.17000 513.646
23.18000 520.362
23.19000 513.679
23.20000 504.205
23.21000 496.512
23.22000 500.979
23.23000 507.741
23.24000 512.887
23.25000 510.781
23.26000 507.801
23.27000 505.517
23.28000 494.020
23.29000 484.434
23.30000 478.221
23.31000 479.162
23.32000 480.337
23.33000 483.514
23.34000 489.611
23.35000 495.732
23.36000 500.842
23.37000 504.967
23.38000 509.071
23.39000 511.116
23.40000 511.824
23.41000 512.848
23.42000 522.449
23.43000 535.895
23.44000 548.604
23.45000 544.832
23.46000 536.669
23.47000 529.304
23.48000 528.131
23.49000 528.267
23.50000 526.864
23.51000 517.760
23.52000 507.596
23.53000 499.608
23.54000 508.057
23.55000 515.903
23.56000 520.283
23.57000 516.538
23.58000 512.455
23.59000 510.541
23.60000 512.142
23.61000 513.791
23.62000 514.652
23.63000 509.299
23.64000 505.687
23.65000 503.517
23.66000 502.390
23.67000 501.389
23.68000 504.807
23.69000 510.417
23.70000 515.772
23.71000 517.366
23.72000 517.646
23.73000 517.327
23.74000 511.696
23.75000 504.816
23.76000 499.571
23.77000 503.509
23.78000 508.877
23.79000 513.197
23.80000 508.281
23.81000 503.575
23.82000 500.482
23.83000 501.577
23.84000 502.886
23.85000 506.194
23.86000 513.091
23.87000 520.059
23.88000 523.895
23.89000 523.887
23.90000 523.884
23.91000 527.041
23.92000 532.744
23.93000 538.372
23.94000 540.448
23.95000 540.574
23.96000 540.696
23.97000 541.168
23.98000 541.736
23.99000 542.075
24.00000 540.083
24.01000 537.480
24.02000 534.891
24.03000 532.392
24.04000 529.909
24.05000 527.866
24.06000 530.716
24.07000 533.504
24.08000 534.956
24.09000 532.574
24.10000 529.953
24.11000 524.819
24.12000 514.688
24.13000 504.421
24.14000 498.486
24.15000 505.658
24.16000 510.737
24.17000 513.167
24.18000 513.208
24.19000 513.226
24.20000 511.621
24.21000 509.029
24.22000 506.514
24.23000 512.717
24.24000 522.081
24.25000 530.505
24.26000 527.779
24.27000 521.812
24.28000 515.202
24.29000 503.991
24.30000 491.875
24.31000 481.697
24.32000 481.148
24.33000 481.706
24.34000 484.748
24.35000 495.677
24.36000 507.191
24.37000 513.248
24.38000 507.305
24.39000 500.935
24.40000 497.082
24.41000 499.062
24.42000 500.515
24.43000 499.259
24.44000 495.257
24.45000 491.242
24.46000 485.781
24.47000 479.342
24.48000 473.049
24.49000 475.098
24.50000 480.777
24.51000 486.031
24.52000 485.355
24.53000 482.769
24.54000 480.951
24.55000 485.371
24.56000 491.161
24.57000 496.119
24.58000 507.565
24.59000 518.011
24.60000 523.549
24.61000 511.808
24.62000 498.564
24.63000 486.200
24.64000 475.973
24.65000 465.843
24.66000 459.453
24.67000 467.426
24.68000 473.365
24.69000 475.530
24.70000 473.405
24.71000 471.291
24.72000 472.320
24.73000 475.711
24.74000 479.045
24.75000 480.553
24.76000 481.103
24.77000 481.112
24.78000 472.083
24.79000 459.834
24.80000 449.791
24.81000 460.289
24.82000 475.812
24.83000 489.344
24.84000 487.347
24.85000 483.483
24.86000 479.950
24.87000 477.713
24.88000 475.606
24.89000 475.178
24.90000 479.261
24.91000 483.593
24.92000 486.434
24.93000 471.681
24.94000 460.539
24.95000 459.175
24.96000 470.235
24.97000 481.328
24.98000 487.610
24.99000 489.858
25.00000 492.080
25.01000 490.282
25.02000 486.296
25.03000 482.244
25.04000 476.854
25.05000 470.936
25.06000 465.885
25.07000 470.177
25.08000 477.008
25.09000 483.062
25.10000 483.688
25.11000 483.371
25.12000 483.205
25.13000 483.696
25.14000 484.264
25.15000 483.803
25.16000 480.283
25.17000 476.560
25.18000 474.029
25.19000 470.823
25.20000 468.415
25.21000 466.867
25.22000 466.538
25.23000 466.219
25.24000 470.495
25.25000 479.086
25.26000 487.612
25.27000 487.583
25.28000 482.246
25.29000 477.009
25.30000 474.310
25.31000 472.716
25.32000 471.292
25.33000 471.996
25.34000 473.341
25.35000 474.552
25.36000 474.395
25.37000 474.013
25.38000 473.289
25.39000 470.907
25.40000 468.306
25.41000 466.089
25.42000 465.136
25.43000 464.283
25.44000 463.684
25.45000 463.942
25.46000 464.163
25.47000 463.744
25.48000 462.318
25.49000 460.880
25.50000 464.499
25.51000 473.459
25.52000 482.381
25.53000 481.911
25.54000 474.930
25.55000 468.020
25.56000 463.415
25.57000 459.921
25.58000 456.391
25.59000 452.328
25.60000 448.087
25.61000 444.216
25.62000 457.413
25.63000 472.580
25.64000 485.286
25.65000 484.626
25.66000 481.958
25.67000 478.493
25.68000 472.119
25.69000 465.477
25.70000 460.659
25.71000 465.679
25.72000 469.903
25.73000 471.098
25.74000 467.008
25.75000 462.822
25.76000 460.899
25.77000 461.655
25.78000 462.414
25.79000 459.209
25.80000 452.941
25.81000 446.801
25.82000 446.229
25.83000 448.625
25.84000 451.079
25.85000 454.570
25.86000 458.445
25.87000 462.028
25.88000 466.602
25.89000 470.936
25.90000 474.332
25.91000 472.003
25.92000 468.704
25.93000 466.167
25.94000 466.722
25.95000 467.605
25.96000 468.264
25.97000 467.382
25.98000 466.623
25.99000 466.053
26.00000 465.848
26.01000 465.651
26.02000 467.413
26.03000 471.763
26.04000 476.121
26.05000 471.929
26.06000 460.293
26.07000 448.795
26.08000 445.760
26.09000 447.721
26.10000 449.840
26.11000 455.417
26.12000 462.407
26.13000 468.948
26.14000 460.835
26.15000 449.706
26.16000 440.248
26.17000 442.301
26.18000 446.545
26.19000 450.754
26.20000 454.806
26.21000 458.838
26.22000 461.932
26.23000 449.330
26.24000 438.494
26.25000 433.157
26.26000 439.572
26.27000 446.377
26.28000 452.202
26.29000 456.586
26.30000 460.957
26.31000 462.582
26.32000 461.518
26.33000 460.416
26.34000 455.721
26.35000 448.671
26.36000 441.748
26.37000 438.301
26.38000 436.425
26.39000 434.650
26.40000 443.845
26.41000 455.452
26.42000 465.392
26.43000 462.284
26.44000 456.400
26.45000 451.890
26.46000 454.312
26.47000 457.696
26.48000 460.360
26.49000 455.719
26.50000 451.514
26.51000 448.824
26.52000 449.713
26.53000 450.754
26.54000 451.529
26.55000 451.870
26.56000 452.205
26.57000 452.380
26.58000 449.592
26.59000 447.707
26.60000 446.641
26.61000 446.172
26.62000 445.626
26.63000 442.333
26.64000 437.669
26.65000 433.213
26.66000 436.700
26.67000 442.497
26.68000 447.585
26.69000 446.323
26.70000 443.555
26.71000 441.582
26.72000 444.109
26.73000 447.343
26.74000 449.950
26.75000 454.000
26.76000 457.403
26.77000 458.818
26.78000 455.037
26.79000 450.986
26.80000 448.588
26.81000 449.181
26.82000 449.836
26.83000 450.197
26.84000 443.532
26.85000 438.941
26.86000 441.371
26.87000 449.503
26.88000 457.473
26.89000 457.526
26.90000 453.201
26.91000 449.033
26.92000 444.264
26.93000 439.565
26.94000 435.131
26.95000 433.423
26.96000 432.435
26.97000 431.537
26.98000 431.217
26.99000 431.000
27.00000 430.820
27.01000 438.257
27.02000 445.077
27.03000 450.480
27.04000 451.788
27.05000 452.837
27.06000 453.049
27.07000 451.584
27.08000 450.072
27.09000 449.195
27.10000 440.239
27.11000 433.924
27.12000 433.041
27.13000 437.095
27.14000 441.164
27.15000 446.323
27.16000 452.150
27.17000 457.808
27.18000 453.826
27.19000 446.169
27.20000 438.944
27.21000 436.906
27.22000 436.387
27.23000 435.700
27.24000 433.797
27.25000 431.654
27.26000 429.850
27.27000 424.889
27.28000 420.416
27.29000 418.309
27.30000 423.772
27.31000 429.803
27.32000 435.095
27.33000 438.754
27.34000 442.352
27.35000 444.536
27.36000 437.779
27.37000 432.890
27.38000 429.199
27.39000 426.730
27.40000 424.318
27.41000 428.173
27.42000 436.293
27.43000 444.233
27.44000 449.316
27.45000 452.908
27.46000 456.249
27.47000 456.047
27.48000 454.695
27.49000 453.577
27.50000 454.381
27.51000 455.610
27.52000 456.664
27.53000 458.029
27.54000 459.221
27.55000 458.142
27.56000 449.012
27.57000 439.172
27.58000 432.508
27.59000 433.617
27.60000 435.082
27.61000 436.009
27.62000 438.312
27.63000 439.997
27.64000 441.612
27.65000 443.147
27.66000 444.664
27.67000 442.486
27.68000 437.512
27.69000 432.618
27.70000 431.168
27.71000 431.490
27.72000 431.761
27.73000 431.180
27.74000 430.293
27.75000 429.474
27.76000 429.298
27.77000 429.280
27.78000 429.265
27.79000 426.049
27.80000 422.848
27.81000 420.064
27.82000 418.917
27.83000 417.937
27.84000 418.221
27.85000 421.930
27.86000 425.830
27.87000 428.394
27.88000 410.686
27.89000 397.305
27.90000 395.214
27.91000 407.583
27.92000 420.000
27.93000 429.152
27.94000 435.546
27.95000 441.867
27.96000 440.145
27.97000 433.961
27.98000 427.932
27.99000 425.076
28.00000 423.481
28.01000 422.445
28.02000 427.508
28.03000 434.240
28.04000 440.215
28.05000 438.443
28.06000 435.671
28.07000 432.858
28.08000 429.861
28.09000 426.843
28.10000 424.589
28.11000 424.624
28.12000 424.813
28.13000 424.941
28.14000 432.488
28.15000 438.299
28.16000 440.161
28.17000 436.391
28.18000 432.578
28.19000 428.881
28.20000 425.294
28.21000 421.734
28.22000 419.044
28.23000 416.944
28.24000 414.971
28.25000 416.289
28.26000 419.051
28.27000 421.855
28.28000 425.197
28.29000 428.702
28.30000 431.860
28.31000 427.217
28.32000 421.732
28.33000 417.327
28.34000 418.199
28.35000 419.777
28.36000 421.556
28.37000 424.000
28.38000 426.497
28.39000 428.256
28.40000 430.443
28.41000 432.114
28.42000 432.457
28.43000 430.696
28.44000 428.908
28.45000 426.700
28.46000 424.044
28.47000 421.400
28.48000 420.951
28.49000 422.043
28.50000 423.002
28.51000 419.581
28.52000 414.035
28.53000 409.005
28.54000 411.762
28.55000 417.136
28.56000 422.046
28.57000 424.107
28.58000 425.356
28.59000 426.284
28.60000 425.457
28.61000 424.364
28.62000 422.022
28.63000 415.087
28.64000 407.724
28.65000 402.371
28.66000 406.175
28.67000 409.448
28.68000 412.885
28.69000 416.612
28.70000 420.345
28.71000 423.129
28.72000 424.783
28.73000 426.432
28.74000 422.773
28.75000 414.975
28.76000 407.361
28.77000 407.884
28.78000 412.778
28.79000 417.265
28.80000 414.377
28.81000 408.747
28.82000 403.536
28.83000 406.001
28.84000 409.983
28.85000 413.620
28.86000 415.131
28.87000 416.279
28.88000 415.893
28.89000 409.231
28.90000 401.895
28.91000 396.405
28.92000 396.837
28.93000 397.452
28.94000 401.700
28.95000 413.019
28.96000 424.520
28.97000 429.012
28.98000 424.171
28.99000 419.288
29.00000 418.815
29.01000 422.220
29.02000 425.588
29.03000 426.715
29.04000 426.508
29.05000 426.246
29.06000 424.773
29.07000 422.803
29.08000 420.957
29.09000 420.636
29.10000 420.738
29.11000 421.053
29.12000 422.851
29.13000 424.933
29.14000 426.258
29.15000 424.128
29.16000 421.574
29.17000 419.610
29.18000 408.381
29.19000 398.973
29.20000 396.163
29.21000 407.552
29.22000 419.420
29.23000 425.151
29.24000 421.789
29.25000 418.343
29.26000 415.889
29.27000 414.412
29.28000 412.969
29.29000 414.774
29.30000 418.723
29.31000 422.571
29.32000 423.574
29.33000 423.284
29.34000 423.010
29.35000 414.754
29.36000 404.846
29.37000 396.653
29.38000 402.022
29.39000 410.298
29.40000 416.689
29.41000 413.485
29.42000 408.938
29.43000 405.351
29.44000 407.151
29.45000 408.958
29.46000 409.415
29.47000 406.656
29.48000 403.760
29.49000 403.095
29.50000 406.097
29.51000 409.153
29.52000 410.761
29.53000 416.401
29.54000 420.200
29.55000 419.264
29.56000 414.852
29.57000 410.480
29.58000 407.597
29.59000 405.462
29.60000 403.421
29.61000 402.064
29.62000 401.023
29.63000 400.272
29.64000 402.145
29.65000 404.646
29.66000 406.299
29.67000 403.113
29.68000 399.160
29.69000 395.969
29.70000 408.401
29.71000 419.751
29.72000 427.299
29.73000 424.839
29.74000 421.851
29.75000 419.112
29.76000 416.830
29.77000 414.557
29.78000 413.297
29.79000 401.999
29.80000 394.191
29.81000 392.397
29.82000 395.526
29.83000 398.716
29.84000 404.920
29.85000 412.804
29.86000 420.406
29.87000 419.428
29.88000 415.397
29.89000 411.471
29.90000 408.628
29.91000 406.074
29.92000 404.295
29.93000 407.495
29.94000 411.583
29.95000 414.957
29.96000 420.277
29.97000 424.840
29.98000 428.516
29.99000 429.613
30.00000 430.544
30.01000 433.213
30.02000 439.388
30.03000 445.663
30.04000 449.315
30.05000 444.560
30.06000 441.182
30.07000 439.917
30.08000 440.588
30.09000 441.288
30.10000 444.161
30.11000 448.374
30.12000 452.469
30.13000 449.738
30.14000 444.377
30.15000 439.107
30.16000 434.927
30.17000 431.068
30.18000 427.883
30.19000 429.598
30.20000 432.291
30.21000 434.560
30.22000 427.207
30.23000 420.034
30.24000 415.319
30.25000 418.525
30.26000 422.331
30.27000 424.219
30.28000 421.828
30.29000 419.279
30.30000 417.727
30.31000 434.121
30.32000 445.972
30.33000 447.933
30.34000 439.707
30.35000 431.507
30.36000 426.397
30.37000 423.405
30.38000 420.478
30.39000 418.998
30.40000 418.232
30.41000 417.343
30.42000 414.671
30.43000 411.417
30.44000 408.502
30.45000 408.393
30.46000 408.910
30.47000 409.354
30.48000 410.452
30.49000 411.462
30.50000 412.773
30.51000 415.160
30.52000 417.642
30.53000 420.492
30.54000 424.250
30.55000 428.050
30.56000 430.460
30.57000 414.536
30.58000 402.756
30.59000 399.678
30.60000 406.654
30.61000 413.638
30.62000 419.414
30.63000 424.269
30.64000 429.046
30.65000 429.912
30.66000 428.775
30.67000 428.098
30.68000 435.339
30.69000 445.441
30.70000 454.238
30.71000 450.637
30.72000 443.956
30.73000 438.118
30.74000 437.464
30.75000 437.637
30.76000 437.235
30.77000 434.548
30.78000 431.625
30.79000 430.920
30.80000 436.264
30.81000 441.951
30.82000 445.700
30.83000 453.920
30.84000 460.057
30.85000 464.073
30.86000 465.353
30.87000 466.620
30.88000 465.921
30.89000 463.546
30.90000 461.198
30.91000 466.627
30.92000 476.316
30.93000 485.894
30.94000 493.142
30.95000 499.458
30.96000 505.529
30.97000 508.891
30.98000 511.507
30.99000 513.831
31.00000 521.639
31.01000 529.293
31.02000 537.430
31.03000 547.704
31.04000 558.231
31.05000 570.737
31.06000 589.216
31.07000 608.102
31.08000 621.006
31.09000 638.982
31.10000 652.550
31.11000 676.895
31.12000 716.729
31.13000 756.686
31.14000 796.327
31.15000 835.669
31.16000 874.729
31.17000 913.649
31.18000 951.856
31.19000 990.548
31.20000 1041.895
31.21000 1098.835
31.22000 1156.821
31.23000 1228.266
31.24000 1303.828
31.25000 1371.980
31.26000 1459.177
31.27000 1539.220
31.28000 1621.384
31.29000 1713.999
31.30000 1808.026
31.31000 1892.944
31.32000 1947.413
31.33000 1999.434
31.34000 2036.178
31.35000 2127.699
31.36000 2198.849
31.37000 2253.475
31.38000 2281.721
31.39000 2309.625
31.40000 2330.177
31.41000 2342.835
31.42000 2355.440
31.43000 2351.866
31.44000 2336.920
31.45000 2321.616
31.46000 2294.255
31.47000 2261.001
31.48000 2226.734
31.49000 2176.996
31.50000 2122.019
31.51000 2071.737
31.52000 1989.891
31.53000 1910.636
31.54000 1829.124
31.55000 1735.158
31.56000 1639.286
31.57000 1550.469
31.58000 1487.811
31.59000 1427.609
31.60000 1383.747
31.61000 1299.500
31.62000 1233.067
31.63000 1169.738
31.64000 1111.901
31.65000 1054.169
31.66000 1002.309
31.67000 957.510
31.68000 912.806
31.69000 874.653
31.70000 841.850
31.71000 809.121
31.72000 779.728
31.73000 752.139
31.74000 724.830
31.75000 702.666
31.76000 682.428
31.77000 663.680
31.78000 638.710
31.79000 614.803
31.80000 593.386
31.81000 587.431
31.82000 584.141
31.83000 578.337
31.84000 562.174
31.85000 544.888
31.86000 531.924
31.87000 513.965
31.88000 499.701
31.89000 489.140
31.90000 485.835
31.91000 482.720
31.92000 479.589
31.93000 476.437
31.94000 473.285
31.95000 468.350
31.96000 461.840
31.97000 455.488
31.98000 459.380
31.99000 469.411
32.00000 478.753
32.01000 472.519
32.02000 459.831
32.03000 447.938
32.04000 440.201
32.05000 434.241
32.06000 429.879
32.07000 436.727
32.08000 445.744
32.09000 450.736
32.10000 437.252
32.11000 421.472
32.12000 409.315
32.13000 404.277
32.14000 400.695
32.15000 396.158
32.16000 389.552
32.17000 382.874
32.18000 378.092
32.19000 376.138
32.20000 374.212
32.21000 378.545
32.22000 389.114
32.23000 399.602
32.24000 401.928
32.25000 398.825
32.26000 395.927
32.27000 398.890
32.28000 404.538
32.29000 409.889
32.30000 409.188
32.31000 406.775
32.32000 403.915
32.33000 397.486
32.34000 390.286
32.35000 384.306
32.36000 384.585
32.37000 385.749
32.38000 386.669
32.39000 378.910
32.40000 372.089
32.41000 370.908
32.42000 383.249
32.43000 396.179
32.44000 401.074
32.45000 392.658
32.46000 384.042
32.47000 379.492
32.48000 374.377
32.49000 370.935
32.50000 373.130
32.51000 379.496
32.52000 385.778
32.53000 388.935
32.54000 390.510
32.55000 392.015
32.56000 390.343
32.57000 387.747
32.58000 385.018
32.59000 381.077
32.60000 376.843
32.61000 373.834
32.62000 377.875
32.63000 383.043
32.64000 387.222
32.65000 378.680
32.66000 370.705
32.67000 364.660
32.68000 363.734
32.69000 363.082
32.70000 362.796
32.71000 363.182
32.72000 363.582
32.73000 363.805
32.74000 371.277
32.75000 376.455
32.76000 380.141
32.77000 382.595
32.78000 384.969
32.79000 383.252
32.80000 379.238
32.81000 375.366
32.82000 378.382
32.83000 383.737
32.84000 388.894
32.85000 391.957
32.86000 394.461
32.87000 396.681
32.88000 397.070
32.89000 397.129
32.90000 397.179
32.91000 389.145
32.92000 381.761
32.93000 377.329
32.94000 381.553
32.95000 386.337
32.96000 387.601
32.97000 381.712
32.98000 375.616
32.99000 372.056
33.00000 373.321
33.01000 374.232
33.02000 370.904
33.03000 363.660
33.04000 356.495
33.05000 355.325
33.06000 357.882
33.07000 360.369
33.08000 361.031
33.09000 360.917
33.10000 360.322
33.11000 353.825
33.12000 345.575
33.13000 338.698
33.14000 341.895
33.15000 347.120
33.16000 351.529
33.17000 346.222
33.18000 340.733
33.19000 336.627
33.20000 337.012
33.21000 337.742
33.22000 339.322
33.23000 342.812
33.24000 346.373
33.25000 348.548
33.26000 346.310
33.27000 344.673
33.28000 346.868
33.29000 353.041
33.30000 359.149
33.31000 357.261
33.32000 349.850
33.33000 342.597
33.34000 343.850
33.35000 348.932
33.36000 353.410
33.37000 349.113
33.38000 341.930
33.39000 336.031
33.40000 340.887
33.41000 348.159
33.42000 354.411
33.43000 361.082
33.44000 366.779
33.45000 368.575
33.46000 356.327
33.47000 342.817
33.48000 335.190
33.49000 342.177
33.50000 349.851
33.51000 354.734
33.52000 357.459
33.53000 359.412
33.54000 355.301
33.55000 344.126
33.56000 332.990
33.57000 333.606
33.58000 343.260
33.59000 352.764
33.60000 353.418
33.61000 349.545
33.62000 345.593
33.63000 340.262
33.64000 334.428
33.65000 329.610
33.66000 334.544
33.67000 341.918
33.68000 348.371
33.69000 347.410
33.70000 345.527
33.71000 343.339
33.72000 339.928
33.73000 336.390
33.74000 334.626
33.75000 337.737
33.76000 341.128
33.77000 343.369
33.78000 346.147
33.79000 348.206
33.80000 348.815
33.81000 347.538
33.82000 346.246
33.83000 340.718
33.84000 331.552
33.85000 322.486
33.86000 321.952
33.87000 326.284
33.88000 331.004
33.89000 344.003
33.90000 360.335
33.91000 374.330
33.92000 362.326
33.93000 343.097
33.94000 325.995
33.95000 325.759
33.96000 328.295
33.97000 330.866
33.98000 333.591
33.99000 336.334
34.00000 337.766
34.01000 335.210
34.02000 332.379
34.03000 330.440
34.04000 327.619
34.05000 325.485
34.06000 327.004
34.07000 333.816
34.08000 340.670
34.09000 343.191
34.10000 341.538
34.11000 339.897
34.12000 336.356
34.13000 331.664
34.14000 327.133
34.15000 326.893
34.16000 328.564
34.17000 330.499
34.18000 335.875
34.19000 342.312
34.20000 348.124
34.21000 341.713
34.22000 333.829
34.23000 327.604
34.24000 329.620
34.25000 332.759
34.26000 334.690
34.27000 332.550
34.28000 330.079
34.29000 328.330
34.30000 335.389
34.31000 341.026
34.32000 344.321
34.33000 343.847
34.34000 343.323
34.35000 339.452
34.36000 331.958
34.37000 324.492
34.38000 321.845
34.39000 322.649
34.40000 323.486
34.41000 325.474
34.42000 328.029
34.43000 330.310
34.44000 328.339
34.45000 324.919
34.46000 321.788
34.47000 328.450
34.48000 336.412
34.49000 343.141
34.50000 343.005
34.51000 341.810
34.52000 341.251
34.53000 343.072
34.54000 345.118
34.55000 346.612
34.56000 347.915
34.57000 348.911
34.58000 347.236
34.59000 340.795
34.60000 334.261
34.61000 330.189
34.62000 329.100
34.63000 328.020
34.64000 328.252
34.65000 329.527
34.66000 330.715
34.67000 327.878
34.68000 322.847
34.69000 317.970
34.70000 315.951
34.71000 315.010
34.72000 314.137
34.73000 318.933
34.74000 324.578
34.75000 329.371
34.76000 328.836
34.77000 327.373
34.78000 326.647
34.79000 328.977
34.80000 331.641
34.81000 333.643
34.82000 331.837
34.83000 330.242
34.84000 327.916
34.85000 324.146
34.86000 320.337
34.87000 321.576
34.88000 329.640
34.89000 337.739
34.90000 338.402
34.91000 332.423
34.92000 326.443
34.93000 320.389
34.94000 314.291
34.95000 308.466
34.96000 308.947
34.97000 312.058
34.98000 314.976
34.99000 312.014
35.00000 307.770
35.01000 304.857
35.02000 311.364
35.03000 319.709
35.04000 325.189
35.05000 317.417
35.06000 307.983
35.07000 300.701
35.08000 309.462
35.09000 317.337
35.10000 322.483
35.11000 321.667
35.12000 320.642
35.13000 318.903
35.14000 316.090
35.15000 313.266
35.16000 311.850
35.17000 308.253
35.18000 305.855
35.19000 303.699
35.20000 301.706
35.21000 299.875
35.22000 302.747
35.23000 307.790
35.24000 312.571
35.25000 312.134
35.26000 310.194
35.27000 308.701
35.28000 310.799
35.29000 313.679
35.30000 315.437
35.31000 311.384
35.32000 306.503
35.33000 302.640
35.34000 304.381
35.35000 306.167
35.36000 309.305
35.37000 315.709
35.38000 322.256
35.39000 325.325
35.40000 322.589
35.41000 319.763
35.42000 318.264
35.43000 309.709
35.44000 303.904
35.45000 301.148
35.46000 300.665
35.47000 300.206
35.48000 300.631
35.49000 301.507
35.50000 302.346
35.51000 299.437
35.52000 295.491
35.53000 292.624
35.54000 299.709
35.55000 309.211
35.56000 317.281
35.57000 317.049
35.58000 315.479
35.59000 314.207
35.60000 316.005
35.61000 317.720
35.62000 317.512
35.63000 312.167
35.64000 306.543
35.65000 303.978
35.66000 307.069
35.67000 310.286
35.68000 312.082
35.69000 315.055
35.70000 317.105
35.71000 313.831
35.72000 306.127
35.73000 298.540
35.74000 297.031
35.75000 298.959
35.76000 300.819
35.77000 304.767
35.78000 309.254
35.79000 313.194
35.80000 311.304
35.81000 307.843
35.82000 305.354
35.83000 309.219
35.84000 314.237
35.85000 318.391
35.86000 311.688
35.87000 305.125
35.88000 300.793
35.89000 303.047
35.90000 305.733
35.91000 307.116
35.92000 305.831
35.93000 304.468
35.94000 303.669
35.95000 308.978
35.96000 312.746
35.97000 311.469
35.98000 305.492
35.99000 299.513
36.00000 293.415
36.01000 287.242
36.02000 281.237
36.03000 285.314
36.04000 293.343
36.05000 301.483
36.06000 311.000
36.07000 320.930
36.08000 328.559
36.09000 319.141
36.10000 306.263
36.11000 295.383
36.12000 296.233
36.13000 298.232
36.14000 298.293
36.15000 292.016
36.16000 285.247
36.17000 282.507
36.18000 288.885
36.19000 295.611
36.20000 299.730
36.21000 296.636
36.22000 294.360
36.23000 291.635
36.24000 288.440
36.25000 285.277
36.26000 286.071
36.27000 289.621
36.28000 293.096
36.29000 293.211
36.30000 291.776
36.31000 290.601
36.32000 293.245
36.33000 297.156
36.34000 300.403
36.35000 298.054
36.36000 294.436
36.37000 291.321
36.38000 293.996
36.39000 296.992
36.40000 299.680
36.41000 301.251
36.42000 302.720
36.43000 302.419
36.44000 297.685
36.45000 292.739
36.46000 289.584
36.47000 297.355
36.48000 303.148
36.49000 304.173
36.50000 299.599
36.51000 295.020
36.52000 291.530
36.53000 288.884
36.54000 286.278
36.55000 287.495
36.56000 290.637
36.57000 293.872
36.58000 298.743
36.59000 304.214
36.60000 308.483
36.61000 301.083
36.62000 290.742
36.63000 281.683
36.64000 288.764
36.65000 297.167
36.66000 302.894
36.67000 297.837
36.68000 291.646
36.69000 287.306
36.70000 288.091
36.71000 289.175
36.72000 289.893
36.73000 298.400
36.74000 304.826
36.75000 306.463
36.76000 301.825
36.77000 297.158
36.78000 292.228
36.79000 287.072
36.80000 281.969
36.81000 285.817
36.82000 294.709
36.83000 303.117
36.84000 301.091
36.85000 294.833
36.86000 288.883
36.87000 286.392
36.88000 284.869
36.89000 283.513
36.90000 286.552
36.91000 289.912
36.92000 293.411
36.93000 297.529
36.94000 301.722
36.95000 303.725
36.96000 299.024
36.97000 293.854
36.98000 290.305
36.99000 296.126
37.00000 300.719
37.01000 303.083
37.02000 302.195
37.03000 301.280
37.04000 302.222
37.05000 304.967
37.06000 307.695
37.07000 303.908
37.08000 296.007
37.09000 288.479
37.10000 291.073
37.11000 298.205
37.12000 304.898
37.13000 305.802
37.14000 304.909
37.15000 304.102
37.16000 298.913
37.17000 293.535
37.18000 288.549
37.19000 285.533
37.20000 282.788
37.21000 281.399
37.22000 284.616
37.23000 288.211
37.24000 290.762
37.25000 295.032
37.26000 298.334
37.27000 298.754
37.28000 294.505
37.29000 290.191
37.30000 288.598
37.31000 289.974
37.32000 291.346
37.33000 292.412
37.34000 293.250
37.35000 294.108
37.36000 295.667
37.37000 297.573
37.38000 299.178
37.39000 296.088
37.40000 291.384
37.41000 287.073
37.42000 292.673
37.43000 299.736
37.44000 304.898
37.45000 299.390
37.46000 292.222
37.47000 286.051
37.48000 283.635
37.49000 281.579
37.50000 280.075
37.51000 278.179
37.52000 276.701
37.53000 281.451
37.54000 297.388
37.55000 313.550
37.56000 316.273
37.57000 302.580
37.58000 288.868
37.59000 285.664
37.60000 290.906
37.61000 296.056
37.62000 296.793
37.63000 295.108
37.64000 293.394
37.65000 291.129
37.66000 288.654
37.67000 286.358
37.68000 282.666
37.69000 279.011
37.70000 276.303
37.71000 279.582
37.72000 283.911
37.73000 288.426
37.74000 293.720
37.75000 299.100
37.76000 303.151
37.77000 295.093
37.78000 288.197
37.79000 282.195
37.80000 277.969
37.81000 273.791
37.82000 270.259
37.83000 267.607
37.84000 264.961
37.85000 269.561
37.86000 280.683
37.87000 291.682
37.88000 294.316
37.89000 291.861
37.90000 289.369
37.91000 286.032
37.92000 282.340
37.93000 278.874
37.94000 280.392
37.95000 283.096
37.96000 286.200
37.97000 292.164
37.98000 298.690
37.99000 303.588
38.00000 300.890
38.01000 297.232
38.02000 294.402
38.03000 297.000
38.04000 299.380
38.05000 301.516
38.06000 303.114
38.07000 304.693
38.08000 303.007
38.09000 296.371
38.10000 289.685
38.11000 286.321
38.12000 297.643
38.13000 305.151
38.14000 306.437
38.15000 303.522
38.16000 300.784
38.17000 303.281
38.18000 308.210
38.19000 312.887
38.20000 312.632
38.21000 310.933
38.22000 309.611
38.23000 311.359
38.24000 313.780
38.25000 316.453
38.26000 320.439
38.27000 324.613
38.28000 327.923
38.29000 319.343
38.30000 311.610
38.31000 308.146
38.32000 315.067
38.33000 322.454
38.34000 327.578
38.35000 328.897
38.36000 330.155
38.37000 330.825
38.38000 324.001
38.39000 319.376
38.40000 320.156
38.41000 324.997
38.42000 329.982
38.43000 340.597
38.44000 354.105
38.45000 367.043
38.46000 377.267
38.47000 385.901
38.48000 394.994
38.49000 408.363
38.50000 422.778
38.51000 437.766
38.52000 456.108
38.53000 474.996
38.54000 490.321
38.55000 512.615
38.56000 531.363
38.57000 555.040
38.58000 591.970
38.59000 629.631
38.60000 663.210
38.61000 689.184
38.62000 714.986
38.63000 729.447
38.64000 790.522
38.65000 832.964
38.66000 871.368
38.67000 906.388
38.68000 941.356
38.69000 973.531
38.70000 1004.118
38.71000 1033.661
38.72000 1037.971
38.73000 1032.661
38.74000 1028.915
38.75000 1042.001
38.76000 1059.662
38.77000 1073.661
38.78000 1063.507
38.79000 1048.941
38.80000 1036.863
38.81000 1022.619
38.82000 1010.645
38.83000 994.431
38.84000 965.604
38.85000 935.939
38.86000 910.211
38.87000 892.595
38.88000 875.225
38.89000 865.015
38.90000 801.243
38.91000 756.004
38.92000 716.780
38.93000 683.207
38.94000 649.622
38.95000 615.107
38.96000 580.005
38.97000 545.844
38.98000 524.287
38.99000 508.989
39.00000 493.274
39.01000 472.311
39.02000 449.767
39.03000 428.091
39.04000 412.909
39.05000 399.055
39.06000 387.334
39.07000 374.230
39.08000 363.109
39.09000 355.487
39.10000 359.393
39.11000 364.206
39.12000 362.827
39.13000 347.335
39.14000 331.294
39.15000 321.442
39.16000 313.941
39.17000 308.585
39.18000 307.146
39.19000 309.843
39.20000 312.516
39.21000 311.848
39.22000 308.838
39.23000 305.889
39.24000 300.231
39.25000 293.537
39.26000 287.100
39.27000 284.505
39.28000 283.192
39.29000 282.270
39.30000 284.683
39.31000 287.857
39.32000 290.593
39.33000 289.539
39.34000 288.163
39.35000 287.710
39.36000 290.629
39.37000 293.858
39.38000 295.049
39.39000 291.104
39.40000 286.910
39.41000 284.227
39.42000 284.032
39.43000 283.923
39.44000 280.881
39.45000 274.369
39.46000 267.873
39.47000 267.479
39.48000 271.852
39.49000 276.159
39.50000 277.822
39.51000 278.069
39.52000 278.356
39.53000 279.364
39.54000 280.637
39.55000 281.944
39.56000 283.572
39.57000 285.281
39.58000 286.780
39.59000 282.109
39.60000 277.199
39.61000 273.251
39.62000 273.208
39.63000 273.580
39.64000 274.003
39.65000 274.568
39.66000 275.142
39.67000 275.522
39.68000 263.245
39.69000 253.931
39.70000 250.634
39.71000 255.287
39.72000 259.978
39.73000 266.029
39.74000 273.266
39.75000 280.430
39.76000 279.281
39.77000 273.353
39.78000 267.616
39.79000 266.077
39.80000 266.252
39.81000 266.540
39.82000 268.101
39.83000 270.022
39.84000 271.734
39.85000 273.943
39.86000 275.946
39.87000 276.807
39.88000 272.506
39.89000 267.576
39.90000 263.335
39.91000 261.218
39.92000 259.252
39.93000 257.898
39.94000 251.832
39.95000 247.163
39.96000 246.223
39.97000 250.767
39.98000 255.360
39.99000 256.279
40.00000 253.602
40.01000 250.941
40.02000 252.198
40.03000 255.968
40.04000 259.711
40.05000 262.737
40.06000 265.440
40.07000 268.215
40.08000 271.959
40.09000 276.006
40.10000 279.667
40.11000 273.486
40.12000 266.201
40.13000 259.559
40.14000 256.168
40.15000 253.228
40.16000 252.240
40.17000 257.922
40.18000 264.159
40.19000 268.594
40.20000 262.464
40.21000 257.456
40.22000 256.265
40.23000 261.306
40.24000 266.436
40.25000 265.125
40.26000 256.728
40.27000 248.356
40.28000 245.431
40.29000 246.465
40.30000 247.501
40.31000 248.604
40.32000 249.742
40.33000 250.740
40.34000 249.529
40.35000 247.554
40.36000 245.742
40.37000 246.082
40.38000 246.839
40.39000 248.361
40.40000 254.209
40.41000 260.736
40.42000 265.821
40.43000 265.432
40.44000 264.514
40.45000 263.840
40.46000 255.308
40.47000 248.401
40.48000 245.308
40.49000 249.115
40.50000 253.065
40.51000 254.602
40.52000 253.167
40.53000 251.727
40.54000 250.605
40.55000 249.743
40.56000 248.941
40.57000 251.063
40.58000 254.801
40.59000 258.420
40.60000 259.763
40.61000 260.235
40.62000 260.673
40.63000 257.035
40.64000 252.783
40.65000 249.184
40.66000 249.743
40.67000 251.037
40.68000 251.901
40.69000 250.947
40.70000 249.791
40.71000 248.919
40.72000 248.604
40.73000 248.385
40.74000 249.118
40.75000 251.757
40.76000 254.448
40.77000 255.214
40.78000 253.336
40.79000 251.441
40.80000 251.419
40.81000 253.096
40.82000 254.741
40.83000 254.180
40.84000 252.266
40.85000 250.391
40.86000 249.409
40.87000 248.807
40.88000 248.241
40.89000 243.677
40.90000 238.444
40.91000 234.289
40.92000 237.899
40.93000 243.048
40.94000 247.536
40.95000 248.916
40.96000 249.898
40.97000 250.660
40.98000 247.480
40.99000 244.721
41.00000 242.410
41.01000 241.093
41.02000 239.812
41.03000 242.536
41.04000 251.374
41.05000 260.277
41.06000 264.776
41.07000 265.356
41.08000 265.687
41.09000 259.578
41.10000 249.087
41.11000 238.985
41.12000 240.601
41.13000 247.702
41.14000 254.444
41.15000 250.971
41.16000 244.708
41.17000 239.365
41.18000 241.581
41.19000 245.470
41.20000 248.664
41.21000 248.201
41.22000 247.208
41.23000 246.419
41.24000 245.167
41.25000 244.126
41.26000 244.261
41.27000 247.275
41.28000 250.421
41.29000 251.679
41.30000 249.739
41.31000 247.746
41.32000 246.681
41.33000 242.128
41.34000 239.028
41.35000 237.208
41.36000 236.357
41.37000 235.502
41.38000 234.446
41.39000 233.287
41.40000 232.175
41.41000 232.518
41.42000 233.325
41.43000 234.041
41.44000 233.899
41.45000 233.545
41.46000 233.404
41.47000 234.522
41.48000 235.846
41.49000 236.923
41.50000 241.022
41.51000 244.620
41.52000 247.237
41.53000 247.200
41.54000 247.015
41.55000 247.697
41.56000 250.009
41.57000 252.358
41.58000 253.679
41.59000 250.446
41.60000 248.187
41.61000 243.499
41.62000 236.758
41.63000 230.135
41.64000 230.031
41.65000 233.665
41.66000 237.177
41.67000 239.703
41.68000 241.716
41.69000 243.520
41.70000 243.034
41.71000 241.921
41.72000 241.015
41.73000 241.478
41.74000 242.194
41.75000 242.789
41.76000 234.704
41.77000 227.177
41.78000 222.995
41.79000 228.839
41.80000 235.358
41.81000 241.597
41.82000 247.257
41.83000 252.899
41.84000 256.226
41.85000 247.976
41.86000 242.091
41.87000 240.746
41.88000 243.701
41.89000 246.601
41.90000 244.996
41.91000 240.526
41.92000 236.173
41.93000 237.013
41.94000 239.985
41.95000 242.903
41.96000 245.129
41.97000 247.146
41.98000 248.820
41.99000 247.915
42.00000 246.478
42.01000 245.260
42.02000 239.643
42.03000 234.445
42.04000 229.587
42.05000 225.860
42.06000 222.223
42.07000 220.310
42.08000 222.358
42.09000 224.562
42.10000 225.920
42.11000 223.794
42.12000 222.237
42.13000 222.164
42.14000 223.671
42.15000 225.188
42.16000 227.948
42.17000 231.588
42.18000 235.155
42.19000 236.467
42.20000 236.675
42.21000 237.003
42.22000 239.137
42.23000 241.879
42.24000 243.957
42.25000 240.319
42.26000 235.366
42.27000 231.091
42.28000 233.090
42.29000 235.595
42.30000 236.281
42.31000 230.275
42.32000 223.647
42.33000 221.817
42.34000 232.166
42.35000 243.114
42.36000 250.138
42.37000 239.768
42.38000 231.971
42.39000 228.706
42.40000 230.846
42.41000 233.004
42.42000 237.433
42.43000 243.649
42.44000 249.776
42.45000 247.446
42.46000 240.776
42.47000 234.314
42.48000 231.639
42.49000 230.371
42.50000 229.280
42.51000 229.925
42.52000 231.015
42.53000 231.973
42.54000 235.679
42.55000 239.269
42.56000 241.727
42.57000 239.560
42.58000 236.895
42.59000 235.055
42.60000 235.529
42.61000 236.142
42.62000 236.550
42.63000 234.036
42.64000 232.119
42.65000 232.225
42.66000 235.024
42.67000 237.835
42.68000 240.088
42.69000 241.850
42.70000 243.595
42.71000 243.986
42.72000 243.580
42.73000 243.259
42.74000 244.845
42.75000 247.216
42.76000 249.085
42.77000 245.191
42.78000 239.660
42.79000 234.724
42.80000 231.085
42.81000 228.135
42.82000 226.098
42.83000 228.227
42.84000 230.868
42.85000 232.624
42.86000 231.627
42.87000 230.434
42.88000 229.611
42.89000 232.588
42.90000 234.922
42.91000 235.103
42.92000 232.092
42.93000 229.053
42.94000 228.606
42.95000 230.722
42.96000 232.824
42.97000 231.036
42.98000 226.741
42.99000 222.686
43.00000 225.346
43.01000 231.060
43.02000 236.141
43.03000 232.673
43.04000 226.514
43.05000 220.936
43.06000 218.597
43.07000 217.148
43.08000 215.788
43.09000 214.874
43.10000 214.023
43.11000 214.151
43.12000 217.652
43.13000 221.437
43.14000 224.134
43.15000 229.056
43.16000 232.880
43.17000 234.456
43.18000 232.333
43.19000 230.156
43.20000 228.877
43.21000 228.594
43.22000 228.313
43.23000 224.917
43.24000 219.279
43.25000 213.792
43.26000 213.769
43.27000 216.495
43.28000 219.032
43.29000 218.522
43.30000 216.949
43.31000 215.505
43.32000 219.825
43.33000 224.907
43.34000 229.079
43.35000 228.050
43.36000 226.199
43.37000 224.168
43.38000 221.453
43.39000 218.671
43.40000 216.627
43.41000 217.515
43.42000 218.322
43.43000 220.479
43.44000 225.097
43.45000 229.767
43.46000 232.531
43.47000 232.928
43.48000 233.319
43.49000 228.179
43.50000 218.545
43.51000 209.137
43.52000 210.955
43.53000 219.026
43.54000 226.731
43.55000 227.294
43.56000 225.103
43.57000 223.066
43.58000 223.562
43.59000 224.616
43.60000 225.121
43.61000 222.095
43.62000 218.439
43.63000 216.217
43.64000 220.085
43.65000 224.641
43.66000 228.085
43.67000 225.736
43.68000 223.604
43.69000 222.904
43.70000 225.091
43.71000 227.361
43.72000 226.285
43.73000 220.578
43.74000 214.843
43.75000 212.789
43.76000 214.108
43.77000 215.444
43.78000 218.101
43.79000 221.573
43.80000 224.890
43.81000 224.477
43.82000 222.473
43.83000 220.590
43.84000 220.403
43.85000 220.689
43.86000 220.947
43.87000 220.998
43.88000 221.009
43.89000 220.792
43.90000 219.499
43.91000 218.066
43.92000 216.955
43.93000 212.998
43.94000 209.681
43.95000 208.154
43.96000 210.621
43.97000 213.237
43.98000 217.321
43.99000 223.664
44.00000 230.031
44.01000 233.262
44.02000 221.653
44.03000 213.959
44.04000 216.096
44.05000 224.973
44.06000 233.542
44.07000 232.650
44.08000 227.298
44.09000 222.212
44.10000 223.655
44.11000 226.958
44.12000 229.878
44.13000 229.633
44.14000 228.681
44.15000 228.152
44.16000 229.858
44.17000 231.892
44.18000 233.510
44.19000 232.443
44.20000 231.391
44.21000 229.495
44.22000 225.517
44.23000 221.442
44.24000 218.846
44.25000 218.771
44.26000 218.739
44.27000 218.721
44.28000 221.296
44.29000 223.052
44.30000 223.932
44.31000 224.142
44.32000 224.386
44.33000 225.966
44.34000 228.245
44.35000 230.429
44.36000 229.361
44.37000 227.265
44.38000 225.380
44.39000 225.496
44.40000 226.109
44.41000 226.277
44.42000 223.795
44.43000 220.875
44.44000 218.498
44.45000 220.323
44.46000 222.167
44.47000 224.212
44.48000 226.804
44.49000 229.428
44.50000 229.179
44.51000 223.503
44.52000 217.699
44.53000 214.422
44.54000 235.614
44.55000 250.389
44.56000 253.142
44.57000 245.653
44.58000 238.230
44.59000 234.564
44.60000 233.069
44.61000 231.623
44.62000 234.513
44.63000 238.877
44.64000 242.847
44.65000 242.480
44.66000 240.917
44.67000 240.133
44.68000 244.583
44.69000 250.005
44.70000 254.514
44.71000 250.860
44.72000 247.035
44.73000 244.476
44.74000 245.739
44.75000 247.263
44.76000 249.056
44.77000 251.414
44.78000 253.791
44.79000 255.196
44.80000 249.180
44.81000 244.888
44.82000 245.774
44.83000 251.607
44.84000 257.425
44.85000 261.902
44.86000 265.521
44.87000 269.047
44.88000 270.391
44.89000 270.752
44.90000 271.234
44.91000 273.265
44.92000 275.770
44.93000 278.370
44.94000 281.694
44.95000 285.168
44.96000 288.116
44.97000 284.218
44.98000 280.175
44.99000 278.866
45.00000 286.695
45.01000 295.260
45.02000 301.845
45.03000 303.850
45.04000 305.671
45.05000 306.796
45.06000 300.849
45.07000 296.511
45.08000 295.086
45.09000 296.789
45.10000 298.544
45.11000 307.625
45.12000 321.923
45.13000 335.941
45.14000 333.392
45.15000 323.140
45.16000 313.573
45.17000 314.473
45.18000 318.917
45.19000 322.699
45.20000 320.724
45.21000 317.414
45.22000 314.554
45.23000 311.389
45.24000 308.662
45.25000 307.765
45.26000 313.659
45.27000 320.189
45.28000 323.181
45.29000 317.121
45.30000 310.609
45.31000 306.420
45.32000 298.706
45.33000 293.028
45.34000 290.603
45.35000 292.089
45.36000 293.574
45.37000 292.499
45.38000 289.391
45.39000 286.326
45.40000 282.123
45.41000 277.441
45.42000 273.021
45.43000 273.439
45.44000 275.669
45.45000 277.528
45.46000 275.673
45.47000 272.859
45.48000 270.385
45.49000 274.627
45.50000 279.272
45.51000 281.720
45.52000 275.115
45.53000 267.528
45.54000 263.574
45.55000 269.895
45.56000 276.839
45.57000 281.477
45.58000 269.273
45.59000 259.902
45.60000 252.483
45.61000 247.684
45.62000 242.901
45.63000 241.992
45.64000 244.519
45.65000 247.021
45.66000 247.241
45.67000 246.115
45.68000 245.049
45.69000 245.314
45.70000 246.132
45.71000 246.939
45.72000 247.624
45.73000 248.275
45.74000 248.857
45.75000 250.966
45.76000 253.061
45.77000 254.003
45.78000 249.650
45.79000 244.641
45.80000 240.906
45.81000 241.161
45.82000 241.705
45.83000 242.082
45.84000 242.675
45.85000 243.128
45.86000 242.106
45.87000 238.885
45.88000 235.642
45.89000 229.511
45.90000 220.502
45.91000 211.547
45.92000 208.022
45.93000 208.108
45.94000 208.449
45.95000 216.046
45.96000 226.968
45.97000 236.855
45.98000 232.612
45.99000 223.885
46.00000 215.973
46.01000 213.465
46.02000 212.283
46.03000 211.675
46.04000 214.011
46.05000 216.763
46.06000 218.096
46.07000 214.508
46.08000 210.500
46.09000 207.637
46.10000 207.046
46.11000 206.670
46.12000 206.397
46.13000 206.295
46.14000 206.196
46.15000 206.935
46.16000 208.612
46.17000 210.284
46.18000 210.449
46.19000 209.504
46.20000 208.493
46.21000 205.008
46.22000 200.268
46.23000 196.046
46.24000 200.243
46.25000 207.398
46.26000 213.972
46.27000 210.794
46.28000 205.859
46.29000 201.398
46.30000 199.662
46.31000 198.363
46.32000 198.410
46.33000 203.640
46.34000 209.384
46.35000 213.613
46.36000 218.093
46.37000 221.571
46.38000 222.498
46.39000 218.744
46.40000 214.888
46.41000 212.559
46.42000 212.139
46.43000 211.727
46.44000 210.067
46.45000 207.387
46.46000 204.781
46.47000 205.968
46.48000 209.282
46.49000 212.362
46.50000 210.811
46.51000 207.462
46.52000 204.346
46.53000 206.395
46.54000 209.496
46.55000 211.233
46.56000 204.127
46.57000 195.433
46.58000 189.278
46.59000 193.996
46.60000 199.953
46.61000 204.464
46.62000 205.976
46.63000 207.010
46.64000 206.455
46.65000 202.670
46.66000 198.791
46.67000 193.905
46.68000 187.617
46.69000 181.320
46.70000 184.698
46.71000 197.010
46.72000 209.198
46.73000 212.040
46.74000 209.072
46.75000 206.128
46.76000 203.794
46.77000 201.723
46.78000 199.773
46.79000 198.231
46.80000 196.931
46.81000 195.880
46.82000 196.653
46.83000 197.794
46.84000 198.717
46.85000 198.603
46.86000 198.354
46.87000 198.160
46.88000 204.765
46.89000 210.438
46.90000 213.680
46.91000 211.463
46.92000 209.041
46.93000 206.014
46.94000 202.051
46.95000 198.076
46.96000 196.051
46.97000 197.251
46.98000 198.053
46.99000 198.472
47.00000 198.627
47.01000 198.741
47.02000 197.575
47.03000 195.802
47.04000 194.115
47.05000 193.442
47.06000 193.127
47.07000 193.090
47.08000 195.379
47.09000 198.190
47.10000 200.549
47.11000 200.487
47.12000 200.068
47.13000 199.735
47.14000 196.021
47.15000 192.781
47.16000 190.735
47.17000 191.660
47.18000 192.724
47.19000 193.725
47.20000 194.618
47.21000 195.509
47.22000 195.989
47.23000 197.449
47.24000 198.444
47.25000 198.530
47.26000 197.917
47.27000 197.270
47.28000 195.245
47.29000 192.494
47.30000 189.855
47.31000 194.182
47.32000 200.597
47.33000 206.401
47.34000 206.345
47.35000 204.823
47.36000 203.641
47.37000 204.499
47.38000 205.698
47.39000 206.675
47.40000 202.417
47.41000 198.489
47.42000 194.305
47.43000 189.415
47.44000 184.484
47.45000 182.478
47.46000 186.038
47.47000 189.733
47.48000 191.826
47.49000 196.450
47.50000 199.667
47.51000 197.729
47.52000 191.362
47.53000 185.098
47.54000 184.750
47.55000 187.845
47.56000 190.840
47.57000 190.069
47.58000 187.908
47.59000 185.847
47.60000 184.900
47.61000 184.262
47.62000 184.357
47.63000 189.419
47.64000 195.411
47.65000 200.401
47.66000 197.910
47.67000 195.105
47.68000 193.785
47.69000 196.978
47.70000 200.482
47.71000 202.068
47.72000 199.612
47.73000 197.027
47.74000 195.493
47.75000 185.158
47.76000 177.794
47.77000 177.872
47.78000 185.117
47.79000 192.307
47.80000 194.645
47.81000 193.851
47.82000 193.076
47.83000 192.060
47.84000 190.988
47.85000 189.876
47.86000 188.245
47.87000 186.455
47.88000 184.760
47.89000 183.803
47.90000 182.999
47.91000 182.316
47.92000 184.188
47.93000 186.050
47.94000 187.758
47.95000 188.945
47.96000 190.090
47.97000 189.194
47.98000 183.547
47.99000 177.705
48.00000 174.084
48.01000 174.082
48.02000 174.116
48.03000 173.518
48.04000 172.236
48.05000 170.970
48.06000 171.979
48.07000 174.620
48.08000 177.211
48.09000 181.541
48.10000 186.538
48.11000 191.153
48.12000 189.860
48.13000 186.552
48.14000 183.858
48.15000 186.569
48.16000 190.543
48.17000 193.981
48.18000 193.527
48.19000 192.630
48.20000 191.394
48.21000 188.887
48.22000 186.260
48.23000 184.361
48.24000 184.336
48.25000 184.407
48.26000 184.452
48.27000 185.287
48.28000 185.909
48.29000 187.984
48.30000 191.821
48.31000 195.641
48.32000 192.471
48.33000 183.711
48.34000 175.071
48.35000 172.452
48.36000 173.095
48.37000 173.747
48.38000 174.577
48.39000 175.474
48.40000 176.616
48.41000 180.229
48.42000 184.485
48.43000 188.231
48.44000 185.968
48.45000 183.120
48.46000 180.860
48.47000 181.040
48.48000 181.489
48.49000 181.682
48.50000 181.151
48.51000 180.575
48.52000 180.190
48.53000 181.382
48.54000 182.297
48.55000 183.364
48.56000 184.635
48.57000 185.905
48.58000 184.704
48.59000 181.292
48.60000 177.913
48.61000 180.738
48.62000 187.178
48.63000 193.342
48.64000 193.153
48.65000 190.313
48.66000 187.750
48.67000 188.429
48.68000 190.043
48.69000 191.487
48.70000 189.061
48.71000 186.289
48.72000 183.888
48.73000 183.206
48.74000 182.740
48.75000 183.195
48.76000 186.555
48.77000 190.127
48.78000 192.603
48.79000 188.466
48.80000 185.177
48.81000 182.161
48.82000 179.555
48.83000 176.953
48.84000 177.967
48.85000 182.613
48.86000 187.233
48.87000 189.523
48.88000 190.242
48.89000 190.724
48.90000 184.311
48.91000 174.715
48.92000 165.927
48.93000 168.310
48.94000 174.264
48.95000 179.667
48.96000 184.788
48.97000 189.254
48.98000 192.381
48.99000 188.579
49.00000 183.789
49.01000 179.540
49.02000 177.180
49.03000 174.984
49.04000 173.411
49.05000 174.395
49.06000 175.234
49.07000 176.527
49.08000 178.582
49.09000 180.648
49.10000 179.373
49.11000 174.330
49.12000 169.298
49.13000 169.745
49.14000 174.243
49.15000 178.631
49.16000 178.835
49.17000 176.902
49.18000 175.303
49.19000 179.210
49.20000 185.065
49.21000 190.450
49.22000 184.150
49.23000 175.985
49.24000 169.211
49.25000 170.505
49.26000 173.098
49.27000 175.189
49.28000 175.331
49.29000 175.278
49.30000 175.239
49.31000 176.999
49.32000 178.439
49.33000 178.908
49.34000 177.583
49.35000 176.218
49.36000 175.471
49.37000 175.504
49.38000 175.540
49.39000 175.671
49.40000 175.882
49.41000 176.101
49.42000 176.713
49.43000 177.548
49.44000 178.304
49.45000 177.460
49.46000 175.990
49.47000 174.622
49.48000 175.958
49.49000 177.825
49.50000 179.400
49.51000 179.059
49.52000 178.371
49.53000 177.774
49.54000 177.566
49.55000 177.403
49.56000 177.280
49.57000 177.565
49.58000 177.810
49.59000 176.836
49.60000 173.366
49.61000 169.822
49.62000 167.450
49.63000 166.725
49.64000 166.012
49.65000 167.119
49.66000 169.920
49.67000 172.696
49.68000 173.491
49.69000 173.045
49.70000 172.623
49.71000 172.815
49.72000 173.272
49.73000 173.703
49.74000 176.107
49.75000 178.847
49.76000 180.978
49.77000 178.596
49.78000 175.297
49.79000 172.173
49.80000 169.890
49.81000 167.718
49.82000 166.025
49.83000 167.953
49.84000 169.713
49.85000 171.856
49.86000 174.867
49.87000 177.912
49.88000 180.747
49.89000 183.253
49.90000 185.756
49.91000 187.037
49.92000 179.472
49.93000 174.409
49.94000 171.956
49.95000 171.319
49.96000 170.717
49.97000 171.231
49.98000 172.278
49.99000 173.274
50.00000 168.993
50.01000 163.414
50.02000 158.898
50.03000 163.354
50.04000 169.843
50.05000 174.748
50.06000 171.116
50.07000 166.211
50.08000 162.296
50.09000 166.044
50.10000 169.633
50.11000 172.556
50.12000 173.810
50.13000 174.986
50.14000 174.710
50.15000 171.923
50.16000 169.092
50.17000 167.562
50.18000 171.495
50.19000 174.178
50.20000 173.292
50.21000 169.639
50.22000 166.068
50.23000 166.026
50.24000 167.851
50.25000 169.604
50.26000 171.928
50.27000 174.298
50.28000 176.125
50.29000 172.680
50.30000 167.905
50.31000 164.448
50.32000 168.964
50.33000 174.821
50.34000 179.603
50.35000 174.787
50.36000 170.019
50.37000 167.840
50.38000 172.822
50.39000 178.222
50.40000 181.068
50.41000 179.016
50.42000 176.842
50.43000 175.607
50.44000 179.667
50.45000 182.514
50.46000 187.540
50.47000 194.452
50.48000 201.262
50.49000 202.001
50.50000 199.182
50.51000 196.453
50.52000 199.276
50.53000 204.073
50.54000 208.389
50.55000 207.301
50.56000 204.700
50.57000 202.860
50.58000 206.221
50.59000 210.565
50.60000 214.188
50.61000 215.516
50.62000 216.387
50.63000 217.221
50.64000 217.941
50.65000 218.653
50.66000 219.490
50.67000 220.590
50.68000 221.699
50.69000 222.360
50.70000 235.678
50.71000 245.190
50.72000 253.416
50.73000 260.391
50.74000 267.242
50.75000 262.671
50.76000 250.673
50.77000 238.973
50.78000 234.904
50.79000 234.287
50.80000 233.709
50.81000 233.646
50.82000 233.743
50.83000 233.714
50.84000 232.708
50.85000 231.495
50.86000 230.464
50.87000 230.176
50.88000 230.019
50.89000 229.897
50.90000 229.891
50.91000 229.894
50.92000 228.599
50.93000 224.257
50.94000 219.789
50.95000 217.011
50.96000 216.971
50.97000 216.969
50.98000 215.279
50.99000 211.744
51.00000 208.217
51.01000 206.190
51.02000 205.247
51.03000 204.322
51.04000 199.453
51.05000 192.873
51.06000 187.014
51.07000 192.435
51.08000 201.732
51.09000 209.199
51.10000 200.432
51.11000 187.843
51.12000 176.935
51.13000 177.591
51.14000 179.682
51.15000 181.808
51.16000 184.068
51.17000 186.341
51.18000 186.730
51.19000 182.230
51.20000 177.479
51.21000 174.405
51.22000 183.488
51.23000 190.311
51.24000 190.767
51.25000 183.445
51.26000 176.112
51.27000 171.781
51.28000 169.868
51.29000 167.982
51.30000 167.996
51.31000 169.024
51.32000 170.105
51.33000 172.173
51.34000 174.616
51.35000 176.584
51.36000 173.700
51.37000 169.544
51.38000 165.882
51.39000 171.247
51.40000 177.234
51.41000 181.642
51.42000 179.438
51.43000 176.503
51.44000 173.381
51.45000 169.723
51.46000 166.031
51.47000 163.553
51.48000 159.762
51.49000 156.920
51.50000 157.461
51.51000 162.613
51.52000 167.790
51.53000 169.263
51.54000 167.398
51.55000 165.549
51.56000 166.350
51.57000 168.716
51.58000 170.895
51.59000 168.710
51.60000 164.690
51.61000 161.098
51.62000 162.576
51.63000 165.528
51.64000 168.170
51.65000 167.914
51.66000 167.194
51.67000 166.904
51.68000 168.621
51.69000 170.592
51.70000 171.029
51.71000 166.595
51.72000 161.799
51.73000 158.466
51.74000 160.091
51.75000 161.450
51.76000 162.318
51.77000 162.445
51.78000 162.564
51.79000 161.888
51.80000 160.406
51.81000 158.933
51.82000 157.030
51.83000 154.865
51.84000 152.801
51.85000 153.745
51.86000 156.087
51.87000 158.192
51.88000 156.993
51.89000 154.730
51.90000 152.674
51.91000 157.050
51.92000 162.165
51.93000 166.220
51.94000 164.748
51.95000 162.480
51.96000 160.752
51.97000 160.923
51.98000 161.259
51.99000 161.500
52.00000 163.551
52.01000 165.181
52.02000 166.684
52.03000 167.973
52.04000 169.258
52.05000 169.209
52.06000 167.642
52.07000 166.078
52.08000 165.922
52.09000 166.819
52.10000 167.696
52.11000 167.799
52.12000 167.504
52.13000 167.124
52.14000 165.337
52.15000 163.049
52.16000 160.942
52.17000 161.094
52.18000 161.726
52.19000 162.132
52.20000 161.225
52.21000 160.104
52.22000 159.019
52.23000 158.073
52.24000 157.141
52.25000 156.452
52.26000 158.892
52.27000 160.918
52.28000 160.719
52.29000 156.375
52.30000 151.938
52.31000 151.404
52.32000 155.829
52.33000 160.267
52.34000 161.754
52.35000 160.770
52.36000 159.802
52.37000 159.666
52.38000 160.005
52.39000 160.348
52.40000 160.782
52.41000 161.252
52.42000 161.690
52.43000 161.236
52.44000 160.607
52.45000 159.559
52.46000 155.749
52.47000 151.436
52.48000 148.892
52.49000 154.046
52.50000 160.095
52.51000 164.694
52.52000 165.018
52.53000 165.050
52.54000 163.779
52.55000 159.822
52.56000 155.783
52.57000 155.017
52.58000 158.884
52.59000 162.783
52.60000 161.322
52.61000 154.828
52.62000 148.455
52.63000 151.819
52.64000 161.328
52.65000 170.500
52.66000 171.127
52.67000 168.031
52.68000 165.113
52.69000 161.926
52.70000 158.934
52.71000 156.464
52.72000 157.893
52.73000 160.121
52.74000 162.005
52.75000 162.223
52.76000 162.219
52.77000 162.216
52.78000 161.606
52.79000 161.081
52.80000 159.883
52.81000 157.151
52.82000 154.359
52.83000 153.201
52.84000 154.611
52.85000 156.053
52.86000 156.794
52.87000 149.623
52.88000 144.844
52.89000 146.210
52.90000 151.887
52.91000 157.389
52.92000 157.252
52.93000 154.398
52.94000 151.681
52.95000 151.868
52.96000 152.938
52.97000 154.058
52.98000 155.605
52.99000 157.249
53.00000 158.617
53.01000 158.487
53.02000 158.132
53.03000 157.848
53.04000 160.814
53.05000 163.453
53.06000 165.422
53.07000 165.699
53.08000 165.895
53.09000 164.720
53.10000 161.154
53.11000 157.545
53.12000 155.587
53.13000 160.857
53.14000 164.463
53.15000 164.159
53.16000 160.800
53.17000 157.501
53.18000 156.778
53.19000 157.428
53.20000 158.053
53.21000 154.938
53.22000 150.729
53.23000 147.153
53.24000 149.779
53.25000 153.980
53.26000 157.366
53.27000 155.770
53.28000 153.328
53.29000 151.332
53.30000 154.603
53.31000 157.741
53.32000 161.025
53.33000 164.715
53.34000 168.430
53.35000 169.853
53.36000 166.850
53.37000 163.735
53.38000 161.959
53.39000 156.191
53.40000 152.160
53.41000 152.213
53.42000 155.831
53.43000 159.413
53.44000 160.747
53.45000 160.753
53.46000 160.759
53.47000 160.818
53.48000 160.894
53.49000 160.832
53.50000 159.187
53.51000 157.096
53.52000 155.540
53.53000 157.678
53.54000 160.518
53.55000 162.891
53.56000 164.972
53.57000 166.670
53.58000 167.776
53.59000 167.057
53.60000 166.209
53.61000 165.379
53.62000 164.589
53.63000 163.800
53.64000 163.328
53.65000 155.458
53.66000 149.830
53.67000 149.111
53.68000 153.200
53.69000 157.282
53.70000 160.636
53.71000 163.512
53.72000 166.319
53.73000 160.391
53.74000 150.958
53.75000 142.317
53.76000 144.258
53.77000 149.507
53.78000 154.516
53.79000 157.638
53.80000 160.359
53.81000 162.677
53.82000 165.214
53.83000 167.374
53.84000 167.617
53.85000 161.312
53.86000 154.461
53.87000 150.694
53.88000 154.215
53.89000 158.043
53.90000 160.430
53.91000 158.506
53.92000 157.074
53.93000 155.741
53.94000 154.516
53.95000 153.290
53.96000 151.768
53.97000 150.031
53.98000 148.326
53.99000 146.556
54.00000 144.817
54.01000 143.182
54.02000 143.192
54.03000 143.771
54.04000 144.807
54.05000 149.929
54.06000 156.021
54.07000 161.306
54.08000 155.146
54.09000 148.367
54.10000 144.479
54.11000 151.551
54.12000 159.686
54.13000 163.930
54.14000 158.010
54.15000 151.561
54.16000 147.376
54.17000 145.214
54.18000 143.661
54.19000 144.841
54.20000 149.387
54.21000 153.931
54.22000 154.551
54.23000 151.981
54.24000 149.446
54.25000 146.972
54.26000 144.597
54.27000 142.375
54.28000 143.085
54.29000 144.919
54.30000 146.894
54.31000 150.325
54.32000 154.140
54.33000 157.506
54.34000 158.763
54.35000 159.525
54.36000 159.162
54.37000 154.060
54.38000 148.428
54.39000 145.683
54.40000 151.281
54.41000 157.406
54.42000 161.529
54.43000 154.106
54.44000 148.349
54.45000 145.547
54.46000 146.806
54.47000 148.089
54.48000 150.568
54.49000 154.134
54.50000 157.669
54.51000 156.419
54.52000 152.315
54.53000 148.360
54.54000 147.952
54.55000 149.045
54.56000 150.090
54.57000 150.555
54.58000 150.849
54.59000 151.112
54.60000 153.798
54.61000 156.563
54.62000 159.211
54.63000 161.310
54.64000 163.339
54.65000 163.585
54.66000 158.129
54.67000 152.244
54.68000 148.145
54.69000 148.042
54.70000 148.073
54.71000 148.364
54.72000 149.051
54.73000 149.743
54.74000 150.444
54.75000 151.156
54.76000 151.863
54.77000 151.050
54.78000 149.224
54.79000 147.548
54.80000 150.390
54.81000 155.348
54.82000 159.926
54.83000 159.122
54.84000 156.573
54.85000 154.255
54.86000 154.927
54.87000 156.107
54.88000 156.614
54.89000 153.581
54.90000 150.034
54.91000 148.023
54.92000 151.457
54.93000 155.371
54.94000 158.185
54.95000 154.986
54.96000 152.327
54.97000 151.800
54.98000 154.884
54.99000 158.026
55.00000 160.415
55.01000 161.940
55.02000 163.459
55.03000 162.378
55.04000 159.347
55.05000 156.397
55.06000 156.665
55.07000 158.600
55.08000 160.492
55.09000 161.677
55.10000 162.608
55.11000 163.466
55.12000 162.472
55.13000 161.173
55.14000 160.307
55.15000 161.994
55.16000 164.099
55.17000 166.664
55.18000 171.036
55.19000 175.594
55.20000 178.970
55.21000 167.588
55.22000 158.109
55.23000 152.525
55.24000 154.250
55.25000 156.143
55.26000 156.564
55.27000 155.099
55.28000 153.628
55.29000 155.438
55.30000 160.011
55.31000 164.487
55.32000 163.675
55.33000 159.830
55.34000 156.197
55.35000 156.934
55.36000 159.406
55.37000 161.712
55.38000 168.347
55.39000 175.430
55.40000 181.678
55.41000 182.368
55.42000 182.034
55.43000 180.912
55.44000 176.334
55.45000 171.351
55.46000 167.555
55.47000 176.693
55.48000 184.571
55.49000 190.026
55.50000 190.447
55.51000 190.713
55.52000 191.510
55.53000 193.065
55.54000 194.625
55.55000 193.893
55.56000 190.991
55.57000 188.162
55.58000 191.288
55.59000 198.201
55.60000 205.043
55.61000 210.036
55.62000 214.216
55.63000 218.159
55.64000 220.944
55.65000 223.173
55.66000 225.286
55.67000 226.519
55.68000 227.572
55.69000 229.697
55.70000 237.067
55.71000 245.140
55.72000 251.452
55.73000 259.889
55.74000 266.758
55.75000 274.603
55.76000 284.687
55.77000 294.860
55.78000 306.369
55.79000 319.996
55.80000 333.650
55.81000 340.692
55.82000 345.575
55.83000 348.927
55.84000 361.042
55.85000 379.352
55.86000 397.728
55.87000 418.336
55.88000 440.028
55.89000 460.693
55.90000 474.152
55.91000 484.379
55.92000 494.628
55.93000 505.069
55.94000 515.554
55.95000 525.697
55.96000 533.965
55.97000 541.949
55.98000 548.343
55.99000 555.256
56.00000 560.887
56.01000 566.058
56.02000 570.061
56.03000 574.007
56.04000 574.620
56.05000 569.378
56.06000 564.027
56.07000 561.113
56.08000 546.195
56.09000 535.954
56.10000 529.220
56.11000 525.248
56.12000 521.288
56.13000 517.859
56.14000 514.715
56.15000 511.693
56.16000 498.946
56.17000 483.614
56.18000 468.778
56.19000 458.863
56.20000 450.206
56.21000 440.188
56.22000 421.781
56.23000 401.940
56.24000 385.686
56.25000 374.042
56.26000 364.900
56.27000 355.492
56.28000 345.331
56.29000 335.126
56.30000 324.917
56.31000 314.699
56.32000 304.480
56.33000 298.632
56.34000 289.477
56.35000 283.070
56.36000 275.617
56.37000 267.244
56.38000 258.917
56.39000 253.560
56.40000 249.969
56.41000 246.489
56.42000 241.115
56.43000 235.290
56.44000 229.625
56.45000 225.796
56.46000 222.490
56.47000 218.752
56.48000 212.012
56.49000 204.696
56.50000 198.576
56.51000 189.406
56.52000 181.477
56.53000 176.845
56.54000 182.462
56.55000 188.812
56.56000 191.381
56.57000 185.809
56.58000 179.962
56.59000 176.459
56.60000 179.092
56.61000 181.002
56.62000 180.871
56.63000 178.725
56.64000 176.550
56.65000 171.633
56.66000 164.905
56.67000 158.337
56.68000 160.275
56.69000 165.828
56.70000 171.060
56.71000 171.951
56.72000 171.475
56.73000 170.789
56.74000 168.444
56.75000 165.742
56.76000 163.438
56.77000 160.448
56.78000 157.850
56.79000 155.658
56.80000 154.864
56.81000 154.188
56.82000 154.586
56.83000 157.542
56.84000 160.606
56.85000 162.523
56.86000 152.615
56.87000 145.339
56.88000 142.151
56.89000 143.500
56.90000 144.857
56.91000 147.186
56.92000 150.229
56.93000 153.217
56.94000 151.056
56.95000 146.469
56.96000 142.327
56.97000 145.337
56.98000 150.840
56.99000 155.695
57.00000 154.692
57.01000 152.288
57.02000 150.200
57.03000 154.049
57.04000 158.131
57.05000 160.991
57.06000 159.183
57.07000 156.918
57.08000 154.751
57.09000 152.841
57.10000 150.945
57.11000 149.711
57.12000 150.904
57.13000 151.815
57.14000 152.808
57.15000 153.900
57.16000 154.987
57.17000 153.726
57.18000 150.540
57.19000 147.395
57.20000 143.312
57.21000 138.826
57.22000 134.496
57.23000 133.183
57.24000 133.033
57.25000 133.130
57.26000 135.797
57.27000 139.147
57.28000 142.107
57.29000 143.506
57.30000 144.475
57.31000 145.644
57.32000 147.666
57.33000 149.784
57.34000 150.879
57.35000 148.996
57.36000 146.922
57.37000 145.523
57.38000 150.057
57.39000 153.557
57.40000 154.234
57.41000 151.005
57.42000 147.752
57.43000 146.363
57.44000 146.683
57.45000 147.000
57.46000 144.951
57.47000 141.507
57.48000 138.156
57.49000 137.064
57.50000 136.935
57.51000 137.104
57.52000 140.884
57.53000 145.729
57.54000 150.076
57.55000 147.847
57.56000 144.750
57.57000 142.252
57.58000 142.599
57.59000 143.312
57.60000 143.404
57.61000 141.493
57.62000 139.431
57.63000 137.990
57.64000 141.920
57.65000 145.039
57.66000 145.971
57.67000 143.542
57.68000 141.075
57.69000 140.452
57.70000 141.726
57.71000 142.995
57.72000 144.073
57.73000 145.009
57.74000 145.804
57.75000 142.264
57.76000 136.681
57.77000 131.732
57.78000 135.900
57.79000 143.045
57.80000 149.549
57.81000 149.843
57.82000 148.878
57.83000 147.835
57.84000 146.384
57.85000 144.872
57.86000 143.759
57.87000 144.070
57.88000 144.509
57.89000 144.825
57.90000 142.840
57.91000 141.238
57.92000 140.468
57.93000 141.117
57.94000 141.790
57.95000 141.500
57.96000 140.097
57.97000 138.696
57.98000 136.635
57.99000 134.086
58.00000 131.685
58.01000 135.314
58.02000 142.088
58.03000 148.393
58.04000 146.630
58.05000 141.951
58.06000 137.635
58.07000 141.975
58.08000 147.788
58.09000 152.336
58.10000 149.353
58.11000 145.126
58.12000 141.828
58.13000 142.218
58.14000 142.988
58.15000 143.559
58.16000 141.466
58.17000 139.722
58.18000 137.503
58.19000 134.385
58.20000 131.245
58.21000 129.024
58.22000 127.989
58.23000 126.959
58.24000 127.930
58.25000 130.600
58.26000 133.271
58.27000 135.939
58.28000 138.606
58.29000 141.192
58.30000 142.055
58.31000 142.231
58.32000 142.395
58.33000 137.484
58.34000 131.763
58.35000 127.105
58.36000 129.580
58.37000 133.381
58.38000 136.561
58.39000 137.005
58.40000 137.124
58.41000 137.214
58.42000 135.915
58.43000 134.815
58.44000 134.869
58.45000 137.333
58.46000 139.872
58.47000 141.233
58.48000 140.898
58.49000 140.550
58.50000 140.900
58.51000 141.917
58.52000 142.921
58.53000 142.860
58.54000 142.116
58.55000 141.367
58.56000 140.474
58.57000 139.518
58.58000 138.615
58.59000 135.419
58.60000 131.846
58.61000 128.810
58.62000 129.868
58.63000 131.778
58.64000 132.917
58.65000 130.252
58.66000 127.074
58.67000 124.585
58.68000 134.191
58.69000 142.644
58.70000 146.713
58.71000 140.641
58.72000 134.161
58.73000 130.578
58.74000 131.618
58.75000 132.718
58.76000 133.287
58.77000 135.905
58.78000 137.666
58.79000 138.609
58.80000 138.971
58.81000 139.376
58.82000 141.223
58.83000 143.777
58.84000 146.211
58.85000 147.991
58.86000 149.436
58.87000 150.249
58.88000 145.568
58.89000 139.613
58.90000 134.343
58.91000 132.854
58.92000 131.943
58.93000 131.213
58.94000 126.809
58.95000 122.963
58.96000 121.503
58.97000 126.144
58.98000 131.090
58.99000 134.957
59.00000 136.912
59.01000 138.831
59.02000 139.880
59.03000 137.781
59.04000 136.337
59.05000 135.604
59.06000 135.436
59.07000 135.268
59.08000 135.115
59.09000 134.969
59.10000 134.829
59.11000 136.575
59.12000 138.875
59.13000 140.787
59.14000 138.814
59.15000 135.840
59.16000 133.460
59.17000 134.772
59.18000 136.721
59.19000 138.320
59.20000 133.693
59.21000 129.342
59.22000 126.356
59.23000 127.233
59.24000 128.345
59.25000 129.491
59.26000 130.705
59.27000 131.920
59.28000 132.618
59.29000 129.534
59.30000 127.367
59.31000 129.850
59.32000 136.458
59.33000 142.967
59.34000 143.101
59.35000 139.414
59.36000 135.839
59.37000 136.179
59.38000 138.038
59.39000 139.503
59.40000 136.385
59.41000 131.954
59.42000 128.622
59.43000 133.005
59.44000 138.880
59.45000 143.802
59.46000 138.719
59.47000 133.458
59.48000 129.774
59.49000 131.025
59.50000 132.634
59.51000 133.379
59.52000 132.253
59.53000 131.063
59.54000 130.348
59.55000 133.265
59.56000 135.364
59.57000 137.647
59.58000 140.112
59.59000 142.520
59.60000 139.014
59.61000 131.575
59.62000 124.310
59.63000 125.186
59.64000 129.595
59.65000 133.647
59.66000 132.828
59.67000 130.465
59.68000 128.378
59.69000 128.505
59.70000 129.111
59.71000 129.628
59.72000 133.734
59.73000 137.621
59.74000 140.423
59.75000 139.463
59.76000 138.181
59.77000 136.583
59.78000 134.226
59.79000 131.835
59.80000 130.336
59.81000 135.978
59.82000 140.132
59.83000 141.619
59.84000 140.124
59.85000 138.626
59.86000 136.975
59.87000 135.211
59.88000 133.478
59.89000 134.543
59.90000 136.942
59.91000 139.176
59.92000 138.712
59.93000 137.301
59.94000 135.819
59.95000 133.692
59.96000 131.411
59.97000 129.426
59.98000 134.693
59.99000 140.176
60.00000 144.016
60.01000 141.533
60.02000 138.423
60.03000 135.413
60.04000 132.662
60.05000 129.926
60.06000 128.141
60.07000 130.425
60.08000 132.166
60.09000 133.131
60.10000 133.127
60.11000 133.118
60.12000 132.783
60.13000 132.178
60.14000 131.580
60.15000 132.808
60.16000 135.002
60.17000 137.137
60.18000 138.096
60.19000 138.598
60.20000 138.890
60.21000 136.963
60.22000 134.441
60.23000 132.210
60.24000 132.762
60.25000 133.671
60.26000 134.096
60.27000 132.445
60.28000 130.558
60.29000 129.826
60.30000 132.477
60.31000 135.347
60.32000 137.289
60.33000 135.576
60.34000 134.221
60.35000 132.189
60.36000 129.213
60.37000 126.234
60.38000 128.025
60.39000 134.225
60.40000 140.374
60.41000 141.152
60.42000 138.635
60.43000 136.313
60.44000 138.787
60.45000 143.320
60.46000 147.280
60.47000 144.173
60.48000 138.968
60.49000 134.292
60.50000 130.967
60.51000 128.295
60.52000 126.257
60.53000 127.253
60.54000 128.643
60.55000 129.648
60.56000 129.397
60.57000 129.050
60.58000 128.808
60.59000 130.364
60.60000 131.591
60.61000 132.160
60.62000 131.708
60.63000 131.244
60.64000 131.281
60.65000 131.837
60.66000 132.390
60.67000 131.742
60.68000 130.281
60.69000 128.908
60.70000 130.307
60.71000 133.022
60.72000 135.352
60.73000 132.096
60.74000 127.002
60.75000 122.361
60.76000 123.615
60.77000 125.900
60.78000 128.066
60.79000 129.594
60.80000 131.029
60.81000 132.381
60.82000 133.440
60.83000 134.473
60.84000 135.219
60.85000 131.148
60.86000 127.852
60.87000 126.156
60.88000 127.212
60.89000 128.316
60.90000 129.133
60.91000 129.617
60.92000 130.099
60.93000 130.652
60.94000 131.255
60.95000 131.847
60.96000 131.967
60.97000 131.838
60.98000 131.755
60.99000 132.469
61.00000 133.474
61.01000 134.401
61.02000 135.001
61.03000 135.466
61.04000 135.695
61.05000 134.504
61.06000 133.076
61.07000 131.665
61.08000 130.324
61.09000 128.990
61.10000 127.998
61.11000 131.725
61.12000 134.835
61.13000 138.400
61.14000 142.829
61.15000 147.279
61.16000 149.417
61.17000 148.546
61.18000 147.663
61.19000 147.074
61.20000 146.738
61.21000 146.426
61.22000 147.533
61.23000 149.466
61.24000 151.194
61.25000 148.555
61.26000 144.157
61.27000 140.048
61.28000 137.590
61.29000 135.777
61.30000 134.748
61.31000 139.030
61.32000 144.308
61.33000 147.813
61.34000 143.430
61.35000 138.102
61.36000 134.028
61.37000 133.069
61.38000 132.481
61.39000 132.133
61.40000 132.291
61.41000 132.466
61.42000 134.241
61.43000 138.337
61.44000 142.451
61.45000 145.177
61.46000 146.565
61.47000 147.989
61.48000 152.527
61.49000 159.075
61.50000 165.376
61.51000 165.073
61.52000 161.831
61.53000 158.768
61.54000 167.909
61.55000 179.750
61.56000 191.450
61.57000 202.068
61.58000 212.459
61.59000 222.253
61.60000 229.080
61.61000 235.503
61.62000 240.542
61.63000 251.108
61.64000 259.918
61.65000 267.335
61.66000 271.510
61.67000 275.553
61.68000 276.730
61.69000 273.298
61.70000 269.804
61.71000 267.987
61.72000 274.770
61.73000 279.320
61.74000 278.634
61.75000 274.193
61.76000 269.630
61.77000 260.898
61.78000 250.114
61.79000 239.826
61.80000 225.829
61.81000 211.662
61.82000 197.807
61.83000 186.689
61.84000 176.211
61.85000 166.139
61.86000 158.334
61.87000 150.878
61.88000 144.887
61.89000 144.433
61.90000 144.490
61.91000 145.434
61.92000 148.660
61.93000 152.001
61.94000 154.096
61.95000 153.969
61.96000 153.799
61.97000 153.705
61.98000 149.246
61.99000 146.182
62.00000 146.403
62.01000 149.251
62.02000 152.031
62.03000 151.634
62.04000 149.506
62.05000 147.458
62.06000 147.037
62.07000 147.219
62.08000 147.407
62.09000 147.663
62.10000 147.936
62.11000 147.558
62.12000 143.098
62.13000 137.928
62.14000 133.680
62.15000 138.252
62.16000 142.801
62.17000 145.680
62.18000 143.798
62.19000 141.625
62.20000 139.624
62.21000 137.964
62.22000 136.314
62.23000 135.363
62.24000 129.192
62.25000 124.855
62.26000 124.613
62.27000 128.034
62.28000 131.456
62.29000 134.884
62.30000 138.316
62.31000 141.646
62.32000 142.345
62.33000 141.968
62.34000 141.856
62.35000 144.863
62.36000 148.771
62.37000 151.467
62.38000 145.592
62.39000 138.044
62.40000 131.712
62.41000 131.410
62.42000 131.788
62.43000 132.969
62.44000 136.682
62.45000 140.582
62.46000 143.356
62.47000 143.674
62.48000 143.906
62.49000 144.046
62.50000 145.611
62.51000 146.734
62.52000 144.486
62.53000 138.851
62.54000 133.274
62.55000 133.795
62.56000 138.403
62.57000 142.904
62.58000 143.120
62.59000 141.433
62.60000 140.023
62.61000 142.457
62.62000 146.120
62.63000 149.292
62.64000 148.501
62.65000 146.848
62.66000 145.433
62.67000 140.013
62.68000 134.961
62.69000 130.889
62.70000 130.240
62.71000 129.886
62.72000 129.528
62.73000 129.162
62.74000 128.795
62.75000 128.564
62.76000 137.199
62.77000 143.544
62.78000 145.465
62.79000 142.396
62.80000 139.354
62.81000 142.431
62.82000 150.070
62.83000 157.579
62.84000 155.903
62.85000 149.751
62.86000 144.049
62.87000 145.776
62.88000 150.132
62.89000 153.656
62.90000 149.506
62.91000 143.493
62.92000 138.257
62.93000 139.377
62.94000 141.209
62.95000 142.586
62.96000 142.202
62.97000 141.642
62.98000 142.073
62.99000 145.148
63.00000 148.368
63.01000 150.474
63.02000 150.232
63.03000 150.015
63.04000 149.825
63.05000 149.669
63.06000 149.505
63.07000 145.559
63.08000 138.468
63.09000 131.462
63.10000 132.706
63.11000 138.466
63.12000 144.018
63.13000 145.415
63.14000 145.186
63.15000 144.983
63.16000 145.047
63.17000 145.183
63.18000 145.304
63.19000 144.332
63.20000 143.319
63.21000 142.664
63.22000 143.550
63.23000 144.614
63.24000 146.019
63.25000 148.434
63.26000 150.915
63.27000 152.597
63.28000 152.795
63.29000 152.910
63.30000 151.247
63.31000 147.084
63.32000 142.905
63.33000 140.483
63.34000 139.697
63.35000 138.918
63.36000 138.944
63.37000 139.467
63.38000 140.015
63.39000 141.202
63.40000 142.664
63.41000 143.680
63.42000 139.133
63.43000 132.921
63.44000 127.336
63.45000 130.770
63.46000 135.382
63.47000 139.753
63.48000 142.970
63.49000 146.035
63.50000 148.245
63.51000 147.662
63.52000 146.862
63.53000 146.301
63.54000 148.344
63.55000 149.965
63.56000 150.705
63.57000 150.066
63.58000 149.412
63.59000 150.088
63.60000 152.158
63.61000 154.218
63.62000 151.262
63.63000 144.883
63.64000 138.738
63.65000 140.032
63.66000 144.884
63.67000 149.435
63.68000 149.551
63.69000 148.196
63.70000 146.960
63.71000 148.703
63.72000 150.847
63.73000 152.852
63.74000 154.115
63.75000 155.266
63.76000 155.859
63.77000 154.425
63.78000 152.807
63.79000 151.636
63.80000 151.528
63.81000 151.484
63.82000 151.150
63.83000 150.316
63.84000 149.472
63.85000 149.196
63.86000 149.587
63.87000 149.978
63.88000 151.350
63.89000 153.472
63.90000 155.563
63.91000 156.376
63.92000 156.513
63.93000 156.618
63.94000 156.165
63.95000 155.507
63.96000 154.900
63.97000 155.217
63.98000 155.711
63.99000 156.445
64.00000 158.632
64.01000 161.063
64.02000 162.818
64.03000 161.848
64.04000 160.591
64.05000 159.653
64.06000 160.545
64.07000 161.322
64.08000 163.676
64.09000 169.054
64.10000 174.506
64.11000 173.733
64.12000 164.797
64.13000 155.831
64.14000 155.713
64.15000 163.243
64.16000 170.609
64.17000 168.132
64.18000 159.885
64.19000 152.074
64.20000 153.684
64.21000 159.115
64.22000 164.193
64.23000 160.297
64.24000 154.478
64.25000 149.531
64.26000 150.539
64.27000 152.672
64.28000 155.478
64.29000 161.302
64.30000 167.492
64.31000 172.234
64.32000 166.692
64.33000 161.750
64.34000 159.864
64.35000 164.462
64.36000 169.272
64.37000 170.704
64.38000 167.209
64.39000 163.671
64.40000 160.984
64.41000 159.123
64.42000 157.333
64.43000 161.990
64.44000 170.839
64.45000 179.356
64.46000 178.868
64.47000 174.343
64.48000 170.066
64.49000 167.156
64.50000 164.872
64.51000 163.160
64.52000 165.876
64.53000 169.527
64.54000 172.210
64.55000 170.043
64.56000 167.208
64.57000 164.980
64.58000 161.209
64.59000 158.088
64.60000 158.948
64.61000 169.148
64.62000 179.736
64.63000 185.176
64.64000 182.273
64.65000 179.255
64.66000 177.679
64.67000 176.733
64.68000 176.089
64.69000 174.872
64.70000 173.239
64.71000 171.707
64.72000 173.702
64.73000 177.445
64.74000 181.019
64.75000 181.449
64.76000 180.845
64.77000 180.074
64.78000 177.832
64.79000 175.243
64.80000 173.112
64.81000 173.554
64.82000 174.396
64.83000 175.075
64.84000 172.166
64.85000 169.526
64.86000 168.904
64.87000 173.515
64.88000 178.395
64.89000 181.928
64.90000 183.041
64.91000 184.106
64.92000 184.692
64.93000 186.537
64.94000 187.802
64.95000 185.770
64.96000 181.083
64.97000 176.539
64.98000 178.858
64.99000 184.944
65.00000 190.806
65.01000 189.942
65.02000 186.729
65.03000 183.915
65.04000 185.184
65.05000 187.520
65.06000 189.895
65.07000 192.505
65.08000 195.156
65.09000 197.338
65.10000 194.995
65.11000 192.657
65.12000 193.232
65.13000 202.169
65.14000 211.627
65.15000 216.275
65.16000 211.359
65.17000 206.181
65.18000 203.187
65.19000 201.825
65.20000 200.878
65.21000 201.141
65.22000 202.495
65.23000 203.921
65.24000 210.217
65.25000 219.476
65.26000 228.464
65.27000 228.820
65.28000 225.714
65.29000 223.231
65.30000 228.149
65.31000 235.217
65.32000 241.601
65.33000 243.086
65.34000 243.609
65.35000 244.048
65.36000 242.260
65.37000 240.536
65.38000 240.892
65.39000 247.855
65.40000 255.308
65.41000 262.076
65.42000 267.334
65.43000 272.538
65.44000 275.686
65.45000 284.027
65.46000 290.010
65.47000 293.801
65.48000 295.370
65.49000 296.977
65.50000 302.558
65.51000 310.825
65.52000 318.905
65.53000 323.620
65.54000 326.638
65.55000 330.171
65.56000 340.901
65.57000 353.948
65.58000 365.795
65.59000 367.883
65.60000 367.827
65.61000 367.780
65.62000 380.001
65.63000 391.805
65.64000 404.602
65.65000 420.898
65.66000 437.499
65.67000 452.589
65.68000 464.006
65.69000 475.258
65.70000 482.355
65.71000 541.243
65.72000 584.483
65.73000 632.264
65.74000 685.209
65.75000 738.149
65.76000 789.170
65.77000 838.748
65.78000 887.497
65.79000 929.822
65.80000 967.564
65.81000 1004.027
65.82000 1019.098
65.83000 1026.548
65.84000 1033.969
65.85000 1041.125
65.86000 1048.218
65.87000 1054.401
65.88000 1056.827
65.89000 1058.378
65.90000 1059.223
65.91000 1057.305
65.92000 1055.107
65.93000 1041.049
65.94000 995.090
65.95000 947.370
65.96000 916.076
65.97000 830.620
65.98000 766.874
65.99000 709.231
66.00000 659.347
66.01000 609.494
66.02000 561.731
66.03000 515.721
66.04000 470.251
66.05000 437.428
66.06000 412.435
66.07000 387.950
66.08000 373.812
66.09000 363.752
66.10000 353.531
66.11000 341.574
66.12000 329.144
66.13000 318.126
66.14000 318.422
66.15000 320.468
66.16000 321.023
66.17000 315.097
66.18000 308.417
66.19000 303.808
66.20000 305.363
66.21000 307.327
66.22000 308.663
66.23000 315.800
66.24000 321.259
66.25000 329.103
66.26000 340.323
66.27000 351.566
66.28000 358.148
66.29000 360.351
66.30000 362.537
66.31000 368.806
66.32000 377.503
66.33000 386.304
66.34000 397.710
66.35000 410.251
66.36000 421.834
66.37000 421.372
66.38000 417.279
66.39000 413.594
66.40000 424.483
66.41000 436.642
66.42000 447.368
66.43000 451.137
66.44000 453.985
66.45000 455.794
66.46000 454.185
66.47000 452.307
66.48000 450.986
66.49000 439.553
66.50000 430.593
66.51000 420.379
66.52000 408.190
66.53000 395.977
66.54000 386.038
66.55000 378.500
66.56000 370.995
66.57000 356.864
66.58000 338.282
66.59000 320.111
66.60000 315.283
66.61000 316.885
66.62000 318.589
66.63000 321.824
66.64000 325.569
66.65000 328.989
66.66000 320.960
66.67000 311.515
66.68000 304.815
66.69000 313.018
66.70000 323.462
66.71000 330.436
66.72000 324.731
66.73000 317.860
66.74000 312.875
66.75000 313.499
66.76000 314.187
66.77000 317.048
66.78000 323.697
66.79000 330.415
66.80000 328.537
66.81000 316.484
66.82000 304.438
66.83000 301.479
66.84000 305.599
66.85000 309.773
66.86000 316.325
66.87000 324.145
66.88000 331.676
66.89000 334.040
66.90000 334.494
66.91000 334.915
66.92000 333.981
66.93000 332.834
66.94000 332.659
66.95000 338.414
66.96000 345.176
66.97000 349.575
66.98000 344.387
66.99000 338.179
67.00000 333.542
67.01000 338.831
67.02000 343.412
67.03000 346.464
67.04000 346.564
67.05000 346.589
67.06000 346.748
67.07000 347.084
67.08000 347.420
67.09000 348.525
67.10000 350.298
67.11000 352.048
67.12000 352.481
67.13000 352.136
67.14000 351.943
67.15000 355.093
67.16000 359.608
67.17000 363.833
67.18000 365.982
67.19000 367.402
67.20000 368.291
67.21000 365.516
67.22000 362.043
67.23000 360.511
67.24000 367.757
67.25000 376.073
67.26000 382.456
67.27000 381.391
67.28000 380.133
67.29000 378.522
67.30000 376.158
67.31000 373.769
67.32000 375.280
67.33000 382.526
67.34000 389.823
67.35000 394.215
67.36000 395.760
67.37000 397.296
67.38000 397.946
67.39000 398.015
67.40000 398.105
67.41000 398.753
67.42000 399.653
67.43000 400.505
67.44000 400.764
67.45000 400.832
67.46000 401.266
67.47000 404.564
67.48000 408.471
67.49000 412.822
67.50000 419.406
67.51000 426.301
67.52000 431.729
67.53000 432.990
67.54000 433.721
67.55000 432.230
67.56000 425.483
67.57000 418.515
67.58000 419.374
67.59000 433.012
67.60000 446.833
67.61000 454.076
67.62000 445.420
67.63000 439.569
67.64000 436.607
67.65000 435.750
67.66000 435.079
67.67000 441.041
67.68000 450.316
67.69000 459.176
67.70000 460.589
67.71000 459.506
67.72000 458.542
67.73000 458.649
67.74000 459.010
67.75000 459.170
67.76000 458.190
67.77000 457.030
67.78000 456.096
67.79000 458.947
67.80000 461.561
67.81000 463.860
67.82000 465.336
67.83000 466.770
67.84000 470.176
67.85000 477.153
67.86000 484.204
67.87000 488.100
67.88000 494.469
67.89000 498.863
67.90000 502.182
67.91000 504.626
67.92000 506.946
67.93000 503.220
67.94000 496.152
67.95000 489.339
67.96000 491.764
67.97000 497.366
67.98000 503.035
67.99000 509.398
68.00000 515.943
68.01000 522.017
68.02000 525.088
68.03000 527.628
68.04000 529.721
68.05000 539.892
68.06000 549.006
68.07000 556.131
68.08000 557.505
68.09000 558.517
68.10000 557.837
68.11000 553.768
68.12000 549.603
68.13000 547.188
68.14000 557.042
68.15000 564.010
68.16000 572.423
68.17000 582.150
68.18000 591.798
68.19000 595.948
68.20000 596.727
68.21000 597.483
68.22000 601.073
68.23000 605.620
68.24000 609.869
68.25000 610.534
68.26000 610.149
68.27000 609.756
68.28000 609.303
68.29000 608.837
68.30000 608.445
68.31000 616.048
68.32000 623.241
68.33000 629.969
68.34000 635.212
68.35000 640.343
68.36000 648.628
68.37000 663.897
68.38000 679.421
68.39000 688.841
68.40000 693.365
68.41000 696.556
68.42000 700.018
68.43000 703.758
68.44000 707.575
68.45000 720.114
68.46000 738.587
68.47000 756.651
68.48000 763.826
68.49000 765.815
68.50000 768.194
68.51000 776.082
68.52000 785.757
68.53000 796.486
68.54000 815.867
68.55000 837.164
68.56000 855.428
68.57000 873.545
68.58000 888.831
68.59000 908.266
68.60000 942.424
68.61000 977.877
68.62000 1013.800
68.63000 1050.876
68.64000 1088.004
68.65000 1111.492
68.66000 1180.298
68.67000 1230.717
68.68000 1274.770
68.69000 1311.523
68.70000 1348.349
68.71000 1402.339
68.72000 1469.329
68.73000 1535.226
68.74000 1578.558
68.75000 1609.185
68.76000 1641.091
68.77000 1694.692
68.78000 1756.078
68.79000 1817.131
68.80000 1875.043
68.81000 1932.180
68.82000 1982.057
68.83000 2100.263
68.84000 2210.988
68.85000 2327.184
68.86000 2464.931
68.87000 2604.879
68.88000 2788.524
68.89000 3090.541
68.90000 3399.182
68.91000 3602.130
68.92000 4777.745
68.93000 5659.818
68.94000 7134.748
68.95000 9369.113
68.96000 11607.984
68.97000 14819.672
68.98000 18853.848
68.99000 22841.998
69.00000 27395.637
69.01000 32157.006
69.02000 36884.227
69.03000 40906.379
69.04000 44648.660
69.05000 48261.688
69.06000 50467.082
69.07000 52286.965
69.08000 53901.957
69.09000 54582.637
69.10000 55023.285
69.11000 55473.379
69.12000 55964.879
69.13000 56461.234
69.14000 57032.176
69.15000 57826.664
69.16000 58636.184
69.17000 59187.957
69.18000 59252.262
69.19000 59289.078
69.20000 58666.668
69.21000 57103.703
69.22000 55533.449
69.23000 53078.395
69.24000 49785.027
69.25000 46515.957
69.26000 43327.617
69.27000 40242.340
69.28000 37195.129
69.29000 35128.020
69.30000 33491.082
69.31000 31896.594
69.32000 30842.656
69.33000 29952.889
69.34000 29151.188
69.35000 28461.615
69.36000 27876.912
69.37000 27198.922
69.38000 26064.623
69.39000 24869.242
69.40000 23458.182
69.41000 21331.170
69.42000 19147.209
69.43000 17607.975
69.44000 14501.074
69.45000 12097.770
69.46000 9965.664
69.47000 8263.432
69.48000 6566.612
69.49000 5287.556
69.50000 4453.491
69.51000 3623.054
69.52000 3068.498
69.53000 2712.562
69.54000 2360.125
69.55000 2123.500
69.56000 1943.088
69.57000 1767.196
69.58000 1659.453
69.59000 1574.630
69.60000 1497.123
69.61000 1410.047
69.62000 1330.755
69.63000 1259.340
69.64000 1231.073
69.65000 1209.350
69.66000 1181.816
69.67000 1132.882
69.68000 1081.960
69.69000 1044.935
69.70000 1025.117
69.71000 1010.522
69.72000 991.603
69.73000 965.086
69.74000 938.427
69.75000 919.938
69.76000 911.196
69.77000 902.491
69.78000 887.067
69.79000 866.458
69.80000 845.906
69.81000 827.903
69.82000 811.269
69.83000 794.861
69.84000 782.556
69.85000 771.778
69.86000 761.802
69.87000 755.677
69.88000 751.058
69.89000 744.891
69.90000 729.186
69.91000 711.851
69.92000 698.072
69.93000 698.839
69.94000 701.169
69.95000 702.914
69.96000 676.760
69.97000 655.049
69.98000 640.635
69.99000 640.420
70.00000 640.572
