20.00000 571.596
20.01000 573.004
20.02000 574.612
20.03000 573.714
20.04000 562.795
20.05000 550.832
20.06000 541.932
20.07000 549.232
20.08000 555.635
20.09000 562.574
20.10000 570.531
20.11000 578.514
20.12000 584.179
20.13000 586.830
20.14000 589.466
20.15000 587.990
20.16000 582.993
20.17000 577.970
20.18000 571.426
20.19000 563.997
20.20000 557.170
20.21000 563.131
20.22000 574.240
20.23000 584.618
20.24000 579.372
20.25000 570.674
20.26000 563.939
20.27000 570.494
20.28000 579.537
20.29000 585.921
20.30000 580.477
20.31000 573.619
20.32000 568.374
20.33000 565.521
20.34000 563.401
20.35000 563.034
20.36000 566.360
20.37000 569.805
20.38000 566.800
20.39000 554.458
20.40000 542.040
20.41000 543.297
20.42000 557.721
20.43000 572.007
20.44000 574.179
20.45000 568.531
20.46000 563.106
20.47000 563.601
20.48000 566.732
20.49000 569.689
20.50000 568.336
20.51000 565.875
20.52000 563.690
20.53000 563.617
20.54000 563.987
20.55000 564.523
20.56000 565.883
20.57000 567.356
20.58000 568.512
20.59000 565.849
20.60000 563.472
20.61000 559.481
20.62000 551.733
20.63000 543.831
20.64000 540.295
20.65000 543.779
20.66000 547.358
20.67000 549.218
20.68000 566.021
20.69000 577.328
20.70000 581.481
20.71000 580.501
20.72000 579.409
20.73000 574.442
20.74000 567.568
20.75000 561.011
20.76000 554.444
20.77000 548.346
20.78000 542.905
20.79000 543.229
20.80000 544.900
20.81000 547.324
20.82000 553.939
20.83000 561.201
20.84000 567.036
20.85000 558.470
20.86000 550.419
20.87000 545.981
20.88000 550.848
20.89000 556.185
20.90000 559.171
20.91000 557.961
20.92000 556.670
20.93000 555.962
20.94000 553.107
20.95000 551.142
20.96000 550.222
20.97000 550.137
20.98000 550.074
20.99000 551.042
21.00000 552.573
21.01000 554.046
21.02000 555.919
21.03000 557.819
21.04000 559.993
21.05000 564.946
21.06000 570.620
21.07000 575.033
21.08000 571.547
21.09000 566.689
21.10000 562.697
21.11000 556.987
21.12000 552.142
21.13000 549.888
21.14000 555.012
21.15000 560.589
21.16000 564.011
21.17000 563.181
21.18000 562.236
21.19000 561.692
21.20000 565.652
21.21000 568.439
21.22000 568.568
21.23000 566.319
21.24000 563.994
21.25000 556.649
21.26000 546.274
21.27000 536.209
21.28000 542.411
21.29000 554.726
21.30000 566.013
21.31000 565.214
21.32000 560.930
21.33000 556.969
21.34000 555.305
21.35000 554.088
21.36000 553.066
21.37000 551.756
21.38000 550.634
21.39000 549.840
21.40000 550.077
21.41000 550.390
21.42000 550.624
21.43000 550.687
21.44000 550.744
21.45000 550.778
21.46000 551.095
21.47000 551.323
21.48000 554.423
21.49000 560.409
21.50000 566.330
21.51000 565.531
21.52000 560.229
21.53000 555.049
21.54000 550.997
21.55000 547.615
21.56000 544.335
21.57000 542.460
21.58000 541.034
21.59000 540.810
21.60000 550.261
21.61000 561.821
21.62000 571.707
21.63000 575.008
21.64000 577.000
21.65000 577.132
21.66000 570.766
21.67000 563.841
21.68000 560.583
21.69000 566.178
21.70000 572.164
21.71000 575.929
21.72000 578.831
21.73000 580.919
21.74000 576.167
21.75000 563.701
21.76000 551.294
21.77000 551.623
21.78000 561.445
21.79000 571.099
21.80000 583.537
21.81000 596.932
21.82000 610.205
21.83000 621.457
21.84000 631.994
21.85000 641.253
21.86000 638.716
21.87000 633.317
21.88000 628.615
21.89000 635.462
21.90000 642.898
21.91000 649.314
21.92000 651.777
21.93000 653.844
21.94000 656.350
21.95000 660.029
21.96000 663.771
21.97000 666.218
21.98000 683.549
21.99000 696.521
22.00000 703.406
22.01000 702.620
22.02000 701.814
22.03000 703.761
22.04000 707.997
22.05000 712.183
22.06000 716.789
22.07000 721.512
22.08000 726.121
22.09000 728.458
22.10000 729.907
22.11000 731.736
22.12000 737.619
22.13000 744.595
22.14000 750.772
22.15000 735.111
22.16000 718.143
22.17000 705.231
22.18000 709.815
22.19000 716.412
22.20000 719.823
22.21000 713.827
22.22000 707.214
22.23000 702.729
22.24000 706.823
22.25000 710.066
22.26000 708.035
22.27000 698.597
22.28000 689.109
22.29000 684.417
22.30000 684.193
22.31000 683.971
22.32000 672.433
22.33000 654.131
22.34000 636.256
22.35000 628.989
22.36000 626.310
22.37000 623.771
22.38000 622.963
22.39000 622.673
22.40000 622.413
22.41000 618.522
22.42000 614.469
22.43000 610.195
22.44000 604.853
22.45000 599.372
22.46000 593.348
22.47000 585.551
22.48000 577.615
22.49000 572.049
22.50000 567.378
22.51000 563.868
22.52000 565.133
22.53000 573.850
22.54000 582.655
22.55000 582.824
22.56000 573.949
22.57000 565.114
22.58000 560.088
22.59000 557.739
22.60000 555.418
22.61000 553.967
22.62000 552.932
22.63000 551.772
22.64000 548.772
22.65000 545.162
22.66000 541.870
22.67000 536.539
22.68000 531.402
22.69000 527.494
22.70000 530.198
22.71000 533.888
22.72000 537.701
22.73000 541.958
22.74000 546.255
22.75000 549.366
22.76000 538.561
22.77000 529.756
22.78000 524.346
22.79000 524.814
22.80000 525.386
22.81000 523.536
22.82000 518.842
22.83000 514.154
22.84000 513.854
22.85000 516.936
22.86000 519.980
22.87000 521.362
22.88000 521.865
22.89000 522.532
22.90000 526.105
22.91000 530.742
22.92000 535.027
22.93000 537.971
22.94000 540.310
22.95000 541.447
22.96000 535.307
22.97000 527.945
22.98000 520.328
22.99000 511.689
23.00000 502.942
23.01000 496.422
23.02000 501.831
23.03000 506.585
23.04000 512.868
23.05000 522.084
23.06000 531.373
23.07000 534.975
23.08000 531.124
23.09000 527.242
23.10000 520.245
23.11000 510.571
23.12000 501.028
23.13000 499.343
23.14000 502.264
23.15000 505.220
23.16000 508.912
23.17000 512.903
23.18000 516.635
23.19000 521.040
23.20000 525.211
23.21000 527.980
23.22000 521.173
23.23000 512.557
23.24000 505.720
23.25000 506.855
23.26000 508.953
23.27000 510.560
23.28000 506.891
23.29000 503.704
23.30000 502.493
23.31000 505.475
23.32000 508.594
23.33000 509.823
23.34000 508.294
23.35000 506.742
23.36000 504.561
23.37000 501.772
23.38000 499.051
23.39000 502.637
23.40000 510.322
23.41000 517.861
23.42000 521.427
23.43000 523.212
23.44000 524.899
23.45000 525.852
23.46000 526.517
23.47000 526.709
23.48000 523.228
23.49000 518.971
23.50000 513.893
23.51000 504.699
23.52000 494.940
23.53000 487.270
23.54000 493.366
23.55000 499.152
23.56000 502.333
23.57000 499.405
23.58000 496.222
23.59000 501.907
23.60000 521.958
23.61000 542.208
23.62000 552.777
23.63000 535.735
23.64000 524.236
23.65000 518.468
23.66000 516.841
23.67000 515.239
23.68000 514.491
23.69000 514.166
23.70000 513.855
23.71000 517.064
23.72000 521.168
23.73000 524.591
23.74000 521.975
23.75000 517.938
23.76000 515.763
23.77000 524.045
23.78000 533.955
23.79000 541.930
23.80000 533.312
23.81000 525.028
23.82000 519.308
23.83000 520.234
23.84000 521.502
23.85000 523.169
23.86000 525.552
23.87000 527.950
23.88000 529.270
23.89000 526.996
23.90000 525.431
23.91000 526.351
23.92000 529.274
23.93000 532.162
23.94000 533.388
23.95000 533.701
23.96000 534.003
23.97000 536.496
23.98000 539.619
23.99000 542.921
24.00000 548.056
24.01000 553.671
24.02000 557.500
24.03000 550.050
24.04000 540.623
24.05000 532.866
24.06000 531.838
24.07000 531.606
24.08000 532.514
24.09000 536.697
24.10000 541.084
24.11000 543.551
24.12000 542.202
24.13000 540.749
24.14000 539.908
24.15000 535.331
24.16000 532.105
24.17000 525.023
24.18000 514.463
24.19000 504.081
24.20000 505.801
24.21000 514.880
24.22000 523.694
24.23000 520.425
24.24000 512.506
24.25000 505.394
24.26000 507.874
24.27000 513.141
24.28000 516.869
24.29000 509.604
24.30000 500.178
24.31000 492.259
24.32000 486.135
24.33000 481.222
24.34000 479.358
24.35000 487.174
24.36000 495.708
24.37000 500.150
24.38000 495.594
24.39000 490.717
24.40000 487.767
24.41000 492.835
24.42000 496.506
24.43000 497.819
24.44000 496.744
24.45000 495.691
24.46000 497.076
24.47000 500.107
24.48000 503.069
24.49000 507.126
24.50000 511.501
24.51000 514.960
24.52000 505.603
24.53000 492.121
24.54000 480.359
24.55000 482.571
24.56000 487.852
24.57000 492.375
24.58000 492.742
24.59000 492.548
24.60000 493.375
24.61000 497.800
24.62000 502.537
24.63000 505.547
24.64000 504.354
24.65000 502.973
24.66000 502.102
24.67000 499.470
24.68000 497.545
24.69000 496.059
24.70000 495.075
24.71000 494.086
24.72000 492.072
24.73000 489.288
24.74000 486.550
24.75000 482.908
24.76000 478.937
24.77000 475.468
24.78000 480.389
24.79000 488.297
24.80000 495.303
24.81000 493.900
24.82000 490.440
24.83000 487.423
24.84000 494.196
24.85000 501.345
24.86000 506.637
24.87000 504.669
24.88000 501.969
24.89000 498.407
24.90000 492.528
24.91000 486.522
24.92000 482.583
24.93000 485.155
24.94000 487.155
24.95000 486.672
24.96000 483.037
24.97000 479.396
24.98000 478.714
24.99000 480.512
25.00000 482.289
25.01000 477.617
25.02000 469.479
25.03000 461.780
25.04000 463.003
25.05000 467.742
25.06000 472.574
25.07000 478.402
25.08000 484.501
25.09000 489.908
25.10000 485.438
25.11000 480.007
25.12000 475.832
25.13000 477.113
25.14000 479.028
25.15000 480.994
25.16000 483.110
25.17000 485.236
25.18000 486.681
25.19000 473.282
25.20000 462.944
25.21000 456.832
25.22000 456.701
25.23000 456.614
25.24000 461.076
25.25000 469.809
25.26000 478.476
25.27000 476.588
25.28000 468.185
25.29000 460.176
25.30000 462.157
25.31000 468.488
25.32000 474.873
25.33000 481.926
25.34000 489.179
25.35000 495.707
25.36000 489.816
25.37000 482.425
25.38000 475.762
25.39000 472.632
25.40000 469.969
25.41000 468.222
25.42000 469.490
25.43000 470.995
25.44000 472.052
25.45000 467.956
25.46000 464.701
25.47000 462.395
25.48000 461.581
25.49000 460.785
25.50000 458.260
25.51000 453.911
25.52000 449.580
25.53000 450.847
25.54000 455.985
25.55000 461.043
25.56000 463.530
25.57000 464.780
25.58000 466.343
25.59000 472.574
25.60000 480.362
25.61000 487.472
25.62000 484.003
25.63000 478.781
25.64000 473.488
25.65000 467.799
25.66000 462.050
25.67000 459.049
25.68000 466.083
25.69000 474.039
25.70000 479.811
25.71000 478.352
25.72000 476.962
25.73000 475.309
25.74000 473.196
25.75000 471.074
25.76000 468.208
25.77000 464.460
25.78000 460.719
25.79000 458.941
25.80000 458.698
25.81000 458.506
25.82000 460.533
25.83000 463.742
25.84000 467.102
25.85000 473.163
25.86000 480.221
25.87000 486.749
25.88000 479.924
25.89000 470.749
25.90000 463.080
25.91000 464.609
25.92000 467.697
25.93000 469.170
25.94000 464.094
25.95000 458.321
25.96000 454.009
25.97000 450.230
25.98000 447.309
25.99000 449.028
26.00000 459.709
26.01000 470.615
26.02000 470.527
26.03000 455.916
26.04000 441.245
26.05000 434.226
26.06000 433.885
26.07000 433.676
26.08000 441.523
26.09000 454.126
26.10000 466.125
26.11000 464.871
26.12000 458.205
26.13000 451.966
26.14000 452.200
26.15000 454.072
26.16000 455.512
26.17000 453.981
26.18000 451.885
26.19000 451.236
26.20000 457.125
26.21000 463.811
26.22000 468.943
26.23000 459.614
26.24000 451.434
26.25000 446.693
26.26000 449.302
26.27000 452.155
26.28000 453.676
26.29000 453.240
26.30000 452.786
26.31000 447.845
26.32000 438.508
26.33000 429.310
26.34000 433.102
26.35000 445.405
26.36000 457.491
26.37000 463.587
26.38000 466.978
26.39000 470.186
26.40000 466.807
26.41000 461.808
26.42000 457.350
26.43000 457.123
26.44000 457.798
26.45000 457.802
26.46000 454.427
26.47000 450.582
26.48000 447.555
26.49000 450.948
26.50000 454.094
26.51000 458.179
26.52000 464.485
26.53000 470.885
26.54000 476.256
26.55000 479.947
26.56000 483.615
26.57000 485.538
26.58000 464.315
26.59000 449.990
26.60000 445.085
26.61000 447.043
26.62000 449.075
26.63000 453.721
26.64000 459.674
26.65000 465.360
26.66000 467.241
26.67000 467.765
26.68000 467.252
26.69000 457.454
26.70000 445.454
26.71000 436.825
26.72000 447.278
26.73000 460.727
26.74000 471.570
26.75000 463.451
26.76000 455.365
26.77000 447.717
26.78000 441.209
26.79000 434.761
26.80000 429.586
26.81000 426.714
26.82000 423.890
26.83000 422.330
26.84000 423.870
26.85000 424.956
26.86000 432.848
26.87000 446.268
26.88000 459.489
26.89000 463.047
26.90000 461.263
26.91000 459.545
26.92000 459.242
26.93000 459.467
26.94000 459.347
26.95000 455.673
26.96000 451.062
26.97000 446.388
26.98000 441.312
26.99000 436.166
27.00000 431.924
27.01000 435.550
27.02000 439.256
27.03000 441.720
27.04000 440.592
27.05000 439.238
27.06000 438.096
27.07000 437.376
27.08000 436.669
27.09000 436.259
27.10000 432.064
27.11000 429.108
27.12000 431.187
27.13000 437.845
27.14000 444.429
27.15000 445.808
27.16000 443.998
27.17000 442.240
27.18000 442.300
27.19000 443.089
27.20000 443.970
27.21000 445.971
27.22000 448.300
27.23000 450.933
27.24000 455.757
27.25000 461.014
27.26000 465.438
27.27000 459.146
27.28000 452.758
27.29000 448.639
27.30000 451.777
27.31000 455.458
27.32000 456.739
27.33000 452.703
27.34000 448.473
27.35000 445.907
27.36000 441.385
27.37000 438.145
27.38000 437.716
27.39000 440.159
27.40000 442.604
27.41000 445.226
27.42000 447.968
27.43000 450.649
27.44000 444.195
27.45000 433.906
27.46000 424.502
27.47000 427.638
27.48000 434.839
27.49000 441.483
27.50000 443.559
27.51000 444.624
27.52000 445.537
27.53000 445.347
27.54000 445.051
27.55000 444.541
27.56000 443.272
27.57000 441.936
27.58000 439.817
27.59000 435.777
27.60000 431.650
27.61000 429.039
27.62000 436.647
27.63000 442.283
27.64000 443.234
27.65000 438.817
27.66000 434.405
27.67000 432.433
27.68000 432.309
27.69000 432.186
27.70000 435.000
27.71000 439.195
27.72000 443.130
27.73000 442.674
27.74000 440.643
27.75000 438.987
27.76000 440.868
27.77000 443.620
27.78000 446.021
27.79000 437.321
27.80000 428.321
27.81000 421.284
27.82000 421.973
27.83000 423.452
27.84000 425.072
27.85000 427.074
27.86000 429.097
27.87000 430.427
27.88000 430.581
27.89000 430.675
27.90000 430.383
27.91000 429.599
27.92000 428.823
27.93000 433.740
27.94000 443.469
27.95000 453.087
27.96000 451.032
27.97000 442.493
27.98000 434.041
27.99000 427.362
28.00000 421.387
28.01000 416.647
28.02000 425.346
28.03000 437.723
28.04000 448.707
28.05000 446.405
28.06000 442.290
28.07000 437.503
28.08000 429.768
28.09000 421.687
28.10000 417.182
28.11000 423.393
28.12000 430.324
28.13000 435.047
28.14000 438.047
28.15000 440.249
28.16000 439.327
28.17000 433.949
28.18000 428.538
28.19000 427.427
28.20000 430.388
28.21000 433.328
28.22000 430.626
28.23000 424.440
28.24000 418.469
28.25000 418.046
28.26000 420.056
28.27000 422.074
28.28000 424.195
28.29000 426.347
28.30000 428.286
28.31000 430.380
28.32000 432.246
28.33000 435.359
28.34000 444.565
28.35000 454.588
28.36000 458.788
28.37000 443.666
28.38000 427.008
28.39000 415.269
28.40000 423.134
28.41000 429.686
28.42000 431.692
28.43000 426.495
28.44000 421.207
28.45000 422.098
28.46000 429.569
28.47000 437.010
28.48000 434.388
28.49000 424.753
28.50000 415.437
28.51000 416.637
28.52000 422.940
28.53000 428.452
28.54000 422.033
28.55000 411.603
28.56000 402.072
28.57000 405.782
28.58000 411.781
28.59000 417.515
28.60000 421.798
28.61000 425.861
28.62000 430.456
28.63000 437.008
28.64000 443.742
28.65000 448.638
28.66000 440.353
28.67000 433.480
28.68000 429.955
28.69000 432.314
28.70000 434.782
28.71000 436.020
28.72000 435.791
28.73000 435.559
28.74000 434.602
28.75000 433.082
28.76000 431.600
28.77000 431.826
28.78000 432.970
28.79000 433.866
28.80000 430.279
28.81000 425.025
28.82000 420.161
28.83000 422.980
28.84000 427.282
28.85000 430.134
28.86000 424.058
28.87000 416.456
28.88000 411.005
28.89000 414.347
28.90000 418.633
28.91000 421.841
28.92000 426.083
28.93000 429.441
28.94000 432.502
28.95000 434.987
28.96000 437.456
28.97000 435.821
28.98000 428.720
28.99000 421.596
29.00000 419.505
29.01000 421.838
29.02000 424.157
29.03000 425.522
29.04000 426.320
29.05000 426.976
29.06000 424.471
29.07000 420.665
29.08000 417.102
29.09000 414.658
29.10000 412.725
29.11000 411.504
29.12000 415.233
29.13000 419.912
29.14000 423.815
29.15000 424.186
29.16000 424.123
29.17000 424.074
29.18000 419.846
29.19000 416.264
29.20000 412.742
29.21000 409.348
29.22000 405.958
29.23000 404.728
29.24000 406.696
29.25000 408.695
29.26000 410.616
29.27000 412.460
29.28000 414.259
29.29000 411.551
29.30000 405.869
29.31000 400.400
29.32000 400.937
29.33000 404.204
29.34000 407.296
29.35000 412.500
29.36000 417.899
29.37000 421.228
29.38000 408.203
29.39000 391.671
29.40000 379.964
29.41000 392.814
29.42000 409.102
29.43000 421.948
29.44000 422.349
29.45000 421.831
29.46000 420.490
29.47000 417.192
29.48000 413.810
29.49000 413.236
29.50000 417.277
29.51000 421.385
29.52000 423.547
29.53000 413.365
29.54000 406.485
29.55000 405.007
29.56000 407.494
29.57000 409.939
29.58000 410.847
29.59000 410.983
29.60000 411.113
29.61000 412.579
29.62000 414.376
29.63000 415.620
29.64000 411.858
29.65000 406.899
29.66000 402.728
29.67000 403.057
29.68000 404.098
29.69000 404.939
29.70000 408.276
29.71000 411.188
29.72000 412.595
29.73000 410.046
29.74000 407.287
29.75000 407.255
29.76000 412.193
29.77000 417.235
29.78000 420.031
29.79000 407.937
29.80000 399.577
29.81000 399.693
29.82000 406.750
29.83000 413.797
29.84000 420.389
29.85000 426.725
29.86000 432.836
29.87000 432.750
29.88000 430.421
29.89000 428.792
29.90000 434.454
29.91000 442.053
29.92000 448.780
29.93000 449.904
29.94000 450.028
29.95000 450.131
29.96000 439.047
29.97000 428.878
29.98000 422.133
29.99000 425.360
30.00000 429.223
30.01000 434.105
30.02000 441.039
30.03000 448.032
30.04000 452.102
30.05000 451.191
30.06000 450.528
30.07000 449.305
30.08000 447.567
30.09000 445.821
30.10000 443.527
30.11000 440.894
30.12000 438.335
30.13000 441.225
30.14000 446.178
30.15000 450.398
30.16000 445.711
30.17000 438.398
30.18000 431.506
30.19000 427.680
30.20000 424.467
30.21000 421.760
30.22000 433.114
30.23000 444.105
30.24000 451.047
30.25000 444.944
30.26000 437.851
30.27000 433.740
30.28000 436.281
30.29000 439.068
30.30000 440.763
30.31000 442.643
30.32000 443.988
30.33000 442.175
30.34000 437.112
30.35000 432.055
30.36000 427.699
30.37000 423.825
30.38000 420.035
30.39000 427.148
30.40000 438.907
30.41000 449.604
30.42000 445.082
30.43000 435.588
30.44000 427.358
30.45000 429.602
30.46000 434.182
30.47000 438.115
30.48000 436.679
30.49000 434.800
30.50000 434.682
30.51000 440.855
30.52000 447.587
30.53000 450.373
30.54000 443.425
30.55000 436.027
30.56000 431.333
30.57000 427.062
30.58000 423.968
30.59000 427.060
30.60000 437.298
30.61000 447.524
30.62000 453.064
30.63000 455.027
30.64000 456.958
30.65000 457.185
30.66000 456.542
30.67000 455.717
30.68000 451.759
30.69000 446.668
30.70000 441.895
30.71000 440.137
30.72000 439.129
30.73000 438.247
30.74000 449.583
30.75000 461.021
30.76000 469.166
30.77000 464.252
30.78000 457.991
30.79000 456.972
30.80000 470.250
30.81000 484.340
30.82000 493.628
30.83000 482.709
30.84000 474.311
30.85000 473.657
30.86000 482.999
30.87000 492.378
30.88000 500.544
30.89000 507.675
30.90000 514.727
30.91000 516.654
30.92000 515.643
30.93000 515.066
30.94000 523.566
30.95000 535.694
30.96000 547.296
30.97000 553.093
30.98000 557.290
30.99000 561.018
31.00000 569.858
31.01000 578.348
31.02000 588.604
31.03000 606.659
31.04000 625.638
31.05000 647.522
31.06000 678.175
31.07000 709.425
31.08000 730.776
31.09000 771.995
31.10000 803.299
31.11000 835.465
31.12000 868.870
31.13000 902.285
31.14000 942.583
31.15000 989.452
31.16000 1035.987
31.17000 1108.112
31.18000 1195.216
31.19000 1281.847
31.20000 1356.116
31.21000 1424.922
31.22000 1495.992
31.23000 1596.203
31.24000 1705.327
31.25000 1803.749
31.26000 1927.035
31.27000 2039.828
31.28000 2151.195
31.29000 2255.530
31.30000 2358.916
31.31000 2458.725
31.32000 2546.577
31.33000 2633.467
31.34000 2694.842
31.35000 2819.833
31.36000 2916.661
31.37000 2991.670
31.38000 3031.847
31.39000 3071.572
31.40000 3086.200
31.41000 3073.884
31.42000 3061.608
31.43000 3040.204
31.44000 3012.570
31.45000 2984.138
31.46000 2928.804
31.47000 2860.323
31.48000 2790.673
31.49000 2703.182
31.50000 2609.648
31.51000 2524.102
31.52000 2418.664
31.53000 2320.842
31.54000 2220.988
31.55000 2109.912
31.56000 1997.119
31.57000 1887.256
31.58000 1788.254
31.59000 1690.272
31.60000 1618.883
31.61000 1496.130
31.62000 1399.621
31.63000 1315.382
31.64000 1252.859
31.65000 1190.752
31.66000 1129.284
31.67000 1068.584
31.68000 1007.996
31.69000 948.797
31.70000 890.971
31.71000 833.863
31.72000 809.293
31.73000 802.322
31.74000 794.288
31.75000 766.692
31.76000 731.766
31.77000 699.412
31.78000 678.530
31.79000 662.404
31.80000 645.336
31.81000 622.415
31.82000 598.484
31.83000 576.956
31.84000 565.334
31.85000 554.787
31.86000 546.877
31.87000 534.289
31.88000 524.235
31.89000 515.465
31.90000 509.208
31.91000 503.017
31.92000 496.228
31.93000 488.635
31.94000 481.043
31.95000 477.776
31.96000 478.345
31.97000 478.874
31.98000 476.771
31.99000 473.092
32.00000 469.238
32.01000 461.444
32.02000 452.018
32.03000 443.182
32.04000 442.067
32.05000 443.065
32.06000 444.289
32.07000 447.110
32.08000 450.239
32.09000 451.121
32.10000 441.685
32.11000 430.967
32.12000 422.710
32.13000 421.923
32.14000 421.727
32.15000 418.891
32.16000 410.328
32.17000 401.568
32.18000 398.233
32.19000 402.996
32.20000 407.837
32.21000 411.286
32.22000 413.349
32.23000 415.396
32.24000 415.852
32.25000 415.250
32.26000 414.466
32.27000 408.500
32.28000 400.159
32.29000 392.258
32.30000 394.991
32.31000 400.613
32.32000 405.432
32.33000 403.832
32.34000 400.845
32.35000 398.720
32.36000 401.018
32.37000 403.941
32.38000 406.251
32.39000 410.878
32.40000 414.751
32.41000 416.209
32.42000 411.876
32.43000 407.291
32.44000 402.874
32.45000 398.737
32.46000 394.604
32.47000 392.421
32.48000 386.997
32.49000 383.335
32.50000 384.059
32.51000 388.027
32.52000 391.834
32.53000 389.634
32.54000 384.391
32.55000 379.376
32.56000 373.152
32.57000 366.962
32.58000 361.642
32.59000 364.279
32.60000 368.832
32.61000 373.401
32.62000 378.069
32.63000 382.753
32.64000 386.541
32.65000 385.627
32.66000 384.504
32.67000 385.680
32.68000 392.946
32.69000 400.538
32.70000 404.629
32.71000 402.291
32.72000 399.814
32.73000 398.436
32.74000 391.934
32.75000 387.436
32.76000 386.971
32.77000 389.833
32.78000 392.618
32.79000 391.463
32.80000 388.098
32.81000 384.852
32.82000 392.494
32.83000 403.667
32.84000 413.882
32.85000 414.011
32.86000 411.438
32.87000 410.351
32.88000 418.892
32.89000 429.163
32.90000 437.654
32.91000 435.282
32.92000 432.306
32.93000 428.072
32.94000 420.152
32.95000 411.993
32.96000 405.214
32.97000 401.238
32.98000 397.344
32.99000 395.071
33.00000 401.943
33.01000 406.818
33.02000 407.506
33.03000 404.325
33.04000 401.170
33.05000 399.877
33.06000 399.742
33.07000 399.612
33.08000 390.042
33.09000 377.087
33.10000 364.708
33.11000 359.422
33.12000 356.243
33.13000 353.589
33.14000 354.793
33.15000 356.772
33.16000 358.443
33.17000 352.489
33.18000 346.686
33.19000 342.946
33.20000 345.907
33.21000 349.383
33.22000 351.727
33.23000 351.527
33.24000 351.232
33.25000 351.052
33.26000 357.012
33.27000 361.324
33.28000 358.669
33.29000 348.778
33.30000 338.919
33.31000 333.049
33.32000 329.933
33.33000 326.884
33.34000 329.650
33.35000 334.957
33.36000 339.906
33.37000 339.644
33.38000 337.669
33.39000 335.424
33.40000 330.931
33.41000 325.932
33.42000 321.634
33.43000 326.193
33.44000 331.159
33.45000 336.883
33.46000 345.336
33.47000 354.033
33.48000 359.023
33.49000 354.800
33.50000 350.144
33.51000 347.182
33.52000 350.169
33.53000 352.414
33.54000 352.608
33.55000 350.413
33.56000 348.234
33.57000 350.668
33.58000 356.650
33.59000 362.538
33.60000 362.132
33.61000 358.535
33.62000 354.817
33.63000 348.995
33.64000 342.408
33.65000 336.353
33.66000 335.410
33.67000 335.746
33.68000 336.040
33.69000 342.856
33.70000 349.629
33.71000 354.711
33.72000 353.029
33.73000 350.643
33.74000 348.444
33.75000 346.760
33.76000 345.106
33.77000 344.013
33.78000 346.479
33.79000 348.362
33.80000 348.946
33.81000 347.841
33.82000 346.730
33.83000 346.532
33.84000 347.120
33.85000 347.701
33.86000 349.329
33.87000 351.516
33.88000 353.402
33.89000 348.909
33.90000 341.847
33.91000 335.707
33.92000 339.814
33.93000 346.770
33.94000 352.957
33.95000 350.859
33.96000 347.693
33.97000 344.803
33.98000 343.143
33.99000 341.629
34.00000 341.083
34.01000 343.476
34.02000 346.071
34.03000 347.849
34.04000 349.288
34.05000 350.357
34.06000 349.984
34.07000 347.523
34.08000 345.045
34.09000 343.934
34.10000 344.139
34.11000 344.342
34.12000 343.855
34.13000 342.937
34.14000 342.093
34.15000 343.232
34.16000 345.254
34.17000 347.161
34.18000 347.574
34.19000 347.527
34.20000 347.485
34.21000 351.417
34.22000 355.605
34.23000 358.090
34.24000 352.118
34.25000 344.994
34.26000 339.552
34.27000 339.776
34.28000 340.461
34.29000 340.947
34.30000 335.240
34.31000 330.712
34.32000 330.291
34.33000 336.476
34.34000 342.750
34.35000 346.942
34.36000 348.881
34.37000 350.811
34.38000 348.980
34.39000 344.491
34.40000 340.116
34.41000 339.636
34.42000 341.074
34.43000 342.427
34.44000 342.473
34.45000 342.073
34.46000 341.707
34.47000 339.762
34.48000 337.704
34.49000 335.081
34.50000 329.318
34.51000 323.070
34.52000 320.025
34.53000 328.943
34.54000 338.996
34.55000 346.336
34.56000 344.377
34.57000 342.503
34.58000 341.939
34.59000 343.709
34.60000 345.525
34.61000 344.049
34.62000 338.583
34.63000 333.117
34.64000 330.788
34.65000 330.966
34.66000 331.193
34.67000 333.615
34.68000 337.234
34.69000 340.613
34.70000 339.503
34.71000 336.699
34.72000 334.100
34.73000 337.684
34.74000 342.358
34.75000 345.756
34.76000 341.169
34.77000 335.193
34.78000 328.767
34.79000 320.474
34.80000 311.976
34.81000 305.590
34.82000 313.531
34.83000 320.427
34.84000 328.727
34.85000 339.795
34.86000 350.937
34.87000 353.668
34.88000 345.026
34.89000 336.325
34.90000 327.895
34.91000 319.717
34.92000 311.673
34.93000 312.578
34.94000 318.885
34.95000 324.942
34.96000 325.277
34.97000 323.222
34.98000 321.295
34.99000 325.223
35.00000 330.339
35.01000 334.319
35.02000 330.260
35.03000 324.634
35.04000 319.863
35.05000 319.055
35.06000 318.743
35.07000 318.503
35.08000 320.379
35.09000 321.990
35.10000 321.951
35.11000 318.312
35.12000 314.547
35.13000 314.471
35.14000 319.944
35.15000 325.472
35.16000 328.242
35.17000 315.351
35.18000 306.822
35.19000 305.734
35.20000 309.634
35.21000 313.523
35.22000 317.116
35.23000 320.574
35.24000 323.851
35.25000 319.829
35.26000 313.974
35.27000 308.806
35.28000 309.177
35.29000 310.755
35.30000 312.573
35.31000 315.636
35.32000 318.876
35.33000 321.440
35.34000 316.818
35.35000 312.606
35.36000 308.282
35.37000 303.685
35.38000 299.077
35.39000 297.911
35.40000 302.491
35.41000 307.159
35.42000 309.634
35.43000 307.510
35.44000 306.074
35.45000 306.730
35.46000 308.947
35.47000 311.178
35.48000 313.991
35.49000 317.100
35.50000 320.076
35.51000 321.049
35.52000 321.296
35.53000 321.098
35.54000 316.800
35.55000 311.506
35.56000 306.810
35.57000 305.580
35.58000 304.909
35.59000 304.366
35.60000 301.754
35.61000 299.458
35.62000 299.684
35.63000 306.642
35.64000 313.966
35.65000 316.768
35.66000 311.208
35.67000 305.463
35.68000 302.255
35.69000 299.292
35.70000 297.254
35.71000 301.199
35.72000 310.123
35.73000 318.921
35.74000 321.138
35.75000 319.637
35.76000 318.187
35.77000 313.953
35.78000 308.939
35.79000 303.855
35.80000 298.012
35.81000 291.964
35.82000 287.256
35.83000 291.309
35.84000 296.950
35.85000 301.621
35.86000 300.895
35.87000 299.783
35.88000 299.471
35.89000 301.522
35.90000 303.728
35.91000 305.670
35.92000 307.072
35.93000 308.458
35.94000 309.270
35.95000 311.795
35.96000 313.582
35.97000 314.796
35.98000 315.476
35.99000 316.103
36.00000 312.630
36.01000 306.587
36.02000 300.709
36.03000 300.121
36.04000 301.739
36.05000 303.280
36.06000 303.856
36.07000 304.144
36.08000 304.207
36.09000 302.613
36.10000 300.683
36.11000 299.052
36.12000 301.747
36.13000 304.476
36.14000 306.080
36.15000 304.007
36.16000 301.648
36.17000 300.340
36.18000 301.411
36.19000 302.574
36.20000 303.285
36.21000 306.988
36.22000 309.664
36.23000 309.974
36.24000 307.806
36.25000 305.637
36.26000 303.317
36.27000 300.893
36.28000 298.519
36.29000 296.588
36.30000 294.936
36.31000 293.656
36.32000 297.835
36.33000 303.823
36.34000 308.916
36.35000 306.453
36.36000 302.279
36.37000 298.685
36.38000 296.671
36.39000 295.165
36.40000 294.153
36.41000 294.931
36.42000 295.871
36.43000 296.788
36.44000 297.644
36.45000 298.496
36.46000 299.040
36.47000 295.663
36.48000 293.156
36.49000 290.900
36.50000 288.938
36.51000 286.988
36.52000 288.078
36.53000 291.522
36.54000 294.915
36.55000 297.035
36.56000 298.438
36.57000 299.708
36.58000 298.638
36.59000 296.710
36.60000 295.140
36.61000 297.052
36.62000 299.843
36.63000 302.287
36.64000 300.171
36.65000 297.697
36.66000 295.698
36.67000 295.609
36.68000 295.721
36.69000 295.681
36.70000 295.220
36.71000 294.734
36.72000 294.411
36.73000 292.035
36.74000 290.243
36.75000 292.067
36.76000 298.632
36.77000 305.208
36.78000 303.242
36.79000 293.883
36.80000 284.621
36.81000 281.584
36.82000 282.183
36.83000 282.963
36.84000 287.643
36.85000 293.905
36.86000 299.542
36.87000 298.150
36.88000 294.790
36.89000 291.798
36.90000 291.807
36.91000 292.307
36.92000 292.600
36.93000 291.964
36.94000 291.217
36.95000 291.170
36.96000 293.270
36.97000 295.519
36.98000 297.063
36.99000 300.569
37.00000 303.246
37.01000 304.956
37.02000 305.254
37.03000 305.541
37.04000 307.114
37.05000 309.936
37.06000 312.739
37.07000 313.305
37.08000 312.429
37.09000 311.579
37.10000 311.449
37.11000 311.641
37.12000 311.541
37.13000 307.593
37.14000 302.451
37.15000 297.803
37.16000 301.270
37.17000 305.827
37.18000 309.156
37.19000 306.338
37.20000 302.674
37.21000 300.444
37.22000 303.081
37.23000 306.119
37.24000 308.274
37.25000 316.336
37.26000 322.656
37.27000 322.800
37.28000 312.938
37.29000 302.937
37.30000 300.468
37.31000 306.217
37.32000 311.950
37.33000 311.419
37.34000 306.404
37.35000 301.445
37.36000 298.413
37.37000 296.337
37.38000 294.247
37.39000 291.936
37.40000 289.548
37.41000 287.361
37.42000 289.393
37.43000 292.088
37.44000 293.957
37.45000 291.194
37.46000 287.711
37.47000 285.188
37.48000 286.279
37.49000 287.717
37.50000 288.769
37.51000 294.273
37.52000 298.697
37.53000 300.424
37.54000 297.308
37.55000 294.095
37.56000 292.206
37.57000 291.936
37.58000 291.671
37.59000 291.884
37.60000 292.481
37.61000 293.091
37.62000 294.377
37.63000 296.033
37.64000 297.492
37.65000 295.214
37.66000 291.515
37.67000 288.083
37.68000 288.229
37.69000 289.205
37.70000 290.324
37.71000 292.346
37.72000 294.526
37.73000 295.694
37.74000 292.629
37.75000 289.096
37.76000 286.436
37.77000 287.604
37.78000 288.704
37.79000 291.462
37.80000 297.513
37.81000 303.655
37.82000 304.880
37.83000 299.406
37.84000 293.895
37.85000 291.222
37.86000 291.108
37.87000 291.059
37.88000 295.527
37.89000 302.740
37.90000 309.574
37.91000 307.535
37.92000 301.767
37.93000 296.353
37.94000 293.932
37.95000 292.519
37.96000 291.444
37.97000 292.788
37.98000 294.609
37.99000 295.816
38.00000 294.164
38.01000 292.150
38.02000 290.592
38.03000 295.883
38.04000 300.483
38.05000 304.919
38.06000 308.991
38.07000 313.049
38.08000 314.826
38.09000 313.144
38.10000 311.427
38.11000 310.563
38.12000 307.021
38.13000 304.678
38.14000 304.760
38.15000 306.481
38.16000 308.140
38.17000 307.954
38.18000 306.910
38.19000 305.920
38.20000 306.363
38.21000 307.198
38.22000 308.039
38.23000 308.939
38.24000 309.853
38.25000 311.220
38.26000 314.956
38.27000 319.033
38.28000 322.266
38.29000 322.685
38.30000 322.825
38.31000 323.753
38.32000 326.598
38.33000 329.530
38.34000 333.119
38.35000 337.813
38.36000 342.525
38.37000 345.033
38.38000 350.410
38.39000 354.085
38.40000 360.406
38.41000 368.714
38.42000 377.037
38.43000 385.953
38.44000 395.174
38.45000 404.005
38.46000 412.877
38.47000 421.165
38.48000 429.513
38.49000 438.436
38.50000 447.498
38.51000 458.347
38.52000 479.650
38.53000 502.652
38.54000 521.316
38.55000 556.388
38.56000 586.329
38.57000 616.846
38.58000 648.906
38.59000 681.051
38.60000 714.226
38.61000 749.319
38.62000 784.455
38.63000 804.148
38.64000 845.715
38.65000 874.585
38.66000 904.868
38.67000 936.335
38.68000 967.652
38.69000 990.928
38.70000 1009.628
38.71000 1027.690
38.72000 1043.855
38.73000 1058.387
38.74000 1071.194
38.75000 1065.424
38.76000 1054.606
38.77000 1044.939
38.78000 1042.868
38.79000 1042.184
38.80000 1041.617
38.81000 1024.070
38.82000 1007.946
38.83000 989.892
38.84000 966.101
38.85000 941.928
38.86000 913.472
38.87000 876.187
38.88000 838.635
38.89000 816.563
38.90000 762.263
38.91000 723.812
38.92000 691.975
38.93000 666.351
38.94000 640.686
38.95000 611.784
38.96000 580.839
38.97000 550.722
38.98000 522.265
38.99000 495.854
39.00000 470.230
39.01000 454.501
39.02000 441.755
39.03000 428.838
39.04000 414.647
39.05000 400.195
39.06000 387.968
39.07000 382.345
39.08000 378.372
39.09000 371.576
39.10000 355.484
39.11000 338.661
39.12000 327.097
39.13000 327.520
39.14000 328.409
39.15000 328.955
39.16000 325.833
39.17000 323.564
39.18000 323.293
39.19000 325.135
39.20000 326.915
39.21000 320.597
39.22000 308.601
39.23000 296.848
39.24000 290.826
39.25000 287.690
39.26000 284.969
39.27000 288.413
39.28000 293.916
39.29000 299.057
39.30000 301.111
39.31000 302.460
39.32000 303.623
39.33000 295.599
39.34000 287.625
39.35000 281.217
39.36000 280.534
39.37000 280.376
39.38000 281.002
39.39000 283.603
39.40000 286.299
39.41000 288.024
39.42000 274.378
39.43000 264.237
39.44000 260.283
39.45000 263.649
39.46000 267.024
39.47000 269.189
39.48000 270.409
39.49000 271.612
39.50000 274.658
39.51000 278.567
39.52000 282.191
39.53000 280.695
39.54000 277.309
39.55000 274.116
39.56000 272.818
39.57000 272.003
39.58000 271.287
39.59000 276.302
39.60000 281.443
39.61000 285.242
39.62000 283.594
39.63000 281.367
39.64000 278.856
39.65000 275.552
39.66000 272.202
39.67000 269.976
39.68000 274.037
39.69000 277.157
39.70000 277.680
39.71000 274.773
39.72000 271.853
39.73000 270.635
39.74000 270.903
39.75000 271.169
39.76000 268.343
39.77000 263.792
39.78000 259.481
39.79000 260.429
39.80000 263.525
39.81000 266.780
39.82000 271.856
39.83000 277.446
39.84000 282.428
39.85000 278.426
39.86000 273.459
39.87000 269.175
39.88000 267.977
39.89000 267.155
39.90000 264.942
39.91000 258.436
39.92000 251.627
39.93000 246.941
39.94000 262.044
39.95000 273.873
39.96000 281.213
39.97000 281.954
39.98000 282.637
39.99000 279.376
40.00000 272.252
40.01000 265.174
40.02000 262.773
40.03000 263.425
40.04000 263.977
40.05000 261.757
40.06000 258.284
40.07000 255.575
40.08000 263.046
40.09000 273.701
40.10000 283.341
40.11000 277.085
40.12000 268.599
40.13000 262.091
40.14000 265.573
40.15000 270.442
40.16000 271.885
40.17000 261.622
40.18000 250.386
40.19000 242.394
40.20000 252.653
40.21000 261.052
40.22000 264.345
40.23000 259.304
40.24000 254.144
40.25000 253.740
40.26000 258.568
40.27000 263.383
40.28000 267.386
40.29000 270.769
40.30000 274.131
40.31000 276.724
40.32000 278.933
40.33000 280.584
40.34000 273.375
40.35000 263.100
40.36000 253.676
40.37000 257.263
40.38000 263.211
40.39000 268.360
40.40000 268.989
40.41000 268.908
40.42000 267.183
40.43000 259.225
40.44000 250.662
40.45000 244.383
40.46000 247.632
40.47000 250.525
40.48000 253.041
40.49000 254.876
40.50000 256.698
40.51000 258.933
40.52000 261.679
40.53000 264.422
40.54000 265.267
40.55000 264.574
40.56000 263.921
40.57000 265.193
40.58000 267.530
40.59000 269.563
40.60000 265.759
40.61000 259.719
40.62000 254.110
40.63000 255.967
40.64000 259.417
40.65000 263.082
40.66000 268.107
40.67000 273.372
40.68000 276.118
40.69000 268.240
40.70000 259.175
40.71000 252.337
40.72000 246.968
40.73000 242.835
40.74000 241.365
40.75000 245.229
40.76000 249.242
40.77000 253.324
40.78000 257.500
40.79000 261.676
40.80000 259.229
40.81000 250.768
40.82000 242.417
40.83000 241.775
40.84000 245.856
40.85000 249.841
40.86000 251.536
40.87000 252.261
40.88000 252.943
40.89000 252.918
40.90000 252.706
40.91000 252.731
40.92000 254.463
40.93000 256.534
40.94000 257.901
40.95000 255.957
40.96000 253.590
40.97000 251.756
40.98000 249.388
40.99000 247.476
41.00000 246.586
41.01000 247.961
41.02000 249.419
41.03000 248.750
41.04000 244.835
41.05000 240.886
41.06000 238.891
41.07000 239.243
41.08000 239.495
41.09000 241.637
41.10000 245.065
41.11000 248.392
41.12000 248.681
41.13000 247.547
41.14000 246.471
41.15000 241.288
41.16000 235.276
41.17000 230.675
41.18000 237.657
41.19000 247.203
41.20000 253.618
41.21000 243.577
41.22000 231.149
41.23000 221.279
41.24000 232.481
41.25000 242.993
41.26000 251.675
41.27000 255.875
41.28000 259.871
41.29000 259.173
41.30000 250.525
41.31000 241.746
41.32000 237.056
41.33000 246.900
41.34000 253.591
41.35000 253.552
41.36000 248.416
41.37000 243.409
41.38000 243.483
41.39000 246.188
41.40000 248.781
41.41000 246.228
41.42000 242.122
41.43000 238.550
41.44000 240.012
41.45000 242.715
41.46000 244.911
41.47000 244.120
41.48000 242.841
41.49000 241.800
41.50000 246.354
41.51000 250.535
41.52000 252.595
41.53000 248.914
41.54000 244.911
41.55000 243.404
41.56000 246.580
41.57000 249.864
41.58000 251.712
41.59000 256.147
41.60000 259.223
41.61000 257.106
41.62000 250.597
41.63000 244.143
41.64000 240.671
41.65000 238.908
41.66000 237.205
41.67000 236.050
41.68000 235.165
41.69000 234.575
41.70000 237.187
41.71000 240.676
41.72000 243.760
41.73000 244.147
41.74000 244.037
41.75000 243.945
41.76000 244.518
41.77000 245.057
41.78000 246.632
41.79000 251.315
41.80000 256.207
41.81000 258.037
41.82000 253.512
41.83000 248.791
41.84000 246.007
41.85000 247.776
41.86000 249.048
41.87000 248.565
41.88000 246.418
41.89000 244.288
41.90000 243.562
41.91000 243.730
41.92000 243.893
41.93000 241.559
41.94000 238.291
41.95000 235.484
41.96000 238.551
41.97000 243.401
41.98000 247.053
41.99000 241.667
42.00000 234.417
42.01000 228.275
42.02000 230.177
42.03000 232.673
42.04000 234.538
42.05000 234.308
42.06000 233.913
42.07000 233.492
42.08000 233.013
42.09000 232.531
42.10000 232.235
42.11000 234.049
42.12000 235.370
42.13000 235.822
42.14000 235.349
42.15000 234.891
42.16000 236.522
42.17000 239.629
42.18000 242.673
42.19000 245.159
42.20000 247.289
42.21000 249.076
42.22000 245.694
42.23000 240.575
42.24000 235.680
42.25000 232.719
42.26000 230.204
42.27000 228.033
42.28000 233.229
42.29000 238.586
42.30000 241.692
42.31000 236.508
42.32000 230.554
42.33000 228.931
42.34000 238.302
42.35000 248.214
42.36000 254.573
42.37000 245.570
42.38000 238.799
42.39000 235.827
42.40000 237.390
42.41000 238.953
42.42000 238.264
42.43000 235.801
42.44000 233.374
42.45000 234.112
42.46000 236.479
42.47000 238.839
42.48000 241.063
42.49000 243.236
42.50000 245.115
42.51000 244.084
42.52000 242.309
42.53000 240.750
42.54000 241.883
42.55000 243.252
42.56000 244.084
42.57000 242.722
42.58000 241.124
42.59000 238.780
42.60000 234.338
42.61000 229.771
42.62000 226.729
42.63000 225.952
42.64000 225.420
42.65000 227.298
42.66000 232.385
42.67000 237.485
42.68000 238.800
42.69000 236.786
42.70000 234.792
42.71000 235.826
42.72000 238.601
42.73000 241.103
42.74000 237.530
42.75000 231.457
42.76000 226.057
42.77000 228.390
42.78000 232.919
42.79000 236.962
42.80000 229.620
42.81000 221.330
42.82000 216.377
42.83000 226.628
42.84000 238.750
42.85000 248.385
42.86000 250.291
42.87000 251.645
42.88000 252.579
42.89000 250.650
42.90000 249.127
42.91000 246.600
42.92000 242.585
42.93000 238.556
42.94000 237.869
42.95000 240.481
42.96000 243.078
42.97000 239.188
42.98000 231.130
42.99000 223.360
43.00000 223.648
43.01000 227.603
43.02000 231.331
43.03000 231.991
43.04000 231.686
43.05000 231.409
43.06000 231.929
43.07000 232.538
43.08000 233.204
43.09000 234.164
43.10000 235.166
43.11000 234.681
43.12000 229.079
43.13000 223.047
43.14000 218.747
43.15000 224.097
43.16000 228.491
43.17000 232.468
43.18000 235.759
43.19000 239.040
43.20000 237.221
43.21000 229.744
43.22000 222.288
43.23000 221.426
43.24000 225.373
43.25000 229.255
43.26000 230.792
43.27000 231.149
43.28000 231.496
43.29000 231.676
43.30000 231.799
43.31000 231.911
43.32000 231.742
43.33000 231.531
43.34000 230.949
43.35000 228.242
43.36000 225.199
43.37000 223.337
43.38000 225.988
43.39000 229.081
43.40000 231.354
43.41000 229.623
43.42000 228.121
43.43000 226.171
43.44000 223.404
43.45000 220.619
43.46000 219.406
43.47000 220.143
43.48000 220.886
43.49000 221.992
43.50000 223.391
43.51000 224.817
43.52000 227.559
43.53000 231.034
43.54000 234.456
43.55000 236.847
43.56000 238.841
43.57000 240.694
43.58000 233.435
43.59000 224.696
43.60000 217.780
43.61000 222.573
43.62000 229.454
43.63000 235.220
43.64000 236.255
43.65000 236.755
43.66000 237.133
43.67000 237.886
43.68000 238.496
43.69000 235.795
43.70000 226.418
43.71000 216.850
43.72000 210.763
43.73000 209.490
43.74000 208.248
43.75000 212.250
43.76000 221.054
43.77000 229.760
43.78000 231.382
43.79000 228.630
43.80000 225.864
43.81000 222.767
43.82000 219.528
43.83000 216.483
43.84000 214.182
43.85000 212.280
43.86000 211.174
43.87000 215.860
43.88000 221.704
43.89000 226.630
43.90000 227.213
43.91000 227.235
43.92000 227.253
43.93000 226.271
43.94000 225.430
43.95000 226.150
43.96000 230.356
43.97000 234.691
43.98000 234.680
43.99000 227.986
44.00000 221.219
44.01000 217.785
44.02000 222.182
44.03000 225.126
44.04000 227.874
44.05000 230.486
44.06000 233.062
44.07000 234.515
44.08000 235.437
44.09000 236.314
44.10000 233.135
44.11000 228.975
44.12000 224.953
44.13000 222.078
44.14000 219.459
44.15000 216.597
44.16000 212.443
44.17000 208.099
44.18000 204.644
44.19000 216.927
44.20000 227.955
44.21000 235.352
44.22000 233.794
44.23000 231.820
44.24000 230.009
44.25000 228.476
44.26000 226.948
44.27000 226.128
44.28000 224.167
44.29000 222.834
44.30000 222.984
44.31000 224.266
44.32000 225.485
44.33000 224.183
44.34000 221.565
44.35000 219.055
44.36000 219.819
44.37000 221.638
44.38000 223.087
44.39000 221.016
44.40000 218.072
44.41000 215.568
44.42000 215.683
44.43000 216.230
44.44000 216.676
44.45000 222.955
44.46000 228.575
44.47000 232.088
44.48000 229.851
44.49000 227.288
44.50000 225.774
44.51000 226.244
44.52000 226.761
44.53000 227.053
44.54000 229.978
44.55000 232.015
44.56000 232.310
44.57000 231.121
44.58000 229.993
44.59000 232.321
44.60000 236.645
44.61000 240.826
44.62000 239.839
44.63000 236.956
44.64000 234.504
44.65000 236.789
44.66000 240.381
44.67000 244.119
44.68000 248.833
44.69000 253.728
44.70000 257.800
44.71000 260.237
44.72000 262.095
44.73000 261.698
44.74000 254.496
44.75000 246.830
44.76000 245.062
44.77000 255.627
44.78000 266.580
44.79000 273.060
44.80000 270.656
44.81000 268.907
44.82000 268.667
44.83000 269.867
44.84000 271.105
44.85000 275.636
44.86000 282.276
44.87000 288.745
44.88000 287.764
44.89000 283.689
44.90000 280.031
44.91000 281.752
44.92000 285.118
44.93000 289.180
44.94000 298.533
44.95000 308.986
44.96000 317.855
44.97000 320.964
44.98000 322.920
44.99000 324.658
45.00000 325.671
45.01000 326.625
45.02000 329.174
45.03000 335.410
45.04000 341.794
45.05000 345.739
45.06000 339.035
45.07000 334.120
45.08000 337.317
45.09000 349.222
45.10000 361.056
45.11000 362.036
45.12000 355.287
45.13000 348.670
45.14000 351.881
45.15000 359.598
45.16000 366.776
45.17000 365.735
45.18000 361.910
45.19000 359.171
45.20000 365.871
45.21000 374.761
45.22000 382.443
45.23000 380.083
45.24000 376.773
45.25000 372.292
45.26000 363.471
45.27000 354.242
45.28000 347.043
45.29000 345.033
45.30000 343.282
45.31000 342.156
45.32000 339.741
45.33000 337.960
45.34000 334.049
45.35000 327.576
45.36000 321.107
45.37000 317.299
45.38000 315.602
45.39000 313.930
45.40000 312.793
45.41000 311.970
45.42000 310.979
45.43000 306.900
45.44000 301.665
45.45000 296.843
45.46000 296.165
45.47000 296.556
45.48000 296.900
45.49000 297.016
45.50000 297.082
45.51000 297.623
45.52000 300.116
45.53000 302.822
45.54000 301.939
45.55000 290.908
45.56000 279.261
45.57000 271.481
45.58000 271.300
45.59000 271.314
45.60000 270.449
45.61000 268.404
45.62000 266.355
45.63000 265.974
45.64000 267.074
45.65000 268.163
45.66000 267.156
45.67000 264.942
45.68000 262.587
45.69000 257.078
45.70000 250.262
45.71000 243.845
45.72000 242.075
45.73000 241.636
45.74000 241.243
45.75000 237.316
45.76000 233.301
45.77000 230.398
45.78000 232.607
45.79000 235.451
45.80000 237.822
45.81000 238.710
45.82000 239.491
45.83000 240.031
45.84000 239.319
45.85000 238.751
45.86000 239.498
45.87000 242.209
45.88000 244.938
45.89000 242.963
45.90000 236.304
45.91000 229.684
45.92000 227.392
45.93000 227.970
45.94000 228.421
45.95000 225.222
45.96000 220.351
45.97000 215.808
45.98000 215.739
45.99000 217.090
46.00000 218.314
46.01000 220.759
46.02000 223.147
46.03000 224.937
46.04000 223.656
46.05000 221.941
46.06000 220.083
46.07000 217.734
46.08000 215.342
46.09000 213.633
46.10000 217.675
46.11000 220.951
46.12000 220.715
46.13000 214.660
46.14000 208.517
46.15000 204.773
46.16000 203.714
46.17000 202.660
46.18000 202.851
46.19000 203.953
46.20000 205.116
46.21000 208.514
46.22000 213.045
46.23000 217.243
46.24000 216.020
46.25000 212.893
46.26000 210.020
46.27000 209.127
46.28000 208.756
46.29000 208.632
46.30000 209.930
46.31000 211.455
46.32000 211.398
46.33000 205.256
46.34000 198.511
46.35000 193.544
46.36000 200.102
46.37000 205.657
46.38000 208.678
46.39000 207.047
46.40000 205.316
46.41000 202.519
46.42000 198.386
46.43000 194.254
46.44000 192.801
46.45000 193.555
46.46000 194.356
46.47000 197.550
46.48000 202.086
46.49000 206.542
46.50000 209.423
46.51000 211.691
46.52000 213.802
46.53000 213.140
46.54000 211.871
46.55000 210.288
46.56000 206.666
46.57000 202.678
46.58000 199.870
46.59000 202.121
46.60000 204.949
46.61000 207.090
46.62000 206.632
46.63000 206.140
46.64000 204.525
46.65000 200.628
46.66000 196.665
46.67000 196.160
46.68000 200.477
46.69000 204.825
46.70000 208.004
46.71000 210.103
46.72000 212.170
46.73000 211.834
46.74000 210.004
46.75000 208.204
46.76000 207.149
46.77000 206.413
46.78000 205.720
46.79000 203.714
46.80000 201.525
46.81000 199.840
46.82000 201.858
46.83000 204.622
46.84000 206.339
46.85000 203.053
46.86000 199.116
46.87000 196.054
46.88000 196.968
46.89000 197.938
46.90000 199.267
46.91000 201.402
46.92000 203.566
46.93000 204.410
46.94000 203.207
46.95000 201.980
46.96000 201.355
46.97000 199.183
46.98000 197.744
46.99000 198.391
47.00000 200.481
47.01000 202.549
47.02000 203.963
47.03000 205.067
47.04000 206.116
47.05000 205.684
47.06000 204.834
47.07000 203.545
47.08000 198.585
47.09000 192.799
47.10000 187.794
47.11000 186.960
47.12000 186.743
47.13000 186.569
47.14000 195.751
47.15000 203.836
47.16000 207.187
47.17000 198.777
47.18000 189.813
47.19000 184.762
47.20000 186.440
47.21000 188.234
47.22000 189.199
47.23000 194.968
47.24000 198.908
47.25000 200.768
47.26000 201.030
47.27000 201.185
47.28000 196.959
47.29000 190.431
47.30000 184.166
47.31000 185.054
47.32000 188.317
47.33000 191.163
47.34000 189.993
47.35000 187.819
47.36000 185.858
47.37000 185.175
47.38000 184.706
47.39000 184.323
47.40000 186.950
47.41000 189.354
47.42000 190.167
47.43000 186.604
47.44000 182.789
47.45000 181.191
47.46000 183.813
47.47000 186.537
47.48000 188.080
47.49000 190.134
47.50000 191.566
47.51000 193.579
47.52000 196.092
47.53000 198.550
47.54000 197.796
47.55000 195.174
47.56000 192.636
47.57000 183.182
47.58000 171.620
47.59000 161.691
47.60000 169.939
47.61000 183.238
47.62000 194.869
47.63000 195.205
47.64000 193.426
47.65000 191.944
47.66000 188.870
47.67000 186.165
47.68000 184.273
47.69000 184.852
47.70000 185.601
47.71000 185.323
47.72000 182.882
47.73000 180.372
47.74000 178.883
47.75000 177.323
47.76000 176.219
47.77000 178.222
47.78000 183.216
47.79000 188.130
47.80000 185.936
47.81000 179.154
47.82000 172.544
47.83000 171.369
47.84000 172.556
47.85000 174.113
47.86000 180.476
47.87000 188.321
47.88000 194.958
47.89000 192.312
47.90000 187.720
47.91000 183.820
47.92000 185.336
47.93000 187.228
47.94000 188.763
47.95000 189.092
47.96000 189.324
47.97000 189.655
47.98000 190.217
47.99000 190.789
48.00000 191.143
48.01000 188.659
48.02000 186.845
48.03000 185.129
48.04000 183.521
48.05000 181.919
48.06000 181.354
48.07000 181.532
48.08000 181.706
48.09000 183.123
48.10000 185.077
48.11000 187.059
48.12000 189.462
48.13000 192.009
48.14000 194.002
48.15000 191.126
48.16000 187.113
48.17000 183.640
48.18000 175.646
48.19000 168.257
48.20000 162.839
48.21000 164.784
48.22000 167.427
48.23000 169.494
48.24000 170.074
48.25000 170.579
48.26000 170.904
48.27000 179.895
48.28000 186.588
48.29000 190.032
48.30000 189.537
48.31000 189.031
48.32000 188.174
48.33000 187.036
48.34000 185.914
48.35000 187.180
48.36000 189.677
48.37000 192.049
48.38000 192.122
48.39000 191.325
48.40000 190.360
48.41000 187.687
48.42000 184.569
48.43000 181.825
48.44000 184.185
48.45000 186.980
48.46000 187.878
48.47000 180.889
48.48000 173.037
48.49000 167.590
48.50000 168.996
48.51000 170.822
48.52000 172.046
48.53000 181.365
48.54000 188.440
48.55000 191.445
48.56000 188.947
48.57000 186.420
48.58000 184.172
48.59000 182.172
48.60000 180.192
48.61000 181.910
48.62000 185.782
48.63000 189.360
48.64000 186.207
48.65000 180.244
48.66000 174.557
48.67000 172.118
48.68000 170.615
48.69000 169.272
48.70000 169.485
48.71000 169.935
48.72000 170.696
48.73000 172.894
48.74000 175.273
48.75000 177.512
48.76000 179.312
48.77000 181.079
48.78000 182.305
48.79000 179.934
48.80000 178.055
48.81000 176.845
48.82000 176.644
48.83000 176.452
48.84000 177.237
48.85000 179.003
48.86000 180.759
48.87000 182.717
48.88000 184.785
48.89000 186.772
48.90000 186.424
48.91000 184.997
48.92000 183.624
48.93000 182.993
48.94000 182.600
48.95000 182.244
48.96000 180.523
48.97000 178.742
48.98000 176.896
48.99000 174.716
49.00000 172.488
49.01000 172.455
49.02000 180.096
49.03000 188.397
49.04000 194.341
49.05000 188.970
49.06000 184.484
49.07000 182.342
49.08000 184.112
49.09000 185.943
49.10000 182.927
49.11000 174.447
49.12000 165.988
49.13000 169.035
49.14000 180.576
49.15000 191.829
49.16000 192.100
49.17000 186.766
49.18000 181.461
49.19000 176.632
49.20000 171.971
49.21000 167.684
49.22000 168.177
49.23000 169.654
49.24000 171.124
49.25000 172.556
49.26000 173.981
49.27000 176.267
49.28000 181.895
49.29000 187.857
49.30000 192.257
49.31000 182.185
49.32000 173.770
49.33000 169.442
49.34000 172.670
49.35000 176.064
49.36000 178.203
49.37000 178.758
49.38000 179.307
49.39000 177.028
49.40000 172.408
49.41000 167.907
49.42000 169.582
49.43000 174.749
49.44000 179.716
49.45000 180.713
49.46000 180.155
49.47000 179.635
49.48000 178.862
49.49000 178.101
49.50000 177.309
49.51000 176.318
49.52000 175.289
49.53000 174.511
49.54000 174.813
49.55000 175.238
49.56000 175.561
49.57000 174.880
49.58000 174.293
49.59000 174.634
49.60000 176.873
49.61000 179.168
49.62000 180.819
49.63000 181.566
49.64000 182.305
49.65000 181.557
49.66000 179.424
49.67000 177.325
49.68000 177.909
49.69000 180.173
49.70000 182.243
49.71000 179.480
49.72000 174.628
49.73000 170.058
49.74000 166.495
49.75000 163.511
49.76000 161.280
49.77000 164.627
49.78000 169.106
49.79000 173.584
49.80000 178.059
49.81000 182.532
49.82000 186.017
49.83000 182.434
49.84000 179.142
49.85000 176.345
49.86000 174.668
49.87000 173.035
49.88000 171.104
49.89000 168.707
49.90000 166.305
49.91000 165.076
49.92000 164.168
49.93000 163.586
49.94000 166.591
49.95000 172.092
49.96000 177.457
49.97000 178.469
49.98000 177.398
49.99000 176.379
50.00000 179.557
50.01000 183.783
50.02000 187.123
50.03000 182.973
50.04000 177.127
50.05000 172.309
50.06000 173.027
50.07000 174.571
50.08000 175.804
50.09000 173.622
50.10000 171.609
50.11000 171.128
50.12000 174.480
50.13000 178.016
50.14000 178.047
50.15000 172.008
50.16000 165.862
50.17000 162.541
50.18000 172.942
50.19000 180.064
50.20000 184.089
50.21000 185.713
50.22000 187.206
50.23000 183.180
50.24000 176.233
50.25000 169.562
50.26000 171.758
50.27000 176.855
50.28000 181.293
50.29000 179.345
50.30000 175.788
50.31000 172.808
50.32000 173.331
50.33000 174.442
50.34000 175.350
50.35000 179.216
50.36000 182.635
50.37000 185.127
50.38000 185.054
50.39000 184.832
50.40000 185.539
50.41000 188.028
50.42000 190.561
50.43000 192.001
50.44000 186.328
50.45000 182.363
50.46000 185.303
50.47000 194.222
50.48000 203.099
50.49000 209.465
50.50000 214.359
50.51000 219.097
50.52000 219.854
50.53000 219.044
50.54000 218.019
50.55000 214.574
50.56000 210.452
50.57000 207.532
50.58000 212.820
50.59000 219.657
50.60000 225.359
50.61000 227.728
50.62000 229.359
50.63000 231.105
50.64000 233.206
50.65000 235.332
50.66000 237.153
50.67000 238.328
50.68000 239.482
50.69000 240.169
50.70000 242.933
50.71000 244.903
50.72000 247.462
50.73000 250.592
50.74000 253.685
50.75000 253.389
50.76000 250.890
50.77000 248.452
50.78000 250.005
50.79000 253.195
50.80000 256.359
50.81000 259.166
50.82000 261.863
50.83000 263.479
50.84000 256.718
50.85000 248.188
50.86000 240.931
50.87000 241.306
50.88000 242.503
50.89000 243.306
50.90000 242.771
50.91000 242.126
50.92000 239.610
50.93000 232.703
50.94000 225.614
50.95000 221.207
50.96000 222.162
50.97000 222.902
50.98000 222.412
50.99000 220.579
51.00000 218.725
51.01000 213.753
51.02000 206.527
51.03000 199.435
51.04000 194.449
51.05000 190.648
51.06000 187.141
51.07000 188.258
51.08000 190.964
51.09000 193.325
51.10000 192.627
51.11000 191.210
51.12000 189.982
51.13000 189.769
51.14000 189.723
51.15000 190.225
51.16000 192.794
51.17000 195.561
51.18000 196.764
51.19000 193.907
51.20000 190.842
51.21000 188.859
51.22000 187.307
51.23000 186.179
51.24000 185.100
51.25000 184.080
51.26000 183.064
51.27000 183.263
51.28000 184.442
51.29000 185.606
51.30000 181.813
51.31000 175.477
51.32000 169.576
51.33000 171.900
51.34000 177.351
51.35000 182.223
51.36000 181.186
51.37000 178.602
51.38000 176.324
51.39000 175.250
51.40000 174.506
51.41000 173.523
51.42000 171.540
51.43000 169.445
51.44000 168.690
51.45000 171.776
51.46000 175.102
51.47000 177.335
51.48000 178.201
51.49000 178.817
51.50000 178.132
51.51000 175.675
51.52000 173.208
51.53000 170.421
51.54000 167.344
51.55000 164.295
51.56000 164.536
51.57000 166.734
51.58000 168.882
51.59000 169.863
51.60000 170.353
51.61000 170.766
51.62000 170.258
51.63000 169.483
51.64000 168.789
51.65000 168.960
51.66000 169.259
51.67000 168.358
51.68000 161.865
51.69000 154.664
51.70000 149.432
51.71000 150.450
51.72000 151.932
51.73000 152.962
51.74000 157.887
51.75000 161.703
51.76000 164.473
51.77000 165.657
51.78000 166.826
51.79000 169.454
51.80000 173.563
51.81000 177.649
51.82000 173.999
51.83000 165.238
51.84000 156.749
51.85000 156.296
51.86000 159.580
51.87000 162.957
51.88000 167.654
51.89000 172.776
51.90000 177.429
51.91000 166.770
51.92000 154.383
51.93000 144.709
51.94000 149.185
51.95000 155.697
51.96000 159.706
51.97000 154.906
51.98000 149.338
51.99000 145.343
52.00000 158.057
52.01000 168.354
52.02000 173.750
52.03000 170.907
52.04000 167.933
52.05000 166.169
52.06000 165.781
52.07000 165.395
52.08000 166.543
52.09000 168.829
52.10000 171.074
52.11000 171.767
52.12000 171.662
52.13000 171.429
52.14000 169.059
52.15000 165.929
52.16000 163.047
52.17000 163.012
52.18000 163.603
52.19000 163.628
52.20000 160.340
52.21000 156.512
52.22000 153.594
52.23000 154.226
52.24000 155.217
52.25000 155.950
52.26000 158.321
52.27000 160.230
52.28000 161.343
52.29000 160.973
52.30000 160.570
52.31000 158.602
52.32000 154.647
52.33000 150.688
52.34000 153.103
52.35000 160.840
52.36000 168.502
52.37000 172.098
52.38000 173.380
52.39000 174.562
52.40000 173.713
52.41000 172.064
52.42000 170.527
52.43000 169.723
52.44000 169.175
52.45000 168.358
52.46000 165.763
52.47000 162.843
52.48000 160.781
52.49000 162.453
52.50000 164.560
52.51000 166.161
52.52000 162.056
52.53000 158.530
52.54000 155.888
52.55000 155.069
52.56000 154.306
52.57000 155.739
52.58000 160.284
52.59000 164.851
52.60000 168.118
52.61000 170.162
52.62000 172.121
52.63000 167.278
52.64000 158.142
52.65000 149.358
52.66000 149.471
52.67000 153.461
52.68000 157.221
52.69000 159.593
52.70000 161.381
52.71000 162.496
52.72000 158.580
52.73000 153.635
52.74000 149.839
52.75000 151.622
52.76000 154.143
52.77000 156.112
52.78000 163.063
52.79000 168.918
52.80000 169.829
52.81000 159.467
52.82000 148.666
52.83000 144.461
52.84000 150.633
52.85000 156.930
52.86000 160.166
52.87000 162.515
52.88000 164.078
52.89000 163.374
52.90000 161.079
52.91000 158.799
52.92000 156.971
52.93000 155.362
52.94000 153.830
52.95000 152.039
52.96000 150.301
52.97000 149.296
52.98000 154.534
52.99000 161.198
53.00000 167.080
53.01000 168.709
53.02000 169.698
53.03000 170.490
53.04000 168.168
53.05000 166.059
53.06000 164.336
53.07000 163.584
53.08000 162.878
53.09000 162.665
53.10000 163.309
53.11000 163.970
53.12000 164.328
53.13000 159.175
53.14000 155.648
53.15000 155.144
53.16000 157.003
53.17000 158.825
53.18000 159.043
53.19000 158.406
53.20000 157.794
53.21000 159.584
53.22000 162.090
53.23000 164.538
53.24000 166.415
53.25000 168.146
53.26000 169.303
53.27000 166.953
53.28000 164.009
53.29000 161.600
53.30000 159.638
53.31000 158.070
53.32000 157.748
53.33000 160.899
53.34000 164.256
53.35000 166.514
53.36000 166.647
53.37000 166.727
53.38000 166.773
53.39000 160.604
53.40000 156.285
53.41000 155.455
53.42000 157.671
53.43000 159.848
53.44000 159.681
53.45000 158.130
53.46000 156.627
53.47000 155.602
53.48000 154.817
53.49000 154.272
53.50000 156.457
53.51000 159.411
53.52000 161.806
53.53000 160.337
53.54000 158.134
53.55000 156.293
53.56000 153.062
53.57000 150.239
53.58000 149.287
53.59000 154.109
53.60000 159.339
53.61000 162.559
53.62000 161.486
53.63000 160.270
53.64000 159.544
53.65000 157.186
53.66000 155.503
53.67000 153.515
53.68000 151.230
53.69000 148.981
53.70000 150.148
53.71000 153.553
53.72000 156.875
53.73000 160.414
53.74000 163.890
53.75000 167.090
53.76000 166.614
53.77000 164.989
53.78000 163.316
53.79000 161.273
53.80000 159.150
53.81000 157.343
53.82000 157.130
53.83000 157.138
53.84000 157.343
53.85000 158.220
53.86000 159.153
53.87000 159.676
53.88000 159.227
53.89000 158.738
53.90000 158.433
53.91000 152.627
53.92000 148.385
53.93000 149.996
53.94000 158.050
53.95000 166.078
53.96000 169.318
53.97000 169.070
53.98000 168.826
53.99000 169.194
54.00000 169.843
54.01000 170.109
54.02000 164.289
54.03000 156.362
54.04000 149.348
54.05000 150.515
54.06000 153.623
54.07000 156.319
54.08000 152.727
54.09000 148.827
54.10000 147.151
54.11000 153.906
54.12000 161.480
54.13000 165.547
54.14000 160.454
54.15000 154.882
54.16000 151.268
54.17000 155.919
54.18000 159.448
54.19000 161.684
54.20000 162.325
54.21000 162.954
54.22000 160.620
54.23000 155.879
54.24000 151.201
54.25000 152.540
54.26000 157.081
54.27000 161.388
54.28000 161.199
54.29000 159.289
54.30000 157.702
54.31000 159.451
54.32000 162.080
54.33000 164.400
54.34000 161.602
54.35000 158.409
54.36000 155.966
54.37000 156.687
54.38000 157.761
54.39000 157.780
54.40000 154.745
54.41000 151.517
54.42000 149.345
54.43000 154.828
54.44000 159.063
54.45000 160.431
54.46000 157.863
54.47000 155.271
54.48000 151.675
54.49000 147.168
54.50000 142.701
54.51000 143.517
54.52000 147.495
54.53000 151.329
54.54000 151.766
54.55000 150.766
54.56000 149.981
54.57000 151.782
54.58000 154.340
54.59000 156.633
54.60000 153.632
54.61000 150.096
54.62000 148.047
54.63000 152.991
54.64000 158.830
54.65000 162.744
54.66000 160.504
54.67000 157.802
54.68000 155.920
54.69000 159.325
54.70000 162.039
54.71000 162.869
54.72000 160.822
54.73000 158.745
54.74000 158.585
54.75000 160.385
54.76000 162.175
54.77000 161.413
54.78000 158.943
54.79000 156.534
54.80000 155.927
54.81000 156.164
54.82000 156.447
54.83000 157.376
54.84000 158.515
54.85000 159.550
54.86000 157.941
54.87000 156.001
54.88000 154.578
54.89000 155.881
54.90000 157.579
54.91000 159.023
54.92000 159.567
54.93000 160.031
54.94000 160.366
54.95000 160.461
54.96000 160.525
54.97000 158.969
54.98000 154.669
54.99000 150.324
55.00000 147.938
55.01000 147.796
55.02000 147.657
55.03000 150.018
55.04000 154.245
55.05000 158.381
55.06000 158.901
55.07000 157.547
55.08000 156.100
55.09000 153.069
55.10000 149.469
55.11000 146.152
55.12000 156.330
55.13000 168.417
55.14000 178.519
55.15000 176.906
55.16000 173.373
55.17000 170.192
55.18000 168.401
55.19000 166.752
55.20000 165.530
55.21000 156.866
55.22000 149.817
55.23000 147.538
55.24000 154.210
55.25000 161.090
55.26000 164.170
55.27000 162.383
55.28000 160.581
55.29000 163.003
55.30000 168.983
55.31000 174.876
55.32000 175.999
55.33000 174.385
55.34000 172.713
55.35000 169.849
55.36000 166.512
55.37000 163.399
55.38000 167.478
55.39000 172.957
55.40000 177.906
55.41000 179.335
55.42000 180.115
55.43000 180.504
55.44000 179.182
55.45000 177.658
55.46000 176.498
55.47000 176.835
55.48000 177.180
55.49000 179.252
55.50000 184.907
55.51000 190.674
55.52000 194.675
55.53000 196.157
55.54000 197.620
55.55000 200.411
55.56000 204.460
55.57000 208.510
55.58000 212.620
55.59000 216.770
55.60000 220.770
55.61000 220.921
55.62000 219.382
55.63000 217.931
55.64000 225.733
55.65000 235.456
55.66000 244.132
55.67000 244.908
55.68000 244.056
55.69000 245.050
55.70000 255.078
55.71000 266.315
55.72000 275.101
55.73000 280.360
55.74000 284.334
55.75000 291.115
55.76000 304.341
55.77000 317.821
55.78000 328.538
55.79000 334.873
55.80000 341.152
55.81000 344.391
55.82000 366.314
55.83000 381.072
55.84000 394.003
55.85000 405.643
55.86000 417.391
55.87000 432.731
55.88000 449.815
55.89000 466.091
55.90000 468.395
55.91000 466.175
55.92000 465.429
55.93000 477.367
55.94000 492.224
55.95000 504.996
55.96000 506.355
55.97000 505.982
55.98000 505.684
55.99000 519.030
56.00000 530.852
56.01000 538.672
56.02000 536.329
56.03000 533.487
56.04000 528.066
56.05000 518.115
56.06000 508.079
56.07000 502.614
56.08000 493.125
56.09000 486.623
56.10000 484.821
56.11000 486.718
56.12000 488.274
56.13000 474.717
56.14000 453.044
56.15000 432.207
56.16000 423.511
56.17000 419.595
56.18000 414.621
56.19000 399.172
56.20000 381.041
56.21000 363.942
56.22000 353.204
56.23000 343.553
56.24000 335.648
56.25000 329.138
56.26000 323.923
56.27000 317.053
56.28000 305.532
56.29000 293.734
56.30000 283.662
56.31000 276.949
56.32000 270.324
56.33000 266.532
56.34000 261.608
56.35000 258.166
56.36000 254.752
56.37000 251.361
56.38000 247.962
56.39000 244.052
56.40000 239.838
56.41000 235.754
56.42000 230.405
56.43000 224.848
56.44000 219.273
56.45000 213.501
56.46000 207.673
56.47000 201.664
56.48000 194.402
56.49000 186.899
56.50000 180.622
56.51000 182.331
56.52000 184.568
56.53000 186.421
56.54000 187.087
56.55000 187.667
56.56000 187.758
56.57000 186.794
56.58000 185.796
56.59000 185.197
56.60000 178.193
56.61000 173.178
56.62000 172.444
56.63000 175.939
56.64000 179.392
56.65000 178.717
56.66000 175.317
56.67000 171.998
56.68000 172.719
56.69000 175.167
56.70000 177.473
56.71000 177.862
56.72000 177.649
56.73000 177.343
56.74000 176.314
56.75000 175.130
56.76000 174.119
56.77000 172.672
56.78000 171.401
56.79000 169.854
56.80000 167.354
56.81000 164.773
56.82000 162.140
56.83000 159.381
56.84000 156.616
56.85000 154.887
56.86000 148.930
56.87000 144.587
56.88000 145.542
56.89000 152.376
56.90000 159.186
56.91000 161.051
56.92000 159.285
56.93000 157.551
56.94000 153.124
56.95000 147.543
56.96000 142.452
56.97000 145.259
56.98000 150.819
56.99000 155.574
57.00000 153.048
57.01000 148.781
57.02000 145.075
57.03000 143.872
57.04000 143.183
57.05000 142.920
57.06000 144.285
57.07000 145.808
57.08000 146.029
57.09000 142.823
57.10000 139.435
57.11000 137.231
57.12000 144.887
57.13000 150.651
57.14000 155.885
57.15000 160.463
57.16000 165.022
57.17000 162.758
57.18000 154.907
57.19000 147.156
57.20000 144.921
57.21000 145.737
57.22000 146.579
57.23000 147.912
57.24000 149.436
57.25000 150.655
57.26000 148.697
57.27000 145.895
57.28000 143.419
57.29000 150.142
57.30000 157.362
57.31000 162.039
57.32000 155.906
57.33000 148.553
57.34000 141.563
57.35000 135.633
57.36000 129.770
57.37000 125.813
57.38000 135.579
57.39000 143.138
57.40000 148.603
57.41000 151.170
57.42000 153.718
57.43000 152.580
57.44000 148.064
57.45000 143.587
57.46000 141.714
57.47000 141.455
57.48000 141.331
57.49000 144.472
57.50000 149.006
57.51000 153.139
57.52000 152.405
57.53000 150.236
57.54000 148.289
57.55000 149.385
57.56000 150.875
57.57000 151.818
57.58000 150.171
57.59000 148.190
57.60000 147.219
57.61000 149.505
57.62000 152.038
57.63000 153.806
57.64000 154.980
57.65000 155.850
57.66000 153.850
57.67000 147.436
57.68000 140.973
57.69000 138.889
57.70000 141.314
57.71000 143.728
57.72000 142.451
57.73000 138.689
57.74000 135.007
57.75000 133.767
57.76000 133.678
57.77000 133.942
57.78000 139.247
57.79000 146.199
57.80000 152.528
57.81000 151.596
57.82000 149.339
57.83000 147.257
57.84000 146.104
57.85000 145.086
57.86000 144.637
57.87000 146.224
57.88000 147.992
57.89000 149.266
57.90000 143.739
57.91000 139.262
57.92000 138.782
57.93000 145.125
57.94000 151.583
57.95000 152.265
57.96000 146.275
57.97000 140.291
57.98000 136.741
57.99000 135.060
58.00000 133.438
58.01000 134.183
58.02000 136.164
58.03000 138.120
58.04000 139.662
58.05000 141.053
58.06000 142.337
58.07000 145.035
58.08000 147.767
58.09000 149.913
58.10000 148.574
58.11000 146.659
58.12000 144.596
58.13000 141.944
58.14000 139.231
58.15000 137.217
58.16000 135.414
58.17000 134.022
58.18000 134.597
58.19000 138.888
58.20000 143.268
58.21000 143.564
58.22000 138.590
58.23000 133.599
58.24000 132.006
58.25000 133.307
58.26000 134.640
58.27000 137.792
58.28000 141.995
58.29000 146.115
58.30000 148.510
58.31000 150.216
58.32000 151.808
58.33000 148.710
58.34000 144.729
58.35000 140.984
58.36000 138.825
58.37000 136.960
58.38000 135.675
58.39000 136.949
58.40000 138.526
58.41000 139.730
58.42000 139.276
58.43000 138.829
58.44000 139.630
58.45000 143.043
58.46000 146.538
58.47000 148.367
58.48000 147.801
58.49000 147.216
58.50000 146.825
58.51000 146.619
58.52000 146.417
58.53000 146.583
58.54000 146.985
58.55000 147.339
58.56000 146.450
58.57000 145.013
58.58000 143.656
58.59000 143.816
58.60000 144.388
58.61000 144.765
58.62000 143.656
58.63000 142.238
58.64000 141.067
58.65000 141.114
58.66000 141.325
58.67000 141.491
58.68000 140.191
58.69000 139.057
58.70000 138.386
58.71000 138.783
58.72000 139.223
58.73000 137.570
58.74000 132.576
58.75000 127.538
58.76000 124.929
58.77000 133.467
58.78000 139.214
58.79000 142.825
58.80000 144.914
58.81000 146.920
58.82000 146.146
58.83000 144.012
58.84000 141.978
58.85000 138.850
58.86000 135.605
58.87000 132.754
58.88000 133.323
58.89000 134.686
58.90000 136.028
58.91000 137.263
58.92000 138.481
58.93000 139.458
58.94000 140.231
58.95000 140.840
58.96000 140.909
58.97000 139.596
58.98000 138.214
58.99000 137.081
59.00000 136.389
59.01000 135.705
59.02000 135.332
59.03000 132.867
59.04000 131.178
59.05000 131.667
59.06000 133.884
59.07000 136.097
59.08000 138.106
59.09000 140.004
59.10000 141.831
59.11000 139.155
59.12000 135.064
59.13000 131.633
59.14000 134.800
59.15000 139.670
59.16000 143.673
59.17000 142.294
59.18000 139.986
59.19000 138.093
59.20000 137.094
59.21000 136.354
59.22000 135.784
59.23000 135.696
59.24000 135.637
59.25000 135.743
59.26000 136.175
59.27000 136.615
59.28000 136.868
59.29000 143.260
59.30000 147.747
59.31000 146.240
59.32000 139.416
59.33000 132.672
59.34000 131.163
59.35000 132.790
59.36000 134.369
59.37000 135.215
59.38000 135.729
59.39000 136.107
59.40000 134.907
59.41000 133.255
59.42000 131.785
59.43000 131.588
59.44000 131.638
59.45000 131.679
59.46000 131.510
59.47000 131.348
59.48000 131.156
59.49000 130.872
59.50000 130.581
59.51000 129.843
59.52000 128.136
59.53000 126.395
59.54000 125.348
59.55000 130.389
59.56000 134.015
59.57000 135.784
59.58000 135.704
59.59000 135.642
59.60000 137.416
59.61000 140.411
59.62000 143.335
59.63000 140.826
59.64000 136.043
59.65000 131.650
59.66000 132.590
59.67000 135.222
59.68000 137.518
59.69000 137.130
59.70000 136.161
59.71000 135.333
59.72000 135.661
59.73000 136.074
59.74000 136.874
59.75000 139.019
59.76000 141.277
59.77000 141.625
59.78000 137.392
59.79000 132.959
59.80000 130.178
59.81000 131.522
59.82000 132.538
59.83000 134.169
59.84000 136.489
59.85000 138.796
59.86000 138.554
59.87000 136.425
59.88000 134.334
59.89000 134.347
59.90000 135.389
59.91000 136.275
59.92000 134.599
59.93000 132.025
59.94000 129.850
59.95000 131.327
59.96000 133.684
59.97000 135.734
59.98000 140.168
59.99000 144.277
60.00000 147.108
60.01000 145.022
60.02000 142.450
60.03000 140.215
60.04000 138.878
60.05000 137.588
60.06000 136.747
60.07000 134.618
60.08000 133.035
60.09000 132.129
60.10000 132.069
60.11000 132.011
60.12000 131.473
60.13000 130.540
60.14000 129.618
60.15000 130.284
60.16000 131.802
60.17000 133.151
60.18000 131.179
60.19000 127.917
60.20000 125.300
60.21000 129.496
60.22000 135.516
60.23000 140.841
60.24000 139.623
60.25000 137.554
60.26000 135.613
60.27000 134.222
60.28000 132.893
60.29000 132.384
60.30000 134.278
60.31000 136.328
60.32000 137.715
60.33000 135.683
60.34000 134.094
60.35000 132.226
60.36000 129.969
60.37000 127.709
60.38000 125.427
60.39000 123.126
60.40000 120.844
60.41000 121.855
60.42000 124.861
60.43000 127.853
60.44000 130.523
60.45000 133.055
60.46000 135.397
60.47000 135.402
60.48000 134.712
60.49000 134.093
60.50000 134.814
60.51000 135.682
60.52000 136.764
60.53000 138.873
60.54000 141.117
60.55000 142.460
60.56000 140.879
60.57000 139.074
60.58000 137.810
60.59000 136.692
60.60000 135.851
60.61000 133.109
60.62000 127.420
60.63000 121.698
60.64000 121.590
60.65000 127.315
60.66000 133.012
60.67000 133.879
60.68000 131.438
60.69000 129.045
60.70000 128.156
60.71000 127.983
60.72000 128.013
60.73000 130.998
60.74000 134.956
60.75000 138.561
60.76000 141.501
60.77000 143.973
60.78000 145.851
60.79000 144.558
60.80000 142.796
60.81000 141.145
60.82000 139.894
60.83000 138.679
60.84000 137.802
60.85000 134.452
60.86000 131.794
60.87000 130.593
60.88000 131.896
60.89000 133.242
60.90000 132.701
60.91000 129.962
60.92000 127.226
60.93000 129.266
60.94000 134.947
60.95000 140.532
60.96000 142.172
60.97000 141.740
60.98000 141.097
60.99000 136.785
61.00000 131.138
61.01000 125.924
61.02000 129.099
61.03000 133.828
61.04000 138.194
61.05000 140.387
61.06000 142.217
61.07000 143.197
61.08000 140.776
61.09000 138.001
61.10000 135.936
61.11000 137.269
61.12000 138.457
61.13000 138.853
61.14000 137.742
61.15000 136.594
61.16000 134.586
61.17000 131.461
61.18000 128.333
61.19000 126.477
61.20000 125.717
61.21000 125.013
61.22000 127.557
61.23000 131.991
61.24000 136.296
61.25000 137.856
61.26000 138.312
61.27000 138.737
61.28000 136.615
61.29000 134.048
61.30000 131.721
61.31000 131.023
61.32000 130.631
61.33000 131.343
61.34000 136.976
61.35000 143.197
61.36000 147.954
61.37000 142.463
61.38000 137.575
61.39000 132.686
61.40000 127.799
61.41000 122.911
61.42000 122.988
61.43000 130.254
61.44000 137.579
61.45000 141.215
61.46000 141.296
61.47000 141.408
61.48000 144.267
61.49000 148.898
61.50000 153.505
61.51000 157.486
61.52000 161.188
61.53000 164.684
61.54000 174.483
61.55000 185.258
61.56000 195.540
61.57000 202.026
61.58000 207.716
61.59000 214.266
61.60000 225.090
61.61000 236.497
61.62000 245.446
61.63000 258.196
61.64000 268.640
61.65000 276.990
61.66000 280.463
61.67000 283.736
61.68000 286.437
61.69000 288.218
61.70000 289.986
61.71000 290.906
61.72000 286.006
61.73000 282.696
61.74000 279.432
61.75000 276.202
61.76000 272.949
61.77000 268.919
61.78000 264.507
61.79000 260.297
61.80000 244.394
61.81000 225.930
61.82000 207.803
61.83000 192.641
61.84000 178.171
61.85000 165.224
61.86000 160.762
61.87000 157.609
61.88000 155.075
61.89000 155.694
61.90000 156.438
61.91000 156.476
61.92000 154.698
61.93000 152.828
61.94000 150.950
61.95000 149.060
61.96000 147.169
61.97000 146.132
61.98000 142.876
61.99000 140.636
62.00000 139.495
62.01000 139.233
62.02000 138.963
62.03000 138.338
62.04000 137.520
62.05000 136.732
62.06000 134.847
62.07000 132.690
62.08000 130.867
62.09000 132.423
62.10000 134.857
62.11000 137.150
62.12000 138.562
62.13000 139.821
62.14000 140.856
62.15000 139.226
62.16000 137.646
62.17000 137.180
62.18000 139.883
62.19000 142.781
62.20000 144.222
62.21000 142.786
62.22000 141.272
62.23000 140.400
62.24000 141.715
62.25000 142.643
62.26000 142.510
62.27000 141.428
62.28000 140.342
62.29000 138.974
62.30000 137.435
62.31000 135.942
62.32000 139.042
62.33000 143.799
62.34000 148.012
62.35000 145.827
62.36000 141.797
62.37000 138.607
62.38000 141.364
62.39000 145.281
62.40000 148.567
62.41000 143.529
62.42000 138.467
62.43000 135.820
62.44000 140.787
62.45000 146.313
62.46000 150.103
62.47000 150.104
62.48000 149.973
62.49000 149.893
62.50000 147.626
62.51000 145.997
62.52000 144.982
62.53000 144.583
62.54000 144.187
62.55000 144.010
62.56000 143.980
62.57000 143.951
62.58000 141.171
62.59000 137.293
62.60000 133.847
62.61000 136.368
62.62000 140.795
62.63000 144.991
62.64000 147.332
62.65000 149.267
62.66000 150.923
62.67000 148.246
62.68000 145.469
62.69000 143.363
62.70000 143.608
62.71000 144.055
62.72000 145.131
62.73000 147.726
62.74000 150.389
62.75000 152.064
62.76000 150.484
62.77000 149.304
62.78000 148.476
62.79000 148.044
62.80000 147.619
62.81000 148.768
62.82000 151.089
62.83000 153.370
62.84000 153.769
62.85000 153.226
62.86000 152.578
62.87000 150.185
62.88000 147.176
62.89000 144.147
62.90000 140.942
62.91000 137.694
62.92000 134.865
62.93000 140.647
62.94000 146.771
62.95000 151.269
62.96000 149.460
62.97000 147.020
62.98000 145.799
62.99000 147.831
63.00000 150.040
63.01000 151.485
63.02000 154.468
63.03000 156.685
63.04000 155.739
63.05000 150.805
63.06000 145.866
63.07000 144.385
63.08000 145.783
63.09000 147.163
63.10000 147.222
63.11000 146.550
63.12000 146.060
63.13000 149.212
63.14000 153.788
63.15000 157.608
63.16000 153.362
63.17000 146.940
63.18000 141.255
63.19000 143.607
63.20000 146.902
63.21000 149.491
63.22000 149.032
63.23000 148.222
63.24000 147.335
63.25000 146.220
63.26000 145.089
63.27000 144.322
63.28000 153.295
63.29000 160.203
63.30000 161.222
63.31000 153.967
63.32000 146.655
63.33000 143.841
63.34000 145.216
63.35000 146.581
63.36000 144.893
63.37000 141.355
63.38000 138.094
63.39000 141.755
63.40000 148.410
63.41000 154.543
63.42000 154.191
63.43000 151.897
63.44000 149.834
63.45000 150.277
63.46000 151.110
63.47000 151.220
63.48000 147.855
63.49000 144.032
63.50000 141.017
63.51000 140.646
63.52000 140.481
63.53000 140.365
63.54000 150.856
63.55000 159.104
63.56000 162.022
63.57000 156.618
63.58000 151.116
63.59000 147.948
63.60000 147.225
63.61000 146.506
63.62000 145.001
63.63000 142.973
63.64000 141.055
63.65000 142.656
63.66000 145.941
63.67000 149.098
63.68000 150.378
63.69000 151.037
63.70000 151.637
63.71000 150.346
63.72000 148.821
63.73000 147.315
63.74000 145.913
63.75000 144.527
63.76000 143.730
63.77000 145.072
63.78000 146.609
63.79000 147.721
63.80000 150.532
63.81000 152.753
63.82000 153.202
63.83000 150.582
63.84000 147.908
63.85000 148.208
63.86000 152.000
63.87000 155.789
63.88000 157.166
63.89000 156.674
63.90000 156.226
63.91000 157.617
63.92000 159.981
63.93000 162.212
63.94000 162.100
63.95000 161.128
63.96000 160.231
63.97000 159.040
63.98000 157.906
63.99000 157.431
64.00000 160.953
64.01000 165.147
64.02000 167.763
64.03000 164.021
64.04000 159.609
64.05000 156.320
64.06000 152.128
64.07000 148.822
64.08000 148.663
64.09000 154.536
64.10000 160.559
64.11000 162.345
64.12000 158.576
64.13000 154.785
64.14000 154.903
64.15000 158.398
64.16000 161.851
64.17000 162.726
64.18000 162.089
64.19000 161.478
64.20000 161.439
64.21000 161.631
64.22000 161.810
64.23000 163.298
64.24000 164.982
64.25000 166.648
64.26000 168.187
64.27000 169.703
64.28000 171.304
64.29000 173.283
64.30000 175.309
64.31000 176.861
64.32000 171.050
64.33000 166.056
64.34000 163.664
64.35000 166.793
64.36000 170.103
64.37000 172.389
64.38000 173.180
64.39000 173.959
64.40000 174.511
64.41000 174.841
64.42000 175.187
64.43000 176.905
64.44000 179.516
64.45000 181.961
64.46000 179.896
64.47000 175.808
64.48000 171.943
64.49000 169.236
64.50000 167.080
64.51000 165.136
64.52000 164.842
64.53000 164.897
64.54000 165.330
64.55000 167.655
64.56000 170.240
64.57000 172.272
64.58000 165.985
64.59000 160.404
64.60000 156.823
64.61000 157.934
64.62000 159.240
64.63000 160.364
64.64000 161.194
64.65000 162.019
64.66000 162.450
64.67000 167.282
64.68000 170.551
64.69000 173.613
64.70000 176.526
64.71000 179.404
64.72000 181.042
64.73000 182.066
64.74000 183.042
64.75000 182.542
64.76000 181.606
64.77000 180.888
64.78000 182.097
64.79000 183.762
64.80000 184.472
64.81000 179.832
64.82000 174.359
64.83000 169.954
64.84000 173.429
64.85000 176.863
64.86000 179.829
64.87000 181.583
64.88000 183.275
64.89000 183.055
64.90000 179.402
64.91000 175.681
64.92000 173.632
64.93000 179.956
64.94000 184.317
64.95000 185.490
64.96000 184.093
64.97000 182.740
64.98000 183.475
64.99000 185.357
65.00000 187.169
65.01000 191.004
65.02000 195.327
65.03000 199.379
65.04000 200.659
65.05000 201.213
65.06000 202.311
65.07000 206.845
65.08000 211.981
65.09000 216.209
65.10000 215.816
65.11000 215.072
65.12000 214.686
65.13000 215.326
65.14000 216.031
65.15000 215.710
65.16000 213.352
65.17000 210.937
65.18000 209.541
65.19000 214.446
65.20000 217.910
65.21000 221.847
65.22000 226.210
65.23000 230.556
65.24000 233.776
65.25000 236.311
65.26000 238.771
65.27000 241.416
65.28000 244.000
65.29000 246.575
65.30000 249.062
65.31000 251.524
65.32000 253.979
65.33000 256.387
65.34000 258.787
65.35000 260.803
65.36000 263.652
65.37000 266.113
65.38000 271.182
65.39000 284.531
65.40000 298.494
65.41000 309.564
65.42000 314.269
65.43000 318.746
65.44000 321.454
65.45000 331.965
65.46000 339.513
65.47000 345.959
65.48000 351.288
65.49000 356.598
65.50000 359.803
65.51000 361.585
65.52000 363.327
65.53000 374.591
65.54000 389.627
65.55000 403.662
65.56000 403.676
65.57000 399.175
65.58000 395.660
65.59000 400.157
65.60000 406.413
65.61000 411.771
65.62000 418.476
65.63000 424.298
65.64000 433.200
65.65000 452.943
65.66000 473.629
65.67000 492.656
65.68000 507.648
65.69000 522.457
65.70000 531.799
65.71000 588.031
65.72000 629.290
65.73000 676.075
65.74000 729.141
65.75000 782.192
65.76000 830.952
65.77000 876.486
65.78000 921.260
65.79000 967.767
65.80000 1013.613
65.81000 1058.149
65.82000 1080.791
65.83000 1095.630
65.84000 1110.338
65.85000 1123.824
65.86000 1137.012
65.87000 1148.510
65.88000 1143.898
65.89000 1137.717
65.90000 1132.083
65.91000 1128.582
65.92000 1125.297
65.93000 1110.685
65.94000 1065.605
65.95000 1018.845
65.96000 988.179
65.97000 906.274
65.98000 845.188
65.99000 780.483
66.00000 711.179
66.01000 641.877
66.02000 582.654
66.03000 531.885
66.04000 481.710
66.05000 449.054
66.06000 426.929
66.07000 404.944
66.08000 385.836
66.09000 367.861
66.10000 350.784
66.11000 343.395
66.12000 338.639
66.13000 334.423
66.14000 331.490
66.15000 329.154
66.16000 326.247
66.17000 320.858
66.18000 315.180
66.19000 309.711
66.20000 304.862
66.21000 300.054
66.22000 296.785
66.23000 312.259
66.24000 324.235
66.25000 335.577
66.26000 346.020
66.27000 356.456
66.28000 360.183
66.29000 357.605
66.30000 355.047
66.31000 362.858
66.32000 376.970
66.33000 391.247
66.34000 409.706
66.35000 429.986
66.36000 449.296
66.37000 456.396
66.38000 459.815
66.39000 462.892
66.40000 453.658
66.41000 443.356
66.42000 434.853
66.43000 435.081
66.44000 436.467
66.45000 437.961
66.46000 439.811
66.47000 441.689
66.48000 443.009
66.49000 439.078
66.50000 435.944
66.51000 429.362
66.52000 417.354
66.53000 405.279
66.54000 391.975
66.55000 377.371
66.56000 362.831
66.57000 354.870
66.58000 351.559
66.59000 348.189
66.60000 342.873
66.61000 336.620
66.62000 330.399
66.63000 324.667
66.64000 319.097
66.65000 314.012
66.66000 309.793
66.67000 306.225
66.68000 304.560
66.69000 313.234
66.70000 323.463
66.71000 331.582
66.72000 331.993
66.73000 331.696
66.74000 331.481
66.75000 334.697
66.76000 337.296
66.77000 338.264
66.78000 336.386
66.79000 334.455
66.80000 334.315
66.81000 336.293
66.82000 338.271
66.83000 333.884
66.84000 324.573
66.85000 315.429
66.86000 313.535
66.87000 315.508
66.88000 317.742
66.89000 324.653
66.90000 333.292
66.91000 341.281
66.92000 341.558
66.93000 340.048
66.94000 338.865
66.95000 339.686
66.96000 340.846
66.97000 344.091
66.98000 355.800
66.99000 368.408
67.00000 377.826
67.01000 372.007
67.02000 366.770
67.03000 364.023
67.04000 366.089
67.05000 368.277
67.06000 366.756
67.07000 360.335
67.08000 353.894
67.09000 352.971
67.10000 356.858
67.11000 360.746
67.12000 364.664
67.13000 368.601
67.14000 372.395
67.15000 373.072
67.16000 372.475
67.17000 371.916
67.18000 374.581
67.19000 377.829
67.20000 380.625
67.21000 380.307
67.22000 379.396
67.23000 378.873
67.24000 380.105
67.25000 381.551
67.26000 382.662
67.27000 378.424
67.28000 374.776
67.29000 375.954
67.30000 387.444
67.31000 399.278
67.32000 403.699
67.33000 397.220
67.34000 390.645
67.35000 387.230
67.36000 386.911
67.37000 386.643
67.38000 391.038
67.39000 398.491
67.40000 405.739
67.41000 407.333
67.42000 406.373
67.43000 405.464
67.44000 409.401
67.45000 414.413
67.46000 418.225
67.47000 412.631
67.48000 405.036
67.49000 400.482
67.50000 411.288
67.51000 424.227
67.52000 434.415
67.53000 441.804
67.54000 447.538
67.55000 449.522
67.56000 442.640
67.57000 435.385
67.58000 431.742
67.59000 433.997
67.60000 436.335
67.61000 437.561
67.62000 434.270
67.63000 432.080
67.64000 436.709
67.65000 446.307
67.66000 455.760
67.67000 459.974
67.68000 461.573
67.69000 463.099
67.70000 464.899
67.71000 466.659
67.72000 468.680
67.73000 473.036
67.74000 477.947
67.75000 482.119
67.76000 482.116
67.77000 481.457
67.78000 480.925
67.79000 483.244
67.80000 485.352
67.81000 488.199
67.82000 492.980
67.83000 497.861
67.84000 501.242
67.85000 501.908
67.86000 502.517
67.87000 502.854
67.88000 499.929
67.89000 497.919
67.90000 500.981
67.91000 508.164
67.92000 515.236
67.93000 516.906
67.94000 515.588
67.95000 514.318
67.96000 519.249
67.97000 526.115
67.98000 532.794
67.99000 537.552
68.00000 541.802
68.01000 546.055
68.02000 550.331
68.03000 554.611
68.04000 558.138
68.05000 559.411
68.06000 560.250
68.07000 561.594
68.08000 564.393
68.09000 567.284
68.10000 572.358
68.11000 581.802
68.12000 591.369
68.13000 596.919
68.14000 590.526
68.15000 585.988
68.16000 582.001
68.17000 578.513
68.18000 575.153
68.19000 580.745
68.20000 591.824
68.21000 602.584
68.22000 600.878
68.23000 594.245
68.24000 588.488
68.25000 593.266
68.26000 601.129
68.27000 609.334
68.28000 620.012
68.29000 631.181
68.30000 640.577
68.31000 640.006
68.32000 638.468
68.33000 641.261
68.34000 657.914
68.35000 675.606
68.36000 688.031
68.37000 688.784
68.38000 689.114
68.39000 689.313
68.40000 687.783
68.41000 686.679
68.42000 697.994
68.43000 721.999
68.44000 745.926
68.45000 760.954
68.46000 769.927
68.47000 778.701
68.48000 780.996
68.49000 780.287
68.50000 780.382
68.51000 791.883
68.52000 807.082
68.53000 823.598
68.54000 850.918
68.55000 880.629
68.56000 906.109
68.57000 916.833
68.58000 924.082
68.59000 936.866
68.60000 969.280
68.61000 1003.421
68.62000 1038.980
68.63000 1078.010
68.64000 1117.199
68.65000 1141.990
68.66000 1208.842
68.67000 1257.806
68.68000 1314.226
68.69000 1379.193
68.70000 1444.150
68.71000 1504.717
68.72000 1561.961
68.73000 1618.271
68.74000 1668.052
68.75000 1712.961
68.76000 1758.484
68.77000 1814.421
68.78000 1874.096
68.79000 1933.752
68.80000 1993.236
68.81000 2052.677
68.82000 2104.565
68.83000 2214.147
68.84000 2316.000
68.85000 2434.330
68.86000 2617.555
68.87000 2807.406
68.88000 3030.975
68.89000 3345.887
68.90000 3665.912
68.91000 3876.344
68.92000 5107.432
68.93000 6031.163
68.94000 7587.441
68.95000 9954.002
68.96000 12325.130
68.97000 15594.804
68.98000 19624.172
68.99000 23607.572
69.00000 28509.117
69.01000 33807.520
69.02000 39069.996
69.03000 43590.688
69.04000 47816.922
69.05000 51903.848
69.06000 54473.516
69.07000 56627.648
69.08000 58539.262
69.09000 59306.699
69.10000 59789.016
69.11000 60273.039
69.12000 60764.551
69.13000 61256.945
69.14000 61832.563
69.15000 62657.613
69.16000 63499.438
69.17000 64073.230
69.18000 64520.000
69.19000 64850.969
69.20000 64345.109
69.21000 62645.297
69.22000 60936.285
69.23000 58358.672
69.24000 54958.105
69.25000 51582.625
69.26000 48202.438
69.27000 44875.023
69.28000 41584.523
69.29000 39244.559
69.30000 37321.781
69.31000 35446.098
69.32000 34170.059
69.33000 33076.133
69.34000 32090.484
69.35000 31280.379
69.36000 30601.400
69.37000 29832.699
69.38000 28625.119
69.39000 27358.791
69.40000 25876.475
69.41000 23677.180
69.42000 21420.854
69.43000 19830.617
69.44000 16437.389
69.45000 13809.870
69.46000 11457.032
69.47000 9539.581
69.48000 7627.612
69.49000 6160.313
69.50000 5166.661
69.51000 4177.317
69.52000 3499.701
69.53000 3047.025
69.54000 2599.609
69.55000 2326.280
69.56000 2137.450
69.57000 1951.898
69.58000 1815.785
69.59000 1696.300
69.60000 1587.120
69.61000 1501.507
69.62000 1430.286
69.63000 1363.711
69.64000 1322.580
69.65000 1285.309
69.66000 1246.314
69.67000 1200.969
69.68000 1155.035
69.69000 1121.636
69.70000 1092.121
69.71000 1069.560
69.72000 1044.658
69.73000 1015.641
69.74000 986.548
69.75000 961.655
69.76000 941.776
69.77000 921.945
69.78000 908.677
69.79000 900.618
69.80000 892.437
69.81000 878.876
69.82000 862.425
69.83000 846.137
69.84000 832.806
69.85000 820.575
69.86000 809.253
69.87000 792.103
69.88000 775.346
69.89000 759.369
69.90000 748.199
69.91000 737.851
69.92000 729.898
69.93000 731.747
69.94000 734.648
69.95000 736.819
69.96000 732.775
69.97000 729.329
69.98000 722.591
69.99000 709.448
70.00000 696.139
