20.00000 563.224
20.01000 565.775
20.02000 568.690
20.03000 570.407
20.04000 567.337
20.05000 563.768
20.06000 561.113
20.07000 562.044
20.08000 562.928
20.09000 563.900
20.10000 565.040
20.11000 566.183
20.12000 564.028
20.13000 557.585
20.14000 551.128
20.15000 545.270
20.16000 539.936
20.17000 534.768
20.18000 539.239
20.19000 549.317
20.20000 559.284
20.21000 566.896
20.22000 573.561
20.23000 579.788
20.24000 580.713
20.25000 580.216
20.26000 579.259
20.27000 575.181
20.28000 570.520
20.29000 566.119
20.30000 562.881
20.31000 559.783
20.32000 557.413
20.33000 555.071
20.34000 553.226
20.35000 549.972
20.36000 543.753
20.37000 537.440
20.38000 534.504
20.39000 536.461
20.40000 538.458
20.41000 542.922
20.42000 549.760
20.43000 556.517
20.44000 556.235
20.45000 551.410
20.46000 546.849
20.47000 549.294
20.48000 554.857
20.49000 560.112
20.50000 555.781
20.51000 549.096
20.52000 543.272
20.53000 544.062
20.54000 546.239
20.55000 549.300
20.56000 556.761
20.57000 564.821
20.58000 571.144
20.59000 559.517
20.60000 549.052
20.61000 544.047
20.62000 551.758
20.63000 559.989
20.64000 563.179
20.65000 558.263
20.66000 553.239
20.67000 550.627
20.68000 546.031
20.69000 542.965
20.70000 545.696
20.71000 552.585
20.72000 559.331
20.73000 561.134
20.74000 560.504
20.75000 559.902
20.76000 555.216
20.77000 549.573
20.78000 544.705
20.79000 546.638
20.80000 550.160
20.81000 553.037
20.82000 552.324
20.83000 551.058
20.84000 550.040
20.85000 548.021
20.86000 546.308
20.87000 545.711
20.88000 547.989
20.89000 550.413
20.90000 552.009
20.91000 552.131
20.92000 552.223
20.93000 552.274
20.94000 558.972
20.95000 563.569
20.96000 560.902
20.97000 552.429
20.98000 544.181
20.99000 546.374
21.00000 554.255
21.01000 561.841
21.02000 561.171
21.03000 557.619
21.04000 554.703
21.05000 558.217
21.06000 563.401
21.07000 566.830
21.08000 559.268
21.09000 549.797
21.10000 542.015
21.11000 546.063
21.12000 550.452
21.13000 552.300
21.14000 546.909
21.15000 541.074
21.16000 538.914
21.17000 544.006
21.18000 549.294
21.19000 552.340
21.20000 559.049
21.21000 563.753
21.22000 560.733
21.23000 550.807
21.24000 541.109
21.25000 546.580
21.26000 561.208
21.27000 575.401
21.28000 575.624
21.29000 570.308
21.30000 565.242
21.31000 563.102
21.32000 561.806
21.33000 560.627
21.34000 560.277
21.35000 560.090
21.36000 559.932
21.37000 552.876
21.38000 546.284
21.39000 541.447
21.40000 542.144
21.41000 543.247
21.42000 544.653
21.43000 546.720
21.44000 548.810
21.45000 550.070
21.46000 542.788
21.47000 537.545
21.48000 542.909
21.49000 558.925
21.50000 574.780
21.51000 573.772
21.52000 561.464
21.53000 549.439
21.54000 542.835
21.55000 538.907
21.56000 535.308
21.57000 536.278
21.58000 538.707
21.59000 541.545
21.60000 547.680
21.61000 554.533
21.62000 560.394
21.63000 562.136
21.64000 563.108
21.65000 564.332
21.66000 566.431
21.67000 568.605
21.68000 569.082
21.69000 565.462
21.70000 561.661
21.71000 559.270
21.72000 560.174
21.73000 560.864
21.74000 561.153
21.75000 560.987
21.76000 560.850
21.77000 566.086
21.78000 575.327
21.79000 584.411
21.80000 585.480
21.81000 582.560
21.82000 580.180
21.83000 586.700
21.84000 596.368
21.85000 604.994
21.86000 604.020
21.87000 600.716
21.88000 597.839
21.89000 606.560
21.90000 615.604
21.91000 624.883
21.92000 635.072
21.93000 645.352
21.94000 652.468
21.95000 651.138
21.96000 649.349
21.97000 648.179
21.98000 639.445
21.99000 632.907
22.00000 637.896
22.01000 657.417
22.02000 676.970
22.03000 689.164
22.04000 695.235
22.05000 701.233
22.06000 698.884
22.07000 691.996
22.08000 685.548
22.09000 687.940
22.10000 693.789
22.11000 698.635
22.12000 692.803
22.13000 684.090
22.14000 676.376
22.15000 690.067
22.16000 705.261
22.17000 715.697
22.18000 705.600
22.19000 693.141
22.20000 680.959
22.21000 669.597
22.22000 658.289
22.23000 650.621
22.24000 658.004
22.25000 663.843
22.26000 659.022
22.27000 639.228
22.28000 619.334
22.29000 613.279
22.30000 620.115
22.31000 626.898
22.32000 628.022
22.33000 625.643
22.34000 623.455
22.35000 626.007
22.36000 630.609
22.37000 634.233
22.38000 625.682
22.39000 613.490
22.40000 602.528
22.41000 596.331
22.42000 591.751
22.43000 586.974
22.44000 581.248
22.45000 575.399
22.46000 569.071
22.47000 561.179
22.48000 553.166
22.49000 547.545
22.50000 550.776
22.51000 553.476
22.52000 553.435
22.53000 549.114
22.54000 544.742
22.55000 537.703
22.56000 527.871
22.57000 518.084
22.58000 524.071
22.59000 540.849
22.60000 557.173
22.61000 559.062
22.62000 554.047
22.63000 548.832
22.64000 540.681
22.65000 531.556
22.66000 523.235
22.67000 520.843
22.68000 519.912
22.69000 520.063
22.70000 526.036
22.71000 532.877
22.72000 539.331
22.73000 544.383
22.74000 549.309
22.75000 552.874
22.76000 549.780
22.77000 547.161
22.78000 542.222
22.79000 533.269
22.80000 524.245
22.81000 521.176
22.82000 525.099
22.83000 529.025
22.84000 529.587
22.85000 527.553
22.86000 525.535
22.87000 524.187
22.88000 523.193
22.89000 522.289
22.90000 522.966
22.91000 524.223
22.92000 525.385
22.93000 521.684
22.94000 517.262
22.95000 512.904
22.96000 508.930
22.97000 505.022
22.98000 502.976
22.99000 508.437
23.00000 514.688
23.01000 519.348
23.02000 517.137
23.03000 515.104
23.04000 511.478
23.05000 504.795
23.06000 498.037
23.07000 498.961
23.08000 509.956
23.09000 520.988
23.10000 521.043
23.11000 511.613
23.12000 502.250
23.13000 496.898
23.14000 493.898
23.15000 491.374
23.16000 499.133
23.17000 511.061
23.18000 522.215
23.19000 529.051
23.20000 534.161
23.21000 537.490
23.22000 528.652
23.23000 517.518
23.24000 507.588
23.25000 503.055
23.26000 499.174
23.27000 496.200
23.28000 513.236
23.29000 527.790
23.30000 534.726
23.31000 525.504
23.32000 515.755
23.33000 509.374
23.34000 507.907
23.35000 506.482
23.36000 507.088
23.37000 509.665
23.38000 512.190
23.39000 509.993
23.40000 504.725
23.41000 499.628
23.42000 499.139
23.43000 500.716
23.44000 502.206
23.45000 503.325
23.46000 504.247
23.47000 505.436
23.48000 508.688
23.49000 512.376
23.50000 515.083
23.51000 512.878
23.52000 509.997
23.53000 507.733
23.54000 515.878
23.55000 523.083
23.56000 526.954
23.57000 523.003
23.58000 518.727
23.59000 513.891
23.60000 508.149
23.61000 502.395
23.62000 499.391
23.63000 488.536
23.64000 481.290
23.65000 489.622
23.66000 509.217
23.67000 528.386
23.68000 532.652
23.69000 529.529
23.70000 526.547
23.71000 530.351
23.72000 536.051
23.73000 540.870
23.74000 537.880
23.75000 533.053
23.76000 529.656
23.77000 534.286
23.78000 540.167
23.79000 544.899
23.80000 535.320
23.81000 526.434
23.82000 521.070
23.83000 524.838
23.84000 529.075
23.85000 529.714
23.86000 523.890
23.87000 517.937
23.88000 514.659
23.89000 519.808
23.90000 523.371
23.91000 527.451
23.92000 531.950
23.93000 536.370
23.94000 537.076
23.95000 535.743
23.96000 534.460
23.97000 535.042
23.98000 536.253
23.99000 536.155
24.00000 522.686
24.01000 505.717
24.02000 492.102
24.03000 499.669
24.04000 510.948
24.05000 520.230
24.06000 519.190
24.07000 517.396
24.08000 517.982
24.09000 525.396
24.10000 533.235
24.11000 538.274
24.12000 537.748
24.13000 537.070
24.14000 536.677
24.15000 527.748
24.16000 521.458
24.17000 520.158
24.18000 523.355
24.19000 526.435
24.20000 521.430
24.21000 511.510
24.22000 501.879
24.23000 500.587
24.24000 502.686
24.25000 504.344
24.26000 500.762
24.27000 495.658
24.28000 490.973
24.29000 489.286
24.30000 488.188
24.31000 487.266
24.32000 503.315
24.33000 518.475
24.34000 528.262
24.35000 520.986
24.36000 512.446
24.37000 505.284
24.38000 501.151
24.39000 497.126
24.40000 494.691
24.41000 505.001
24.42000 512.441
24.43000 508.917
24.44000 494.288
24.45000 479.811
24.46000 481.804
24.47000 494.917
24.48000 507.733
24.49000 508.236
24.50000 503.235
24.51000 498.602
24.52000 499.126
24.53000 501.309
24.54000 503.081
24.55000 501.509
24.56000 499.202
24.57000 497.226
24.58000 498.465
24.59000 499.901
24.60000 498.697
24.61000 488.202
24.62000 476.898
24.63000 468.554
24.64000 467.408
24.65000 466.585
24.66000 466.067
24.67000 467.100
24.68000 467.866
24.69000 471.211
24.70000 477.487
24.71000 483.747
24.72000 486.228
24.73000 485.870
24.74000 485.517
24.75000 485.084
24.76000 484.625
24.77000 484.045
24.78000 481.447
24.79000 478.129
24.80000 475.349
24.81000 477.579
24.82000 481.035
24.83000 484.048
24.84000 491.077
24.85000 497.644
24.86000 500.096
24.87000 486.472
24.88000 471.224
24.89000 462.693
24.90000 472.221
24.91000 482.745
24.92000 489.646
24.93000 489.912
24.94000 489.998
24.95000 489.331
24.96000 487.709
24.97000 486.083
24.98000 483.985
24.99000 481.491
25.00000 479.027
25.01000 480.666
25.02000 484.544
25.03000 488.150
25.04000 486.224
25.05000 482.118
25.06000 478.089
25.07000 474.881
25.08000 471.896
25.09000 469.251
25.10000 472.020
25.11000 475.274
25.12000 478.148
25.13000 479.372
25.14000 480.405
25.15000 481.939
25.16000 484.963
25.17000 488.087
25.18000 490.211
25.19000 485.291
25.20000 481.460
25.21000 478.258
25.22000 475.948
25.23000 473.645
25.24000 472.067
25.25000 471.171
25.26000 470.282
25.27000 471.075
25.28000 472.899
25.29000 474.542
25.30000 471.626
25.31000 466.724
25.32000 462.541
25.33000 467.391
25.34000 474.963
25.35000 481.779
25.36000 479.812
25.37000 476.514
25.38000 474.070
25.39000 475.768
25.40000 478.015
25.41000 478.923
25.42000 475.424
25.43000 471.577
25.44000 468.873
25.45000 458.896
25.46000 451.124
25.47000 452.823
25.48000 469.419
25.49000 486.197
25.50000 492.432
25.51000 487.535
25.52000 482.657
25.53000 479.251
25.54000 476.903
25.55000 474.645
25.56000 475.284
25.57000 477.318
25.58000 478.776
25.59000 471.647
25.60000 461.653
25.61000 452.529
25.62000 448.075
25.63000 445.068
25.64000 444.151
25.65000 454.584
25.66000 466.723
25.67000 476.284
25.68000 476.427
25.69000 475.704
25.70000 475.180
25.71000 474.230
25.72000 473.485
25.73000 469.903
25.74000 461.376
25.75000 452.759
25.76000 447.580
25.77000 446.472
25.78000 445.372
25.79000 453.293
25.80000 468.181
25.81000 482.817
25.82000 486.591
25.83000 484.575
25.84000 482.224
25.85000 473.888
25.86000 463.342
25.87000 453.589
25.88000 450.784
25.89000 449.849
25.90000 450.026
25.91000 456.986
25.92000 465.097
25.93000 471.396
25.94000 470.341
25.95000 468.505
25.96000 467.134
25.97000 463.117
25.98000 459.865
25.99000 455.449
26.00000 448.785
26.01000 442.065
26.02000 442.552
26.03000 452.560
26.04000 462.607
26.05000 462.917
26.06000 454.745
26.07000 446.676
26.08000 444.874
26.09000 446.773
26.10000 448.645
26.11000 449.895
26.12000 450.891
26.13000 451.823
26.14000 450.619
26.15000 448.977
26.16000 448.375
26.17000 454.941
26.18000 462.870
26.19000 469.304
26.20000 468.982
26.21000 467.836
26.22000 466.956
26.23000 461.572
26.24000 457.065
26.25000 453.381
26.26000 451.454
26.27000 449.585
26.28000 450.655
26.29000 456.046
26.30000 461.474
26.31000 463.750
26.32000 462.938
26.33000 462.115
26.34000 460.247
26.35000 457.695
26.36000 455.261
26.37000 456.057
26.38000 458.313
26.39000 460.447
26.40000 460.595
26.41000 460.160
26.42000 459.236
26.43000 454.484
26.44000 448.918
26.45000 445.255
26.46000 451.197
26.47000 458.471
26.48000 464.199
26.49000 461.182
26.50000 458.182
26.51000 457.028
26.52000 460.235
26.53000 463.625
26.54000 463.599
26.55000 457.995
26.56000 452.312
26.57000 449.334
26.58000 451.467
26.59000 452.904
26.60000 452.650
26.61000 451.163
26.62000 449.744
26.63000 450.699
26.64000 452.840
26.65000 454.886
26.66000 453.060
26.67000 450.118
26.68000 447.313
26.69000 445.747
26.70000 444.475
26.71000 443.181
26.72000 441.761
26.73000 440.320
26.74000 439.159
26.75000 439.221
26.76000 439.368
26.77000 441.695
26.78000 449.713
26.79000 458.028
26.80000 461.471
26.81000 456.099
26.82000 450.545
26.83000 447.477
26.84000 446.875
26.85000 446.465
26.86000 446.206
26.87000 446.069
26.88000 445.897
26.89000 444.032
26.90000 441.230
26.91000 438.531
26.92000 450.233
26.93000 466.410
26.94000 480.777
26.95000 476.453
26.96000 467.199
26.97000 457.825
26.98000 447.682
26.99000 437.403
27.00000 428.931
27.01000 432.954
27.02000 437.414
27.03000 440.279
27.04000 438.536
27.05000 436.502
27.06000 437.882
27.07000 446.095
27.08000 454.499
27.09000 459.374
27.10000 442.061
27.11000 429.823
27.12000 424.805
27.13000 426.351
27.14000 427.949
27.15000 433.136
27.16000 440.524
27.17000 447.700
27.18000 444.833
27.19000 438.075
27.20000 432.145
27.21000 436.163
27.22000 443.092
27.23000 448.810
27.24000 445.795
27.25000 441.049
27.26000 437.057
27.27000 438.244
27.28000 439.785
27.29000 440.959
27.30000 440.959
27.31000 440.870
27.32000 441.868
27.33000 445.272
27.34000 448.764
27.35000 450.882
27.36000 455.613
27.37000 459.009
27.38000 455.423
27.39000 444.708
27.40000 434.062
27.41000 431.231
27.42000 433.717
27.43000 436.148
27.44000 430.052
27.45000 420.378
27.46000 411.610
27.47000 415.658
27.48000 423.863
27.49000 431.637
27.50000 435.879
27.51000 439.340
27.52000 442.308
27.53000 439.861
27.54000 437.131
27.55000 434.757
27.56000 433.649
27.57000 432.652
27.58000 434.863
27.59000 444.930
27.60000 455.356
27.61000 461.950
27.62000 446.370
27.63000 434.813
27.64000 430.266
27.65000 433.753
27.66000 437.205
27.67000 431.090
27.68000 417.732
27.69000 404.593
27.70000 410.965
27.71000 426.909
27.72000 441.985
27.73000 442.335
27.74000 437.402
27.75000 432.814
27.76000 431.467
27.77000 430.918
27.78000 430.439
27.79000 425.523
27.80000 420.694
27.81000 416.353
27.82000 413.929
27.83000 411.702
27.84000 413.021
27.85000 423.943
27.86000 435.403
27.87000 442.938
27.88000 440.108
27.89000 437.848
27.90000 437.281
27.91000 438.879
27.92000 440.473
27.93000 434.886
27.94000 423.228
27.95000 411.704
27.96000 409.999
27.97000 413.831
27.98000 417.551
27.99000 418.941
28.00000 419.407
28.01000 420.026
28.02000 422.305
28.03000 425.039
28.04000 427.466
28.05000 421.898
28.06000 415.798
28.07000 412.745
28.08000 423.049
28.09000 434.919
28.10000 442.882
28.11000 439.140
28.12000 434.611
28.13000 431.525
28.14000 423.254
28.15000 416.953
28.16000 412.547
28.17000 410.843
28.18000 409.160
28.19000 409.391
28.20000 411.435
28.21000 413.464
28.22000 416.016
28.23000 418.853
28.24000 421.680
28.25000 424.250
28.26000 426.708
28.27000 428.985
28.28000 428.958
28.29000 428.232
28.30000 427.577
28.31000 426.179
28.32000 424.817
28.33000 424.679
28.34000 430.522
28.35000 437.166
28.36000 441.871
28.37000 440.142
28.38000 437.902
28.39000 436.323
28.40000 427.544
28.41000 420.671
28.42000 417.096
28.43000 418.745
28.44000 420.460
28.45000 421.805
28.46000 422.757
28.47000 423.705
28.48000 426.116
28.49000 429.527
28.50000 432.845
28.51000 433.094
28.52000 431.855
28.53000 430.935
28.54000 434.842
28.55000 440.372
28.56000 445.425
28.57000 440.879
28.58000 434.881
28.59000 429.412
28.60000 426.839
28.61000 424.705
28.62000 422.795
28.63000 421.709
28.64000 420.700
28.65000 419.967
28.66000 417.395
28.67000 415.347
28.68000 413.088
28.69000 410.460
28.70000 407.825
28.71000 406.386
28.72000 406.373
28.73000 406.362
28.74000 405.428
28.75000 403.775
28.76000 402.197
28.77000 403.987
28.78000 407.586
28.79000 411.023
28.80000 411.543
28.81000 410.977
28.82000 410.454
28.83000 416.399
28.84000 423.230
28.85000 429.660
28.86000 433.618
28.87000 437.154
28.88000 439.627
28.89000 437.751
28.90000 435.408
28.91000 433.654
28.92000 414.611
28.93000 398.946
28.94000 392.519
28.95000 404.063
28.96000 416.070
28.97000 421.914
28.98000 419.553
28.99000 417.152
29.00000 413.353
29.01000 408.331
29.02000 403.374
29.03000 402.452
29.04000 403.932
29.05000 405.784
29.06000 415.906
29.07000 429.429
29.08000 442.094
29.09000 436.799
29.10000 427.341
29.11000 419.010
29.12000 418.514
29.13000 419.522
29.14000 420.847
29.15000 423.624
29.16000 426.579
29.17000 428.852
29.18000 427.719
29.19000 426.630
29.20000 424.962
29.21000 422.052
29.22000 419.099
29.23000 418.047
29.24000 419.810
29.25000 421.599
29.26000 420.980
29.27000 417.984
29.28000 414.994
29.29000 412.595
29.30000 410.585
29.31000 408.647
29.32000 408.701
29.33000 409.662
29.34000 410.572
29.35000 407.798
29.36000 404.179
29.37000 400.503
29.38000 396.371
29.39000 392.141
29.40000 389.364
29.41000 393.984
29.42000 399.639
29.43000 404.098
29.44000 400.636
29.45000 397.325
29.46000 397.395
29.47000 405.514
29.48000 413.978
29.49000 420.325
29.50000 423.193
29.51000 426.010
29.52000 427.492
29.53000 414.168
29.54000 405.175
29.55000 404.814
29.56000 410.791
29.57000 416.675
29.58000 419.136
29.59000 419.876
29.60000 420.584
29.61000 418.220
29.62000 415.025
29.63000 412.110
29.64000 411.735
29.65000 411.967
29.66000 412.248
29.67000 412.812
29.68000 413.420
29.69000 413.910
29.70000 409.685
29.71000 405.875
29.72000 405.412
29.73000 413.758
29.74000 422.569
29.75000 426.523
29.76000 421.626
29.77000 416.543
29.78000 413.724
29.79000 419.529
29.80000 423.545
29.81000 423.275
29.82000 419.496
29.83000 415.695
29.84000 410.784
29.85000 405.254
29.86000 399.921
29.87000 404.662
29.88000 412.773
29.89000 420.389
29.90000 422.848
29.91000 423.936
29.92000 425.208
29.93000 427.662
29.94000 430.326
29.95000 432.525
29.96000 432.619
29.97000 432.501
29.98000 431.883
29.99000 429.809
30.00000 427.643
30.01000 425.346
30.02000 422.786
30.03000 420.219
30.04000 418.725
30.05000 424.344
30.06000 428.323
30.07000 430.699
30.08000 431.605
30.09000 432.498
30.10000 432.390
30.11000 431.665
30.12000 430.960
30.13000 432.684
30.14000 435.305
30.15000 437.878
30.16000 439.864
30.17000 441.679
30.18000 442.239
30.19000 433.682
30.20000 423.304
30.21000 414.561
30.22000 409.852
30.23000 406.357
30.24000 405.824
30.25000 414.841
30.26000 424.582
30.27000 431.996
30.28000 434.219
30.29000 436.251
30.30000 437.487
30.31000 429.414
30.32000 423.574
30.33000 422.628
30.34000 426.722
30.35000 430.787
30.36000 431.562
30.37000 430.080
30.38000 428.631
30.39000 428.929
30.40000 430.007
30.41000 430.734
30.42000 426.445
30.43000 420.518
30.44000 415.621
30.45000 419.258
30.46000 424.799
30.47000 429.557
30.48000 423.968
30.49000 417.961
30.50000 413.898
30.51000 416.777
30.52000 420.274
30.53000 421.217
30.54000 415.863
30.55000 410.218
30.56000 406.636
30.57000 407.120
30.58000 407.520
30.59000 409.994
30.60000 414.863
30.61000 419.735
30.62000 424.824
30.63000 430.077
30.64000 435.247
30.65000 432.951
30.66000 426.958
30.67000 421.682
30.68000 428.727
30.69000 440.225
30.70000 450.624
30.71000 450.567
30.72000 447.914
30.73000 445.596
30.74000 445.235
30.75000 445.204
30.76000 444.813
30.77000 442.999
30.78000 441.038
30.79000 440.464
30.80000 443.672
30.81000 447.095
30.82000 449.351
30.83000 455.036
30.84000 459.286
30.85000 461.282
30.86000 460.368
30.87000 459.450
30.88000 462.840
30.89000 469.900
30.90000 476.882
30.91000 482.287
30.92000 486.677
30.93000 491.071
30.94000 495.566
30.95000 500.100
30.96000 504.626
30.97000 509.048
30.98000 513.443
30.99000 517.347
31.00000 533.297
31.01000 549.070
31.02000 563.376
31.03000 571.205
31.04000 578.267
31.05000 587.119
31.06000 601.375
31.07000 615.998
31.08000 625.989
31.09000 670.110
31.10000 703.921
31.11000 726.732
31.12000 733.736
31.13000 740.618
31.14000 768.914
31.15000 817.661
31.16000 866.061
31.17000 916.139
31.18000 966.473
31.19000 1017.428
31.20000 1084.621
31.21000 1158.990
31.22000 1233.712
31.23000 1312.971
31.24000 1393.617
31.25000 1466.354
31.26000 1551.500
31.27000 1628.529
31.28000 1708.978
31.29000 1806.288
31.30000 1905.873
31.31000 1995.952
31.32000 2054.247
31.33000 2109.985
31.34000 2149.356
31.35000 2221.690
31.36000 2277.608
31.37000 2326.129
31.38000 2362.841
31.39000 2399.399
31.40000 2418.933
31.41000 2420.189
31.42000 2421.434
31.43000 2417.499
31.44000 2409.949
31.45000 2401.814
31.46000 2373.952
31.47000 2336.449
31.48000 2297.974
31.49000 2244.656
31.50000 2186.311
31.51000 2132.949
31.52000 2039.630
31.53000 1948.446
31.54000 1858.679
31.55000 1776.734
31.56000 1695.986
31.57000 1615.141
31.58000 1533.936
31.59000 1452.698
31.60000 1393.508
31.61000 1313.260
31.62000 1250.651
31.63000 1186.686
31.64000 1120.322
31.65000 1053.912
31.66000 997.818
31.67000 954.127
31.68000 910.540
31.69000 871.872
31.70000 837.267
31.71000 802.742
31.72000 771.847
31.73000 742.915
31.74000 714.342
31.75000 692.366
31.76000 672.860
31.77000 654.790
31.78000 632.893
31.79000 612.307
31.80000 592.532
31.81000 577.804
31.82000 563.944
31.83000 549.298
31.84000 531.410
31.85000 513.171
31.86000 499.492
31.87000 516.945
31.88000 532.051
31.89000 536.463
31.90000 519.919
31.91000 502.825
31.92000 490.543
31.93000 484.719
31.94000 478.931
31.95000 474.037
31.96000 469.940
31.97000 465.797
31.98000 458.650
31.99000 449.703
32.00000 441.005
32.01000 437.920
32.02000 437.162
32.03000 436.452
32.04000 434.060
32.05000 431.445
32.06000 429.023
32.07000 427.954
32.08000 427.146
32.09000 427.190
32.10000 431.144
32.11000 435.584
32.12000 439.005
32.13000 428.906
32.14000 420.134
32.15000 414.523
32.16000 415.767
32.17000 417.247
32.18000 414.152
32.19000 404.229
32.20000 394.240
32.21000 393.663
32.22000 402.457
32.23000 411.210
32.24000 415.772
32.25000 417.547
32.26000 419.132
32.27000 415.343
32.28000 409.090
32.29000 403.167
32.30000 397.141
32.31000 391.562
32.32000 386.766
32.33000 388.215
32.34000 391.015
32.35000 393.850
32.36000 396.863
32.37000 399.901
32.38000 402.302
32.39000 396.873
32.40000 391.981
32.41000 388.607
32.42000 388.875
32.43000 389.302
32.44000 387.843
32.45000 383.261
32.46000 378.632
32.47000 376.187
32.48000 383.298
32.49000 388.112
32.50000 389.256
32.51000 387.685
32.52000 386.181
32.53000 387.190
32.54000 389.473
32.55000 391.657
32.56000 386.825
32.57000 380.032
32.58000 374.294
32.59000 378.192
32.60000 384.411
32.61000 389.121
32.62000 385.145
32.63000 379.781
32.64000 375.443
32.65000 373.162
32.66000 371.472
32.67000 370.296
32.68000 370.485
32.69000 370.748
32.70000 373.393
32.71000 380.413
32.72000 387.528
32.73000 391.487
32.74000 381.111
32.75000 373.918
32.76000 372.405
32.77000 375.579
32.78000 378.665
32.79000 377.251
32.80000 373.312
32.81000 369.511
32.82000 370.599
32.83000 373.410
32.84000 376.569
32.85000 383.407
32.86000 391.230
32.87000 397.415
32.88000 392.992
32.89000 386.662
32.90000 381.429
32.91000 381.938
32.92000 382.896
32.93000 383.353
32.94000 382.336
32.95000 381.225
32.96000 379.486
32.97000 376.473
32.98000 373.423
32.99000 371.642
33.00000 369.615
33.01000 368.189
33.02000 370.704
33.03000 376.859
33.04000 382.882
33.05000 379.068
33.06000 369.137
33.07000 359.481
33.08000 358.654
33.09000 361.473
33.10000 363.770
33.11000 359.654
33.12000 353.632
33.13000 348.523
33.14000 350.111
33.15000 353.047
33.16000 355.524
33.17000 358.977
33.18000 361.967
33.19000 361.798
33.20000 351.373
33.21000 340.161
33.22000 334.155
33.23000 339.847
33.24000 345.978
33.25000 349.722
33.26000 345.914
33.27000 343.129
33.28000 343.369
33.29000 346.749
33.30000 350.095
33.31000 349.239
33.32000 345.481
33.33000 341.803
33.34000 344.202
33.35000 349.277
33.36000 354.235
33.37000 357.501
33.38000 360.209
33.39000 361.970
33.40000 355.801
33.41000 347.850
33.42000 341.013
33.43000 347.230
33.44000 354.122
33.45000 358.436
33.46000 353.471
33.47000 347.671
33.48000 344.517
33.49000 347.936
33.50000 351.665
33.51000 354.037
33.52000 356.601
33.53000 358.467
33.54000 354.656
33.55000 344.234
33.56000 333.825
33.57000 328.722
33.58000 327.701
33.59000 326.695
33.60000 332.178
33.61000 340.794
33.62000 348.966
33.63000 349.404
33.64000 347.026
33.65000 344.318
33.66000 338.449
33.67000 331.789
33.68000 325.961
33.69000 332.547
33.70000 339.965
33.71000 347.489
33.72000 355.436
33.73000 363.427
33.74000 365.674
33.75000 352.141
33.76000 337.700
33.77000 328.156
33.78000 341.031
33.79000 350.931
33.80000 354.032
33.81000 348.292
33.82000 342.516
33.83000 337.353
33.84000 332.716
33.85000 328.129
33.86000 329.170
33.87000 333.388
33.88000 337.446
33.89000 338.099
33.90000 337.383
33.91000 336.582
33.92000 334.857
33.93000 332.874
33.94000 331.110
33.95000 342.720
33.96000 354.971
33.97000 362.572
33.98000 349.478
33.99000 333.908
34.00000 322.811
34.01000 325.310
34.02000 328.746
34.03000 331.099
34.04000 332.951
34.05000 334.325
34.06000 335.129
34.07000 335.107
34.08000 335.078
34.09000 334.646
34.10000 333.824
34.11000 333.007
34.12000 336.313
34.13000 342.185
34.14000 347.899
34.15000 349.392
34.16000 349.005
34.17000 348.492
34.18000 346.348
34.19000 343.702
34.20000 341.312
34.21000 339.091
34.22000 337.170
34.23000 335.967
34.24000 338.336
34.25000 341.191
34.26000 342.959
34.27000 341.065
34.28000 338.872
34.29000 337.320
34.30000 335.047
34.31000 333.297
34.32000 331.219
34.33000 328.610
34.34000 325.994
34.35000 322.619
34.36000 318.420
34.37000 314.238
34.38000 318.572
34.39000 328.921
34.40000 339.107
34.41000 343.722
34.42000 345.595
34.43000 347.198
34.44000 344.638
34.45000 340.658
34.46000 337.014
34.47000 329.671
34.48000 322.370
34.49000 318.533
34.50000 333.975
34.51000 352.393
34.52000 365.214
34.53000 357.126
34.54000 347.055
34.55000 339.702
34.56000 337.069
34.57000 335.224
34.58000 335.063
34.59000 337.903
34.60000 340.803
34.61000 342.329
34.62000 342.190
34.63000 342.048
34.64000 337.286
34.65000 328.866
34.66000 320.548
34.67000 316.957
34.68000 315.941
34.69000 314.947
34.70000 314.362
34.71000 313.932
34.72000 313.533
34.73000 316.017
34.74000 318.928
34.75000 321.228
34.76000 319.697
34.77000 317.501
34.78000 316.910
34.79000 322.984
34.80000 329.787
34.81000 334.900
34.82000 330.355
34.83000 326.338
34.84000 324.601
34.85000 327.366
34.86000 330.251
34.87000 328.998
34.88000 322.147
34.89000 315.269
34.90000 313.234
34.91000 315.529
34.92000 317.829
34.93000 320.472
34.94000 323.322
34.95000 326.129
34.96000 327.910
34.97000 329.265
34.98000 330.535
34.99000 329.934
35.00000 328.895
35.01000 327.788
35.02000 326.204
35.03000 324.526
35.04000 322.554
35.05000 319.223
35.06000 315.722
35.07000 313.019
35.08000 314.507
35.09000 315.929
35.10000 316.021
35.11000 313.209
35.12000 310.294
35.13000 312.310
35.14000 321.740
35.15000 331.243
35.16000 336.005
35.17000 328.568
35.18000 323.588
35.19000 316.609
35.20000 308.291
35.21000 300.259
35.22000 300.569
35.23000 304.727
35.24000 308.669
35.25000 312.600
35.26000 316.219
35.27000 319.766
35.28000 322.737
35.29000 325.583
35.30000 326.750
35.31000 319.240
35.32000 310.492
35.33000 303.568
35.34000 304.398
35.35000 305.602
35.36000 306.756
35.37000 307.790
35.38000 308.818
35.39000 308.894
35.40000 307.381
35.41000 305.842
35.42000 305.026
35.43000 303.330
35.44000 302.197
35.45000 305.162
35.46000 311.183
35.47000 317.104
35.48000 319.261
35.49000 319.496
35.50000 319.721
35.51000 317.041
35.52000 313.586
35.53000 310.580
35.54000 311.715
35.55000 313.856
35.56000 315.384
35.57000 313.359
35.58000 310.762
35.59000 308.658
35.60000 303.359
35.61000 298.784
35.62000 296.939
35.63000 302.385
35.64000 308.228
35.65000 313.031
35.66000 315.913
35.67000 318.753
35.68000 320.338
35.69000 320.081
35.70000 319.897
35.71000 318.432
35.72000 315.903
35.73000 313.416
35.74000 313.131
35.75000 314.090
35.76000 315.016
35.77000 314.488
35.78000 313.455
35.79000 312.189
35.80000 308.434
35.81000 304.007
35.82000 300.392
35.83000 302.087
35.84000 304.744
35.85000 306.944
35.86000 307.053
35.87000 306.945
35.88000 307.484
35.89000 309.937
35.90000 312.516
35.91000 312.731
35.92000 308.108
35.93000 303.342
35.94000 300.550
35.95000 306.317
35.96000 310.419
35.97000 309.094
35.98000 302.711
35.99000 296.421
36.00000 297.303
36.01000 302.678
36.02000 307.906
36.03000 310.592
36.04000 312.102
36.05000 313.374
36.06000 311.681
36.07000 309.101
36.08000 307.239
36.09000 310.693
36.10000 315.227
36.11000 319.058
36.12000 314.661
36.13000 310.080
36.14000 305.296
36.15000 299.844
36.16000 294.340
36.17000 291.647
36.18000 295.316
36.19000 299.228
36.20000 301.624
36.21000 301.805
36.22000 301.916
36.23000 300.935
36.24000 298.811
36.25000 296.706
36.26000 297.039
36.27000 299.069
36.28000 301.057
36.29000 305.515
36.30000 310.935
36.31000 315.591
36.32000 309.022
36.33000 298.732
36.34000 289.539
36.35000 289.600
36.36000 291.757
36.37000 293.614
36.38000 296.442
36.39000 298.960
36.40000 300.818
36.41000 300.280
36.42000 299.524
36.43000 299.209
36.44000 299.998
36.45000 300.840
36.46000 301.377
36.47000 289.729
36.48000 281.101
36.49000 279.496
36.50000 286.138
36.51000 292.797
36.52000 300.528
36.53000 309.089
36.54000 317.521
36.55000 315.005
36.56000 306.948
36.57000 299.172
36.58000 296.341
36.59000 295.325
36.60000 294.813
36.61000 299.196
36.62000 304.812
36.63000 309.733
36.64000 309.530
36.65000 308.617
36.66000 306.757
36.67000 301.077
36.68000 294.995
36.69000 289.287
36.70000 284.610
36.71000 279.993
36.72000 276.934
36.73000 284.377
36.74000 290.066
36.75000 293.987
36.76000 295.591
36.77000 297.183
36.78000 297.224
36.79000 295.923
36.80000 294.636
36.81000 299.400
36.82000 307.527
36.83000 315.090
36.84000 310.495
36.85000 300.971
36.86000 292.160
36.87000 291.382
36.88000 292.852
36.89000 294.161
36.90000 291.230
36.91000 287.987
36.92000 285.607
36.93000 287.096
36.94000 289.051
36.95000 292.473
36.96000 300.382
36.97000 308.605
36.98000 314.251
36.99000 303.270
37.00000 294.631
37.01000 290.214
37.02000 291.957
37.03000 293.753
37.04000 296.415
37.05000 299.917
37.06000 303.396
37.07000 302.135
37.08000 297.855
37.09000 293.784
37.10000 295.356
37.11000 299.458
37.12000 303.319
37.13000 304.003
37.14000 303.701
37.15000 303.428
37.16000 299.445
37.17000 295.252
37.18000 292.024
37.19000 293.626
37.20000 295.892
37.21000 297.213
37.22000 295.323
37.23000 293.169
37.24000 291.640
37.25000 283.293
37.26000 276.728
37.27000 274.783
37.28000 280.324
37.29000 285.968
37.30000 287.444
37.31000 284.370
37.32000 281.305
37.33000 280.671
37.34000 281.783
37.35000 282.975
37.36000 286.936
37.37000 292.271
37.38000 297.281
37.39000 297.213
37.40000 295.399
37.41000 293.738
37.42000 296.260
37.43000 299.383
37.44000 301.942
37.45000 301.334
37.46000 300.233
37.47000 299.196
37.48000 298.405
37.49000 297.638
37.50000 297.077
37.51000 287.304
37.52000 279.398
37.53000 276.807
37.54000 283.764
37.55000 290.913
37.56000 294.519
37.57000 293.796
37.58000 293.064
37.59000 291.135
37.60000 288.252
37.61000 285.312
37.62000 279.676
37.63000 272.561
37.64000 265.828
37.65000 266.324
37.66000 269.567
37.67000 272.578
37.68000 280.745
37.69000 289.322
37.70000 297.051
37.71000 299.421
37.72000 300.853
37.73000 301.956
37.74000 301.681
37.75000 301.255
37.76000 300.934
37.77000 297.367
37.78000 294.418
37.79000 294.465
37.80000 300.467
37.81000 306.633
37.82000 309.217
37.83000 306.920
37.84000 304.596
37.85000 300.801
37.86000 295.686
37.87000 290.635
37.88000 289.962
37.89000 291.953
37.90000 293.815
37.91000 292.694
37.92000 290.320
37.93000 288.090
37.94000 285.039
37.95000 282.040
37.96000 279.996
37.97000 284.767
37.98000 290.877
37.99000 295.361
38.00000 292.259
38.01000 288.197
38.02000 285.055
38.03000 292.779
38.04000 299.547
38.05000 303.594
38.06000 301.657
38.07000 299.506
38.08000 298.410
38.09000 298.915
38.10000 299.435
38.11000 299.697
38.12000 303.495
38.13000 306.014
38.14000 306.582
38.15000 305.832
38.16000 305.004
38.17000 301.861
38.18000 297.642
38.19000 293.640
38.20000 295.200
38.21000 298.291
38.22000 300.976
38.23000 300.365
38.24000 299.030
38.25000 298.166
38.26000 299.752
38.27000 301.691
38.28000 303.227
38.29000 305.380
38.30000 307.154
38.31000 308.593
38.32000 309.217
38.33000 309.804
38.34000 312.123
38.35000 317.352
38.36000 322.628
38.37000 325.436
38.38000 320.347
38.39000 316.920
38.40000 322.133
38.41000 333.838
38.42000 345.514
38.43000 356.054
38.44000 366.010
38.45000 375.545
38.46000 388.900
38.47000 402.622
38.48000 415.834
38.49000 424.288
38.50000 431.580
38.51000 440.741
38.52000 460.842
38.53000 482.722
38.54000 500.475
38.55000 523.516
38.56000 542.734
38.57000 565.776
38.58000 599.097
38.59000 632.985
38.60000 667.265
38.61000 702.275
38.62000 737.301
38.63000 756.932
38.64000 810.896
38.65000 848.366
38.66000 874.951
38.67000 892.410
38.68000 910.046
38.69000 937.222
38.70000 969.829
38.71000 1001.325
38.72000 1015.727
38.73000 1022.952
38.74000 1031.297
38.75000 1051.684
38.76000 1075.344
38.77000 1094.474
38.78000 1083.723
38.79000 1067.513
38.80000 1054.072
38.81000 1029.291
38.82000 1007.732
38.83000 985.185
38.84000 959.701
38.85000 934.023
38.86000 907.565
38.87000 879.500
38.88000 851.386
38.89000 834.861
38.90000 775.659
38.91000 733.698
38.92000 700.128
38.93000 674.442
38.94000 648.774
38.95000 624.616
38.96000 601.410
38.97000 578.826
38.98000 549.180
38.99000 518.018
39.00000 487.257
39.01000 461.539
39.02000 437.342
39.03000 414.495
39.04000 401.742
39.05000 391.053
39.06000 382.011
39.07000 374.070
39.08000 367.546
39.09000 360.515
39.10000 351.811
39.11000 342.976
39.12000 335.837
39.13000 332.568
39.14000 329.448
39.15000 327.532
39.16000 308.315
39.17000 294.389
39.18000 291.672
39.19000 300.792
39.20000 309.819
39.21000 306.216
39.22000 293.756
39.23000 281.549
39.24000 281.903
39.25000 288.062
39.26000 293.519
39.27000 288.521
39.28000 280.033
39.29000 272.834
39.30000 276.626
39.31000 282.927
39.32000 288.359
39.33000 288.880
39.34000 288.696
39.35000 286.454
39.36000 276.694
39.37000 266.244
39.38000 262.079
39.39000 273.757
39.40000 286.203
39.41000 294.166
39.42000 290.130
39.43000 287.033
39.44000 285.448
39.45000 285.654
39.46000 285.857
39.47000 284.545
39.48000 282.049
39.49000 279.590
39.50000 276.007
39.51000 271.950
39.52000 268.314
39.53000 272.231
39.54000 278.937
39.55000 285.352
39.56000 288.913
39.57000 291.749
39.58000 294.237
39.59000 293.378
39.60000 292.153
39.61000 290.151
39.62000 284.994
39.63000 279.502
39.64000 273.412
39.65000 265.654
39.66000 257.797
39.67000 252.577
39.68000 262.843
39.69000 270.722
39.70000 278.984
39.71000 287.750
39.72000 296.509
39.73000 296.997
39.74000 290.266
39.75000 283.603
39.76000 280.332
39.77000 279.092
39.78000 277.772
39.79000 274.720
39.80000 270.961
39.81000 267.215
39.82000 263.624
39.83000 260.076
39.84000 256.913
39.85000 254.170
39.86000 251.854
39.87000 250.603
39.88000 254.162
39.89000 258.308
39.90000 261.811
39.91000 263.333
39.92000 264.716
39.93000 265.667
39.94000 258.301
39.95000 252.566
39.96000 250.447
39.97000 253.645
39.98000 256.890
39.99000 259.811
40.00000 262.413
40.01000 264.998
40.02000 264.942
40.03000 263.182
40.04000 261.605
40.05000 265.082
40.06000 270.842
40.07000 276.118
40.08000 274.954
40.09000 271.775
40.10000 268.900
40.11000 259.635
40.12000 250.282
40.13000 242.882
40.14000 245.344
40.15000 249.175
40.16000 252.086
40.17000 251.853
40.18000 251.358
40.19000 251.006
40.20000 248.519
40.21000 246.557
40.22000 247.531
40.23000 253.298
40.24000 259.133
40.25000 261.574
40.26000 260.279
40.27000 258.986
40.28000 258.365
40.29000 258.234
40.30000 258.172
40.31000 260.596
40.32000 264.260
40.33000 267.336
40.34000 261.077
40.35000 251.587
40.36000 242.883
40.37000 247.139
40.38000 253.671
40.39000 258.650
40.40000 254.835
40.41000 249.640
40.42000 245.577
40.43000 245.804
40.44000 246.447
40.45000 246.918
40.46000 245.835
40.47000 244.935
40.48000 245.633
40.49000 249.221
40.50000 252.869
40.51000 254.516
40.52000 253.699
40.53000 252.877
40.54000 249.697
40.55000 244.622
40.56000 239.582
40.57000 236.252
40.58000 233.868
40.59000 231.726
40.60000 234.233
40.61000 238.520
40.62000 242.502
40.63000 246.808
40.64000 250.768
40.65000 254.310
40.66000 255.178
40.67000 255.574
40.68000 255.422
40.69000 252.956
40.70000 250.232
40.71000 248.177
40.72000 250.093
40.73000 251.790
40.74000 252.064
40.75000 249.491
40.76000 246.838
40.77000 246.320
40.78000 248.732
40.79000 251.162
40.80000 251.442
40.81000 249.770
40.82000 248.108
40.83000 247.180
40.84000 246.703
40.85000 246.228
40.86000 245.829
40.87000 245.461
40.88000 245.115
40.89000 247.926
40.90000 251.334
40.91000 253.761
40.92000 249.107
40.93000 243.051
40.94000 238.520
40.95000 241.156
40.96000 244.708
40.97000 247.459
40.98000 248.127
40.99000 248.532
41.00000 250.297
41.01000 255.071
41.02000 259.954
41.03000 262.498
41.04000 261.471
41.05000 260.405
41.06000 259.867
41.07000 251.966
41.08000 246.724
41.09000 246.359
41.10000 249.312
41.11000 252.133
41.12000 250.969
41.13000 247.940
41.14000 245.065
41.15000 245.730
41.16000 247.405
41.17000 248.561
41.18000 245.469
41.19000 241.436
41.20000 238.235
41.21000 239.408
41.22000 241.215
41.23000 242.651
41.24000 245.208
41.25000 247.347
41.26000 248.270
41.27000 246.217
41.28000 244.027
41.29000 242.579
41.30000 242.387
41.31000 242.215
41.32000 242.123
41.33000 245.260
41.34000 247.390
41.35000 247.139
41.36000 245.084
41.37000 243.102
41.38000 244.015
41.39000 246.427
41.40000 248.739
41.41000 247.562
41.42000 245.296
41.43000 243.098
41.44000 241.538
41.45000 240.135
41.46000 239.368
41.47000 242.354
41.48000 245.956
41.49000 248.883
41.50000 244.544
41.51000 240.399
41.52000 237.939
41.53000 240.045
41.54000 242.406
41.55000 241.102
41.56000 232.919
41.57000 224.577
41.58000 219.885
41.59000 220.791
41.60000 221.440
41.61000 225.698
41.62000 233.008
41.63000 240.223
41.64000 242.234
41.65000 241.261
41.66000 240.321
41.67000 240.320
41.68000 240.671
41.69000 241.104
41.70000 242.431
41.71000 244.002
41.72000 244.798
41.73000 240.444
41.74000 235.140
41.75000 230.736
41.76000 234.550
41.77000 238.501
41.78000 241.756
41.79000 242.926
41.80000 243.956
41.81000 243.944
41.82000 241.768
41.83000 239.526
41.84000 238.204
41.85000 243.987
41.86000 248.107
41.87000 246.529
41.88000 239.555
41.89000 232.658
41.90000 232.080
41.91000 235.521
41.92000 238.872
41.93000 235.214
41.94000 228.797
41.95000 223.323
41.96000 229.849
41.97000 240.019
41.98000 248.705
41.99000 246.202
42.00000 241.391
42.01000 237.316
42.02000 237.447
42.03000 238.030
42.04000 238.456
42.05000 238.362
42.06000 238.228
42.07000 239.661
42.08000 244.692
42.09000 249.866
42.10000 253.053
42.11000 238.413
42.12000 227.746
42.13000 225.546
42.14000 232.361
42.15000 239.145
42.16000 241.318
42.17000 240.234
42.18000 239.172
42.19000 241.278
42.20000 244.783
42.21000 247.890
42.22000 245.001
42.23000 240.096
42.24000 235.664
42.25000 235.302
42.26000 235.877
42.27000 236.374
42.28000 235.825
42.29000 235.225
42.30000 234.964
42.31000 235.954
42.32000 237.060
42.33000 238.141
42.34000 239.158
42.35000 240.173
42.36000 240.824
42.37000 243.218
42.38000 244.987
42.39000 246.572
42.40000 247.937
42.41000 249.294
42.42000 248.504
42.43000 246.024
42.44000 243.579
42.45000 238.585
42.46000 232.408
42.47000 226.810
42.48000 231.716
42.49000 240.529
42.50000 248.692
42.51000 250.409
42.52000 250.476
42.53000 250.536
42.54000 245.111
42.55000 239.642
42.56000 235.584
42.57000 237.297
42.58000 239.630
42.59000 241.217
42.60000 240.709
42.61000 240.076
42.62000 239.654
42.63000 239.128
42.64000 238.737
42.65000 237.591
42.66000 235.440
42.67000 233.284
42.68000 231.829
42.69000 230.990
42.70000 230.160
42.71000 229.890
42.72000 229.953
42.73000 229.925
42.74000 227.894
42.75000 225.040
42.76000 222.732
42.77000 226.712
42.78000 232.479
42.79000 237.625
42.80000 240.008
42.81000 241.621
42.82000 241.895
42.83000 236.072
42.84000 229.497
42.85000 224.208
42.86000 222.912
42.87000 221.902
42.88000 221.205
42.89000 223.202
42.90000 224.770
42.91000 227.281
42.92000 231.188
42.93000 235.107
42.94000 233.704
42.95000 227.045
42.96000 220.426
42.97000 223.042
42.98000 231.632
42.99000 239.785
43.00000 235.687
43.01000 226.016
43.02000 217.166
43.03000 219.392
43.04000 225.105
43.05000 230.279
43.06000 228.597
43.07000 225.819
43.08000 223.770
43.09000 225.439
43.10000 227.629
43.11000 227.789
43.12000 220.958
43.13000 213.539
43.14000 208.251
43.15000 213.900
43.16000 218.565
43.17000 223.528
43.18000 228.983
43.19000 234.445
43.20000 237.137
43.21000 236.755
43.22000 236.372
43.23000 235.464
43.24000 234.180
43.25000 232.803
43.26000 227.977
43.27000 221.417
43.28000 215.477
43.29000 219.518
43.30000 227.037
43.31000 233.941
43.32000 232.951
43.33000 230.385
43.34000 228.385
43.35000 229.609
43.36000 231.344
43.37000 232.494
43.38000 231.409
43.39000 230.105
43.40000 229.147
43.41000 223.265
43.42000 218.516
43.43000 217.003
43.44000 221.392
43.45000 225.904
43.46000 227.309
43.47000 224.856
43.48000 222.396
43.49000 221.840
43.50000 222.840
43.51000 223.805
43.52000 223.061
43.53000 221.365
43.54000 219.876
43.55000 222.431
43.56000 226.544
43.57000 230.368
43.58000 229.889
43.59000 228.424
43.60000 227.387
43.61000 229.102
43.62000 231.308
43.63000 233.043
43.64000 232.779
43.65000 232.289
43.66000 231.919
43.67000 228.863
43.68000 226.332
43.69000 224.944
43.70000 225.860
43.71000 226.841
43.72000 226.284
43.73000 223.599
43.74000 220.901
43.75000 218.980
43.76000 217.770
43.77000 216.560
43.78000 215.276
43.79000 213.946
43.80000 212.797
43.81000 216.003
43.82000 221.065
43.83000 225.824
43.84000 225.890
43.85000 224.687
43.86000 222.905
43.87000 216.921
43.88000 210.097
43.89000 204.903
43.90000 207.427
43.91000 210.946
43.92000 213.677
43.93000 217.370
43.94000 220.363
43.95000 223.012
43.96000 224.892
43.97000 226.745
43.98000 225.847
43.99000 220.721
44.00000 215.547
44.01000 212.922
44.02000 217.555
44.03000 220.627
44.04000 219.828
44.05000 216.377
44.06000 212.949
44.07000 210.244
44.08000 207.882
44.09000 205.637
44.10000 207.756
44.11000 211.032
44.12000 214.218
44.13000 216.667
44.14000 218.952
44.15000 221.028
44.16000 222.002
44.17000 222.814
44.18000 223.460
44.19000 223.675
44.20000 223.818
44.21000 223.802
44.22000 223.394
44.23000 222.969
44.24000 222.935
44.25000 223.570
44.26000 224.215
44.27000 224.562
44.28000 221.789
44.29000 219.903
44.30000 220.276
44.31000 222.371
44.32000 224.454
44.33000 226.026
44.34000 227.331
44.35000 228.582
44.36000 229.157
44.37000 229.465
44.38000 229.780
44.39000 230.159
44.40000 230.554
44.41000 230.069
44.42000 224.346
44.43000 217.759
44.44000 212.396
44.45000 217.811
44.46000 223.141
44.47000 227.323
44.48000 228.375
44.49000 229.250
44.50000 229.740
44.51000 229.503
44.52000 229.249
44.53000 229.105
44.54000 222.858
44.55000 218.510
44.56000 220.622
44.57000 228.239
44.58000 235.727
44.59000 235.950
44.60000 231.977
44.61000 228.134
44.62000 228.376
44.63000 230.145
44.64000 231.665
44.65000 230.450
44.66000 228.481
44.67000 227.758
44.68000 235.394
44.69000 244.582
44.70000 252.224
44.71000 246.927
44.72000 241.275
44.73000 237.189
44.74000 237.830
44.75000 238.793
44.76000 240.416
44.77000 243.420
44.78000 246.467
44.79000 248.269
44.80000 256.807
44.81000 262.879
44.82000 266.882
44.83000 268.908
44.84000 270.902
44.85000 270.114
44.86000 267.545
44.87000 265.041
44.88000 267.228
44.89000 271.291
44.90000 275.093
44.91000 275.546
44.92000 274.974
44.93000 274.537
44.94000 275.126
44.95000 275.928
44.96000 276.609
44.97000 284.641
44.98000 292.210
44.99000 297.892
45.00000 297.268
45.01000 296.137
45.02000 297.056
45.03000 302.716
45.04000 308.567
45.05000 312.183
45.06000 315.243
45.07000 317.436
45.08000 317.538
45.09000 315.395
45.10000 313.258
45.11000 311.989
45.12000 311.340
45.13000 310.703
45.14000 313.403
45.15000 317.573
45.16000 321.593
45.17000 323.314
45.18000 324.258
45.19000 325.268
45.20000 326.858
45.21000 328.583
45.22000 330.073
45.23000 329.271
45.24000 328.292
45.25000 326.863
45.26000 323.765
45.27000 320.511
45.28000 317.417
45.29000 314.734
45.30000 312.071
45.31000 310.357
45.32000 311.515
45.33000 312.401
45.34000 312.226
45.35000 310.775
45.36000 309.317
45.37000 306.033
45.38000 301.301
45.39000 296.635
45.40000 293.094
45.41000 290.244
45.42000 287.751
45.43000 291.824
45.44000 298.357
45.45000 303.647
45.46000 296.487
45.47000 286.118
45.48000 277.001
45.49000 273.199
45.50000 270.717
45.51000 269.396
45.52000 272.858
45.53000 276.838
45.54000 279.250
45.55000 277.224
45.56000 274.929
45.57000 273.396
45.58000 264.293
45.59000 257.401
45.60000 250.372
45.61000 243.161
45.62000 235.959
45.63000 240.023
45.64000 254.080
45.65000 268.003
45.66000 267.409
45.67000 258.305
45.68000 249.418
45.69000 245.463
45.70000 243.551
45.71000 242.036
45.72000 245.140
45.73000 249.566
45.74000 253.520
45.75000 243.928
45.76000 233.289
45.77000 225.171
45.78000 228.629
45.79000 233.525
45.80000 237.435
45.81000 238.254
45.82000 238.850
45.83000 239.263
45.84000 240.637
45.85000 241.697
45.86000 240.036
45.87000 234.314
45.88000 228.554
45.89000 225.467
45.90000 225.041
45.91000 224.617
45.92000 226.129
45.93000 228.890
45.94000 231.392
45.95000 226.503
45.96000 218.227
45.97000 210.420
45.98000 209.025
45.99000 209.664
46.00000 210.243
46.01000 213.368
46.02000 216.609
46.03000 218.699
46.04000 214.887
46.05000 210.241
46.06000 207.651
46.07000 212.192
46.08000 217.341
46.09000 221.019
46.10000 212.531
46.11000 205.649
46.12000 203.416
46.13000 208.884
46.14000 214.468
46.15000 216.367
46.16000 214.142
46.17000 211.922
46.18000 213.965
46.19000 219.122
46.20000 224.062
46.21000 220.932
46.22000 213.712
46.23000 206.898
46.24000 206.691
46.25000 208.803
46.26000 210.744
46.27000 207.775
46.28000 204.069
46.29000 201.230
46.30000 203.386
46.31000 206.340
46.32000 208.000
46.33000 204.680
46.34000 200.867
46.35000 198.059
46.36000 203.133
46.37000 207.388
46.38000 211.033
46.39000 213.560
46.40000 216.062
46.41000 214.367
46.42000 207.419
46.43000 200.465
46.44000 198.818
46.45000 201.544
46.46000 204.316
46.47000 209.410
46.48000 215.807
46.49000 221.818
46.50000 220.186
46.51000 215.585
46.52000 211.305
46.53000 209.092
46.54000 207.593
46.55000 205.940
46.56000 203.289
46.57000 200.458
46.58000 198.726
46.59000 201.702
46.60000 205.215
46.61000 207.875
46.62000 205.127
46.63000 202.694
46.64000 200.377
46.65000 198.293
46.66000 196.216
46.67000 196.606
46.68000 200.438
46.69000 204.292
46.70000 204.467
46.71000 201.244
46.72000 198.047
46.73000 196.839
46.74000 196.868
46.75000 196.880
46.76000 196.487
46.77000 195.921
46.78000 195.389
46.79000 200.553
46.80000 206.820
46.81000 212.383
46.82000 212.781
46.83000 212.139
46.84000 210.654
46.85000 205.144
46.86000 199.110
46.87000 194.419
46.88000 199.638
46.89000 204.397
46.90000 206.975
46.91000 204.650
46.92000 202.141
46.93000 200.042
46.94000 198.579
46.95000 197.123
46.96000 196.381
46.97000 197.718
46.98000 198.589
46.99000 196.406
47.00000 192.113
47.01000 188.144
47.02000 194.318
47.03000 205.309
47.04000 215.759
47.05000 211.285
47.06000 202.609
47.07000 194.934
47.08000 195.631
47.09000 198.209
47.10000 200.458
47.11000 200.948
47.12000 201.179
47.13000 201.362
47.14000 200.781
47.15000 200.258
47.16000 199.901
47.17000 199.961
47.18000 200.040
47.19000 198.794
47.20000 195.271
47.21000 191.709
47.22000 189.791
47.23000 190.328
47.24000 190.699
47.25000 191.484
47.26000 192.586
47.27000 193.728
47.28000 196.502
47.29000 200.134
47.30000 203.619
47.31000 198.567
47.32000 190.941
47.33000 184.350
47.34000 187.703
47.35000 193.544
47.36000 198.051
47.37000 194.540
47.38000 189.694
47.39000 185.743
47.40000 183.973
47.41000 182.711
47.42000 183.504
47.43000 189.943
47.44000 196.707
47.45000 199.373
47.46000 194.239
47.47000 188.916
47.48000 185.901
47.49000 184.748
47.50000 183.949
47.51000 181.744
47.52000 178.330
47.53000 174.997
47.54000 176.282
47.55000 180.257
47.56000 184.102
47.57000 187.391
47.58000 190.287
47.59000 192.731
47.60000 190.150
47.61000 186.171
47.62000 182.613
47.63000 181.900
47.64000 181.721
47.65000 181.571
47.66000 185.246
47.67000 188.668
47.68000 190.587
47.69000 187.934
47.70000 184.966
47.71000 184.583
47.72000 189.644
47.73000 194.880
47.74000 197.987
47.75000 190.203
47.76000 184.631
47.77000 183.243
47.78000 185.883
47.79000 188.473
47.80000 186.693
47.81000 182.091
47.82000 177.606
47.83000 177.989
47.84000 180.422
47.85000 182.734
47.86000 183.462
47.87000 183.703
47.88000 183.843
47.89000 183.211
47.90000 182.416
47.91000 181.741
47.92000 178.597
47.93000 175.676
47.94000 175.383
47.95000 183.945
47.96000 193.226
47.97000 198.210
47.98000 193.180
47.99000 187.742
48.00000 184.371
48.01000 183.723
48.02000 183.283
48.03000 183.959
48.04000 185.843
48.05000 187.725
48.06000 189.205
48.07000 190.398
48.08000 191.568
48.09000 187.651
48.10000 181.465
48.11000 175.918
48.12000 180.266
48.13000 187.988
48.14000 194.541
48.15000 190.823
48.16000 184.706
48.17000 179.413
48.18000 180.278
48.19000 181.822
48.20000 182.855
48.21000 181.978
48.22000 180.921
48.23000 180.255
48.24000 180.598
48.25000 180.992
48.26000 181.246
48.27000 182.529
48.28000 183.481
48.29000 182.308
48.30000 178.560
48.31000 174.816
48.32000 174.438
48.33000 176.751
48.34000 179.032
48.35000 177.393
48.36000 173.724
48.37000 170.210
48.38000 169.588
48.39000 170.056
48.40000 171.099
48.41000 177.953
48.42000 186.315
48.43000 193.677
48.44000 189.224
48.45000 183.621
48.46000 178.412
48.47000 174.839
48.48000 171.444
48.49000 170.268
48.50000 175.410
48.51000 180.940
48.52000 184.643
48.53000 181.398
48.54000 178.851
48.55000 178.597
48.56000 181.441
48.57000 184.302
48.58000 186.546
48.59000 188.239
48.60000 189.917
48.61000 187.775
48.62000 183.416
48.63000 179.328
48.64000 181.433
48.65000 186.122
48.66000 190.288
48.67000 188.291
48.68000 184.517
48.69000 181.141
48.70000 181.820
48.71000 183.102
48.72000 183.369
48.73000 178.942
48.74000 173.927
48.75000 171.378
48.76000 176.610
48.77000 182.412
48.78000 186.434
48.79000 185.667
48.80000 184.964
48.81000 183.584
48.82000 181.186
48.83000 178.778
48.84000 178.890
48.85000 181.532
48.86000 184.160
48.87000 183.600
48.88000 180.938
48.89000 178.336
48.90000 177.463
48.91000 177.389
48.92000 177.480
48.93000 179.864
48.94000 182.981
48.95000 185.810
48.96000 185.298
48.97000 184.204
48.98000 183.127
48.99000 182.139
49.00000 181.164
49.01000 180.401
49.02000 180.381
49.03000 180.425
49.04000 180.457
49.05000 179.976
49.06000 179.592
49.07000 181.067
49.08000 185.644
49.09000 190.270
49.10000 190.002
49.11000 184.214
49.12000 178.439
49.13000 176.023
49.14000 176.111
49.15000 176.140
49.16000 173.914
49.17000 170.536
49.18000 167.480
49.19000 169.724
49.20000 173.844
49.21000 177.632
49.22000 180.607
49.23000 183.087
49.24000 185.242
49.25000 185.502
49.26000 185.458
49.27000 185.520
49.28000 185.994
49.29000 186.510
49.30000 186.891
49.31000 185.930
49.32000 185.128
49.33000 184.211
49.34000 183.077
49.35000 181.939
49.36000 181.796
49.37000 182.908
49.38000 184.023
49.39000 182.541
49.40000 178.910
49.41000 175.338
49.42000 174.844
49.43000 176.088
49.44000 177.302
49.45000 177.892
49.46000 178.239
49.47000 178.561
49.48000 177.982
49.49000 177.239
49.50000 176.196
49.51000 173.192
49.52000 169.831
49.53000 167.960
49.54000 172.512
49.55000 177.804
49.56000 181.820
49.57000 183.576
49.58000 184.839
49.59000 183.251
49.60000 175.827
49.61000 168.230
49.62000 164.604
49.63000 166.557
49.64000 168.549
49.65000 174.584
49.66000 184.383
49.67000 194.047
49.68000 193.307
49.69000 186.048
49.70000 178.976
49.71000 176.575
49.72000 176.194
49.73000 175.835
49.74000 172.813
49.75000 169.320
49.76000 166.583
49.77000 169.447
49.78000 173.448
49.79000 176.925
49.80000 177.877
49.81000 178.497
49.82000 178.980
49.83000 176.964
49.84000 175.204
49.85000 174.304
49.86000 175.351
49.87000 176.472
49.88000 176.964
49.89000 176.474
49.90000 175.972
49.91000 175.715
49.92000 168.960
49.93000 164.448
49.94000 163.480
49.95000 164.978
49.96000 166.530
49.97000 169.802
49.98000 173.897
49.99000 177.792
50.00000 178.976
50.01000 179.239
50.02000 179.671
50.03000 181.528
50.04000 183.708
50.05000 185.119
50.06000 182.386
50.07000 179.036
50.08000 176.362
50.09000 175.969
50.10000 175.820
50.11000 176.297
50.12000 178.341
50.13000 180.459
50.14000 180.895
50.15000 178.416
50.16000 175.885
50.17000 174.518
50.18000 173.246
50.19000 172.379
50.20000 172.260
50.21000 172.722
50.22000 173.159
50.23000 172.551
50.24000 171.391
50.25000 170.277
50.26000 172.905
50.27000 176.646
50.28000 180.247
50.29000 182.475
50.30000 184.357
50.31000 185.903
50.32000 185.415
50.33000 184.586
50.34000 183.909
50.35000 182.060
50.36000 180.446
50.37000 178.988
50.38000 177.961
50.39000 176.958
50.40000 176.378
50.41000 176.608
50.42000 176.858
50.43000 177.000
50.44000 183.748
50.45000 188.465
50.46000 190.265
50.47000 189.537
50.48000 188.821
50.49000 188.834
50.50000 189.275
50.51000 189.702
50.52000 193.291
50.53000 197.898
50.54000 202.291
50.55000 204.282
50.56000 205.601
50.57000 207.305
50.58000 211.642
50.59000 216.477
50.60000 220.509
50.61000 221.931
50.62000 222.849
50.63000 224.137
50.64000 226.558
50.65000 229.058
50.66000 231.721
50.67000 234.731
50.68000 237.753
50.69000 239.552
50.70000 246.563
50.71000 251.561
50.72000 252.839
50.73000 250.504
50.74000 248.182
50.75000 246.956
50.76000 246.445
50.77000 245.947
50.78000 248.887
50.79000 253.166
50.80000 257.061
50.81000 255.878
50.82000 253.118
50.83000 250.443
50.84000 248.417
50.85000 246.528
50.86000 244.921
50.87000 240.799
50.88000 237.046
50.89000 233.409
50.90000 230.163
50.91000 226.949
50.92000 225.054
50.93000 226.255
50.94000 227.584
50.95000 228.410
50.96000 221.138
50.97000 215.821
50.98000 212.047
50.99000 209.957
51.00000 207.880
51.01000 207.721
51.02000 208.949
51.03000 210.153
51.04000 205.674
51.05000 198.638
51.06000 192.087
51.07000 193.121
51.08000 196.762
51.09000 200.267
51.10000 202.564
51.11000 204.576
51.12000 206.319
51.13000 202.857
51.14000 199.220
51.15000 196.041
51.16000 194.585
51.17000 193.293
51.18000 191.668
51.19000 189.178
51.20000 186.645
51.21000 185.005
51.22000 179.609
51.23000 175.608
51.24000 175.597
51.25000 180.462
51.26000 185.322
51.27000 184.418
51.28000 178.868
51.29000 173.392
51.30000 171.028
51.31000 170.392
51.32000 169.929
51.33000 172.746
51.34000 176.811
51.35000 180.440
51.36000 179.618
51.37000 177.631
51.38000 175.879
51.39000 172.587
51.40000 169.517
51.41000 167.657
51.42000 170.862
51.43000 174.628
51.44000 176.990
51.45000 175.325
51.46000 173.409
51.47000 172.123
51.48000 172.577
51.49000 172.949
51.50000 172.283
51.51000 170.202
51.52000 168.114
51.53000 167.009
51.54000 166.790
51.55000 166.573
51.56000 165.987
51.57000 165.193
51.58000 164.368
51.59000 162.850
51.60000 161.040
51.61000 159.561
51.62000 162.017
51.63000 165.617
51.64000 168.840
51.65000 168.592
51.66000 167.780
51.67000 167.119
51.68000 167.168
51.69000 167.306
51.70000 166.881
51.71000 164.667
51.72000 162.320
51.73000 160.689
51.74000 168.787
51.75000 175.153
51.76000 178.128
51.77000 175.966
51.78000 173.751
51.79000 171.248
51.80000 168.453
51.81000 165.673
51.82000 164.710
51.83000 164.968
51.84000 165.208
51.85000 164.874
51.86000 164.273
51.87000 163.544
51.88000 161.015
51.89000 157.907
51.90000 155.084
51.91000 152.715
51.92000 150.710
51.93000 149.745
51.94000 154.201
51.95000 159.437
51.96000 163.116
51.97000 161.315
51.98000 159.038
51.99000 157.403
52.00000 153.537
52.01000 150.504
52.02000 150.680
52.03000 156.251
52.04000 161.909
52.05000 163.160
52.06000 159.400
52.07000 155.646
52.08000 157.236
52.09000 162.802
52.10000 168.251
52.11000 169.173
52.12000 167.767
52.13000 166.425
52.14000 166.145
52.15000 166.245
52.16000 166.337
52.17000 160.712
52.18000 154.431
52.19000 149.597
52.20000 153.234
52.21000 158.248
52.22000 162.109
52.23000 161.465
52.24000 160.366
52.25000 159.553
52.26000 167.200
52.27000 173.493
52.28000 176.355
52.29000 172.827
52.30000 169.155
52.31000 166.429
52.32000 164.905
52.33000 163.388
52.34000 161.062
52.35000 158.068
52.36000 155.153
52.37000 156.500
52.38000 160.272
52.39000 163.915
52.40000 164.901
52.41000 164.840
52.42000 164.784
52.43000 165.201
52.44000 165.695
52.45000 166.073
52.46000 165.689
52.47000 165.166
52.48000 164.959
52.49000 166.126
52.50000 167.452
52.51000 168.461
52.52000 166.296
52.53000 164.427
52.54000 164.028
52.55000 166.661
52.56000 169.385
52.57000 169.326
52.58000 165.327
52.59000 161.300
52.60000 160.318
52.61000 162.195
52.62000 164.049
52.63000 164.156
52.64000 163.160
52.65000 162.087
52.66000 159.076
52.67000 155.221
52.68000 151.587
52.69000 151.128
52.70000 151.584
52.71000 152.715
52.72000 158.886
52.73000 166.088
52.74000 171.251
52.75000 166.523
52.76000 160.483
52.77000 155.769
52.78000 149.827
52.79000 145.012
52.80000 143.296
52.81000 148.646
52.82000 154.270
52.83000 157.383
52.84000 156.544
52.85000 155.657
52.86000 155.201
52.87000 156.681
52.88000 157.659
52.89000 156.372
52.90000 153.497
52.91000 150.793
52.92000 153.651
52.93000 159.189
52.94000 164.461
52.95000 162.642
52.96000 158.765
52.97000 155.626
52.98000 158.778
52.99000 163.366
53.00000 166.996
53.01000 165.424
53.02000 163.069
53.03000 161.187
53.04000 159.115
53.05000 157.426
53.06000 157.062
53.07000 160.037
53.08000 163.175
53.09000 164.333
53.10000 162.037
53.11000 159.678
53.12000 158.399
53.13000 157.790
53.14000 157.374
53.15000 156.844
53.16000 156.227
53.17000 155.705
53.18000 159.325
53.19000 165.153
53.20000 170.752
53.21000 167.604
53.22000 161.632
53.23000 156.449
53.24000 159.001
53.25000 163.517
53.26000 166.828
53.27000 162.787
53.28000 157.498
53.29000 153.172
53.30000 151.553
53.31000 150.462
53.32000 150.597
53.33000 154.147
53.34000 157.898
53.35000 162.087
53.36000 167.122
53.37000 172.177
53.38000 175.061
53.39000 165.953
53.40000 159.567
53.41000 159.092
53.42000 163.775
53.43000 168.362
53.44000 167.041
53.45000 162.230
53.46000 157.571
53.47000 161.643
53.48000 168.870
53.49000 175.328
53.50000 173.035
53.51000 168.275
53.52000 163.559
53.53000 159.158
53.54000 154.816
53.55000 151.190
53.56000 156.780
53.57000 162.353
53.58000 165.024
53.59000 158.744
53.60000 151.831
53.61000 148.687
53.62000 153.595
53.63000 158.771
53.64000 161.863
53.65000 154.771
53.66000 149.677
53.67000 149.266
53.68000 153.444
53.69000 157.619
53.70000 161.545
53.71000 165.308
53.72000 168.979
53.73000 166.431
53.74000 161.312
53.75000 156.574
53.76000 156.914
53.77000 158.842
53.78000 160.480
53.79000 159.850
53.80000 158.738
53.81000 157.790
53.82000 156.166
53.83000 154.722
53.84000 153.455
53.85000 152.796
53.86000 152.188
53.87000 153.170
53.88000 157.910
53.89000 162.808
53.90000 165.862
53.91000 162.194
53.92000 159.481
53.93000 158.242
53.94000 158.624
53.95000 159.009
53.96000 159.544
53.97000 160.189
53.98000 160.822
53.99000 160.300
54.00000 159.239
54.01000 158.156
54.02000 156.712
54.03000 155.144
54.04000 153.551
54.05000 151.740
54.06000 149.878
54.07000 148.262
54.08000 148.032
54.09000 148.022
54.10000 148.915
54.11000 153.232
54.12000 157.882
54.13000 161.167
54.14000 160.887
54.15000 160.421
54.16000 160.119
54.17000 154.824
54.18000 150.872
54.19000 150.735
54.20000 155.298
54.21000 159.864
54.22000 160.738
54.23000 158.613
54.24000 156.515
54.25000 154.868
54.26000 153.508
54.27000 152.101
54.28000 149.805
54.29000 147.167
54.30000 145.004
54.31000 147.733
54.32000 151.753
54.33000 155.300
54.34000 152.733
54.35000 149.586
54.36000 148.154
54.37000 153.951
54.38000 160.555
54.39000 163.642
54.40000 156.565
54.41000 148.845
54.42000 143.650
54.43000 148.758
54.44000 152.770
54.45000 155.953
54.46000 157.998
54.47000 160.036
54.48000 161.750
54.49000 163.169
54.50000 164.575
54.51000 166.997
54.52000 169.983
54.53000 172.708
54.54000 169.245
54.55000 163.163
54.56000 157.552
54.57000 157.607
54.58000 159.320
54.59000 160.856
54.60000 161.239
54.61000 161.375
54.62000 160.922
54.63000 157.702
54.64000 154.129
54.65000 151.365
54.66000 151.188
54.67000 151.205
54.68000 151.217
54.69000 159.418
54.70000 165.831
54.71000 167.476
54.72000 161.844
54.73000 156.135
54.74000 154.069
54.75000 155.726
54.76000 157.375
54.77000 157.202
54.78000 155.808
54.79000 154.446
54.80000 154.052
54.81000 154.110
54.82000 154.311
54.83000 156.532
54.84000 159.408
54.85000 162.022
54.86000 159.182
54.87000 155.603
54.88000 153.359
54.89000 158.135
54.90000 163.930
54.91000 167.782
54.92000 164.744
54.93000 161.099
54.94000 158.478
54.95000 151.965
54.96000 146.845
54.97000 145.689
54.98000 151.250
54.99000 156.921
55.00000 158.788
55.01000 156.295
55.02000 153.804
55.03000 153.090
55.04000 153.717
55.05000 154.336
55.06000 154.634
55.07000 154.765
55.08000 155.080
55.09000 158.505
55.10000 163.047
55.11000 167.232
55.12000 166.685
55.13000 165.151
55.14000 164.010
55.15000 165.186
55.16000 166.741
55.17000 167.104
55.18000 162.771
55.19000 157.958
55.20000 154.392
55.21000 158.629
55.22000 162.257
55.23000 165.170
55.24000 166.740
55.25000 168.278
55.26000 169.348
55.27000 169.818
55.28000 170.285
55.29000 169.102
55.30000 166.530
55.31000 163.950
55.32000 160.892
55.33000 157.562
55.34000 154.379
55.35000 154.259
55.36000 155.355
55.37000 156.377
55.38000 164.793
55.39000 174.249
55.40000 181.946
55.41000 177.935
55.42000 171.766
55.43000 167.749
55.44000 173.164
55.45000 179.686
55.46000 184.654
55.47000 182.358
55.48000 180.165
55.49000 179.055
55.50000 180.191
55.51000 181.396
55.52000 183.146
55.53000 185.676
55.54000 188.211
55.55000 189.013
55.56000 188.175
55.57000 187.378
55.58000 189.986
55.59000 194.759
55.60000 199.529
55.61000 204.228
55.62000 208.895
55.63000 213.298
55.64000 215.457
55.65000 216.811
55.66000 218.400
55.67000 221.758
55.68000 225.480
55.69000 229.387
55.70000 234.196
55.71000 239.126
55.72000 242.980
55.73000 256.193
55.74000 267.334
55.75000 277.736
55.76000 286.442
55.77000 295.081
55.78000 303.738
55.79000 312.421
55.80000 321.106
55.81000 325.585
55.82000 349.035
55.83000 364.826
55.84000 379.343
55.85000 392.958
55.86000 406.771
55.87000 427.104
55.88000 450.602
55.89000 472.989
55.90000 476.076
55.91000 472.922
55.92000 471.599
55.93000 486.040
55.94000 504.109
55.95000 520.681
55.96000 529.057
55.97000 536.189
55.98000 541.901
55.99000 544.597
56.00000 546.551
56.01000 549.641
56.02000 555.614
56.03000 561.729
56.04000 558.911
56.05000 540.398
56.06000 521.592
56.07000 511.352
56.08000 515.913
56.09000 519.042
56.10000 516.497
56.11000 509.483
56.12000 502.471
56.13000 495.543
56.14000 488.661
56.15000 482.044
56.16000 467.373
56.17000 450.821
56.18000 434.649
56.19000 422.242
56.20000 410.798
56.21000 399.931
56.22000 392.617
56.23000 385.910
56.24000 380.416
56.25000 358.477
56.26000 339.041
56.27000 324.379
56.28000 323.124
56.29000 322.671
56.30000 318.146
56.31000 305.699
56.32000 293.048
56.33000 285.807
56.34000 276.220
56.35000 269.520
56.36000 266.169
56.37000 265.766
56.38000 265.279
56.39000 259.556
56.40000 250.717
56.41000 242.151
56.42000 235.929
56.43000 230.950
56.44000 225.613
56.45000 216.156
56.46000 205.529
56.47000 196.457
56.48000 198.199
56.49000 202.017
56.50000 205.210
56.51000 203.625
56.52000 201.820
56.53000 198.660
56.54000 191.289
56.55000 183.618
56.56000 177.868
56.57000 176.255
56.58000 174.783
56.59000 173.900
56.60000 180.830
56.61000 185.802
56.62000 186.033
56.63000 181.582
56.64000 177.124
56.65000 171.933
56.66000 166.260
56.67000 160.723
56.68000 159.687
56.69000 160.655
56.70000 161.641
56.71000 162.869
56.72000 164.172
56.73000 164.763
56.74000 159.720
56.75000 153.468
56.76000 148.135
56.77000 149.829
56.78000 152.082
56.79000 154.558
56.80000 157.802
56.81000 161.111
56.82000 162.019
56.83000 157.214
56.84000 152.163
56.85000 149.005
56.86000 150.344
56.87000 151.357
56.88000 151.523
56.89000 150.747
56.90000 149.971
56.91000 149.290
56.92000 148.678
56.93000 148.078
56.94000 147.811
56.95000 147.716
56.96000 147.795
56.97000 150.674
56.98000 154.530
56.99000 157.697
57.00000 154.636
57.01000 150.086
57.02000 146.134
57.03000 143.912
57.04000 142.252
57.05000 141.063
57.06000 141.681
57.07000 142.475
57.08000 144.354
57.09000 149.088
57.10000 153.972
57.11000 157.150
57.12000 149.379
57.13000 143.513
57.14000 139.312
57.15000 137.178
57.16000 135.059
57.17000 136.727
57.18000 141.496
57.19000 146.204
57.20000 148.090
57.21000 148.397
57.22000 148.465
57.23000 143.905
57.24000 137.559
57.25000 131.950
57.26000 134.035
57.27000 138.164
57.28000 141.811
57.29000 139.511
57.30000 136.609
57.31000 134.416
57.32000 135.234
57.33000 136.392
57.34000 137.241
57.35000 137.193
57.36000 137.087
57.37000 137.016
57.38000 136.161
57.39000 135.508
57.40000 135.997
57.41000 138.066
57.42000 140.146
57.43000 142.022
57.44000 143.713
57.45000 145.389
57.46000 144.303
57.47000 141.563
57.48000 138.910
57.49000 138.337
57.50000 138.652
57.51000 138.954
57.52000 139.104
57.53000 139.209
57.54000 139.303
57.55000 140.466
57.56000 141.671
57.57000 142.548
57.58000 141.881
57.59000 141.014
57.60000 139.920
57.61000 138.091
57.62000 136.207
57.63000 134.891
57.64000 144.732
57.65000 152.477
57.66000 154.661
57.67000 148.292
57.68000 141.829
57.69000 139.265
57.70000 140.717
57.71000 142.163
57.72000 143.018
57.73000 143.462
57.74000 143.813
57.75000 141.313
57.76000 137.468
57.77000 133.856
57.78000 133.596
57.79000 134.431
57.80000 135.190
57.81000 140.124
57.82000 145.314
57.83000 149.216
57.84000 146.290
57.85000 142.365
57.86000 139.457
57.87000 140.189
57.88000 141.245
57.89000 142.006
57.90000 145.464
57.91000 148.209
57.92000 148.821
57.93000 145.791
57.94000 142.700
57.95000 142.188
57.96000 144.656
57.97000 147.122
57.98000 148.361
57.99000 148.660
58.00000 148.932
58.01000 148.118
58.02000 146.738
58.03000 145.271
58.04000 142.314
58.05000 138.819
58.06000 135.596
58.07000 136.834
58.08000 138.936
58.09000 140.760
58.10000 140.929
58.11000 140.824
58.12000 140.363
58.13000 138.490
58.14000 136.471
58.15000 134.971
58.16000 137.014
58.17000 138.757
58.18000 139.594
58.19000 138.718
58.20000 137.802
58.21000 135.704
58.22000 132.078
58.23000 128.450
58.24000 128.270
58.25000 131.021
58.26000 133.792
58.27000 137.612
58.28000 142.039
58.29000 146.119
58.30000 142.925
58.31000 136.823
58.32000 131.127
58.33000 132.610
58.34000 135.750
58.35000 138.827
58.36000 141.481
58.37000 144.056
58.38000 145.123
58.39000 139.531
58.40000 133.150
58.41000 128.279
58.42000 127.879
58.43000 127.803
58.44000 130.083
58.45000 137.287
58.46000 144.646
58.47000 146.687
58.48000 141.083
58.49000 135.420
58.50000 131.696
58.51000 129.826
58.52000 127.968
58.53000 127.160
58.54000 127.026
58.55000 126.976
58.56000 129.164
58.57000 132.341
58.58000 135.339
58.59000 136.486
58.60000 137.019
58.61000 137.589
58.62000 138.439
58.63000 139.347
58.64000 139.672
58.65000 137.126
58.66000 134.192
58.67000 131.894
58.68000 135.080
58.69000 137.977
58.70000 139.001
58.71000 135.695
58.72000 132.214
58.73000 130.870
58.74000 132.938
58.75000 135.051
58.76000 136.145
58.77000 135.379
58.78000 134.865
58.79000 134.701
58.80000 134.787
58.81000 134.822
58.82000 133.163
58.83000 130.676
58.84000 128.305
58.85000 126.603
58.86000 125.235
58.87000 124.532
58.88000 129.613
58.89000 136.034
58.90000 141.074
58.91000 138.485
58.92000 134.728
58.93000 131.715
58.94000 131.362
58.95000 131.279
58.96000 131.829
58.97000 133.996
58.98000 136.244
58.99000 136.570
59.00000 133.497
59.01000 130.359
59.02000 128.643
59.03000 134.452
59.04000 138.443
59.05000 139.256
59.06000 137.546
59.07000 135.899
59.08000 137.083
59.09000 139.797
59.10000 142.409
59.11000 139.941
59.12000 135.842
59.13000 132.060
59.14000 131.453
59.15000 131.664
59.16000 131.545
59.17000 129.374
59.18000 126.850
59.19000 124.779
59.20000 130.279
59.21000 135.467
59.22000 138.995
59.23000 137.829
59.24000 136.379
59.25000 133.253
59.26000 126.844
59.27000 120.349
59.28000 116.618
59.29000 122.345
59.30000 126.381
59.31000 127.887
59.32000 127.148
59.33000 126.456
59.34000 128.813
59.35000 132.997
59.36000 137.055
59.37000 137.136
59.38000 135.651
59.39000 134.177
59.40000 132.819
59.41000 131.494
59.42000 130.245
59.43000 129.524
59.44000 128.906
59.45000 128.387
59.46000 127.590
59.47000 126.899
59.48000 127.358
59.49000 131.420
59.50000 135.742
59.51000 139.098
59.52000 140.357
59.53000 141.545
59.54000 142.259
59.55000 137.876
59.56000 134.725
59.57000 132.588
59.58000 131.462
59.59000 130.371
59.60000 132.799
59.61000 137.569
59.62000 142.226
59.63000 140.579
59.64000 136.239
59.65000 132.172
59.66000 131.831
59.67000 132.672
59.68000 133.228
59.69000 131.515
59.70000 129.311
59.71000 127.429
59.72000 128.462
59.73000 129.680
59.74000 131.235
59.75000 133.965
59.76000 136.795
59.77000 137.629
59.78000 133.677
59.79000 129.516
59.80000 126.907
59.81000 125.874
59.82000 125.145
59.83000 124.445
59.84000 123.775
59.85000 123.112
59.86000 123.478
59.87000 124.606
59.88000 125.715
59.89000 128.991
59.90000 133.216
59.91000 137.396
59.92000 140.855
59.93000 144.060
59.94000 146.524
59.95000 142.227
59.96000 136.300
59.97000 131.145
59.98000 129.540
59.99000 128.655
60.00000 127.374
60.01000 124.573
60.02000 121.621
60.03000 120.670
60.04000 125.026
60.05000 129.666
60.06000 132.692
60.07000 132.698
60.08000 132.654
60.09000 131.981
60.10000 130.521
60.11000 129.066
60.12000 131.160
60.13000 136.185
60.14000 141.147
60.15000 138.151
60.16000 130.880
60.17000 123.962
60.18000 124.041
60.19000 126.838
60.20000 129.891
60.21000 135.647
60.22000 142.128
60.23000 147.860
60.24000 139.228
60.25000 129.539
60.26000 122.181
60.27000 124.812
60.28000 128.581
60.29000 131.058
60.30000 129.746
60.31000 128.188
60.32000 127.134
60.33000 125.887
60.34000 124.954
60.35000 125.076
60.36000 126.669
60.37000 128.272
60.38000 129.208
60.39000 129.528
60.40000 129.845
60.41000 128.756
60.42000 126.829
60.43000 124.959
60.44000 124.501
60.45000 124.650
60.46000 124.893
60.47000 126.302
60.48000 128.057
60.49000 129.633
60.50000 129.536
60.51000 129.157
60.52000 129.696
60.53000 134.622
60.54000 140.120
60.55000 144.180
60.56000 143.574
60.57000 142.610
60.58000 141.935
60.59000 135.831
60.60000 131.062
60.61000 129.032
60.62000 131.246
60.63000 133.509
60.64000 135.655
60.65000 137.680
60.66000 139.695
60.67000 139.686
60.68000 138.296
60.69000 136.999
60.70000 138.628
60.71000 141.647
60.72000 144.426
60.73000 143.727
60.74000 141.882
60.75000 140.202
60.76000 140.090
60.77000 140.303
60.78000 139.911
60.79000 136.288
60.80000 132.188
60.81000 129.242
60.82000 130.456
60.83000 132.044
60.84000 133.191
60.85000 134.090
60.86000 134.770
60.87000 134.912
60.88000 134.128
60.89000 133.327
60.90000 133.759
60.91000 135.628
60.92000 137.494
60.93000 136.651
60.94000 133.743
60.95000 130.920
60.96000 131.656
60.97000 134.263
60.98000 136.878
60.99000 139.641
61.00000 142.458
61.01000 145.058
61.02000 140.225
61.03000 134.224
61.04000 129.467
61.05000 132.174
61.06000 136.126
61.07000 138.865
61.08000 136.754
61.09000 134.137
61.10000 132.191
61.11000 134.699
61.12000 136.850
61.13000 138.599
61.14000 139.586
61.15000 140.555
61.16000 140.807
61.17000 140.126
61.18000 139.443
61.19000 138.732
61.20000 137.999
61.21000 137.268
61.22000 136.693
61.23000 136.208
61.24000 135.732
61.25000 135.454
61.26000 135.257
61.27000 135.072
61.28000 135.695
61.29000 136.464
61.30000 137.100
61.31000 136.840
61.32000 136.412
61.33000 136.741
61.34000 140.442
61.35000 144.547
61.36000 147.685
61.37000 139.344
61.38000 132.139
61.39000 129.888
61.40000 138.070
61.41000 146.586
61.42000 149.190
61.43000 143.232
61.44000 137.204
61.45000 136.315
61.46000 140.376
61.47000 144.430
61.48000 147.912
61.49000 151.024
61.50000 154.201
61.51000 159.117
61.52000 164.806
61.53000 170.180
61.54000 179.242
61.55000 188.602
61.56000 198.223
61.57000 209.843
61.58000 221.882
61.59000 233.093
61.60000 240.191
61.61000 246.727
61.62000 251.856
61.63000 260.497
61.64000 267.637
61.65000 272.004
61.66000 269.915
61.67000 267.561
61.68000 267.100
61.69000 269.681
61.70000 272.303
61.71000 273.667
61.72000 273.416
61.73000 273.220
61.74000 269.088
61.75000 262.130
61.76000 255.139
61.77000 247.000
61.78000 238.296
61.79000 229.991
61.80000 217.187
61.81000 203.877
61.82000 191.019
61.83000 182.126
61.84000 174.159
61.85000 166.843
61.86000 163.146
61.87000 160.009
61.88000 157.487
61.89000 155.164
61.90000 153.296
61.91000 152.163
61.92000 152.924
61.93000 153.782
61.94000 153.111
61.95000 149.716
61.96000 146.267
61.97000 144.375
61.98000 142.200
61.99000 140.711
62.00000 141.896
62.01000 145.220
62.02000 148.510
62.03000 150.183
62.04000 150.976
62.05000 151.738
62.06000 147.371
62.07000 141.455
62.08000 136.049
62.09000 135.793
62.10000 136.876
62.11000 137.917
62.12000 138.700
62.13000 139.439
62.14000 140.046
62.15000 142.264
62.16000 144.232
62.17000 145.750
62.18000 145.990
62.19000 146.151
62.20000 145.511
62.21000 143.287
62.22000 141.020
62.23000 139.714
62.24000 141.717
62.25000 143.132
62.26000 143.789
62.27000 143.769
62.28000 143.721
62.29000 141.771
62.30000 138.673
62.31000 135.667
62.32000 135.733
62.33000 137.011
62.34000 137.996
62.35000 135.526
62.36000 132.059
62.37000 129.138
62.38000 130.084
62.39000 131.784
62.40000 133.210
62.41000 131.905
62.42000 130.533
62.43000 130.099
62.44000 132.622
62.45000 135.361
62.46000 137.191
62.47000 137.034
62.48000 136.807
62.49000 136.670
62.50000 135.344
62.51000 134.392
62.52000 134.350
62.53000 135.222
62.54000 136.096
62.55000 137.148
62.56000 138.318
62.57000 139.461
62.58000 141.577
62.59000 144.034
62.60000 146.339
62.61000 146.544
62.62000 146.076
62.63000 145.646
62.64000 145.517
62.65000 145.453
62.66000 145.399
62.67000 145.598
62.68000 145.796
62.69000 145.203
62.70000 141.844
62.71000 138.246
62.72000 135.882
62.73000 136.497
62.74000 137.244
62.75000 137.713
62.76000 143.240
62.77000 147.294
62.78000 147.504
62.79000 143.378
62.80000 139.279
62.81000 141.236
62.82000 147.711
62.83000 154.074
62.84000 153.343
62.85000 149.135
62.86000 144.844
62.87000 139.170
62.88000 133.008
62.89000 128.019
62.90000 133.847
62.91000 142.301
62.92000 149.663
62.93000 146.251
62.94000 141.853
62.95000 138.665
62.96000 140.170
62.97000 142.145
62.98000 144.444
62.99000 147.610
63.00000 150.823
63.01000 152.925
63.02000 155.440
63.03000 157.294
63.04000 157.990
63.05000 157.224
63.06000 156.452
63.07000 154.795
63.08000 152.401
63.09000 150.036
63.10000 147.343
63.11000 144.537
63.12000 141.843
63.13000 141.392
63.14000 141.818
63.15000 142.409
63.16000 144.761
63.17000 147.588
63.18000 150.091
63.19000 148.697
63.20000 146.880
63.21000 145.451
63.22000 145.698
63.23000 146.138
63.24000 146.857
63.25000 148.400
63.26000 149.998
63.27000 151.081
63.28000 149.557
63.29000 148.363
63.30000 146.580
63.31000 143.971
63.32000 141.356
63.33000 140.109
63.34000 140.136
63.35000 140.164
63.36000 142.699
63.37000 146.734
63.38000 150.501
63.39000 147.594
63.40000 141.800
63.41000 136.644
63.42000 139.424
63.43000 144.580
63.44000 149.216
63.45000 150.537
63.46000 151.105
63.47000 151.466
63.48000 150.828
63.49000 150.059
63.50000 150.096
63.51000 152.765
63.52000 155.640
63.53000 157.656
63.54000 150.154
63.55000 144.200
63.56000 142.556
63.57000 147.640
63.58000 152.803
63.59000 153.504
63.60000 149.531
63.61000 145.575
63.62000 145.984
63.63000 149.393
63.64000 152.690
63.65000 152.415
63.66000 150.432
63.67000 148.637
63.68000 149.598
63.69000 151.473
63.70000 153.183
63.71000 150.132
63.72000 146.471
63.73000 143.788
63.74000 146.381
63.75000 149.760
63.76000 152.151
63.77000 150.964
63.78000 149.450
63.79000 148.355
63.80000 149.572
63.81000 150.592
63.82000 150.393
63.83000 148.084
63.84000 145.738
63.85000 144.782
63.86000 145.458
63.87000 146.135
63.88000 146.076
63.89000 145.448
63.90000 144.859
63.91000 145.870
63.92000 147.729
63.93000 149.549
63.94000 150.686
63.95000 151.572
63.96000 152.390
63.97000 153.986
63.98000 155.593
63.99000 156.597
64.00000 153.946
64.01000 150.680
64.02000 148.937
64.03000 153.325
64.04000 158.359
64.05000 162.112
64.06000 159.583
64.07000 157.328
64.08000 156.755
64.09000 159.404
64.10000 162.133
64.11000 162.874
64.12000 161.008
64.13000 159.131
64.14000 159.269
64.15000 161.148
64.16000 162.967
64.17000 161.265
64.18000 157.497
64.19000 153.947
64.20000 155.082
64.21000 158.118
64.22000 160.957
64.23000 160.508
64.24000 159.264
64.25000 158.352
64.26000 159.707
64.27000 161.491
64.28000 163.323
64.29000 165.373
64.30000 167.449
64.31000 169.040
64.32000 160.816
64.33000 153.782
64.34000 150.764
64.35000 156.267
64.36000 162.049
64.37000 165.615
64.38000 165.947
64.39000 166.251
64.40000 167.762
64.41000 170.446
64.42000 173.130
64.43000 175.792
64.44000 178.439
64.45000 180.975
64.46000 180.492
64.47000 178.656
64.48000 176.920
64.49000 174.962
64.50000 173.100
64.51000 171.263
64.52000 169.622
64.53000 168.023
64.54000 166.663
64.55000 166.502
64.56000 166.506
64.57000 166.509
64.58000 175.992
64.59000 184.207
64.60000 189.089
64.61000 186.150
64.62000 182.885
64.63000 179.540
64.64000 176.067
64.65000 172.593
64.66000 170.779
64.67000 171.599
64.68000 172.155
64.69000 172.915
64.70000 173.821
64.71000 174.697
64.72000 174.526
64.73000 173.836
64.74000 173.178
64.75000 174.899
64.76000 177.258
64.77000 179.176
64.78000 177.185
64.79000 174.274
64.80000 171.543
64.81000 169.830
64.82000 168.275
64.83000 167.023
64.84000 166.175
64.85000 165.518
64.86000 166.234
64.87000 170.514
64.88000 174.976
64.89000 177.602
64.90000 176.927
64.91000 176.186
64.92000 175.778
64.93000 180.378
64.94000 183.545
64.95000 183.375
64.96000 180.514
64.97000 177.717
64.98000 177.959
64.99000 179.870
65.00000 181.710
65.01000 179.816
65.02000 176.704
65.03000 174.494
65.04000 181.503
65.05000 190.926
65.06000 198.200
65.07000 191.897
65.08000 183.213
65.09000 176.067
65.10000 187.201
65.11000 198.019
65.12000 205.997
65.13000 205.823
65.14000 205.142
65.15000 204.316
65.16000 203.203
65.17000 202.083
65.18000 201.435
65.19000 203.057
65.20000 204.203
65.21000 206.738
65.22000 210.525
65.23000 214.318
65.24000 218.470
65.25000 222.843
65.26000 227.087
65.27000 229.094
65.28000 230.106
65.29000 230.727
65.30000 226.702
65.31000 221.327
65.32000 218.149
65.33000 230.669
65.34000 246.275
65.35000 259.387
65.36000 256.165
65.37000 251.758
65.38000 250.461
65.39000 259.042
65.40000 268.355
65.41000 275.170
65.42000 276.488
65.43000 277.610
65.44000 278.288
65.45000 289.406
65.46000 297.405
65.47000 306.172
65.48000 315.717
65.49000 325.209
65.50000 328.976
65.51000 328.876
65.52000 328.778
65.53000 333.342
65.54000 339.793
65.55000 346.419
65.56000 355.515
65.57000 365.406
65.58000 374.171
65.59000 373.786
65.60000 371.391
65.61000 369.341
65.62000 379.171
65.63000 388.910
65.64000 398.271
65.65000 406.297
65.66000 414.207
65.67000 428.348
65.68000 457.642
65.69000 487.617
65.70000 506.525
65.71000 564.235
65.72000 606.471
65.73000 649.435
65.74000 693.225
65.75000 737.036
65.76000 784.846
65.77000 835.661
65.78000 885.628
65.79000 931.719
65.80000 974.371
65.81000 1015.707
65.82000 1035.029
65.83000 1046.507
65.84000 1058.484
65.85000 1075.116
65.86000 1092.887
65.87000 1108.380
65.88000 1101.529
65.89000 1092.567
65.90000 1081.961
65.91000 1064.931
65.92000 1047.252
65.93000 1024.622
65.94000 988.678
65.95000 951.998
65.96000 927.944
65.97000 839.991
65.98000 774.247
65.99000 706.512
66.00000 636.248
66.01000 566.012
66.02000 514.960
66.03000 479.998
66.04000 445.447
66.05000 419.685
66.06000 399.437
66.07000 379.736
66.08000 371.191
66.09000 367.041
66.10000 361.887
66.11000 345.914
66.12000 327.000
66.13000 310.235
66.14000 310.907
66.15000 314.246
66.16000 317.327
66.17000 319.281
66.18000 321.104
66.19000 320.749
66.20000 313.916
66.21000 306.653
66.22000 301.714
66.23000 307.723
66.24000 312.457
66.25000 318.254
66.26000 325.558
66.27000 332.874
66.28000 345.819
66.29000 364.051
66.30000 382.145
66.31000 397.821
66.32000 411.731
66.33000 425.228
66.34000 428.270
66.35000 426.758
66.36000 426.153
66.37000 436.985
66.38000 451.265
66.39000 464.117
66.40000 454.090
66.41000 441.198
66.42000 430.450
66.43000 430.114
66.44000 431.158
66.45000 433.359
66.46000 439.373
66.47000 445.687
66.48000 450.127
66.49000 442.536
66.50000 436.431
66.51000 425.929
66.52000 408.510
66.53000 391.006
66.54000 377.478
66.55000 368.148
66.56000 358.860
66.57000 351.487
66.58000 345.521
66.59000 339.627
66.60000 336.066
66.61000 333.629
66.62000 330.881
66.63000 323.489
66.64000 314.546
66.65000 306.383
66.66000 305.555
66.67000 306.307
66.68000 306.929
66.69000 306.841
66.70000 306.647
66.71000 306.369
66.72000 305.783
66.73000 305.168
66.74000 304.722
66.75000 314.853
66.76000 323.033
66.77000 325.183
66.78000 316.812
66.79000 308.250
66.80000 304.473
66.81000 306.360
66.82000 308.254
66.83000 314.525
66.84000 324.165
66.85000 333.701
66.86000 338.692
66.87000 341.261
66.88000 343.630
66.89000 342.416
66.90000 339.880
66.91000 337.535
66.92000 337.630
66.93000 338.272
66.94000 337.710
66.95000 329.798
66.96000 320.639
66.97000 314.273
66.98000 319.247
66.99000 325.428
67.00000 330.044
67.01000 329.075
67.02000 328.062
67.03000 329.433
67.04000 335.407
67.05000 341.497
67.06000 346.988
67.07000 351.689
67.08000 356.383
67.09000 359.680
67.10000 361.755
67.11000 363.772
67.12000 362.308
67.13000 358.787
67.14000 355.473
67.15000 356.704
67.16000 359.792
67.17000 362.681
67.18000 365.567
67.19000 368.187
67.20000 370.006
67.21000 366.295
67.22000 361.531
67.23000 359.233
67.24000 368.081
67.25000 378.289
67.26000 386.125
67.27000 392.205
67.28000 396.913
67.29000 397.855
67.30000 390.749
67.31000 383.375
67.32000 378.077
67.33000 375.831
67.34000 373.612
67.35000 376.344
67.36000 383.925
67.37000 391.475
67.38000 396.137
67.39000 398.907
67.40000 401.589
67.41000 401.864
67.42000 401.052
67.43000 400.283
67.44000 396.783
67.45000 392.781
67.46000 390.044
67.47000 397.216
67.48000 406.497
67.49000 414.304
67.50000 414.670
67.51000 414.003
67.52000 413.477
67.53000 415.335
67.54000 416.983
67.55000 419.598
67.56000 424.498
67.57000 429.494
67.58000 435.660
67.59000 443.734
67.60000 451.836
67.61000 456.082
67.62000 461.527
67.63000 465.180
67.64000 462.967
67.65000 456.478
67.66000 450.094
67.67000 447.477
67.68000 446.741
67.69000 446.039
67.70000 445.068
67.71000 444.080
67.72000 443.693
67.73000 448.701
67.74000 454.988
67.75000 460.139
67.76000 458.859
67.77000 456.568
67.78000 454.721
67.79000 463.451
67.80000 471.373
67.81000 478.757
67.82000 484.732
67.83000 490.633
67.84000 495.838
67.85000 499.782
67.86000 503.700
67.87000 505.865
67.88000 499.696
67.89000 495.429
67.90000 492.473
67.91000 490.584
67.92000 488.895
67.93000 496.970
67.94000 510.444
67.95000 523.430
67.96000 524.853
67.97000 522.029
67.98000 519.897
67.99000 524.904
68.00000 531.794
68.01000 537.075
68.02000 532.106
68.03000 525.323
68.04000 519.733
68.05000 530.002
68.06000 539.912
68.07000 548.269
68.08000 552.134
68.09000 555.716
68.10000 557.317
68.11000 554.951
68.12000 552.474
68.13000 551.037
68.14000 564.625
68.15000 574.223
68.16000 579.415
68.17000 580.602
68.18000 581.777
68.19000 582.068
68.20000 581.817
68.21000 581.574
68.22000 586.464
68.23000 593.172
68.24000 600.196
68.25000 611.029
68.26000 622.977
68.27000 633.642
68.28000 635.059
68.29000 634.643
68.30000 634.293
68.31000 626.972
68.32000 620.124
68.33000 618.473
68.34000 633.451
68.35000 649.677
68.36000 661.547
68.37000 663.768
68.38000 665.638
68.39000 666.773
68.40000 673.240
68.41000 677.895
68.42000 684.164
68.43000 692.080
68.44000 700.017
68.45000 710.193
68.46000 721.892
68.47000 733.333
68.48000 743.666
68.49000 753.079
68.50000 763.030
68.51000 780.625
68.52000 800.699
68.53000 820.114
68.54000 834.116
68.55000 846.919
68.56000 857.899
68.57000 871.904
68.58000 884.106
68.59000 900.744
68.60000 933.117
68.61000 966.876
68.62000 1004.617
68.63000 1052.112
68.64000 1100.052
68.65000 1130.380
68.66000 1210.818
68.67000 1269.725
68.68000 1314.370
68.69000 1342.664
68.70000 1371.059
68.71000 1424.880
68.72000 1497.958
68.73000 1569.844
68.74000 1623.706
68.75000 1666.801
68.76000 1710.984
68.77000 1773.613
68.78000 1842.863
68.79000 1910.559
68.80000 1963.632
68.81000 2013.100
68.82000 2056.283
68.83000 2156.313
68.84000 2249.875
68.85000 2357.332
68.86000 2519.518
68.87000 2687.292
68.88000 2902.111
68.89000 3244.378
68.90000 3593.777
68.91000 3823.524
68.92000 5161.673
68.93000 6165.718
68.94000 7785.565
68.95000 10194.244
68.96000 12607.496
68.97000 15969.116
68.98000 20132.553
68.99000 24248.492
69.00000 28913.438
69.01000 33774.223
69.02000 38600.445
69.03000 42712.980
69.04000 46542.223
69.05000 50220.973
69.06000 52260.707
69.07000 53851.563
69.08000 55263.316
69.09000 55884.379
69.10000 56296.297
69.11000 56717.574
69.12000 57179.887
69.13000 57647.016
69.14000 58187.469
69.15000 58947.691
69.16000 59722.691
69.17000 60250.941
69.18000 60400.695
69.19000 60503.883
69.20000 59813.879
69.21000 57992.168
69.22000 56161.738
69.23000 53540.656
69.24000 50170.469
69.25000 46825.137
69.26000 43641.352
69.27000 40611.102
69.28000 37615.844
69.29000 35521.465
69.30000 33822.484
69.31000 32176.225
69.32000 31201.301
69.33000 30430.268
69.34000 29735.549
69.35000 28966.162
69.36000 28277.635
69.37000 27493.523
69.38000 26241.863
69.39000 24927.621
69.40000 23415.713
69.41000 21247.654
69.42000 19027.400
69.43000 17462.588
69.44000 14347.886
69.45000 11939.196
69.46000 9819.027
69.47000 8156.188
69.48000 6499.107
69.49000 5229.496
69.50000 4372.608
69.51000 3519.437
69.52000 2969.224
69.53000 2636.531
69.54000 2307.258
69.55000 2091.155
69.56000 1929.981
69.57000 1772.483
69.58000 1670.404
69.59000 1586.963
69.60000 1510.719
69.61000 1431.700
69.62000 1360.952
69.63000 1295.700
69.64000 1260.551
69.65000 1229.968
69.66000 1199.454
69.67000 1169.192
69.68000 1138.953
69.69000 1116.966
69.70000 1066.891
69.71000 1027.302
69.72000 994.612
69.73000 974.047
69.74000 953.709
69.75000 935.127
69.76000 918.642
69.77000 902.192
69.78000 886.250
69.79000 870.784
69.80000 855.217
69.81000 835.148
69.82000 812.662
69.83000 790.526
69.84000 774.739
69.85000 761.315
69.86000 748.889
69.87000 742.320
69.88000 737.763
69.89000 734.059
69.90000 735.609
69.91000 738.058
69.92000 736.602
69.93000 719.170
69.94000 700.021
69.95000 685.688
69.96000 687.336
69.97000 689.368
69.98000 687.331
69.99000 677.376
70.00000 667.216
