20.00000 569.261
20.01000 566.799
20.02000 563.986
20.03000 562.433
20.04000 565.914
20.05000 569.920
20.06000 572.900
20.07000 561.362
20.08000 551.737
20.09000 546.160
20.10000 548.287
20.11000 550.601
20.12000 552.642
20.13000 554.328
20.14000 556.012
20.15000 557.391
20.16000 558.508
20.17000 559.658
20.18000 562.780
20.19000 567.049
20.20000 571.242
20.21000 573.804
20.22000 575.710
20.23000 577.491
20.24000 576.985
20.25000 575.951
20.26000 575.070
20.27000 575.228
20.28000 575.582
20.29000 575.346
20.30000 572.488
20.31000 569.317
20.32000 566.892
20.33000 567.758
20.34000 568.620
20.35000 568.102
20.36000 564.679
20.37000 561.163
20.38000 558.873
20.39000 558.359
20.40000 557.860
20.41000 558.817
20.42000 561.176
20.43000 563.572
20.44000 569.192
20.45000 576.891
20.46000 584.181
20.47000 580.568
20.48000 572.103
20.49000 564.107
20.50000 562.045
20.51000 561.830
20.52000 561.455
20.53000 559.849
20.54000 557.985
20.55000 557.815
20.56000 566.057
20.57000 575.446
20.58000 582.811
20.59000 572.943
20.60000 563.931
20.61000 559.483
20.62000 565.667
20.63000 572.284
20.64000 574.076
20.65000 568.109
20.66000 562.039
20.67000 558.882
20.68000 554.697
20.69000 551.864
20.70000 548.247
20.71000 544.069
20.72000 539.982
20.73000 539.065
20.74000 539.707
20.75000 540.320
20.76000 534.797
20.77000 527.727
20.78000 522.543
20.79000 533.911
20.80000 549.146
20.81000 561.886
20.82000 560.737
20.83000 557.446
20.84000 554.801
20.85000 551.096
20.86000 548.012
20.87000 546.208
20.88000 547.700
20.89000 549.359
20.90000 550.738
20.91000 551.618
20.92000 552.489
20.93000 552.967
20.94000 558.958
20.95000 563.083
20.96000 565.762
20.97000 567.284
20.98000 568.765
20.99000 568.396
21.00000 567.017
21.01000 565.690
21.02000 559.325
21.03000 551.569
21.04000 544.945
21.05000 549.751
21.06000 557.528
21.07000 564.286
21.08000 564.661
21.09000 563.928
21.10000 563.325
21.11000 567.250
21.12000 570.882
21.13000 570.940
21.14000 560.819
21.15000 550.073
21.16000 545.729
21.17000 554.021
21.18000 562.652
21.19000 567.625
21.20000 548.089
21.21000 534.325
21.22000 529.475
21.23000 532.594
21.24000 535.779
21.25000 543.309
21.26000 553.462
21.27000 563.312
21.28000 561.745
21.29000 555.743
21.30000 550.226
21.31000 550.407
21.32000 552.232
21.33000 554.103
21.34000 556.296
21.35000 558.552
21.36000 560.445
21.37000 559.727
21.38000 558.856
21.39000 557.147
21.40000 552.795
21.41000 548.250
21.42000 546.213
21.43000 549.651
21.44000 553.281
21.45000 555.470
21.46000 554.076
21.47000 553.057
21.48000 548.519
21.49000 540.445
21.50000 532.478
21.51000 535.719
21.52000 546.470
21.53000 556.973
21.54000 559.946
21.55000 559.468
21.56000 558.633
21.57000 552.874
21.58000 545.542
21.59000 539.524
21.60000 544.096
21.61000 550.975
21.62000 556.858
21.63000 559.275
21.64000 560.896
21.65000 561.854
21.66000 560.495
21.67000 558.938
21.68000 556.211
21.69000 550.661
21.70000 544.987
21.71000 541.418
21.72000 552.704
21.73000 561.033
21.74000 571.295
21.75000 583.734
21.76000 596.109
21.77000 595.592
21.78000 585.466
21.79000 575.514
21.80000 572.581
21.81000 573.210
21.82000 573.597
21.83000 569.997
21.84000 564.988
21.85000 561.427
21.86000 571.221
21.87000 584.256
21.88000 595.607
21.89000 598.373
21.90000 599.555
21.91000 601.367
21.92000 605.623
21.93000 610.123
21.94000 616.078
21.95000 625.919
21.96000 635.972
21.97000 642.545
21.98000 653.277
21.99000 661.227
22.00000 670.423
22.01000 681.187
22.02000 691.933
22.03000 691.431
22.04000 681.573
22.05000 671.834
22.06000 675.146
22.07000 685.564
22.08000 695.504
22.09000 695.888
22.10000 692.532
22.11000 689.608
22.12000 691.269
22.13000 694.167
22.14000 696.733
22.15000 692.160
22.16000 687.086
22.17000 683.599
22.18000 686.956
22.19000 691.099
22.20000 693.040
22.21000 688.473
22.22000 683.479
22.23000 680.093
22.24000 676.383
22.25000 673.610
22.26000 669.881
22.27000 664.810
22.28000 659.728
22.29000 648.387
22.30000 631.216
22.31000 614.180
22.32000 616.707
22.33000 631.229
22.34000 645.209
22.35000 645.710
22.36000 640.383
22.37000 634.592
22.38000 623.043
22.39000 609.772
22.40000 597.841
22.41000 599.556
22.42000 603.483
22.43000 605.357
22.44000 597.349
22.45000 588.044
22.46000 580.248
22.47000 577.385
22.48000 574.905
22.49000 573.166
22.50000 570.342
22.51000 568.173
22.52000 565.175
22.53000 560.883
22.54000 556.577
22.55000 552.967
22.56000 550.086
22.57000 547.219
22.58000 549.041
22.59000 554.070
22.60000 558.932
22.61000 558.458
22.62000 555.432
22.63000 552.321
22.64000 547.963
22.65000 543.190
22.66000 538.838
22.67000 531.741
22.68000 524.898
22.69000 520.672
22.70000 530.538
22.71000 542.503
22.72000 548.313
22.73000 531.804
22.74000 513.267
22.75000 499.848
22.76000 516.957
22.77000 531.212
22.78000 536.922
22.79000 527.838
22.80000 518.491
22.81000 515.521
22.82000 520.037
22.83000 524.555
22.84000 529.305
22.85000 534.209
22.86000 538.993
22.87000 538.686
22.88000 535.684
22.89000 532.524
22.90000 526.575
22.91000 519.604
22.92000 513.163
22.93000 516.044
22.94000 520.737
22.95000 524.580
22.96000 523.275
22.97000 521.104
22.98000 519.952
22.99000 522.903
23.00000 526.285
23.01000 528.806
23.02000 524.505
23.03000 520.847
23.04000 518.025
23.05000 516.805
23.06000 515.625
23.07000 513.859
23.08000 511.323
23.09000 508.786
23.10000 506.071
23.11000 503.208
23.12000 500.494
23.13000 506.669
23.14000 518.055
23.15000 528.877
23.16000 527.514
23.17000 521.212
23.18000 515.319
23.19000 513.990
23.20000 513.945
23.21000 513.087
23.22000 506.681
23.23000 499.227
23.24000 494.333
23.25000 500.915
23.26000 508.882
23.27000 514.986
23.28000 513.746
23.29000 512.362
23.30000 513.188
23.31000 518.703
23.32000 524.372
23.33000 523.613
23.34000 513.477
23.35000 503.261
23.36000 502.241
23.37000 510.148
23.38000 517.971
23.39000 518.138
23.40000 513.327
23.41000 508.764
23.42000 510.908
23.43000 516.060
23.44000 520.930
23.45000 524.376
23.46000 527.135
23.47000 528.944
23.48000 523.386
23.49000 516.274
23.50000 510.702
23.51000 512.845
23.52000 516.049
23.53000 518.567
23.54000 521.903
23.55000 524.627
23.56000 524.072
23.57000 515.825
23.58000 507.258
23.59000 502.649
23.60000 504.453
23.61000 506.345
23.62000 507.333
23.63000 507.954
23.64000 508.404
23.65000 513.398
23.66000 521.679
23.67000 529.752
23.68000 530.558
23.69000 527.760
23.70000 525.089
23.71000 528.989
23.72000 534.708
23.73000 539.013
23.74000 530.779
23.75000 519.595
23.76000 509.780
23.77000 507.654
23.78000 506.724
23.79000 505.976
23.80000 518.882
23.81000 530.416
23.82000 539.381
23.83000 541.686
23.84000 543.650
23.85000 542.726
23.86000 536.619
23.87000 530.408
23.88000 526.989
23.89000 523.519
23.90000 521.132
23.91000 520.097
23.92000 520.153
23.93000 520.257
23.94000 522.643
23.95000 526.281
23.96000 529.784
23.97000 531.734
23.98000 533.010
23.99000 534.342
24.00000 536.248
24.01000 538.305
24.02000 539.614
24.03000 536.199
24.04000 531.956
24.05000 528.464
24.06000 524.305
24.07000 520.824
24.08000 518.331
24.09000 518.670
24.10000 519.185
24.11000 519.773
24.12000 520.508
24.13000 521.246
24.14000 521.673
24.15000 522.765
24.16000 523.527
24.17000 517.119
24.18000 504.247
24.19000 491.566
24.20000 491.962
24.21000 500.312
24.22000 508.418
24.23000 512.035
24.24000 513.677
24.25000 515.134
24.26000 514.391
24.27000 513.008
24.28000 510.941
24.29000 503.976
24.30000 496.049
24.31000 489.390
24.32000 493.542
24.33000 498.141
24.34000 499.599
24.35000 491.083
24.36000 481.828
24.37000 477.999
24.38000 486.101
24.39000 494.629
24.40000 499.787
24.41000 497.368
24.42000 495.588
24.43000 492.672
24.44000 488.605
24.45000 484.600
24.46000 487.238
24.47000 494.362
24.48000 501.326
24.49000 498.278
24.50000 490.900
24.51000 484.042
24.52000 484.467
24.53000 487.236
24.54000 490.108
24.55000 493.816
24.56000 497.708
24.57000 501.041
24.58000 497.855
24.59000 494.374
24.60000 491.607
24.61000 491.348
24.62000 491.308
24.63000 491.650
24.64000 492.921
24.65000 494.233
24.66000 495.061
24.67000 497.430
24.68000 499.163
24.69000 499.332
24.70000 497.723
24.71000 496.130
24.72000 498.085
24.73000 502.706
24.74000 507.250
24.75000 502.576
24.76000 493.473
24.77000 484.801
24.78000 483.333
24.79000 484.432
24.80000 485.220
24.81000 483.117
24.82000 480.306
24.83000 477.856
24.84000 481.482
24.85000 485.425
24.86000 488.007
24.87000 485.267
24.88000 481.990
24.89000 478.491
24.90000 474.395
24.91000 470.266
24.92000 467.558
24.93000 470.011
24.94000 471.900
24.95000 476.815
24.96000 485.575
24.97000 494.328
24.98000 492.120
24.99000 480.722
25.00000 469.459
25.01000 468.042
25.02000 472.129
25.03000 476.232
25.04000 480.657
25.05000 485.209
25.06000 489.305
25.07000 488.496
25.08000 486.353
25.09000 484.454
25.10000 486.318
25.11000 488.526
25.12000 489.186
25.13000 483.119
25.14000 476.270
25.15000 470.522
25.16000 468.049
25.17000 465.793
25.18000 464.260
25.19000 469.508
25.20000 473.579
25.21000 476.681
25.22000 478.410
25.23000 480.128
25.24000 478.125
25.25000 472.627
25.26000 467.171
25.27000 470.706
25.28000 479.759
25.29000 488.435
25.30000 487.597
25.31000 482.615
25.32000 478.252
25.33000 481.692
25.34000 487.482
25.35000 492.694
25.36000 485.607
25.37000 477.191
25.38000 470.918
25.39000 475.047
25.40000 480.555
25.41000 485.192
25.42000 486.962
25.43000 488.507
25.44000 489.593
25.45000 478.139
25.46000 469.094
25.47000 463.201
25.48000 462.266
25.49000 461.393
25.50000 461.742
25.51000 463.383
25.52000 465.017
25.53000 467.151
25.54000 469.610
25.55000 471.981
25.56000 471.526
25.57000 469.710
25.58000 467.976
25.59000 467.468
25.60000 467.369
25.61000 467.279
25.62000 466.296
25.63000 465.242
25.64000 464.447
25.65000 465.049
25.66000 465.861
25.67000 466.219
25.68000 464.916
25.69000 463.461
25.70000 462.406
25.71000 470.437
25.72000 476.948
25.73000 481.315
25.74000 481.942
25.75000 482.501
25.76000 481.297
25.77000 478.009
25.78000 474.724
25.79000 472.979
25.80000 472.438
25.81000 471.762
25.82000 465.221
25.83000 455.554
25.84000 446.752
25.85000 453.422
25.86000 465.807
25.87000 477.260
25.88000 472.046
25.89000 463.562
25.90000 455.787
25.91000 452.336
25.92000 449.618
25.93000 447.142
25.94000 445.651
25.95000 444.265
25.96000 443.229
25.97000 462.787
25.98000 478.980
25.99000 488.196
26.00000 483.937
26.01000 479.338
26.02000 474.355
26.03000 468.865
26.04000 463.376
26.05000 463.422
26.06000 468.289
26.07000 472.944
26.08000 464.582
26.09000 448.533
26.10000 433.084
26.11000 430.771
26.12000 433.822
26.13000 436.677
26.14000 447.285
26.15000 458.911
26.16000 468.986
26.17000 468.368
26.18000 465.714
26.19000 462.815
26.20000 458.803
26.21000 454.656
26.22000 451.473
26.23000 459.084
26.24000 465.702
26.25000 468.033
26.26000 461.204
26.27000 454.070
26.28000 452.811
26.29000 460.189
26.30000 467.643
26.31000 468.178
26.32000 461.937
26.33000 455.718
26.34000 451.471
26.35000 448.516
26.36000 445.699
26.37000 446.659
26.38000 449.326
26.39000 451.849
26.40000 451.948
26.41000 451.342
26.42000 450.061
26.43000 443.497
26.44000 435.808
26.45000 429.726
26.46000 431.748
26.47000 434.895
26.48000 437.372
26.49000 444.603
26.50000 450.714
26.51000 454.231
26.52000 451.620
26.53000 448.751
26.54000 450.085
26.55000 458.278
26.56000 466.569
26.57000 470.914
26.58000 465.859
26.59000 462.426
26.60000 458.117
26.61000 453.170
26.62000 448.354
26.63000 448.241
26.64000 450.476
26.65000 452.611
26.66000 444.838
26.67000 434.424
26.68000 426.286
26.69000 438.523
26.70000 455.593
26.71000 469.108
26.72000 462.508
26.73000 452.750
26.74000 444.883
26.75000 444.201
26.76000 444.212
26.77000 445.424
26.78000 449.773
26.79000 454.286
26.80000 456.866
26.81000 455.949
26.82000 454.961
26.83000 454.415
26.84000 453.978
26.85000 453.679
26.86000 454.350
26.87000 455.807
26.88000 457.227
26.89000 456.815
26.90000 455.391
26.91000 454.018
26.92000 449.094
26.93000 443.188
26.94000 437.705
26.95000 436.596
26.96000 436.641
26.97000 437.143
26.98000 440.560
26.99000 444.492
27.00000 447.733
27.01000 442.014
27.02000 436.485
27.03000 433.298
27.04000 436.879
27.05000 440.887
27.06000 444.027
27.07000 445.427
27.08000 446.778
27.09000 447.561
27.10000 447.508
27.11000 447.468
27.12000 448.317
27.13000 449.975
27.14000 451.601
27.15000 450.895
27.16000 448.761
27.17000 446.688
27.18000 445.808
27.19000 445.450
27.20000 445.046
27.21000 444.077
27.22000 442.943
27.23000 442.548
27.24000 447.479
27.25000 453.466
27.26000 458.502
27.27000 460.862
27.28000 462.545
27.29000 461.839
27.30000 453.493
27.31000 444.573
27.32000 439.882
27.33000 444.553
27.34000 449.565
27.35000 452.605
27.36000 444.731
27.37000 439.030
27.38000 437.632
27.39000 440.627
27.40000 443.615
27.41000 445.693
27.42000 447.153
27.43000 448.581
27.44000 445.226
27.45000 439.863
27.46000 434.539
27.47000 429.780
27.48000 425.205
27.49000 421.735
27.50000 427.336
27.51000 434.945
27.52000 441.470
27.53000 436.474
27.54000 430.841
27.55000 426.936
27.56000 429.154
27.57000 431.911
27.58000 433.656
27.59000 432.921
27.60000 432.073
27.61000 431.536
27.62000 428.049
27.63000 425.487
27.64000 424.003
27.65000 423.755
27.66000 423.503
27.67000 421.960
27.68000 419.439
27.69000 416.960
27.70000 421.785
27.71000 430.116
27.72000 438.238
27.73000 442.817
27.74000 446.126
27.75000 448.653
27.76000 443.827
27.77000 437.189
27.78000 431.395
27.79000 433.983
27.80000 437.373
27.81000 439.357
27.82000 435.801
27.83000 431.681
27.84000 429.656
27.85000 433.307
27.86000 437.275
27.87000 439.884
27.88000 430.913
27.89000 424.111
27.90000 421.461
27.91000 424.127
27.92000 426.812
27.93000 428.632
27.94000 429.722
27.95000 430.799
27.96000 430.647
27.97000 429.811
27.98000 428.972
27.99000 428.069
28.00000 427.141
28.01000 426.035
28.02000 422.994
28.03000 419.424
28.04000 416.256
28.05000 426.616
28.06000 437.751
28.07000 446.645
28.08000 445.715
28.09000 443.633
28.10000 439.546
28.11000 429.451
28.12000 418.952
28.13000 411.797
28.14000 424.753
28.15000 434.898
28.16000 439.940
28.17000 437.702
28.18000 435.411
28.19000 434.988
28.20000 436.335
28.21000 437.673
28.22000 430.309
28.23000 417.625
28.24000 405.521
28.25000 408.363
28.26000 417.762
28.27000 426.586
28.28000 428.101
28.29000 427.396
28.30000 426.761
28.31000 430.009
28.32000 433.560
28.33000 435.401
28.34000 428.884
28.35000 421.248
28.36000 417.377
28.37000 426.000
28.38000 435.615
28.39000 442.392
28.40000 434.978
28.41000 428.930
28.42000 427.314
28.43000 432.720
28.44000 438.215
28.45000 436.824
28.46000 428.100
28.47000 419.411
28.48000 417.303
28.49000 419.819
28.50000 422.274
28.51000 422.737
28.52000 422.234
28.53000 421.632
28.54000 419.538
28.55000 416.942
28.56000 414.570
28.57000 409.928
28.58000 405.341
28.59000 402.688
28.60000 410.624
28.61000 420.167
28.62000 427.087
28.63000 424.356
28.64000 420.729
28.65000 418.092
28.66000 411.459
28.67000 406.206
28.68000 407.017
28.69000 418.483
28.70000 430.148
28.71000 432.860
28.72000 424.892
28.73000 416.919
28.74000 413.040
28.75000 412.386
28.76000 411.804
28.77000 414.389
28.78000 418.674
28.79000 422.423
28.80000 416.436
28.81000 406.828
28.82000 397.934
28.83000 407.058
28.84000 419.404
28.85000 429.081
28.86000 422.334
28.87000 412.779
28.88000 405.446
28.89000 407.202
28.90000 409.934
28.91000 411.978
28.92000 411.601
28.93000 411.193
28.94000 410.780
28.95000 410.354
28.96000 409.929
28.97000 411.830
28.98000 416.830
28.99000 421.843
29.00000 420.967
29.01000 414.921
29.02000 408.966
29.03000 408.753
29.04000 411.956
29.05000 415.190
29.06000 419.108
29.07000 423.308
29.08000 427.241
29.09000 420.371
29.10000 411.331
29.11000 403.462
29.12000 403.729
29.13000 405.558
29.14000 407.066
29.15000 407.110
29.16000 406.974
29.17000 406.870
29.18000 407.721
29.19000 408.448
29.20000 410.081
29.21000 413.663
29.22000 417.311
29.23000 418.889
29.24000 417.401
29.25000 415.885
29.26000 419.911
29.27000 429.412
29.28000 438.785
29.29000 435.819
29.30000 424.709
29.31000 413.781
29.32000 407.967
29.33000 404.478
29.34000 401.176
29.35000 406.030
29.36000 412.859
29.37000 418.780
29.38000 417.525
29.39000 414.731
29.40000 412.359
29.41000 412.137
29.42000 412.215
29.43000 412.277
29.44000 404.224
29.45000 397.217
29.46000 392.449
29.47000 393.006
29.48000 393.791
29.49000 398.322
29.50000 409.014
29.51000 419.797
29.52000 425.469
29.53000 421.713
29.54000 419.149
29.55000 414.366
29.56000 407.955
29.57000 401.718
29.58000 401.829
29.59000 405.135
29.60000 408.294
29.61000 413.944
29.62000 420.008
29.63000 425.218
29.64000 422.715
29.65000 418.369
29.66000 414.634
29.67000 414.390
29.68000 414.698
29.69000 414.947
29.70000 408.831
29.71000 403.352
29.72000 400.402
29.73000 404.107
29.74000 408.164
29.75000 410.251
29.76000 408.751
29.77000 407.175
29.78000 406.301
29.79000 404.873
29.80000 403.900
29.81000 408.633
29.82000 418.036
29.83000 427.260
29.84000 427.566
29.85000 422.906
29.86000 418.412
29.87000 421.947
29.88000 428.183
29.89000 433.446
29.90000 428.549
29.91000 420.953
29.92000 414.195
29.93000 412.826
29.94000 412.418
29.95000 412.081
29.96000 415.315
29.97000 418.312
29.98000 420.949
29.99000 422.537
30.00000 424.058
30.01000 427.585
30.02000 435.158
30.03000 442.846
30.04000 447.320
30.05000 433.479
30.06000 423.677
30.07000 422.672
30.08000 429.728
30.09000 436.672
30.10000 435.471
30.11000 429.243
30.12000 423.190
30.13000 422.516
30.14000 424.055
30.15000 425.208
30.16000 421.667
30.17000 416.742
30.18000 412.872
30.19000 416.672
30.20000 422.004
30.21000 426.497
30.22000 425.676
30.23000 424.419
30.24000 424.289
30.25000 427.790
30.26000 431.567
30.27000 433.426
30.28000 431.008
30.29000 428.432
30.30000 426.864
30.31000 423.334
30.32000 420.797
30.33000 419.702
30.34000 420.093
30.35000 420.521
30.36000 425.335
30.37000 433.157
30.38000 440.809
30.39000 434.177
30.40000 421.352
30.41000 409.273
30.42000 407.889
30.43000 409.998
30.44000 412.211
30.45000 415.285
30.46000 418.552
30.47000 421.357
30.48000 426.431
30.49000 431.002
30.50000 433.929
30.51000 430.981
30.52000 427.510
30.53000 426.257
30.54000 430.476
30.55000 434.948
30.56000 437.785
30.57000 448.748
30.58000 456.803
30.59000 454.884
30.60000 441.443
30.61000 428.051
30.62000 429.177
30.63000 441.382
30.64000 453.393
30.65000 450.323
30.66000 439.732
30.67000 429.728
30.68000 429.797
30.69000 433.508
30.70000 436.621
30.71000 434.056
30.72000 430.081
30.73000 426.608
30.74000 433.971
30.75000 441.811
30.76000 449.215
30.77000 454.887
30.78000 460.381
30.79000 463.643
30.80000 460.813
30.81000 457.638
30.82000 455.544
30.83000 449.806
30.84000 445.513
30.85000 444.335
30.86000 447.176
30.87000 450.042
30.88000 458.415
30.89000 471.480
30.90000 484.400
30.91000 487.613
30.92000 485.273
30.93000 483.420
30.94000 491.751
30.95000 504.152
30.96000 514.988
30.97000 508.596
30.98000 497.452
30.99000 487.552
31.00000 506.969
31.01000 528.530
31.02000 546.660
31.03000 549.639
31.04000 550.823
31.05000 555.502
31.06000 570.729
31.07000 586.673
31.08000 597.566
31.09000 634.294
31.10000 662.379
31.11000 688.245
31.12000 710.924
31.13000 733.579
31.14000 764.197
31.15000 802.420
31.16000 840.370
31.17000 877.159
31.18000 912.628
31.19000 948.499
31.20000 994.903
31.21000 1045.961
31.22000 1097.920
31.23000 1161.466
31.24000 1228.556
31.25000 1289.066
31.26000 1386.116
31.27000 1478.003
31.28000 1568.601
31.29000 1652.851
31.30000 1736.243
31.31000 1813.708
31.32000 1871.360
31.33000 1927.418
31.34000 1967.014
31.35000 2059.588
31.36000 2131.482
31.37000 2190.978
31.38000 2230.681
31.39000 2270.127
31.40000 2301.307
31.41000 2323.612
31.42000 2345.824
31.43000 2337.343
31.44000 2307.300
31.45000 2277.520
31.46000 2256.593
31.47000 2239.994
31.48000 2220.825
31.49000 2162.438
31.50000 2090.770
31.51000 2025.222
31.52000 1959.495
31.53000 1901.034
31.54000 1838.857
31.55000 1756.169
31.56000 1670.344
31.57000 1587.438
31.58000 1515.358
31.59000 1444.295
31.60000 1392.519
31.61000 1306.691
31.62000 1239.284
31.63000 1181.360
31.64000 1140.218
31.65000 1099.396
31.66000 1047.578
31.67000 982.538
31.68000 917.588
31.69000 873.766
31.70000 846.832
31.71000 819.894
31.72000 792.764
31.73000 765.532
31.74000 737.857
31.75000 702.032
31.76000 663.154
31.77000 627.138
31.78000 608.667
31.79000 596.120
31.80000 584.690
31.81000 580.195
31.82000 576.895
31.83000 571.436
31.84000 557.079
31.85000 541.757
31.86000 530.267
31.87000 517.431
31.88000 507.343
31.89000 497.724
31.90000 489.025
31.91000 480.350
31.92000 475.782
31.93000 476.722
31.94000 477.690
31.95000 475.074
31.96000 469.287
31.97000 463.524
31.98000 459.316
31.99000 456.041
32.00000 453.071
32.01000 457.028
32.02000 463.853
32.03000 470.251
32.04000 461.232
32.05000 449.007
32.06000 437.269
32.07000 428.963
32.08000 421.320
32.09000 414.815
32.10000 413.535
32.11000 412.904
32.12000 412.418
32.13000 420.254
32.14000 426.937
32.15000 429.942
32.16000 424.974
32.17000 419.732
32.18000 413.345
32.19000 405.247
32.20000 397.133
32.21000 398.620
32.22000 409.669
32.23000 420.606
32.24000 420.260
32.25000 412.410
32.26000 404.777
32.27000 403.340
32.28000 404.741
32.29000 406.068
32.30000 401.593
32.31000 395.779
32.32000 390.427
32.33000 388.756
32.34000 387.882
32.35000 388.277
32.36000 395.183
32.37000 403.010
32.38000 409.194
32.39000 403.361
32.40000 397.858
32.41000 392.030
32.42000 385.421
32.43000 378.778
32.44000 374.287
32.45000 373.359
32.46000 372.486
32.47000 372.024
32.48000 383.896
32.49000 391.923
32.50000 392.300
32.51000 387.018
32.52000 381.887
32.53000 382.378
32.54000 385.718
32.55000 388.912
32.56000 385.818
32.57000 380.882
32.58000 376.859
32.59000 381.171
32.60000 387.492
32.61000 391.974
32.62000 385.877
32.63000 378.091
32.64000 371.794
32.65000 377.940
32.66000 383.943
32.67000 387.017
32.68000 382.326
32.69000 377.219
32.70000 375.848
32.71000 381.335
32.72000 386.970
32.73000 390.105
32.74000 388.603
32.75000 387.545
32.76000 382.266
32.77000 373.504
32.78000 365.051
32.79000 372.349
32.80000 388.484
32.81000 404.051
32.82000 404.225
32.83000 398.762
32.84000 393.423
32.85000 389.403
32.86000 385.735
32.87000 382.099
32.88000 378.668
32.89000 375.274
32.90000 372.468
32.91000 374.396
32.92000 376.430
32.93000 377.907
32.94000 377.753
32.95000 377.492
32.96000 375.953
32.97000 371.815
32.98000 367.601
32.99000 365.141
33.00000 378.603
33.01000 388.144
33.02000 388.318
33.03000 379.839
33.04000 371.375
33.05000 364.095
33.06000 357.552
33.07000 351.190
33.08000 349.017
33.09000 348.662
33.10000 348.514
33.11000 350.922
33.12000 354.088
33.13000 356.932
33.14000 357.410
33.15000 357.411
33.16000 357.412
33.17000 360.890
33.18000 364.173
33.19000 363.949
33.20000 352.337
33.21000 339.851
33.22000 333.796
33.23000 342.190
33.24000 351.129
33.25000 356.585
33.26000 351.484
33.27000 347.750
33.28000 345.543
33.29000 344.922
33.30000 344.330
33.31000 347.153
33.32000 352.336
33.33000 357.408
33.34000 358.169
33.35000 356.932
33.36000 355.468
33.37000 350.700
33.38000 344.846
33.39000 340.024
33.40000 343.840
33.41000 349.598
33.42000 354.548
33.43000 350.513
33.44000 345.976
33.45000 342.662
33.46000 343.753
33.47000 345.239
33.48000 346.424
33.49000 346.856
33.50000 347.253
33.51000 347.506
33.52000 350.047
33.53000 351.923
33.54000 351.526
33.55000 348.482
33.56000 345.444
33.57000 344.536
33.58000 345.267
33.59000 345.987
33.60000 345.453
33.61000 344.298
33.62000 343.027
33.63000 339.721
33.64000 335.676
33.65000 332.431
33.66000 336.870
33.67000 343.231
33.68000 348.797
33.69000 345.509
33.70000 341.425
33.71000 337.010
33.72000 331.269
33.73000 325.391
33.74000 323.462
33.75000 332.384
33.76000 341.931
33.77000 348.241
33.78000 340.707
33.79000 334.902
33.80000 334.001
33.81000 339.481
33.82000 344.979
33.83000 345.045
33.84000 340.446
33.85000 335.896
33.86000 334.645
33.87000 335.300
33.88000 336.033
33.89000 338.450
33.90000 341.544
33.91000 344.083
33.92000 340.443
33.93000 335.086
33.94000 330.322
33.95000 333.266
33.96000 337.073
33.97000 341.498
33.98000 348.672
33.99000 356.173
34.00000 359.588
34.01000 350.577
34.02000 340.711
34.03000 333.953
34.04000 331.567
34.05000 329.885
34.06000 327.177
34.07000 322.984
34.08000 318.778
34.09000 319.761
34.10000 325.740
34.11000 331.678
34.12000 337.009
34.13000 341.871
34.14000 346.514
34.15000 345.307
34.16000 341.496
34.17000 338.323
34.18000 343.456
34.19000 351.149
34.20000 358.094
34.21000 352.383
34.22000 345.033
34.23000 339.885
34.24000 345.678
34.25000 352.961
34.26000 356.205
34.27000 345.844
34.28000 334.377
34.29000 326.259
34.30000 335.499
34.31000 343.061
34.32000 347.992
34.33000 348.694
34.34000 349.340
34.35000 348.437
34.36000 345.860
34.37000 343.291
34.38000 339.999
34.39000 336.222
34.40000 332.577
34.41000 333.488
34.42000 336.640
34.43000 339.476
34.44000 337.410
34.45000 333.672
34.46000 330.250
34.47000 337.529
34.48000 346.229
34.49000 353.218
34.50000 350.682
34.51000 346.675
34.52000 342.719
34.53000 338.950
34.54000 335.200
34.55000 332.461
34.56000 332.834
34.57000 333.243
34.58000 334.303
34.59000 336.522
34.60000 338.765
34.61000 338.762
34.62000 336.039
34.63000 333.314
34.64000 331.203
34.65000 329.591
34.66000 327.964
34.67000 325.625
34.68000 322.899
34.69000 320.332
34.70000 320.750
34.71000 322.293
34.72000 323.725
34.73000 325.087
34.74000 326.298
34.75000 327.446
34.76000 328.204
34.77000 328.895
34.78000 328.081
34.79000 321.024
34.80000 313.283
34.81000 307.466
34.82000 315.711
34.83000 322.831
34.84000 327.720
34.85000 328.202
34.86000 328.565
34.87000 327.884
34.88000 325.789
34.89000 323.687
34.90000 321.277
34.91000 318.595
34.92000 315.937
34.93000 314.931
34.94000 314.921
34.95000 314.963
34.96000 316.194
34.97000 317.922
34.98000 319.543
34.99000 320.690
35.00000 321.611
35.01000 321.968
35.02000 318.330
35.03000 313.913
35.04000 310.591
35.05000 312.329
35.06000 314.703
35.07000 316.535
35.08000 319.545
35.09000 322.000
35.10000 323.698
35.11000 323.745
35.12000 323.733
35.13000 321.709
35.14000 316.661
35.15000 311.583
35.16000 309.039
35.17000 319.261
35.18000 326.026
35.19000 327.013
35.20000 324.128
35.21000 321.277
35.22000 319.415
35.23000 318.010
35.24000 316.677
35.25000 313.913
35.26000 310.944
35.27000 307.762
35.28000 302.861
35.29000 297.585
35.30000 294.207
35.31000 300.644
35.32000 308.481
35.33000 314.683
35.34000 317.895
35.35000 320.269
35.36000 320.727
35.37000 316.562
35.38000 312.192
35.39000 308.121
35.40000 304.549
35.41000 300.985
35.42000 299.095
35.43000 297.603
35.44000 296.600
35.45000 297.782
35.46000 300.592
35.47000 303.347
35.48000 304.011
35.49000 303.608
35.50000 303.223
35.51000 306.361
35.52000 310.446
35.53000 314.089
35.54000 313.657
35.55000 312.236
35.56000 310.331
35.57000 305.615
35.58000 300.445
35.59000 296.257
35.60000 299.735
35.61000 303.192
35.62000 307.546
35.63000 314.297
35.64000 321.178
35.65000 322.971
35.66000 315.357
35.67000 307.535
35.68000 303.166
35.69000 306.699
35.70000 309.160
35.71000 310.564
35.72000 311.090
35.73000 311.633
35.74000 313.115
35.75000 315.127
35.76000 317.070
35.77000 315.593
35.78000 312.943
35.79000 310.199
35.80000 306.463
35.81000 302.460
35.82000 299.483
35.83000 303.215
35.84000 308.163
35.85000 312.259
35.86000 307.525
35.87000 302.779
35.88000 299.765
35.89000 301.867
35.90000 304.304
35.91000 306.715
35.92000 309.072
35.93000 311.427
35.94000 312.807
35.95000 303.356
35.96000 296.648
35.97000 296.201
35.98000 301.586
35.99000 306.899
36.00000 306.701
36.01000 303.048
36.02000 299.495
36.03000 296.276
36.04000 293.349
36.05000 290.593
36.06000 289.961
36.07000 289.964
36.08000 290.607
36.09000 295.981
36.10000 302.317
36.11000 307.669
36.12000 312.937
36.13000 317.334
36.14000 319.704
36.15000 315.451
36.16000 310.684
36.17000 306.540
36.18000 303.809
36.19000 301.132
36.20000 299.492
36.21000 294.647
36.22000 291.151
36.23000 288.951
36.24000 288.109
36.25000 287.292
36.26000 289.650
36.27000 294.218
36.28000 298.690
36.29000 303.452
36.30000 308.162
36.31000 312.514
36.32000 311.620
36.33000 308.988
36.34000 306.438
36.35000 304.582
36.36000 302.884
36.37000 301.423
36.38000 299.436
36.39000 297.687
36.40000 296.021
36.41000 294.654
36.42000 293.314
36.43000 292.877
36.44000 294.700
36.45000 296.632
36.46000 297.864
36.47000 290.387
36.48000 284.837
36.49000 282.320
36.50000 283.363
36.51000 284.406
36.52000 284.096
36.53000 282.738
36.54000 281.401
36.55000 288.779
36.56000 300.405
36.57000 311.661
36.58000 316.390
36.59000 318.725
36.60000 320.269
36.61000 314.130
36.62000 306.056
36.63000 298.982
36.64000 292.546
36.65000 287.118
36.66000 282.956
36.67000 283.900
36.68000 285.380
36.69000 287.167
36.70000 289.802
36.71000 292.487
36.72000 294.266
36.73000 290.613
36.74000 287.817
36.75000 288.773
36.76000 294.651
36.77000 300.545
36.78000 302.369
36.79000 300.670
36.80000 298.988
36.81000 297.397
36.82000 295.894
36.83000 294.566
36.84000 297.009
36.85000 300.982
36.86000 304.736
36.87000 306.034
36.88000 306.644
36.89000 307.188
36.90000 300.947
36.91000 294.413
36.92000 289.310
36.93000 290.623
36.94000 292.711
36.95000 294.615
36.96000 295.958
36.97000 297.261
36.98000 298.156
36.99000 305.240
37.00000 310.702
37.01000 313.416
37.02000 312.118
37.03000 310.787
37.04000 314.651
37.05000 323.561
37.06000 332.411
37.07000 325.886
37.08000 309.609
37.09000 293.722
37.10000 288.393
37.11000 287.798
37.12000 287.708
37.13000 294.282
37.14000 302.923
37.15000 310.733
37.16000 306.172
37.17000 299.863
37.18000 294.976
37.19000 297.210
37.20000 300.423
37.21000 301.978
37.22000 297.906
37.23000 293.372
37.24000 290.155
37.25000 295.174
37.26000 299.253
37.27000 303.779
37.28000 309.029
37.29000 314.289
37.30000 311.512
37.31000 299.963
37.32000 288.452
37.33000 286.549
37.34000 291.547
37.35000 296.471
37.36000 298.813
37.37000 299.875
37.38000 300.731
37.39000 298.380
37.40000 294.926
37.41000 291.761
37.42000 291.585
37.43000 292.054
37.44000 292.446
37.45000 292.401
37.46000 292.289
37.47000 294.585
37.48000 305.950
37.49000 318.184
37.50000 327.136
37.51000 319.306
37.52000 312.599
37.53000 306.203
37.54000 300.369
37.55000 294.546
37.56000 290.018
37.57000 287.071
37.58000 284.133
37.59000 284.289
37.60000 286.927
37.61000 289.541
37.62000 290.952
37.63000 291.703
37.64000 292.366
37.65000 291.349
37.66000 289.693
37.67000 288.157
37.68000 292.124
37.69000 296.998
37.70000 300.649
37.71000 296.577
37.72000 291.152
37.73000 287.462
37.74000 291.036
37.75000 295.413
37.76000 298.708
37.77000 296.338
37.78000 294.207
37.79000 292.250
37.80000 290.640
37.81000 289.039
37.82000 288.187
37.83000 288.354
37.84000 288.528
37.85000 288.736
37.86000 288.975
37.87000 289.215
37.88000 289.447
37.89000 289.674
37.90000 289.981
37.91000 292.157
37.92000 295.118
37.93000 297.898
37.94000 291.656
37.95000 283.575
37.96000 276.971
37.97000 280.929
37.98000 286.963
37.99000 292.622
38.00000 296.534
38.01000 300.225
38.02000 303.079
38.03000 289.032
38.04000 276.893
38.05000 270.915
38.06000 278.491
38.07000 286.550
38.08000 291.895
38.09000 293.130
38.10000 294.322
38.11000 294.921
38.12000 293.348
38.13000 292.315
38.14000 293.275
38.15000 295.581
38.16000 297.831
38.17000 298.446
38.18000 298.301
38.19000 298.164
38.20000 303.110
38.21000 309.181
38.22000 314.594
38.23000 314.653
38.24000 313.537
38.25000 312.462
38.26000 311.606
38.27000 310.782
38.28000 310.128
38.29000 309.162
38.30000 308.364
38.31000 309.221
38.32000 314.105
38.33000 319.170
38.34000 323.148
38.35000 325.299
38.36000 327.421
38.37000 328.550
38.38000 338.042
38.39000 344.508
38.40000 350.280
38.41000 355.532
38.42000 360.734
38.43000 364.000
38.44000 366.270
38.45000 368.444
38.46000 377.323
38.47000 387.831
38.48000 398.545
38.49000 411.181
38.50000 424.287
38.51000 437.115
38.52000 448.319
38.53000 459.260
38.54000 468.137
38.55000 493.051
38.56000 514.682
38.57000 540.143
38.58000 575.904
38.59000 612.234
38.60000 646.317
38.61000 676.215
38.62000 706.019
38.63000 722.723
38.64000 773.149
38.65000 808.171
38.66000 835.626
38.67000 856.738
38.68000 877.948
38.69000 904.464
38.70000 933.998
38.71000 962.527
38.72000 984.376
38.73000 1002.489
38.74000 1020.400
38.75000 1036.145
38.76000 1051.300
38.77000 1064.276
38.78000 1062.880
38.79000 1058.859
38.80000 1055.525
38.81000 1028.074
38.82000 1003.084
38.83000 978.630
38.84000 955.771
38.85000 933.018
38.86000 907.198
38.87000 875.054
38.88000 842.718
38.89000 823.712
38.90000 785.135
38.91000 757.834
38.92000 729.812
38.93000 701.115
38.94000 672.421
38.95000 643.990
38.96000 615.725
38.97000 588.217
38.98000 558.323
38.99000 528.866
39.00000 500.440
39.01000 484.987
39.02000 473.443
39.03000 460.826
39.04000 440.183
39.05000 417.898
39.06000 399.044
39.07000 389.597
39.08000 382.734
39.09000 375.606
39.10000 367.609
39.11000 359.543
39.12000 351.820
39.13000 344.878
39.14000 337.967
39.15000 333.722
39.16000 322.353
39.17000 314.142
39.18000 309.565
39.19000 308.826
39.20000 308.074
39.21000 305.560
39.22000 301.809
39.23000 298.135
39.24000 294.192
39.25000 290.277
39.26000 286.576
39.27000 286.055
39.28000 286.596
39.29000 287.079
39.30000 287.068
39.31000 286.945
39.32000 286.838
39.33000 286.738
39.34000 286.654
39.35000 286.135
39.36000 284.025
39.37000 281.768
39.38000 279.575
39.39000 277.538
39.40000 275.510
39.41000 274.212
39.42000 278.749
39.43000 282.130
39.44000 280.442
39.45000 272.755
39.46000 265.084
39.47000 264.775
39.48000 270.217
39.49000 275.578
39.50000 275.182
39.51000 271.820
39.52000 268.572
39.53000 267.349
39.54000 266.874
39.55000 266.556
39.56000 267.771
39.57000 269.376
39.58000 270.784
39.59000 269.590
39.60000 268.186
39.61000 268.077
39.62000 273.224
39.63000 278.931
39.64000 283.103
39.65000 283.000
39.66000 282.645
39.67000 282.409
39.68000 277.291
39.69000 273.416
39.70000 272.740
39.71000 276.288
39.72000 279.849
39.73000 276.855
39.74000 268.141
39.75000 259.516
39.76000 262.164
39.77000 271.269
39.78000 279.984
39.79000 280.139
39.80000 276.797
39.81000 273.955
39.82000 276.782
39.83000 281.208
39.84000 285.153
39.85000 282.799
39.86000 279.709
39.87000 277.024
39.88000 276.164
39.89000 275.527
39.90000 274.568
39.91000 272.611
39.92000 270.583
39.93000 269.188
39.94000 264.059
39.95000 260.117
39.96000 257.141
39.97000 255.584
39.98000 254.039
39.99000 251.747
40.00000 248.723
40.01000 245.718
40.02000 249.666
40.03000 258.047
40.04000 266.215
40.05000 268.533
40.06000 268.208
40.07000 267.949
40.08000 268.575
40.09000 269.478
40.10000 270.295
40.11000 266.608
40.12000 262.519
40.13000 259.185
40.14000 259.666
40.15000 260.677
40.16000 261.942
40.17000 264.078
40.18000 266.287
40.19000 267.858
40.20000 266.433
40.21000 265.252
40.22000 264.563
40.23000 264.679
40.24000 264.807
40.25000 262.799
40.26000 258.442
40.27000 254.099
40.28000 253.945
40.29000 256.817
40.30000 259.680
40.31000 262.170
40.32000 264.475
40.33000 266.393
40.34000 262.157
40.35000 255.792
40.36000 249.953
40.37000 254.768
40.38000 261.312
40.39000 266.407
40.40000 263.300
40.41000 258.905
40.42000 256.354
40.43000 260.793
40.44000 265.910
40.45000 269.662
40.46000 258.513
40.47000 249.300
40.48000 244.909
40.49000 249.242
40.50000 253.755
40.51000 254.993
40.52000 252.198
40.53000 249.397
40.54000 250.760
40.55000 255.490
40.56000 260.156
40.57000 261.742
40.58000 261.624
40.59000 261.334
40.60000 257.722
40.61000 252.839
40.62000 248.303
40.63000 250.382
40.64000 253.831
40.65000 256.459
40.66000 253.852
40.67000 250.321
40.68000 247.591
40.69000 248.237
40.70000 249.261
40.71000 250.033
40.72000 245.545
40.73000 241.769
40.74000 242.234
40.75000 251.192
40.76000 260.388
40.77000 264.166
40.78000 260.505
40.79000 256.800
40.80000 254.477
40.81000 253.410
40.82000 252.346
40.83000 251.413
40.84000 250.561
40.85000 249.822
40.86000 251.761
40.87000 254.836
40.88000 257.724
40.89000 255.381
40.90000 251.846
40.91000 248.860
40.92000 249.836
40.93000 251.597
40.94000 253.307
40.95000 254.774
40.96000 256.209
40.97000 257.322
40.98000 255.200
40.99000 253.322
41.00000 252.350
41.01000 253.387
41.02000 254.496
41.03000 253.996
41.04000 251.036
41.05000 248.051
41.06000 246.543
41.07000 238.548
41.08000 233.251
41.09000 233.807
41.10000 238.345
41.11000 242.841
41.12000 246.031
41.13000 248.610
41.14000 251.059
41.15000 251.525
41.16000 251.363
41.17000 251.008
41.18000 249.064
41.19000 246.770
41.20000 244.428
41.21000 241.838
41.22000 239.212
41.23000 237.127
41.24000 241.667
41.25000 245.793
41.26000 248.869
41.27000 249.376
41.28000 249.766
41.29000 249.516
41.30000 248.181
41.31000 246.829
41.32000 246.106
41.33000 244.749
41.34000 243.815
41.35000 241.220
41.36000 237.369
41.37000 233.712
41.38000 237.755
41.39000 245.787
41.40000 253.485
41.41000 254.134
41.42000 252.379
41.43000 250.560
41.44000 248.143
41.45000 245.579
41.46000 243.207
41.47000 241.972
41.48000 240.924
41.49000 240.071
41.50000 241.041
41.51000 241.984
41.52000 242.671
41.53000 242.667
41.54000 242.624
41.55000 242.590
41.56000 242.573
41.57000 242.556
41.58000 242.547
41.59000 249.505
41.60000 254.339
41.61000 251.558
41.62000 242.342
41.63000 233.287
41.64000 233.173
41.65000 238.186
41.66000 243.030
41.67000 248.954
41.68000 254.945
41.69000 260.170
41.70000 257.050
41.71000 251.645
41.72000 246.286
41.73000 241.236
41.74000 236.243
41.75000 232.096
41.76000 234.686
41.77000 237.480
41.78000 239.527
41.79000 239.331
41.80000 238.984
41.81000 239.350
41.82000 241.198
41.83000 243.091
41.84000 244.207
41.85000 238.148
41.86000 233.832
41.87000 232.334
41.88000 233.503
41.89000 234.662
41.90000 234.936
41.91000 234.647
41.92000 234.365
41.93000 236.555
41.94000 239.675
41.95000 242.180
41.96000 236.851
41.97000 229.144
41.98000 222.901
41.99000 227.706
42.00000 234.790
42.01000 240.791
42.02000 247.286
42.03000 252.782
42.04000 256.385
42.05000 253.702
42.06000 250.520
42.07000 247.189
42.08000 243.519
42.09000 239.835
42.10000 237.565
42.11000 237.797
42.12000 237.985
42.13000 236.318
42.14000 232.675
42.15000 229.078
42.16000 231.913
42.17000 239.293
42.18000 246.526
42.19000 247.763
42.20000 246.153
42.21000 244.464
42.22000 241.582
42.23000 238.300
42.24000 235.476
42.25000 236.608
42.26000 238.650
42.27000 240.412
42.28000 242.651
42.29000 244.613
42.30000 245.076
42.31000 240.021
42.32000 234.454
42.33000 231.246
42.34000 234.027
42.35000 237.102
42.36000 239.075
42.37000 239.884
42.38000 240.458
42.39000 239.873
42.40000 237.904
42.41000 235.933
42.42000 233.857
42.43000 231.697
42.44000 229.570
42.45000 229.601
42.46000 230.757
42.47000 231.917
42.48000 233.158
42.49000 234.428
42.50000 235.896
42.51000 239.327
42.52000 243.259
42.53000 246.712
42.54000 238.328
42.55000 229.383
42.56000 223.052
42.57000 227.416
42.58000 232.927
42.59000 235.918
42.60000 231.831
42.61000 227.320
42.62000 224.315
42.63000 225.648
42.64000 226.717
42.65000 225.808
42.66000 222.264
42.67000 218.711
42.68000 218.398
42.69000 220.936
42.70000 223.449
42.71000 225.583
42.72000 227.450
42.73000 229.299
42.74000 230.715
42.75000 231.955
42.76000 232.948
42.77000 231.111
42.78000 228.469
42.79000 226.112
42.80000 227.491
42.81000 229.315
42.82000 230.533
42.83000 228.989
42.84000 227.104
42.85000 226.046
42.86000 227.556
42.87000 229.250
42.88000 230.419
42.89000 236.813
42.90000 241.750
42.91000 240.353
42.92000 229.572
42.93000 218.705
42.94000 217.634
42.95000 226.238
42.96000 234.789
42.97000 239.665
42.98000 242.080
42.99000 244.280
43.00000 240.439
43.01000 233.849
43.02000 227.770
43.03000 228.580
43.04000 231.560
43.05000 234.259
43.06000 228.491
43.07000 221.808
43.08000 215.942
43.09000 214.227
43.10000 213.094
43.11000 213.184
43.12000 217.490
43.13000 222.149
43.14000 225.471
43.15000 224.030
43.16000 222.775
43.17000 221.790
43.18000 221.247
43.19000 220.710
43.20000 221.268
43.21000 223.040
43.22000 224.807
43.23000 225.254
43.24000 224.736
43.25000 224.183
43.26000 222.328
43.27000 219.819
43.28000 217.540
43.29000 218.963
43.30000 221.677
43.31000 224.169
43.32000 227.028
43.33000 229.656
43.34000 232.160
43.35000 233.950
43.36000 235.627
43.37000 237.118
43.38000 237.896
43.39000 238.604
43.40000 239.124
43.41000 225.916
43.42000 215.141
43.43000 210.915
43.44000 218.626
43.45000 226.588
43.46000 231.133
43.47000 231.437
43.48000 231.728
43.49000 228.730
43.50000 223.060
43.51000 217.461
43.52000 215.376
43.53000 215.249
43.54000 215.530
43.55000 223.751
43.56000 235.033
43.57000 245.521
43.58000 244.046
43.59000 239.845
43.60000 235.804
43.61000 232.790
43.62000 229.958
43.63000 227.464
43.64000 226.407
43.65000 225.511
43.66000 224.833
43.67000 231.878
43.68000 237.789
43.69000 238.571
43.70000 229.009
43.71000 219.151
43.72000 215.107
43.73000 219.106
43.74000 223.155
43.75000 224.229
43.76000 222.578
43.77000 220.972
43.78000 222.624
43.79000 226.289
43.80000 229.975
43.81000 234.165
43.82000 238.571
43.83000 242.714
43.84000 236.833
43.85000 228.764
43.86000 221.955
43.87000 224.317
43.88000 228.512
43.89000 232.300
43.90000 234.161
43.91000 235.774
43.92000 237.025
43.93000 227.092
43.94000 218.520
43.95000 213.838
43.96000 217.832
43.97000 222.148
43.98000 224.479
43.99000 223.758
44.00000 223.003
44.01000 222.619
44.02000 226.251
44.03000 228.638
44.04000 225.526
44.05000 218.645
44.06000 212.004
44.07000 212.734
44.08000 216.939
44.09000 220.935
44.10000 224.706
44.11000 228.122
44.12000 230.809
44.13000 227.459
44.14000 222.762
44.15000 218.728
44.16000 218.210
44.17000 218.207
44.18000 218.205
44.19000 220.675
44.20000 222.843
44.21000 222.945
44.22000 217.951
44.23000 212.722
44.24000 212.276
44.25000 219.994
44.26000 227.849
44.27000 232.062
44.28000 226.343
44.29000 222.438
44.30000 220.214
44.31000 219.272
44.32000 218.338
44.33000 217.679
44.34000 217.165
44.35000 216.671
44.36000 220.446
44.37000 225.412
44.38000 229.859
44.39000 229.369
44.40000 227.653
44.41000 226.393
44.42000 227.840
44.43000 229.735
44.44000 231.278
44.45000 232.828
44.46000 234.096
44.47000 234.987
44.48000 234.851
44.49000 234.657
44.50000 234.283
44.51000 233.567
44.52000 232.843
44.53000 232.435
44.54000 224.016
44.55000 218.154
44.56000 218.809
44.57000 225.018
44.58000 231.139
44.59000 232.299
44.60000 230.593
44.61000 228.943
44.62000 231.084
44.63000 234.535
44.64000 238.005
44.65000 241.687
44.66000 245.426
44.67000 247.724
44.68000 240.340
44.69000 231.159
44.70000 223.523
44.71000 235.496
44.72000 247.328
44.73000 254.831
44.74000 249.267
44.75000 242.813
44.76000 239.559
44.77000 242.997
44.78000 246.645
44.79000 248.803
44.80000 258.574
44.81000 265.521
44.82000 265.580
44.83000 259.059
44.84000 252.625
44.85000 253.574
44.86000 259.252
44.87000 264.783
44.88000 268.144
44.89000 270.433
44.90000 272.283
44.91000 268.482
44.92000 262.951
44.93000 258.095
44.94000 258.374
44.95000 259.719
44.96000 260.861
44.97000 271.471
44.98000 281.441
44.99000 290.838
45.00000 298.322
45.01000 305.652
45.02000 312.142
45.03000 316.691
45.04000 321.162
45.05000 323.925
45.06000 313.389
45.07000 305.696
45.08000 306.985
45.09000 317.918
45.10000 328.787
45.11000 330.040
45.12000 324.446
45.13000 318.961
45.14000 319.447
45.15000 322.724
45.16000 325.746
45.17000 324.863
45.18000 322.658
45.19000 321.065
45.20000 324.796
45.21000 329.762
45.22000 334.054
45.23000 330.949
45.24000 327.351
45.25000 323.656
45.26000 319.600
45.27000 315.510
45.28000 312.349
45.29000 311.562
45.30000 310.894
45.31000 310.464
45.32000 311.572
45.33000 312.402
45.34000 310.531
45.35000 305.412
45.36000 300.292
45.37000 296.684
45.38000 294.278
45.39000 291.905
45.40000 289.114
45.41000 286.183
45.42000 283.133
45.43000 277.899
45.44000 271.846
45.45000 266.535
45.46000 268.646
45.47000 272.671
45.48000 276.209
45.49000 274.405
45.50000 272.060
45.51000 270.415
45.52000 271.652
45.53000 273.202
45.54000 274.249
45.55000 273.871
45.56000 273.407
45.57000 273.097
45.58000 266.429
45.59000 261.364
45.60000 259.196
45.61000 260.916
45.62000 262.654
45.63000 262.945
45.64000 261.952
45.65000 260.968
45.66000 258.755
45.67000 255.866
45.68000 253.167
45.69000 254.769
45.70000 258.152
45.71000 261.249
45.72000 261.014
45.73000 259.825
45.74000 258.762
45.75000 255.458
45.76000 252.201
45.77000 249.880
45.78000 251.852
45.79000 254.357
45.80000 253.872
45.81000 244.026
45.82000 233.503
45.83000 226.225
45.84000 230.227
45.85000 233.528
45.86000 233.605
45.87000 228.867
45.88000 224.083
45.89000 223.780
45.90000 227.941
45.91000 232.076
45.92000 231.977
45.93000 229.099
45.94000 226.304
45.95000 225.851
45.96000 226.471
45.97000 226.968
45.98000 225.793
45.99000 224.088
46.00000 222.542
46.01000 220.160
46.02000 217.898
46.03000 215.670
46.04000 213.609
46.05000 211.572
46.06000 209.710
46.07000 208.455
46.08000 207.251
46.09000 206.391
46.10000 204.438
46.11000 202.912
46.12000 201.726
46.13000 201.104
46.14000 200.490
46.15000 199.777
46.16000 198.954
46.17000 198.133
46.18000 198.962
46.19000 200.998
46.20000 203.059
46.21000 206.083
46.22000 209.594
46.23000 212.841
46.24000 211.776
46.25000 209.198
46.26000 206.828
46.27000 203.171
46.28000 199.629
46.29000 197.487
46.30000 203.402
46.31000 210.603
46.32000 215.832
46.33000 213.466
46.34000 210.349
46.35000 208.053
46.36000 201.949
46.37000 197.065
46.38000 194.875
46.39000 197.629
46.40000 200.489
46.41000 198.417
46.42000 190.176
46.43000 181.925
46.44000 183.671
46.45000 193.636
46.46000 203.430
46.47000 204.451
46.48000 200.551
46.49000 196.899
46.50000 198.146
46.51000 201.295
46.52000 204.225
46.53000 207.383
46.54000 210.292
46.55000 212.276
46.56000 208.265
46.57000 203.177
46.58000 198.987
46.59000 198.640
46.60000 198.732
46.61000 198.801
46.62000 201.042
46.63000 202.911
46.64000 203.215
46.65000 200.339
46.66000 197.369
46.67000 197.108
46.68000 200.622
46.69000 204.161
46.70000 204.935
46.71000 203.155
46.72000 201.415
46.73000 202.707
46.74000 205.884
46.75000 208.959
46.76000 209.551
46.77000 209.077
46.78000 208.630
46.79000 204.114
46.80000 198.882
46.81000 194.398
46.82000 195.411
46.83000 197.531
46.84000 200.249
46.85000 205.821
46.86000 211.764
46.87000 216.386
46.88000 208.219
46.89000 200.937
46.90000 197.210
46.91000 201.467
46.92000 206.024
46.93000 205.872
46.94000 198.421
46.95000 190.886
46.96000 187.047
46.97000 204.208
46.98000 215.628
46.99000 215.480
47.00000 207.342
47.01000 199.508
47.02000 201.184
47.03000 207.378
47.04000 213.266
47.05000 206.193
47.06000 195.711
47.07000 186.784
47.08000 190.868
47.09000 197.876
47.10000 202.949
47.11000 197.681
47.12000 190.886
47.13000 185.471
47.14000 190.575
47.15000 195.457
47.16000 199.945
47.17000 203.455
47.18000 206.920
47.19000 206.070
47.20000 197.804
47.21000 189.409
47.22000 184.889
47.23000 184.714
47.24000 184.611
47.25000 187.336
47.26000 192.237
47.27000 197.070
47.28000 199.096
47.29000 199.649
47.30000 200.178
47.31000 198.931
47.32000 197.159
47.33000 195.253
47.34000 192.052
47.35000 188.527
47.36000 186.190
47.37000 190.983
47.38000 196.965
47.39000 201.841
47.40000 197.680
47.41000 193.508
47.42000 188.715
47.43000 182.212
47.44000 175.612
47.45000 173.412
47.46000 179.590
47.47000 185.971
47.48000 189.585
47.49000 188.026
47.50000 186.926
47.51000 185.530
47.52000 183.880
47.53000 182.256
47.54000 182.181
47.55000 183.008
47.56000 183.808
47.57000 184.146
47.58000 184.290
47.59000 184.623
47.60000 187.062
47.61000 190.086
47.62000 192.364
47.63000 189.590
47.64000 185.869
47.65000 182.770
47.66000 188.377
47.67000 193.884
47.68000 197.025
47.69000 192.969
47.70000 188.418
47.71000 184.103
47.72000 180.286
47.73000 176.486
47.74000 174.230
47.75000 175.616
47.76000 176.618
47.77000 178.261
47.78000 180.522
47.79000 182.789
47.80000 185.619
47.81000 188.814
47.82000 191.927
47.83000 190.933
47.84000 188.238
47.85000 185.763
47.86000 186.135
47.87000 187.385
47.88000 188.193
47.89000 185.596
47.90000 182.286
47.91000 179.474
47.92000 180.249
47.93000 181.310
47.94000 182.998
47.95000 186.799
47.96000 190.773
47.97000 194.358
47.98000 197.042
47.99000 199.689
48.00000 201.329
48.01000 198.649
48.02000 196.680
48.03000 194.646
48.04000 192.541
48.05000 190.459
48.06000 191.670
48.07000 195.245
48.08000 198.752
48.09000 196.714
48.10000 192.120
48.11000 187.842
48.12000 188.452
48.13000 190.730
48.14000 192.671
48.15000 191.649
48.16000 189.934
48.17000 188.451
48.18000 186.592
48.19000 184.961
48.20000 184.595
48.21000 188.952
48.22000 193.757
48.23000 196.232
48.24000 192.705
48.25000 188.875
48.26000 186.404
48.27000 193.249
48.28000 198.383
48.29000 199.994
48.30000 197.334
48.31000 194.671
48.32000 193.909
48.33000 194.667
48.34000 195.415
48.35000 193.973
48.36000 191.413
48.37000 188.938
48.38000 188.067
48.39000 187.801
48.40000 187.347
48.41000 184.979
48.42000 182.113
48.43000 179.591
48.44000 183.683
48.45000 188.196
48.46000 191.722
48.47000 191.148
48.48000 190.124
48.49000 188.820
48.50000 186.718
48.51000 184.567
48.52000 183.127
48.53000 182.254
48.54000 181.619
48.55000 182.420
48.56000 185.166
48.57000 187.919
48.58000 187.546
48.59000 184.376
48.60000 181.235
48.61000 181.505
48.62000 183.788
48.63000 185.970
48.64000 185.836
48.65000 184.735
48.66000 183.396
48.67000 179.245
48.68000 174.284
48.69000 169.846
48.70000 174.945
48.71000 181.012
48.72000 186.013
48.73000 186.081
48.74000 185.531
48.75000 183.224
48.76000 175.376
48.77000 167.123
48.78000 161.401
48.79000 161.283
48.80000 161.342
48.81000 164.321
48.82000 171.692
48.83000 179.106
48.84000 183.240
48.85000 184.079
48.86000 184.913
48.87000 184.142
48.88000 182.320
48.89000 180.493
48.90000 178.494
48.91000 176.416
48.92000 174.515
48.93000 175.068
48.94000 176.404
48.95000 177.617
48.96000 178.770
48.97000 179.776
48.98000 180.482
48.99000 179.631
49.00000 178.559
49.01000 177.692
49.02000 177.546
49.03000 177.462
49.04000 177.402
49.05000 175.982
49.06000 174.852
49.07000 175.348
49.08000 178.559
49.09000 181.812
49.10000 182.403
49.11000 179.990
49.12000 177.583
49.13000 175.829
49.14000 174.571
49.15000 173.330
49.16000 172.682
49.17000 172.338
49.18000 172.100
49.19000 173.616
49.20000 175.753
49.21000 177.719
49.22000 172.265
49.23000 165.784
49.24000 161.014
49.25000 166.181
49.26000 172.949
49.27000 178.399
49.28000 178.737
49.29000 178.563
49.30000 178.435
49.31000 179.217
49.32000 179.862
49.33000 180.276
49.34000 180.265
49.35000 180.245
49.36000 182.232
49.37000 186.749
49.38000 191.269
49.39000 188.825
49.40000 180.612
49.41000 172.486
49.42000 168.887
49.43000 167.847
49.44000 166.830
49.45000 166.254
49.46000 165.852
49.47000 165.477
49.48000 165.987
49.49000 166.664
49.50000 167.965
49.51000 173.343
49.52000 179.460
49.53000 184.335
49.54000 183.847
49.55000 182.742
49.56000 181.904
49.57000 178.862
49.58000 176.359
49.59000 174.218
49.60000 172.818
49.61000 171.439
49.62000 170.478
49.63000 170.103
49.64000 169.733
49.65000 168.780
49.66000 167.286
49.67000 165.826
49.68000 166.946
49.69000 169.684
49.70000 172.390
49.71000 174.328
49.72000 175.934
49.73000 177.446
49.74000 178.651
49.75000 179.670
49.76000 180.385
49.77000 178.853
49.78000 176.865
49.79000 175.380
49.80000 176.312
49.81000 177.563
49.82000 178.536
49.83000 178.486
49.84000 178.382
49.85000 177.256
49.86000 173.816
49.87000 170.287
49.88000 169.103
49.89000 171.581
49.90000 174.101
49.91000 175.391
49.92000 170.785
49.93000 167.732
49.94000 170.064
49.95000 176.146
49.96000 181.998
49.97000 180.561
49.98000 175.637
49.99000 170.952
50.00000 169.719
50.01000 169.637
50.02000 169.268
50.03000 166.468
50.04000 163.117
50.05000 160.492
50.06000 161.771
50.07000 163.632
50.08000 165.118
50.09000 167.178
50.10000 168.884
50.11000 169.726
50.12000 168.405
50.13000 166.980
50.14000 168.802
50.15000 176.248
50.16000 183.793
50.17000 187.871
50.18000 179.122
50.19000 173.128
50.20000 169.215
50.21000 166.915
50.22000 164.753
50.23000 168.448
50.24000 175.243
50.25000 181.768
50.26000 182.323
50.27000 180.795
50.28000 179.188
50.29000 176.819
50.30000 174.257
50.31000 172.284
50.32000 173.870
50.33000 176.054
50.34000 177.838
50.35000 181.129
50.36000 183.953
50.37000 186.183
50.38000 186.773
50.39000 187.267
50.40000 186.587
50.41000 183.654
50.42000 180.666
50.43000 178.968
50.44000 183.324
50.45000 186.375
50.46000 187.844
50.47000 187.943
50.48000 188.100
50.49000 191.702
50.50000 197.324
50.51000 202.766
50.52000 203.000
50.53000 201.225
50.54000 200.334
50.55000 209.395
50.56000 221.242
50.57000 230.922
50.58000 225.788
50.59000 217.859
50.60000 211.245
50.61000 217.030
50.62000 223.069
50.63000 227.124
50.64000 225.100
50.65000 222.653
50.66000 222.172
50.67000 225.861
50.68000 229.687
50.69000 231.965
50.70000 241.679
50.71000 248.605
50.72000 249.645
50.73000 244.967
50.74000 240.336
50.75000 240.015
50.76000 242.497
50.77000 244.918
50.78000 244.419
50.79000 242.694
50.80000 241.277
50.81000 243.932
50.82000 247.850
50.83000 251.085
50.84000 249.019
50.85000 245.832
50.86000 243.122
50.87000 241.805
50.88000 240.861
50.89000 239.876
50.90000 238.755
50.91000 237.623
50.92000 236.323
50.93000 234.627
50.94000 232.916
50.95000 231.851
50.96000 223.729
50.97000 217.811
50.98000 211.523
50.99000 204.833
51.00000 198.198
51.01000 200.473
51.02000 209.189
51.03000 217.742
51.04000 215.739
51.05000 208.760
51.06000 202.140
51.07000 201.132
51.08000 202.052
51.09000 202.362
51.10000 197.261
51.11000 190.887
51.12000 185.364
51.13000 187.646
51.14000 190.622
51.15000 192.137
51.16000 188.155
51.17000 183.645
51.18000 180.721
51.19000 181.911
51.20000 183.313
51.21000 184.220
51.22000 186.538
51.23000 188.255
51.24000 187.513
51.25000 183.765
51.26000 180.019
51.27000 179.322
51.28000 181.083
51.29000 182.821
51.30000 179.564
51.31000 173.729
51.32000 168.121
51.33000 166.812
51.34000 167.137
51.35000 167.331
51.36000 166.187
51.37000 164.694
51.38000 163.377
51.39000 166.508
51.40000 169.878
51.41000 172.810
51.42000 173.905
51.43000 174.798
51.44000 175.691
51.45000 176.586
51.46000 177.480
51.47000 178.081
51.48000 171.971
51.49000 167.296
51.50000 166.503
51.51000 171.000
51.52000 175.523
51.53000 174.602
51.54000 168.773
51.55000 162.995
51.56000 160.023
51.57000 158.782
51.58000 157.786
51.59000 162.494
51.60000 169.600
51.61000 175.986
51.62000 173.822
51.63000 169.172
51.64000 165.009
51.65000 166.112
51.66000 167.978
51.67000 169.805
51.68000 171.445
51.69000 173.062
51.70000 173.647
51.71000 170.952
51.72000 168.014
51.73000 165.972
51.74000 168.144
51.75000 169.895
51.76000 170.093
51.77000 167.938
51.78000 165.758
51.79000 163.220
51.80000 160.318
51.81000 157.432
51.82000 159.116
51.83000 163.826
51.84000 168.399
51.85000 168.940
51.86000 167.607
51.87000 166.336
51.88000 165.934
51.89000 165.813
51.90000 165.702
51.91000 162.688
51.92000 159.461
51.93000 157.945
51.94000 165.348
51.95000 174.034
51.96000 179.489
51.97000 173.569
51.98000 166.659
51.99000 161.700
52.00000 161.484
52.01000 161.482
52.02000 160.507
52.03000 157.898
52.04000 155.262
52.05000 155.858
52.06000 160.130
52.07000 164.394
52.08000 163.762
52.09000 159.482
52.10000 155.319
52.11000 155.697
52.12000 158.411
52.13000 160.949
52.14000 160.551
52.15000 159.107
52.16000 157.777
52.17000 159.787
52.18000 162.316
52.19000 164.036
52.20000 161.031
52.21000 157.258
52.22000 154.017
52.23000 152.855
52.24000 151.902
52.25000 151.198
52.26000 149.889
52.27000 148.848
52.28000 149.512
52.29000 153.354
52.30000 157.268
52.31000 156.879
52.32000 151.021
52.33000 145.150
52.34000 146.780
52.35000 154.680
52.36000 162.425
52.37000 161.911
52.38000 156.695
52.39000 151.831
52.40000 154.141
52.41000 159.279
52.42000 164.068
52.43000 163.024
52.44000 160.644
52.45000 158.699
52.46000 159.619
52.47000 161.063
52.48000 162.106
52.49000 161.407
52.50000 160.507
52.51000 159.822
52.52000 163.305
52.53000 166.262
52.54000 167.153
52.55000 163.787
52.56000 160.292
52.57000 159.428
52.58000 162.288
52.59000 165.174
52.60000 166.815
52.61000 167.287
52.62000 167.734
52.63000 166.261
52.64000 163.576
52.65000 160.882
52.66000 157.980
52.67000 154.987
52.68000 152.167
52.69000 157.395
52.70000 164.403
52.71000 170.729
52.72000 171.952
52.73000 172.130
52.74000 171.873
52.75000 169.502
52.76000 166.850
52.77000 164.781
52.78000 165.494
52.79000 166.236
52.80000 164.786
52.81000 158.336
52.82000 151.691
52.83000 149.586
52.84000 154.624
52.85000 159.748
52.86000 162.380
52.87000 164.269
52.88000 165.519
52.89000 163.986
52.90000 160.502
52.91000 157.150
52.92000 158.066
52.93000 161.040
52.94000 163.872
52.95000 162.757
52.96000 160.505
52.97000 158.392
52.98000 157.473
52.99000 156.826
53.00000 156.138
53.01000 155.228
53.02000 154.285
53.03000 153.531
53.04000 156.531
53.05000 159.235
53.06000 161.022
53.07000 160.501
53.08000 159.869
53.09000 157.740
53.10000 153.003
53.11000 148.218
53.12000 145.622
53.13000 148.538
53.14000 150.547
53.15000 153.416
53.16000 156.959
53.17000 160.433
53.18000 160.979
53.19000 159.962
53.20000 158.985
53.21000 157.248
53.22000 155.359
53.23000 153.521
53.24000 152.174
53.25000 150.953
53.26000 150.603
53.27000 155.576
53.28000 161.450
53.29000 166.255
53.30000 167.501
53.31000 168.211
53.32000 167.859
53.33000 164.541
53.34000 161.048
53.35000 157.535
53.36000 153.980
53.37000 150.425
53.38000 148.397
53.39000 151.779
53.40000 154.156
53.41000 156.040
53.42000 157.496
53.43000 158.940
53.44000 159.691
53.45000 160.034
53.46000 160.365
53.47000 159.442
53.48000 158.084
53.49000 156.736
53.50000 155.508
53.51000 154.314
53.52000 153.632
53.53000 156.478
53.54000 159.995
53.55000 162.933
53.56000 162.624
53.57000 162.039
53.58000 161.694
53.59000 162.092
53.60000 162.542
53.61000 162.897
53.62000 163.051
53.63000 163.198
53.64000 163.286
53.65000 161.103
53.66000 159.541
53.67000 159.576
53.68000 161.177
53.69000 162.771
53.70000 163.687
53.71000 164.160
53.72000 164.621
53.73000 162.584
53.74000 159.560
53.75000 156.470
53.76000 152.510
53.77000 148.277
53.78000 145.012
53.79000 149.314
53.80000 155.228
53.81000 160.265
53.82000 160.236
53.83000 159.620
53.84000 159.281
53.85000 159.885
53.86000 160.569
53.87000 159.706
53.88000 155.188
53.89000 150.517
53.90000 147.604
53.91000 153.076
53.92000 157.106
53.93000 156.971
53.94000 152.251
53.95000 147.570
53.96000 149.812
53.97000 157.097
53.98000 164.249
53.99000 160.913
54.00000 152.640
54.01000 144.774
54.02000 143.365
54.03000 144.192
54.04000 145.345
54.05000 149.410
54.06000 154.167
54.07000 158.293
54.08000 160.601
54.09000 162.324
54.10000 163.960
54.11000 165.269
54.12000 166.546
54.13000 166.514
54.14000 163.059
54.15000 159.426
54.16000 157.069
54.17000 157.819
54.18000 158.415
54.19000 156.014
54.20000 149.923
54.21000 143.842
54.22000 145.058
54.23000 152.203
54.24000 159.255
54.25000 159.523
54.26000 156.135
54.27000 152.719
54.28000 148.783
54.29000 144.647
54.30000 141.236
54.31000 145.309
54.32000 151.354
54.33000 156.689
54.34000 162.219
54.35000 167.019
54.36000 169.722
54.37000 163.580
54.38000 156.450
54.39000 151.852
54.40000 154.575
54.41000 157.760
54.42000 159.904
54.43000 161.107
54.44000 161.982
54.45000 160.160
54.46000 154.636
54.47000 149.093
54.48000 149.152
54.49000 154.306
54.50000 159.414
54.51000 159.087
54.52000 155.497
54.53000 152.069
54.54000 152.453
54.55000 154.451
54.56000 156.484
54.57000 158.934
54.58000 161.505
54.59000 163.809
54.60000 157.560
54.61000 150.621
54.62000 145.209
54.63000 146.979
54.64000 149.668
54.65000 152.134
54.66000 153.888
54.67000 155.589
54.68000 156.773
54.69000 158.519
54.70000 159.852
54.71000 162.120
54.72000 165.819
54.73000 169.532
54.74000 169.840
54.75000 166.669
54.76000 163.515
54.77000 160.006
54.78000 156.303
54.79000 152.767
54.80000 154.275
54.81000 158.146
54.82000 161.681
54.83000 160.466
54.84000 157.712
54.85000 155.208
54.86000 153.277
54.87000 151.683
54.88000 150.958
54.89000 154.803
54.90000 159.313
54.91000 162.430
54.92000 160.609
54.93000 158.354
54.94000 156.731
54.95000 158.935
54.96000 160.755
54.97000 161.199
54.98000 159.309
54.99000 157.381
55.00000 156.416
55.01000 156.554
55.02000 156.693
55.03000 158.943
55.04000 162.766
55.05000 166.449
55.06000 164.574
55.07000 159.819
55.08000 155.451
55.09000 157.634
55.10000 162.167
55.11000 166.345
55.12000 163.012
55.13000 158.372
55.14000 154.728
55.15000 156.966
55.16000 160.167
55.17000 162.380
55.18000 160.696
55.19000 158.615
55.20000 157.073
55.21000 157.568
55.22000 158.040
55.23000 159.405
55.24000 162.444
55.25000 165.522
55.26000 165.153
55.27000 160.371
55.28000 155.578
55.29000 155.593
55.30000 159.663
55.31000 163.736
55.32000 167.897
55.33000 172.111
55.34000 176.011
55.35000 173.450
55.36000 168.325
55.37000 163.544
55.38000 160.099
55.39000 157.310
55.40000 155.448
55.41000 159.754
55.42000 165.196
55.43000 170.136
55.44000 172.875
55.45000 175.354
55.46000 177.244
55.47000 177.634
55.48000 177.861
55.49000 178.849
55.50000 181.416
55.51000 184.032
55.52000 185.234
55.53000 184.421
55.54000 183.593
55.55000 187.775
55.56000 196.699
55.57000 205.541
55.58000 207.597
55.59000 205.337
55.60000 203.204
55.61000 204.328
55.62000 206.881
55.63000 209.290
55.64000 215.167
55.65000 221.517
55.66000 227.564
55.67000 231.318
55.68000 234.599
55.69000 237.684
55.70000 239.807
55.71000 241.802
55.72000 243.361
55.73000 252.077
55.74000 259.488
55.75000 268.271
55.76000 280.206
55.77000 292.266
55.78000 301.456
55.79000 306.100
55.80000 310.686
55.81000 313.051
55.82000 334.275
55.83000 348.600
55.84000 366.218
55.85000 386.162
55.86000 406.016
55.87000 422.881
55.88000 438.294
55.89000 452.978
55.90000 461.801
55.91000 468.151
55.92000 475.166
55.93000 487.910
55.94000 501.972
55.95000 515.193
55.96000 523.811
55.97000 531.729
55.98000 538.072
55.99000 552.090
56.00000 564.007
56.01000 570.264
56.02000 562.148
56.03000 553.324
56.04000 549.329
56.05000 553.820
56.06000 558.469
56.07000 561.000
56.08000 560.487
56.09000 560.106
56.10000 552.800
56.11000 540.040
56.12000 527.342
56.13000 517.385
56.14000 508.899
56.15000 500.742
56.16000 482.057
56.17000 460.881
56.18000 441.570
56.19000 440.721
56.20000 444.599
56.21000 446.065
56.22000 432.689
56.23000 416.775
56.24000 403.739
56.25000 383.586
56.26000 366.435
56.27000 351.555
56.28000 343.051
56.29000 334.929
56.30000 323.693
56.31000 306.398
56.32000 288.947
56.33000 278.960
56.34000 277.853
56.35000 277.107
56.36000 272.724
56.37000 265.140
56.38000 257.610
56.39000 253.405
56.40000 251.179
56.41000 249.022
56.42000 242.804
56.43000 235.336
56.44000 228.100
56.45000 223.528
56.46000 219.714
56.47000 215.691
56.48000 210.216
56.49000 204.461
56.50000 199.648
56.51000 194.811
56.52000 190.790
56.53000 187.546
56.54000 186.715
56.55000 186.056
56.56000 183.758
56.57000 177.933
56.58000 171.987
56.59000 168.425
56.60000 170.937
56.61000 172.761
56.62000 172.291
56.63000 169.556
56.64000 166.812
56.65000 163.130
56.66000 158.830
56.67000 154.633
56.68000 155.242
56.69000 157.915
56.70000 160.479
56.71000 161.568
56.72000 162.193
56.73000 163.147
56.74000 166.692
56.75000 170.794
56.76000 174.293
56.77000 168.899
56.78000 163.311
56.79000 158.509
56.80000 156.415
56.81000 154.550
56.82000 153.320
56.83000 153.604
56.84000 153.953
56.85000 154.171
56.86000 157.843
56.87000 160.529
56.88000 161.252
56.89000 159.797
56.90000 158.351
56.91000 158.668
56.92000 160.280
56.93000 161.863
56.94000 158.514
56.95000 152.886
56.96000 147.574
56.97000 147.361
56.98000 148.926
56.99000 149.876
57.00000 145.265
57.01000 139.326
57.02000 134.167
57.03000 138.216
57.04000 142.911
57.05000 147.082
57.06000 149.248
57.07000 151.217
57.08000 151.940
57.09000 149.380
57.10000 146.647
57.11000 144.869
57.12000 151.200
57.13000 155.966
57.14000 156.937
57.15000 153.196
57.16000 149.446
57.17000 147.579
57.18000 147.252
57.19000 146.929
57.20000 145.846
57.21000 144.379
57.22000 142.996
57.23000 143.249
57.24000 144.132
57.25000 145.257
57.26000 148.894
57.27000 153.199
57.28000 157.001
57.29000 154.774
57.30000 151.923
57.31000 148.969
57.32000 145.582
57.33000 142.145
57.34000 139.834
57.35000 140.802
57.36000 141.979
57.37000 142.773
57.38000 142.128
57.39000 141.618
57.40000 139.860
57.41000 136.373
57.42000 132.878
57.43000 134.548
57.44000 140.952
57.45000 147.302
57.46000 149.192
57.47000 148.344
57.48000 147.614
57.49000 149.703
57.50000 152.996
57.51000 155.683
57.52000 151.010
57.53000 144.166
57.54000 138.026
57.55000 139.463
57.56000 142.042
57.57000 144.081
57.58000 143.554
57.59000 142.697
57.60000 142.357
57.61000 143.684
57.62000 145.137
57.63000 146.151
57.64000 145.682
57.65000 145.287
57.66000 143.834
57.67000 140.756
57.68000 137.660
57.69000 136.931
57.70000 138.642
57.71000 140.345
57.72000 140.212
57.73000 138.838
57.74000 137.547
57.75000 138.823
57.76000 141.309
57.77000 143.702
57.78000 144.773
57.79000 145.411
57.80000 145.991
57.81000 145.169
57.82000 144.164
57.83000 143.684
57.84000 145.988
57.85000 148.700
57.86000 149.966
57.87000 146.062
57.88000 141.698
57.89000 138.553
57.90000 141.946
57.91000 144.778
57.92000 147.291
57.93000 149.259
57.94000 151.218
57.95000 149.134
57.96000 142.379
57.97000 135.635
57.98000 136.242
57.99000 142.419
58.00000 148.392
58.01000 146.125
58.02000 139.559
58.03000 133.478
58.04000 135.733
58.05000 141.002
58.06000 145.861
58.07000 145.033
58.08000 143.025
58.09000 140.900
58.10000 138.077
58.11000 135.139
58.12000 132.831
58.13000 133.025
58.14000 133.478
58.15000 133.815
58.16000 136.478
58.17000 138.651
58.18000 139.742
58.19000 138.789
58.20000 137.788
58.21000 136.988
58.22000 136.448
58.23000 135.909
58.24000 137.050
58.25000 139.617
58.26000 142.131
58.27000 141.652
58.28000 139.442
58.29000 137.334
58.30000 137.339
58.31000 138.188
58.32000 138.982
58.33000 138.313
58.34000 137.340
58.35000 136.446
58.36000 136.079
58.37000 135.809
58.38000 135.434
58.39000 134.588
58.40000 133.687
58.41000 132.999
58.42000 134.398
58.43000 135.612
58.44000 135.651
58.45000 133.233
58.46000 130.737
58.47000 128.298
58.48000 125.939
58.49000 123.580
58.50000 123.858
58.51000 126.654
58.52000 129.469
58.53000 133.889
58.54000 139.336
58.55000 144.498
58.56000 142.156
58.57000 136.499
58.58000 131.159
58.59000 132.110
58.60000 134.747
58.61000 136.752
58.62000 133.947
58.63000 130.142
58.64000 127.215
58.65000 128.613
58.66000 130.596
58.67000 132.149
58.68000 135.182
58.69000 137.700
58.70000 140.181
58.71000 142.577
58.72000 144.970
58.73000 146.483
58.74000 146.591
58.75000 146.681
58.76000 146.727
58.77000 143.514
58.78000 141.375
58.79000 143.600
58.80000 148.933
58.81000 153.955
58.82000 148.520
58.83000 137.973
58.84000 127.918
58.85000 131.434
58.86000 138.957
58.87000 145.448
58.88000 142.958
58.89000 138.387
58.90000 133.854
58.91000 129.536
58.92000 125.252
58.93000 121.815
58.94000 125.999
58.95000 129.967
58.96000 133.185
58.97000 134.485
58.98000 135.689
58.99000 136.077
59.00000 135.019
59.01000 133.933
59.02000 133.340
59.03000 135.231
59.04000 136.529
59.05000 136.123
59.06000 134.366
59.07000 132.625
59.08000 131.572
59.09000 130.892
59.10000 130.238
59.11000 131.037
59.12000 132.296
59.13000 133.501
59.14000 134.153
59.15000 134.662
59.16000 135.020
59.17000 134.436
59.18000 133.689
59.19000 133.076
59.20000 135.774
59.21000 138.284
59.22000 139.576
59.23000 137.422
59.24000 135.060
59.25000 134.086
59.26000 135.830
59.27000 137.646
59.28000 138.689
59.29000 133.690
59.30000 130.174
59.31000 129.455
59.32000 131.218
59.33000 132.938
59.34000 131.966
59.35000 129.379
59.36000 126.870
59.37000 127.606
59.38000 129.578
59.39000 131.662
59.40000 135.055
59.41000 138.822
59.42000 141.913
59.43000 140.253
59.44000 137.675
59.45000 135.515
59.46000 135.653
59.47000 136.006
59.48000 136.797
59.49000 138.958
59.50000 141.219
59.51000 142.213
59.52000 140.459
59.53000 138.611
59.54000 137.499
59.55000 137.953
59.56000 138.285
59.57000 137.694
59.58000 136.183
59.59000 134.690
59.60000 135.025
59.61000 136.577
59.62000 138.093
59.63000 138.992
59.64000 139.581
59.65000 140.080
59.66000 139.330
59.67000 138.184
59.68000 136.983
59.69000 135.335
59.70000 133.591
59.71000 132.101
59.72000 127.729
59.73000 123.702
59.74000 122.106
59.75000 128.941
59.76000 136.494
59.77000 140.316
59.78000 135.196
59.79000 129.686
59.80000 126.230
59.81000 132.878
59.82000 137.791
59.83000 139.171
59.84000 136.601
59.85000 134.032
59.86000 132.524
59.87000 131.801
59.88000 131.089
59.89000 127.639
59.90000 122.965
59.91000 118.665
59.92000 120.460
59.93000 124.395
59.94000 128.368
59.95000 132.673
59.96000 137.058
59.97000 140.872
59.98000 138.631
59.99000 135.893
60.00000 133.574
60.01000 132.870
60.02000 132.326
60.03000 133.592
60.04000 139.658
60.05000 145.982
60.06000 150.107
60.07000 140.328
60.08000 132.931
60.09000 129.373
60.10000 130.617
60.11000 131.873
60.12000 131.524
60.13000 129.853
60.14000 128.202
60.15000 128.494
60.16000 129.840
60.17000 131.147
60.18000 131.663
60.19000 131.871
60.20000 131.760
60.21000 128.290
60.22000 123.921
60.23000 120.056
60.24000 127.968
60.25000 136.635
60.26000 142.752
60.27000 137.948
60.28000 131.901
60.29000 127.816
60.30000 129.490
60.31000 131.536
60.32000 132.920
60.33000 133.992
60.34000 134.783
60.35000 134.231
60.36000 131.807
60.37000 129.370
60.38000 127.485
60.39000 126.109
60.40000 124.745
60.41000 127.354
60.42000 132.344
60.43000 137.206
60.44000 138.943
60.45000 139.338
60.46000 139.654
60.47000 138.996
60.48000 138.050
60.49000 137.200
60.50000 136.634
60.51000 136.188
60.52000 135.377
60.53000 132.817
60.54000 130.029
60.55000 129.279
60.56000 135.146
60.57000 141.522
60.58000 145.984
60.59000 142.341
60.60000 139.355
60.61000 136.538
60.62000 133.980
60.63000 131.425
60.64000 130.062
60.65000 129.936
60.66000 129.810
60.67000 130.386
60.68000 131.434
60.69000 132.522
60.70000 134.851
60.71000 137.769
60.72000 140.489
60.73000 140.342
60.74000 139.251
60.75000 138.258
60.76000 133.990
60.77000 129.557
60.78000 127.155
60.79000 135.607
60.80000 145.662
60.81000 151.742
60.82000 143.511
60.83000 133.992
60.84000 127.116
60.85000 126.838
60.86000 126.863
60.87000 127.868
60.88000 130.560
60.89000 133.280
60.90000 134.395
60.91000 133.640
60.92000 132.884
60.93000 133.034
60.94000 133.877
60.95000 134.708
60.96000 135.112
60.97000 135.289
60.98000 135.554
60.99000 137.337
61.00000 139.672
61.01000 141.827
61.02000 138.973
61.03000 135.291
61.04000 131.985
61.05000 130.943
61.06000 130.278
61.07000 129.849
61.08000 130.363
61.09000 130.975
61.10000 131.431
61.11000 137.712
61.12000 142.859
61.13000 144.034
61.14000 137.646
61.15000 131.075
61.16000 129.511
61.17000 134.463
61.18000 139.439
61.19000 140.227
61.20000 137.424
61.21000 134.638
61.22000 132.796
61.23000 131.503
61.24000 130.283
61.25000 130.608
61.26000 131.554
61.27000 132.439
61.28000 132.936
61.29000 133.290
61.30000 133.813
61.31000 135.486
61.32000 137.374
61.33000 138.411
61.34000 135.659
61.35000 132.454
61.36000 130.003
61.37000 136.254
61.38000 141.658
61.39000 146.107
61.40000 148.544
61.41000 150.916
61.42000 149.380
61.43000 142.182
61.44000 134.937
61.45000 134.124
61.46000 139.506
61.47000 144.869
61.48000 148.582
61.49000 151.229
61.50000 153.963
61.51000 158.972
61.52000 164.995
61.53000 170.684
61.54000 180.184
61.55000 189.981
61.56000 199.933
61.57000 211.068
61.58000 222.452
61.59000 233.562
61.60000 243.312
61.61000 252.876
61.62000 260.380
61.63000 261.535
61.64000 262.045
61.65000 263.726
61.66000 268.131
61.67000 272.648
61.68000 275.081
61.69000 274.163
61.70000 273.200
61.71000 272.700
61.72000 273.935
61.73000 274.741
61.74000 271.128
61.75000 264.344
61.76000 257.505
61.77000 248.766
61.78000 239.091
61.79000 229.861
61.80000 217.570
61.81000 205.193
61.82000 193.114
61.83000 183.653
61.84000 174.804
61.85000 166.641
61.86000 162.296
61.87000 158.541
61.88000 155.523
61.89000 150.953
61.90000 147.129
61.91000 143.342
61.92000 139.649
61.93000 135.962
61.94000 134.197
61.95000 135.862
61.96000 137.594
61.97000 138.544
61.98000 142.195
61.99000 144.710
62.00000 146.860
62.01000 148.717
62.02000 150.449
62.03000 146.396
62.04000 139.189
62.05000 132.252
62.06000 135.808
62.07000 142.861
62.08000 149.428
62.09000 151.079
62.10000 151.453
62.11000 151.481
62.12000 149.347
62.13000 146.837
62.14000 144.774
62.15000 142.960
62.16000 141.493
62.17000 141.487
62.18000 145.646
62.19000 150.060
62.20000 151.603
62.21000 147.478
62.22000 143.201
62.23000 140.737
62.24000 141.340
62.25000 141.774
62.26000 141.580
62.27000 140.825
62.28000 140.062
62.29000 138.788
62.30000 137.206
62.31000 135.671
62.32000 136.554
62.33000 138.348
62.34000 140.057
62.35000 140.762
62.36000 141.177
62.37000 141.467
62.38000 140.876
62.39000 140.113
62.40000 139.473
62.41000 140.881
62.42000 142.266
62.43000 142.333
62.44000 138.240
62.45000 133.842
62.46000 132.574
62.47000 138.140
62.48000 143.947
62.49000 147.448
62.50000 147.670
62.51000 147.804
62.52000 146.482
62.53000 143.695
62.54000 140.919
62.55000 139.190
62.56000 138.162
62.57000 137.158
62.58000 137.406
62.59000 138.198
62.60000 139.024
62.61000 140.316
62.62000 141.759
62.63000 143.139
62.64000 144.014
62.65000 144.780
62.66000 145.435
62.67000 142.567
62.68000 139.725
62.69000 137.909
62.70000 139.678
62.71000 141.756
62.72000 142.406
62.73000 139.608
62.74000 136.657
62.75000 134.801
62.76000 140.789
62.77000 145.208
62.78000 146.510
62.79000 144.297
62.80000 142.092
62.81000 142.025
62.82000 143.552
62.83000 145.054
62.84000 147.074
62.85000 149.284
62.86000 151.236
62.87000 148.953
62.88000 145.171
62.89000 141.643
62.90000 140.448
62.91000 139.819
62.92000 139.272
62.93000 144.958
62.94000 150.672
62.95000 154.495
62.96000 150.980
62.97000 146.732
62.98000 144.042
62.99000 145.513
63.00000 147.211
63.01000 148.322
63.02000 147.084
63.03000 146.136
63.04000 142.551
63.05000 135.640
63.06000 128.731
63.07000 127.572
63.08000 131.198
63.09000 134.780
63.10000 139.054
63.11000 143.601
63.12000 147.813
63.13000 145.299
63.14000 140.155
63.15000 135.694
63.16000 138.510
63.17000 143.291
63.18000 147.523
63.19000 143.031
63.20000 137.777
63.21000 134.168
63.22000 137.652
63.23000 141.952
63.24000 144.116
63.25000 139.967
63.26000 135.405
63.27000 132.310
63.28000 137.929
63.29000 142.312
63.30000 144.448
63.31000 143.428
63.32000 142.385
63.33000 142.123
63.34000 142.586
63.35000 143.046
63.36000 141.418
63.37000 138.531
63.38000 135.858
63.39000 138.484
63.40000 143.402
63.41000 147.906
63.42000 147.251
63.43000 145.052
63.44000 143.075
63.45000 142.442
63.46000 142.126
63.47000 141.957
63.48000 142.497
63.49000 143.131
63.50000 143.413
63.51000 142.546
63.52000 141.589
63.53000 140.918
63.54000 147.726
63.55000 153.095
63.56000 156.686
63.57000 157.501
63.58000 158.284
63.59000 158.461
63.60000 158.004
63.61000 157.548
63.62000 156.041
63.63000 153.827
63.64000 151.601
63.65000 149.034
63.66000 146.304
63.67000 143.922
63.68000 146.666
63.69000 151.111
63.70000 155.163
63.71000 151.289
63.72000 146.262
63.73000 142.060
63.74000 142.304
63.75000 143.211
63.76000 144.960
63.77000 149.764
63.78000 154.846
63.79000 158.525
63.80000 154.962
63.81000 151.960
63.82000 149.732
63.83000 148.842
63.84000 147.976
63.85000 148.048
63.86000 149.221
63.87000 150.393
63.88000 151.130
63.89000 151.529
63.90000 151.979
63.91000 154.622
63.92000 158.427
63.93000 161.909
63.94000 159.703
63.95000 155.410
63.96000 151.445
63.97000 150.534
63.98000 150.409
63.99000 150.544
64.00000 152.252
64.01000 154.225
64.02000 155.371
64.03000 153.184
64.04000 150.645
64.05000 148.753
64.06000 154.236
64.07000 158.840
64.08000 160.847
64.09000 157.869
64.10000 154.769
64.11000 151.443
64.12000 147.822
64.13000 144.202
64.14000 145.852
64.15000 152.054
64.16000 158.195
64.17000 160.693
64.18000 161.054
64.19000 161.342
64.20000 160.065
64.21000 158.152
64.22000 156.364
64.23000 155.659
64.24000 155.294
64.25000 155.066
64.26000 155.770
64.27000 156.650
64.28000 158.629
64.29000 165.535
64.30000 173.037
64.31000 178.785
64.32000 164.912
64.33000 152.876
64.34000 146.365
64.35000 151.576
64.36000 157.170
64.37000 158.864
64.38000 154.864
64.39000 150.816
64.40000 153.397
64.41000 162.416
64.42000 171.326
64.43000 170.262
64.44000 162.712
64.45000 155.401
64.46000 154.572
64.47000 156.650
64.48000 158.614
64.49000 162.650
64.50000 166.947
64.51000 170.554
64.52000 168.801
64.53000 165.915
64.54000 163.300
64.55000 162.043
64.56000 160.972
64.57000 160.130
64.58000 164.173
64.59000 167.731
64.60000 170.322
64.61000 170.641
64.62000 170.866
64.63000 170.735
64.64000 170.029
64.65000 169.315
64.66000 168.942
64.67000 168.682
64.68000 168.519
64.69000 170.261
64.70000 173.380
64.71000 176.397
64.72000 175.838
64.73000 173.505
64.74000 171.278
64.75000 168.303
64.76000 165.301
64.77000 162.439
64.78000 160.822
64.79000 159.499
64.80000 158.803
64.81000 161.624
64.82000 164.992
64.83000 167.703
64.84000 173.147
64.85000 177.777
64.86000 181.053
64.87000 180.818
64.88000 180.403
64.89000 180.330
64.90000 180.872
64.91000 181.426
64.92000 181.731
64.93000 187.933
64.94000 192.203
64.95000 192.503
64.96000 189.602
64.97000 186.771
64.98000 187.242
64.99000 189.528
65.00000 191.728
65.01000 189.544
65.02000 185.927
65.03000 182.996
65.04000 187.075
65.05000 192.989
65.06000 198.235
65.07000 199.254
65.08000 199.533
65.09000 199.762
65.10000 199.899
65.11000 200.003
65.12000 201.680
65.13000 207.871
65.14000 214.343
65.15000 216.415
65.16000 209.734
65.17000 202.813
65.18000 198.812
65.19000 200.316
65.20000 201.392
65.21000 201.891
65.22000 201.867
65.23000 201.900
65.24000 205.720
65.25000 211.845
65.26000 217.790
65.27000 221.265
65.28000 223.577
65.29000 226.067
65.30000 230.666
65.31000 235.879
65.32000 240.098
65.33000 237.217
65.34000 232.940
65.35000 229.347
65.36000 232.633
65.37000 236.097
65.38000 239.470
65.39000 242.555
65.40000 245.618
65.41000 250.665
65.42000 260.076
65.43000 269.642
65.44000 275.429
65.45000 292.803
65.46000 305.269
65.47000 312.615
65.48000 314.773
65.49000 316.925
65.50000 318.511
65.51000 319.713
65.52000 320.889
65.53000 324.818
65.54000 329.811
65.55000 334.635
65.56000 337.102
65.57000 338.810
65.58000 341.430
65.59000 351.463
65.60000 363.124
65.61000 373.111
65.62000 378.899
65.63000 383.275
65.64000 388.676
65.65000 397.689
65.66000 407.017
65.67000 420.788
65.68000 445.364
65.69000 470.426
65.70000 486.236
65.71000 543.210
65.72000 584.942
65.73000 630.092
65.74000 679.131
65.75000 728.183
65.76000 779.114
65.77000 831.456
65.78000 882.924
65.79000 931.972
65.80000 978.208
65.81000 1022.929
65.82000 1042.302
65.83000 1052.644
65.84000 1062.325
65.85000 1065.847
65.86000 1067.863
65.87000 1069.620
65.88000 1066.134
65.89000 1062.425
65.90000 1057.605
65.91000 1048.439
65.92000 1038.833
65.93000 1024.056
65.94000 995.370
65.95000 965.918
65.96000 946.603
65.97000 858.480
65.98000 792.530
65.99000 731.649
66.00000 677.214
66.01000 622.802
66.02000 568.865
66.03000 515.328
66.04000 462.418
66.05000 427.234
66.06000 402.757
66.07000 378.661
66.08000 362.302
66.09000 348.993
66.10000 335.810
66.11000 323.984
66.12000 312.526
66.13000 302.369
66.14000 303.886
66.15000 307.047
66.16000 310.821
66.17000 317.262
66.18000 324.013
66.19000 326.681
66.20000 317.199
66.21000 306.911
66.22000 299.915
66.23000 310.124
66.24000 318.134
66.25000 322.919
66.26000 323.137
66.27000 323.323
66.28000 330.488
66.29000 344.210
66.30000 357.826
66.31000 375.999
66.32000 396.690
66.33000 416.803
66.34000 422.266
66.35000 421.345
66.36000 420.370
66.37000 418.706
66.38000 416.834
66.39000 415.149
66.40000 420.220
66.41000 425.876
66.42000 432.126
66.43000 441.261
66.44000 450.779
66.45000 457.870
66.46000 456.966
66.47000 455.434
66.48000 454.356
66.49000 439.629
66.50000 428.070
66.51000 417.343
66.52000 407.927
66.53000 398.526
66.54000 387.326
66.55000 374.223
66.56000 361.178
66.57000 351.808
66.58000 345.085
66.59000 338.420
66.60000 333.603
66.61000 329.678
66.62000 325.522
66.63000 317.924
66.64000 309.178
66.65000 301.194
66.66000 302.372
66.67000 305.273
66.68000 307.896
66.69000 309.010
66.70000 309.896
66.71000 310.751
66.72000 311.485
66.73000 312.209
66.74000 312.734
66.75000 321.060
66.76000 327.750
66.77000 329.636
66.78000 323.141
66.79000 316.492
66.80000 314.571
66.81000 318.246
66.82000 321.923
66.83000 325.138
66.84000 327.976
66.85000 330.745
66.86000 330.488
66.87000 328.616
66.88000 326.997
66.89000 329.881
66.90000 334.429
66.91000 338.635
66.92000 339.737
66.93000 340.018
66.94000 339.838
66.95000 336.841
66.96000 333.366
66.97000 331.440
66.98000 335.803
66.99000 340.834
67.00000 344.593
67.01000 344.464
67.02000 344.184
67.03000 348.166
67.04000 360.382
67.05000 372.805
67.06000 376.079
67.07000 367.262
67.08000 358.393
67.09000 352.957
67.10000 350.523
67.11000 348.210
67.12000 353.365
67.13000 362.930
67.14000 372.164
67.15000 374.103
67.16000 373.064
67.17000 372.091
67.18000 373.347
67.19000 375.059
67.20000 376.156
67.21000 373.005
67.22000 369.045
67.23000 365.970
67.24000 366.890
67.25000 368.297
67.26000 369.378
67.27000 375.428
67.28000 380.489
67.29000 384.080
67.30000 384.531
67.31000 384.877
67.32000 383.597
67.33000 379.925
67.34000 376.231
67.35000 378.421
67.36000 386.374
67.37000 394.289
67.38000 398.608
67.39000 400.569
67.40000 402.539
67.41000 404.745
67.42000 407.058
67.43000 409.246
67.44000 412.307
67.45000 415.372
67.46000 418.535
67.47000 422.465
67.48000 426.557
67.49000 429.531
67.50000 426.850
67.51000 423.385
67.52000 420.657
67.53000 424.689
67.54000 428.372
67.55000 431.947
67.56000 435.270
67.57000 438.582
67.58000 440.107
67.59000 438.715
67.60000 437.282
67.61000 436.530
67.62000 442.734
67.63000 446.911
67.64000 446.361
67.65000 442.366
67.66000 438.388
67.67000 434.990
67.68000 431.881
67.69000 428.911
67.70000 434.629
67.71000 442.740
67.72000 449.990
67.73000 449.533
67.74000 447.247
67.75000 446.381
67.76000 453.553
67.77000 461.987
67.78000 468.787
67.79000 468.339
67.80000 467.405
67.81000 468.345
67.82000 474.185
67.83000 480.280
67.84000 482.405
67.85000 477.343
67.86000 472.134
67.87000 469.255
67.88000 490.879
67.89000 505.810
67.90000 510.252
67.91000 506.170
67.92000 502.227
67.93000 505.097
67.94000 511.733
67.95000 518.129
67.96000 519.203
67.97000 518.297
67.98000 517.934
67.99000 523.168
68.00000 529.879
68.01000 535.019
68.02000 530.143
68.03000 523.497
68.04000 518.020
68.05000 515.567
68.06000 513.827
68.07000 514.477
68.08000 522.039
68.09000 530.037
68.10000 540.092
68.11000 554.270
68.12000 568.562
68.13000 576.854
68.14000 570.697
68.15000 566.318
68.16000 568.595
68.17000 576.925
68.18000 585.136
68.19000 584.976
68.20000 579.685
68.21000 574.547
68.22000 581.326
68.23000 592.555
68.24000 603.615
68.25000 612.644
68.26000 621.079
68.27000 629.582
68.28000 638.573
68.29000 647.662
68.30000 655.308
68.31000 645.392
68.32000 635.251
68.33000 630.819
68.34000 644.657
68.35000 659.866
68.36000 671.988
68.37000 677.274
68.38000 682.311
68.39000 685.368
68.40000 699.726
68.41000 710.056
68.42000 717.921
68.43000 723.267
68.44000 728.577
68.45000 729.714
68.46000 728.013
68.47000 726.349
68.48000 739.619
68.49000 759.051
68.50000 778.068
68.51000 791.207
68.52000 802.440
68.53000 814.039
68.54000 828.648
68.55000 843.922
68.56000 857.021
68.57000 874.095
68.58000 889.006
68.59000 911.465
68.60000 960.696
68.61000 1012.284
68.62000 1060.254
68.63000 1099.364
68.64000 1138.069
68.65000 1162.555
68.66000 1210.279
68.67000 1245.152
68.68000 1293.107
68.69000 1356.057
68.70000 1419.005
68.71000 1477.718
68.72000 1533.224
68.73000 1587.824
68.74000 1636.799
68.75000 1681.379
68.76000 1726.593
68.77000 1782.542
68.78000 1842.344
68.79000 1901.989
68.80000 1960.140
68.81000 2017.925
68.82000 2068.366
68.83000 2187.026
68.84000 2298.124
68.85000 2416.034
68.86000 2560.775
68.87000 2708.255
68.88000 2910.569
68.89000 3261.429
68.90000 3620.600
68.91000 3856.774
68.92000 5180.733
68.93000 6173.980
68.94000 7788.543
68.95000 10199.000
68.96000 12614.005
68.97000 15947.929
68.98000 20058.773
68.99000 24122.719
69.00000 28809.352
69.01000 33732.559
69.02000 38619.168
69.03000 42750.191
69.04000 46581.281
69.05000 50268.535
69.06000 52389.305
69.07000 54081.059
69.08000 55582.348
69.09000 56256.906
69.10000 56709.422
69.11000 57165.430
69.12000 57636.750
69.13000 58109.867
69.14000 58674.234
69.15000 59512.105
69.16000 60368.371
69.17000 60952.004
69.18000 60954.074
69.19000 60942.207
69.20000 60235.191
69.21000 58536.367
69.22000 56829.859
69.23000 54190.879
69.24000 50668.430
69.25000 47171.961
69.26000 43987.867
69.27000 41051.688
69.28000 38145.402
69.29000 36008.895
69.30000 34210.246
69.31000 32470.602
69.32000 31482.293
69.33000 30722.172
69.34000 30037.285
69.35000 29257.711
69.36000 28556.623
69.37000 27771.453
69.38000 26575.010
69.39000 25323.518
69.40000 23856.148
69.41000 21672.193
69.42000 19431.236
69.43000 17851.830
69.44000 14620.806
69.45000 12120.847
69.46000 9954.311
69.47000 8316.275
69.48000 6684.896
69.49000 5409.264
69.50000 4512.564
69.51000 3619.741
69.52000 3034.409
69.53000 2670.123
69.54000 2309.914
69.55000 2084.622
69.56000 1924.817
69.57000 1768.364
69.58000 1662.459
69.59000 1573.556
69.60000 1492.320
69.61000 1419.432
69.62000 1356.401
69.63000 1296.901
69.64000 1256.732
69.65000 1219.496
69.66000 1181.727
69.67000 1141.995
69.68000 1102.081
69.69000 1073.060
69.70000 1061.227
69.71000 1052.774
69.72000 1035.203
69.73000 1001.608
69.74000 967.714
69.75000 946.354
69.76000 939.950
69.77000 933.587
69.78000 913.598
69.79000 883.034
69.80000 852.746
69.81000 834.682
69.82000 823.183
69.83000 811.686
69.84000 800.207
69.85000 788.734
69.86000 778.114
69.87000 758.450
69.88000 738.693
69.89000 722.635
69.90000 729.360
69.91000 739.980
69.92000 745.338
69.93000 729.166
69.94000 710.681
69.95000 696.845
69.96000 686.210
69.97000 678.061
69.98000 671.162
69.99000 666.695
70.00000 662.290
