20.00000 569.791
20.01000 574.634
20.02000 580.169
20.03000 584.305
20.04000 582.849
20.05000 580.811
20.06000 579.295
20.07000 571.590
20.08000 565.319
20.09000 561.745
20.10000 563.305
20.11000 564.988
20.12000 564.518
20.13000 561.247
20.14000 557.967
20.15000 565.216
20.16000 581.473
20.17000 597.438
20.18000 596.518
20.19000 585.773
20.20000 575.533
20.21000 576.004
20.22000 580.787
20.23000 585.256
20.24000 584.223
20.25000 581.898
20.26000 579.449
20.27000 576.159
20.28000 572.711
20.29000 569.379
20.30000 566.558
20.31000 563.798
20.32000 561.688
20.33000 568.905
20.34000 575.104
20.35000 579.059
20.36000 578.287
20.37000 577.364
20.38000 573.675
20.39000 565.982
20.40000 558.256
20.41000 556.206
20.42000 559.619
20.43000 563.007
20.44000 564.246
20.45000 564.098
20.46000 564.271
20.47000 572.987
20.48000 585.507
20.49000 597.333
20.50000 589.586
20.51000 576.943
20.52000 565.625
20.53000 564.489
20.54000 565.485
20.55000 566.151
20.56000 565.172
20.57000 563.969
20.58000 563.025
20.59000 556.776
20.60000 551.435
20.61000 548.962
20.62000 553.173
20.63000 557.656
20.64000 560.366
20.65000 560.225
20.66000 560.046
20.67000 559.953
20.68000 563.535
20.69000 565.945
20.70000 566.624
20.71000 566.064
20.72000 565.592
20.73000 568.174
20.74000 572.261
20.75000 576.159
20.76000 568.652
20.77000 558.074
20.78000 549.282
20.79000 556.171
20.80000 566.723
20.81000 575.519
20.82000 574.547
20.83000 572.066
20.84000 570.074
20.85000 576.944
20.86000 583.194
20.87000 585.451
20.88000 577.428
20.89000 568.884
20.90000 564.241
20.91000 566.553
20.92000 569.001
20.93000 570.343
20.94000 570.079
20.95000 569.899
20.96000 570.968
20.97000 573.036
20.98000 574.956
20.99000 570.003
21.00000 561.304
21.01000 552.932
21.02000 554.997
21.03000 560.631
21.04000 565.854
21.05000 566.938
21.06000 566.946
21.07000 566.689
21.08000 564.780
21.09000 562.582
21.10000 560.777
21.11000 558.824
21.12000 557.206
21.13000 556.035
21.14000 556.133
21.15000 556.310
21.16000 558.595
21.17000 565.039
21.18000 571.596
21.19000 575.373
21.20000 579.260
21.21000 581.978
21.22000 579.303
21.23000 571.808
21.24000 564.401
21.25000 562.880
21.26000 564.912
21.27000 566.884
21.28000 569.578
21.29000 572.419
21.30000 575.147
21.31000 576.553
21.32000 577.578
21.33000 578.382
21.34000 577.618
21.35000 576.548
21.36000 575.651
21.37000 570.779
21.38000 566.309
21.39000 562.799
21.40000 562.312
21.41000 562.047
21.42000 562.039
21.43000 562.592
21.44000 563.164
21.45000 563.509
21.46000 566.407
21.47000 568.487
21.48000 569.088
21.49000 568.203
21.50000 567.280
21.51000 562.311
21.52000 554.631
21.53000 547.129
21.54000 550.788
21.55000 559.224
21.56000 567.492
21.57000 573.434
21.58000 578.634
21.59000 582.956
21.60000 580.213
21.61000 575.931
21.62000 572.269
21.63000 594.773
21.64000 616.893
21.65000 635.020
21.66000 639.197
21.67000 642.174
21.68000 644.040
21.69000 643.225
21.70000 642.291
21.71000 641.703
21.72000 659.949
21.73000 673.356
21.74000 680.887
21.75000 681.790
21.76000 682.736
21.77000 692.947
21.78000 710.064
21.79000 726.889
21.80000 744.754
21.81000 762.535
21.82000 779.421
21.83000 781.523
21.84000 778.396
21.85000 776.407
21.86000 784.900
21.87000 795.938
21.88000 805.549
21.89000 816.332
21.90000 825.703
21.91000 834.864
21.92000 843.210
21.93000 851.474
21.94000 860.569
21.95000 871.879
21.96000 883.310
21.97000 890.785
21.98000 887.721
21.99000 885.299
22.00000 882.536
22.01000 879.340
22.02000 876.144
22.03000 873.181
22.04000 870.411
22.05000 867.675
22.06000 858.521
22.07000 846.060
22.08000 833.853
22.09000 826.719
22.10000 821.570
22.11000 816.442
22.12000 811.544
22.13000 806.708
22.14000 802.427
22.15000 792.259
22.16000 782.543
22.17000 769.860
22.18000 744.377
22.19000 717.421
22.20000 696.139
22.21000 691.611
22.22000 688.181
22.23000 685.855
22.24000 680.216
22.25000 675.938
22.26000 667.774
22.27000 654.152
22.28000 640.494
22.29000 631.647
22.30000 627.284
22.31000 622.956
22.32000 621.314
22.33000 621.354
22.34000 621.245
22.35000 617.398
22.36000 611.936
22.37000 606.176
22.38000 596.714
22.39000 586.146
22.40000 576.644
22.41000 585.312
22.42000 596.132
22.43000 603.888
22.44000 596.893
22.45000 587.961
22.46000 579.222
22.47000 571.109
22.48000 563.045
22.49000 557.388
22.50000 550.855
22.51000 545.885
22.52000 547.152
22.53000 558.156
22.54000 569.275
22.55000 573.837
22.56000 571.530
22.57000 569.234
22.58000 562.762
22.59000 553.486
22.60000 544.544
22.61000 546.243
22.62000 553.031
22.63000 559.396
22.64000 559.540
22.65000 557.624
22.66000 555.877
22.67000 552.834
22.68000 549.877
22.69000 546.415
22.70000 540.239
22.71000 533.659
22.72000 529.627
22.73000 534.839
22.74000 540.890
22.75000 545.270
22.76000 527.468
22.77000 512.986
22.78000 506.055
22.79000 512.196
22.80000 518.569
22.81000 523.962
22.82000 528.206
22.83000 532.439
22.84000 534.697
22.85000 535.420
22.86000 536.091
22.87000 534.548
22.88000 531.833
22.89000 528.898
22.90000 522.086
22.91000 513.851
22.92000 506.243
22.93000 509.709
22.94000 515.324
22.95000 520.909
22.96000 526.313
22.97000 531.686
22.98000 537.004
22.99000 542.100
23.00000 547.172
23.01000 550.953
23.02000 544.705
23.03000 539.385
23.04000 533.963
23.05000 528.345
23.06000 522.723
23.07000 518.394
23.08000 515.762
23.09000 513.140
23.10000 516.790
23.11000 525.854
23.12000 534.683
23.13000 529.581
23.14000 516.311
23.15000 503.417
23.16000 498.630
23.17000 497.129
23.18000 495.725
23.19000 497.229
23.20000 499.333
23.21000 501.149
23.22000 500.992
23.23000 500.463
23.24000 502.169
23.25000 513.897
23.26000 526.836
23.27000 536.749
23.28000 533.683
23.29000 530.548
23.30000 528.262
23.31000 527.776
23.32000 527.349
23.33000 528.778
23.34000 532.916
23.35000 537.078
23.36000 536.833
23.37000 532.311
23.38000 527.845
23.39000 528.456
23.40000 532.369
23.41000 535.994
23.42000 531.839
23.43000 524.195
23.44000 516.971
23.45000 517.659
23.46000 520.546
23.47000 522.832
23.48000 520.449
23.49000 517.081
23.50000 513.168
23.51000 506.528
23.52000 499.512
23.53000 493.999
23.54000 504.933
23.55000 514.769
23.56000 521.725
23.57000 521.925
23.58000 521.845
23.59000 521.037
23.60000 519.052
23.61000 517.051
23.62000 516.006
23.63000 504.001
23.64000 495.929
23.65000 495.833
23.66000 501.504
23.67000 507.111
23.68000 510.522
23.69000 512.844
23.70000 515.060
23.71000 510.479
23.72000 504.054
23.73000 498.599
23.74000 501.743
23.75000 506.910
23.76000 512.210
23.77000 518.254
23.78000 524.413
23.79000 529.370
23.80000 519.938
23.81000 511.166
23.82000 505.152
23.83000 506.292
23.84000 507.799
23.85000 511.271
23.86000 518.272
23.87000 525.345
23.88000 529.238
23.89000 522.400
23.90000 517.672
23.91000 512.786
23.92000 507.775
23.93000 502.866
23.94000 502.827
23.95000 505.459
23.96000 507.994
23.97000 505.978
23.98000 502.460
23.99000 500.025
24.00000 508.647
24.01000 520.163
24.02000 529.279
24.03000 523.240
24.04000 514.545
24.05000 507.390
24.06000 496.277
24.07000 486.780
24.08000 480.604
24.09000 483.955
24.10000 487.899
24.11000 490.825
24.12000 491.727
24.13000 492.573
24.14000 493.062
24.15000 495.675
24.16000 497.514
24.17000 496.721
24.18000 493.555
24.19000 490.458
24.20000 492.069
24.21000 496.543
24.22000 500.887
24.23000 493.868
24.24000 482.678
24.25000 472.340
24.26000 472.135
24.27000 474.873
24.28000 477.912
24.29000 483.106
24.30000 488.723
24.31000 493.441
24.32000 486.475
24.33000 479.439
24.34000 476.335
24.35000 485.720
24.36000 496.030
24.37000 501.764
24.38000 497.433
24.39000 492.743
24.40000 489.906
24.41000 488.952
24.42000 488.286
24.43000 488.894
24.44000 490.792
24.45000 492.670
24.46000 492.406
24.47000 490.697
24.48000 489.026
24.49000 490.089
24.50000 492.325
24.51000 494.266
24.52000 492.073
24.53000 488.549
24.54000 485.319
24.55000 484.479
24.56000 484.163
24.57000 483.893
24.58000 493.031
24.59000 501.885
24.60000 507.827
24.61000 503.523
24.62000 498.327
24.63000 493.983
24.64000 491.711
24.65000 489.533
24.66000 488.159
24.67000 482.311
24.68000 478.024
24.69000 477.365
24.70000 480.829
24.71000 484.287
24.72000 485.729
24.73000 485.657
24.74000 485.586
24.75000 486.873
24.76000 488.793
24.77000 490.408
24.78000 486.936
24.79000 481.652
24.80000 477.037
24.81000 478.654
24.82000 481.795
24.83000 484.533
24.84000 490.349
24.85000 495.748
24.86000 499.749
24.87000 498.286
24.88000 496.271
24.89000 492.795
24.90000 485.390
24.91000 477.769
24.92000 472.771
24.93000 475.047
24.94000 476.842
24.95000 479.139
24.96000 482.074
24.97000 485.006
24.98000 485.444
24.99000 483.791
25.00000 482.157
25.01000 487.266
25.02000 495.993
25.03000 504.144
25.04000 500.577
25.05000 492.393
25.06000 484.922
25.07000 485.127
25.08000 487.418
25.09000 489.449
25.10000 480.894
25.11000 471.815
25.12000 466.083
25.13000 474.906
25.14000 485.419
25.15000 493.406
25.16000 493.883
25.17000 493.861
25.18000 493.846
25.19000 492.310
25.20000 491.129
25.21000 489.035
25.22000 485.647
25.23000 482.250
25.24000 482.090
25.25000 484.968
25.26000 487.825
25.27000 485.170
25.28000 479.142
25.29000 473.344
25.30000 473.353
25.31000 475.893
25.32000 478.417
25.33000 480.750
25.34000 483.024
25.35000 485.071
25.36000 484.570
25.37000 483.675
25.38000 483.046
25.39000 483.712
25.40000 484.549
25.41000 484.557
25.42000 481.830
25.43000 478.889
25.44000 476.820
25.45000 469.353
25.46000 463.537
25.47000 462.782
25.48000 469.989
25.49000 477.293
25.50000 484.311
25.51000 491.025
25.52000 497.710
25.53000 500.340
25.54000 500.129
25.55000 499.703
25.56000 492.273
25.57000 481.470
25.58000 471.399
25.59000 472.213
25.60000 476.660
25.61000 480.720
25.62000 477.535
25.63000 473.241
25.64000 469.520
25.65000 468.905
25.66000 468.757
25.67000 468.378
25.68000 467.158
25.69000 465.860
25.70000 464.919
25.71000 469.429
25.72000 473.099
25.73000 474.175
25.74000 470.726
25.75000 467.196
25.76000 465.104
25.77000 464.715
25.78000 464.330
25.79000 459.562
25.80000 451.415
25.81000 443.463
25.82000 443.967
25.83000 448.979
25.84000 453.938
25.85000 457.970
25.86000 461.658
25.87000 465.069
25.88000 468.282
25.89000 471.122
25.90000 473.523
25.91000 473.240
25.92000 472.502
25.93000 473.362
25.94000 480.709
25.95000 488.744
25.96000 494.747
25.97000 493.987
25.98000 493.083
25.99000 489.278
26.00000 479.871
26.01000 470.322
26.02000 465.762
26.03000 467.792
26.04000 469.851
26.05000 476.149
26.06000 486.129
26.07000 495.850
26.08000 489.735
26.09000 474.269
26.10000 459.329
26.11000 455.934
26.12000 457.253
26.13000 458.487
26.14000 461.752
26.15000 465.240
26.16000 468.337
26.17000 468.741
26.18000 468.632
26.19000 467.070
26.20000 458.938
26.21000 450.004
26.22000 443.147
26.23000 458.819
26.24000 472.462
26.25000 482.275
26.26000 483.901
26.27000 485.255
26.28000 483.600
26.29000 477.523
26.30000 471.406
26.31000 468.997
26.32000 470.218
26.33000 471.413
26.34000 470.234
26.35000 467.500
26.36000 464.968
26.37000 468.042
26.38000 473.648
26.39000 478.950
26.40000 476.730
26.41000 472.527
26.42000 468.808
26.43000 468.880
26.44000 469.759
26.45000 469.468
26.46000 463.271
26.47000 456.255
26.48000 450.730
26.49000 459.730
26.50000 467.909
26.51000 471.147
26.52000 462.707
26.53000 453.775
26.54000 447.304
26.55000 444.850
26.56000 442.453
26.57000 441.197
26.58000 453.175
26.59000 461.270
26.60000 465.526
26.61000 466.986
26.62000 468.289
26.63000 463.966
26.64000 456.835
26.65000 450.022
26.66000 450.318
26.67000 452.880
26.68000 455.565
26.69000 459.348
26.70000 463.391
26.71000 465.796
26.72000 458.931
26.73000 450.610
26.74000 443.902
26.75000 440.171
26.76000 437.375
26.77000 439.699
26.78000 455.397
26.79000 471.793
26.80000 483.292
26.81000 485.930
26.82000 488.386
26.83000 489.743
26.84000 473.504
26.85000 462.288
26.86000 457.046
26.87000 456.658
26.88000 456.199
26.89000 452.337
26.90000 446.594
26.91000 441.059
26.92000 443.022
26.93000 447.564
26.94000 452.030
26.95000 455.698
26.96000 459.156
26.97000 462.572
26.98000 465.719
26.99000 468.819
27.00000 471.374
27.01000 465.484
27.02000 459.861
27.03000 455.994
27.04000 457.202
27.05000 458.731
27.06000 458.030
27.07000 452.863
27.08000 447.571
27.09000 444.501
27.10000 448.017
27.11000 450.510
27.12000 449.930
27.13000 446.558
27.14000 443.254
27.15000 444.745
27.16000 449.175
27.17000 453.478
27.18000 456.534
27.19000 458.935
27.20000 460.751
27.21000 455.531
27.22000 448.252
27.23000 442.520
27.24000 447.938
27.25000 455.564
27.26000 461.979
27.27000 466.341
27.28000 469.758
27.29000 470.779
27.30000 464.131
27.31000 456.908
27.32000 453.063
27.33000 456.702
27.34000 460.612
27.35000 462.984
27.36000 458.967
27.37000 456.053
27.38000 451.871
27.39000 446.396
27.40000 440.969
27.41000 441.135
27.42000 445.104
27.43000 448.986
27.44000 450.492
27.45000 450.870
27.46000 451.229
27.47000 451.321
27.48000 451.327
27.49000 450.975
27.50000 447.684
27.51000 443.742
27.52000 440.361
27.53000 440.058
27.54000 440.179
27.55000 440.657
27.56000 442.395
27.57000 444.245
27.58000 446.939
27.59000 451.697
27.60000 456.549
27.61000 459.619
27.62000 450.792
27.63000 444.252
27.64000 440.362
27.65000 439.509
27.66000 438.663
27.67000 438.731
27.68000 439.490
27.69000 440.237
27.70000 442.422
27.71000 445.256
27.72000 447.910
27.73000 447.506
27.74000 446.006
27.75000 444.259
27.76000 440.193
27.77000 435.557
27.78000 431.509
27.79000 429.319
27.80000 427.706
27.81000 425.959
27.82000 423.686
27.83000 421.359
27.84000 423.065
27.85000 435.689
27.86000 448.923
27.87000 457.625
27.88000 450.496
27.89000 444.978
27.90000 444.445
27.91000 450.295
27.92000 456.159
27.93000 456.971
27.94000 453.514
27.95000 450.095
27.96000 451.746
27.97000 456.193
27.98000 460.185
27.99000 454.780
28.00000 445.646
28.01000 437.359
28.02000 438.290
28.03000 441.745
28.04000 444.811
28.05000 445.942
28.06000 446.613
28.07000 448.279
28.08000 454.303
28.09000 460.839
28.10000 463.714
28.11000 455.617
28.12000 446.784
28.13000 440.764
28.14000 439.164
28.15000 438.071
28.16000 439.200
28.17000 443.497
28.18000 447.819
28.19000 453.280
28.20000 459.819
28.21000 466.311
28.22000 465.679
28.23000 460.603
28.24000 455.559
28.25000 451.354
28.26000 447.517
28.27000 443.700
28.28000 440.151
28.29000 436.683
28.30000 433.558
28.31000 435.156
28.32000 437.412
28.33000 438.956
28.34000 437.017
28.35000 434.612
28.36000 433.606
28.37000 437.245
28.38000 441.252
28.39000 444.076
28.40000 441.860
28.41000 440.029
28.42000 437.897
28.43000 435.289
28.44000 432.676
28.45000 428.022
28.46000 421.194
28.47000 414.394
28.48000 420.594
28.49000 435.823
28.50000 450.696
28.51000 453.805
28.52000 451.207
28.53000 448.889
28.54000 450.798
28.55000 454.128
28.56000 457.170
28.57000 450.752
28.58000 443.120
28.59000 435.744
28.60000 429.772
28.61000 424.012
28.62000 420.836
28.63000 427.163
28.64000 434.374
28.65000 439.616
28.66000 429.678
28.67000 421.458
28.68000 418.032
28.69000 423.029
28.70000 428.184
28.71000 433.010
28.72000 437.445
28.73000 441.871
28.74000 443.559
28.75000 443.093
28.76000 442.562
28.77000 439.150
28.78000 434.191
28.79000 429.596
28.80000 431.590
28.81000 436.036
28.82000 440.151
28.83000 439.347
28.84000 437.492
28.85000 437.099
28.86000 445.704
28.87000 455.848
28.88000 461.784
28.89000 450.514
28.90000 437.395
28.91000 427.577
28.92000 429.628
28.93000 431.782
28.94000 433.216
28.95000 433.249
28.96000 433.247
28.97000 433.318
28.98000 433.487
28.99000 433.657
29.00000 431.966
29.01000 428.643
29.02000 425.433
29.03000 429.301
29.04000 437.378
29.05000 444.787
29.06000 437.320
29.07000 423.733
29.08000 411.009
29.09000 415.071
29.10000 423.104
29.11000 430.537
29.12000 433.795
29.13000 436.252
29.14000 438.101
29.15000 437.176
29.16000 435.909
29.17000 434.935
29.18000 432.716
29.19000 430.891
29.20000 430.177
29.21000 431.857
29.22000 433.618
29.23000 433.937
29.24000 432.120
29.25000 430.283
29.26000 431.366
29.27000 435.333
29.28000 439.283
29.29000 441.569
29.30000 442.757
29.31000 443.812
29.32000 441.145
29.33000 436.786
29.34000 432.659
29.35000 429.238
29.36000 426.296
29.37000 423.441
29.38000 421.275
29.39000 419.257
29.40000 418.144
29.41000 421.643
29.42000 425.787
29.43000 429.056
29.44000 430.230
29.45000 431.030
29.46000 431.767
29.47000 432.354
29.48000 432.935
29.49000 433.949
29.50000 435.676
29.51000 437.413
29.52000 438.327
29.53000 425.704
29.54000 417.187
29.55000 417.371
29.56000 423.944
29.57000 430.347
29.58000 430.546
29.59000 427.624
29.60000 424.831
29.61000 426.501
29.62000 429.502
29.63000 432.112
29.64000 431.182
29.65000 429.406
29.66000 428.212
29.67000 430.339
29.68000 432.992
29.69000 435.133
29.70000 437.830
29.71000 440.067
29.72000 441.003
29.73000 438.516
29.74000 435.849
29.75000 435.647
29.76000 439.937
29.77000 444.321
29.78000 446.752
29.79000 471.549
29.80000 488.699
29.81000 498.574
29.82000 502.492
29.83000 506.334
29.84000 506.366
29.85000 504.277
29.86000 502.262
29.87000 493.974
29.88000 483.906
29.89000 475.613
29.90000 485.842
29.91000 500.992
29.92000 514.888
29.93000 520.719
29.94000 525.112
29.95000 528.738
29.96000 525.812
29.97000 522.793
29.98000 519.014
29.99000 513.022
30.00000 506.888
30.01000 500.864
30.02000 495.062
30.03000 489.266
30.04000 485.893
30.05000 493.850
30.06000 499.489
30.07000 500.496
30.08000 497.259
30.09000 494.026
30.10000 491.164
30.11000 488.530
30.12000 485.970
30.13000 481.660
30.14000 476.855
30.15000 472.468
30.16000 473.151
30.17000 475.328
30.18000 476.469
30.19000 470.072
30.20000 462.170
30.21000 455.513
30.22000 457.603
30.23000 460.290
30.24000 462.995
30.25000 465.762
30.26000 468.534
30.27000 468.141
30.28000 460.686
30.29000 452.971
30.30000 448.275
30.31000 464.481
30.32000 476.222
30.33000 477.142
30.34000 466.917
30.35000 456.759
30.36000 454.457
30.37000 457.539
30.38000 460.555
30.39000 457.868
30.40000 452.709
30.41000 447.935
30.42000 448.686
30.43000 451.241
30.44000 453.835
30.45000 456.748
30.46000 459.733
30.47000 462.296
30.48000 464.351
30.49000 466.026
30.50000 469.607
30.51000 480.001
30.52000 491.000
30.53000 495.711
30.54000 484.908
30.55000 473.386
30.56000 466.078
30.57000 464.253
30.58000 462.996
30.59000 464.612
30.60000 469.549
30.61000 474.461
30.62000 472.740
30.63000 465.959
30.64000 459.286
30.65000 459.049
30.66000 462.071
30.67000 465.173
30.68000 469.653
30.69000 474.631
30.70000 479.332
30.71000 481.400
30.72000 482.814
30.73000 484.050
30.74000 488.896
30.75000 493.556
30.76000 498.656
30.77000 505.499
30.78000 512.521
30.79000 516.911
30.80000 514.120
30.81000 510.923
30.82000 508.815
30.83000 523.669
30.84000 534.911
30.85000 540.784
30.86000 539.726
30.87000 538.657
30.88000 548.295
30.89000 567.053
30.90000 585.603
30.91000 603.458
30.92000 620.505
30.93000 637.834
30.94000 661.099
30.95000 686.736
30.96000 712.392
30.97000 738.255
30.98000 764.175
30.99000 787.202
31.00000 847.662
31.01000 906.123
31.02000 971.636
31.03000 1068.286
31.04000 1168.625
31.05000 1276.990
31.06000 1409.582
31.07000 1543.822
31.08000 1635.538
31.09000 1913.502
31.10000 2125.831
31.11000 2354.625
31.12000 2607.083
31.13000 2859.730
31.14000 3141.243
31.15000 3450.321
31.16000 3757.195
31.17000 4096.187
31.18000 4449.999
31.19000 4802.114
31.20000 5109.823
31.21000 5397.908
31.22000 5683.334
31.23000 5934.528
31.24000 6175.250
31.25000 6392.364
31.26000 6607.085
31.27000 6795.192
31.28000 6962.095
31.29000 7024.484
31.30000 7072.760
31.31000 7098.212
31.32000 7047.365
31.33000 6990.381
31.34000 6950.130
31.35000 6747.995
31.36000 6589.603
31.37000 6398.643
31.38000 6155.689
31.39000 5912.061
31.40000 5654.552
31.41000 5382.140
31.42000 5110.823
31.43000 4823.688
31.44000 4528.182
31.45000 4232.534
31.46000 3932.093
31.47000 3629.311
31.48000 3329.581
31.49000 3076.450
31.50000 2839.101
31.51000 2622.022
31.52000 2408.841
31.53000 2220.149
31.54000 2034.559
31.55000 1866.092
31.56000 1700.245
31.57000 1549.807
31.58000 1456.512
31.59000 1368.580
31.60000 1304.513
31.61000 1220.602
31.62000 1155.218
31.63000 1093.406
31.64000 1037.914
31.65000 982.544
31.66000 927.757
31.67000 873.673
31.68000 819.688
31.69000 786.159
31.70000 768.939
31.71000 751.752
31.72000 736.019
31.73000 721.074
31.74000 705.771
31.75000 683.887
31.76000 659.538
31.77000 636.981
31.78000 627.566
31.79000 622.144
31.80000 615.461
31.81000 600.949
31.82000 585.088
31.83000 569.850
31.84000 557.181
31.85000 544.790
31.86000 535.498
31.87000 524.862
31.88000 516.491
31.89000 506.762
31.90000 494.372
31.91000 481.912
31.92000 471.875
31.93000 465.089
31.94000 458.323
31.95000 462.372
31.96000 475.995
31.97000 489.314
31.98000 482.964
31.99000 464.826
32.00000 447.078
32.01000 438.120
32.02000 432.805
32.03000 427.823
32.04000 428.487
32.05000 430.562
32.06000 432.018
32.07000 429.120
32.08000 425.379
32.09000 422.349
32.10000 422.580
32.11000 423.215
32.12000 423.705
32.13000 421.878
32.14000 420.299
32.15000 419.165
32.16000 418.994
32.17000 418.856
32.18000 419.748
32.19000 422.175
32.20000 424.617
32.21000 422.481
32.22000 415.788
32.23000 409.143
32.24000 407.403
32.25000 408.926
32.26000 410.482
32.27000 413.000
32.28000 415.959
32.29000 418.762
32.30000 415.859
32.31000 411.521
32.32000 407.560
32.33000 406.617
32.34000 406.325
32.35000 406.328
32.36000 407.845
32.37000 409.576
32.38000 410.944
32.39000 409.032
32.40000 407.273
32.41000 404.860
32.42000 400.879
32.43000 396.830
32.44000 395.201
32.45000 397.583
32.46000 400.025
32.47000 401.315
32.48000 393.930
32.49000 388.942
32.50000 389.690
32.51000 394.682
32.52000 399.694
32.53000 405.446
32.54000 411.573
32.55000 417.433
32.56000 417.838
32.57000 416.431
32.58000 414.842
32.59000 411.600
32.60000 407.959
32.61000 405.958
32.62000 413.393
32.63000 422.336
32.64000 429.569
32.65000 417.104
32.66000 405.376
32.67000 397.622
32.68000 400.400
32.69000 403.743
32.70000 406.005
32.71000 406.281
32.72000 406.514
32.73000 406.644
32.74000 408.062
32.75000 409.045
32.76000 410.109
32.77000 411.241
32.78000 412.354
32.79000 412.516
32.80000 412.144
32.81000 411.785
32.82000 416.559
32.83000 422.928
32.84000 429.415
32.85000 437.157
32.86000 445.236
32.87000 452.656
32.88000 455.816
32.89000 458.210
32.90000 460.188
32.91000 468.586
32.92000 476.114
32.93000 479.550
32.94000 470.992
32.95000 461.658
32.96000 455.235
32.97000 454.723
32.98000 454.384
32.99000 454.186
33.00000 454.967
33.01000 455.520
33.02000 453.512
33.03000 449.138
33.04000 444.765
33.05000 440.440
33.06000 436.147
33.07000 431.972
33.08000 421.404
33.09000 408.745
33.10000 396.959
33.11000 395.919
33.12000 398.070
33.13000 399.657
33.14000 397.103
33.15000 393.714
33.16000 390.856
33.17000 384.060
33.18000 377.954
33.19000 373.747
33.20000 375.705
33.21000 378.135
33.22000 379.572
33.23000 378.775
33.24000 377.894
33.25000 377.357
33.26000 376.947
33.27000 376.655
33.28000 370.568
33.29000 358.463
33.30000 346.453
33.31000 346.082
33.32000 353.750
33.33000 361.255
33.34000 365.206
33.35000 367.378
33.36000 369.420
33.37000 369.581
33.38000 369.123
33.39000 368.615
33.40000 367.697
33.41000 366.687
33.42000 365.818
33.43000 361.850
33.44000 358.104
33.45000 356.575
33.46000 363.022
33.47000 370.188
33.48000 375.450
33.49000 375.985
33.50000 376.298
33.51000 376.496
33.52000 374.943
33.53000 373.793
33.54000 368.850
33.55000 359.491
33.56000 350.173
33.57000 352.021
33.58000 362.455
33.59000 372.727
33.60000 371.018
33.61000 363.261
33.62000 355.972
33.63000 356.829
33.64000 360.651
33.65000 363.673
33.66000 359.008
33.67000 352.420
33.68000 346.655
33.69000 350.094
33.70000 354.357
33.71000 357.588
33.72000 356.694
33.73000 355.371
33.74000 354.884
33.75000 356.696
33.76000 358.640
33.77000 359.925
33.78000 353.996
33.79000 349.493
33.80000 348.345
33.81000 351.560
33.82000 354.792
33.83000 356.397
33.84000 356.605
33.85000 356.811
33.86000 357.438
33.87000 358.292
33.88000 359.028
33.89000 357.271
33.90000 354.511
33.91000 352.085
33.92000 353.383
33.93000 355.714
33.94000 357.788
33.95000 349.742
33.96000 341.113
33.97000 334.851
33.98000 339.121
33.99000 344.650
34.00000 350.169
34.01000 355.654
34.02000 361.137
34.03000 364.893
34.04000 360.083
34.05000 356.276
34.06000 351.900
34.07000 346.702
34.08000 341.498
34.09000 340.923
34.10000 344.807
34.11000 348.664
34.12000 349.646
34.13000 348.786
34.14000 347.864
34.15000 345.273
34.16000 341.939
34.17000 338.867
34.18000 339.211
34.19000 340.608
34.20000 341.870
34.21000 339.275
34.22000 336.285
34.23000 333.769
34.24000 333.612
34.25000 333.775
34.26000 334.590
34.27000 337.595
34.28000 340.778
34.29000 343.032
34.30000 342.362
34.31000 341.761
34.32000 341.954
34.33000 343.421
34.34000 344.906
34.35000 344.056
34.36000 340.680
34.37000 337.315
34.38000 339.645
34.39000 346.000
34.40000 352.168
34.41000 351.938
34.42000 348.557
34.43000 345.180
34.44000 341.851
34.45000 338.539
34.46000 335.507
34.47000 335.719
34.48000 336.582
34.49000 336.874
34.50000 333.983
34.51000 330.601
34.52000 327.792
34.53000 327.125
34.54000 326.662
34.55000 326.324
34.56000 324.546
34.57000 323.119
34.58000 325.506
34.59000 334.694
34.60000 344.015
34.61000 347.422
34.62000 343.662
34.63000 339.893
34.64000 339.540
34.65000 341.909
34.66000 344.183
34.67000 342.048
34.68000 337.509
34.69000 333.347
34.70000 336.221
34.71000 341.749
34.72000 346.875
34.73000 341.474
34.74000 334.149
34.75000 327.753
34.76000 327.170
34.77000 327.599
34.78000 328.531
34.79000 331.550
34.80000 334.798
34.81000 337.239
34.82000 338.566
34.83000 339.550
34.84000 338.878
34.85000 334.937
34.86000 330.908
34.87000 328.051
34.88000 326.780
34.89000 325.518
34.90000 323.341
34.91000 320.349
34.92000 317.465
34.93000 321.776
34.94000 330.431
34.95000 338.703
34.96000 338.191
34.97000 334.014
34.98000 330.096
34.99000 328.032
35.00000 326.638
35.01000 325.834
35.02000 329.205
35.03000 333.389
35.04000 335.779
35.05000 329.864
35.06000 322.908
35.07000 317.538
35.08000 320.307
35.09000 322.974
35.10000 323.870
35.11000 320.899
35.12000 317.791
35.13000 318.809
35.14000 326.030
35.15000 333.314
35.16000 336.963
35.17000 331.922
35.18000 328.576
35.19000 326.931
35.20000 326.426
35.21000 325.850
35.22000 323.200
35.23000 319.592
35.24000 316.172
35.25000 325.680
35.26000 338.247
35.27000 348.540
35.28000 340.516
35.29000 328.501
35.30000 318.057
35.31000 315.731
35.32000 314.564
35.33000 313.640
35.34000 317.936
35.35000 321.749
35.36000 324.085
35.37000 322.855
35.38000 321.467
35.39000 322.139
35.40000 326.252
35.41000 330.418
35.42000 332.627
35.43000 315.497
35.44000 303.888
35.45000 301.982
35.46000 307.310
35.47000 312.427
35.48000 309.516
35.49000 302.507
35.50000 295.798
35.51000 301.341
35.52000 310.543
35.53000 318.594
35.54000 316.016
35.55000 310.858
35.56000 306.858
35.57000 309.575
35.58000 313.374
35.59000 316.452
35.60000 314.567
35.61000 312.627
35.62000 312.242
35.63000 316.007
35.64000 319.997
35.65000 323.945
35.66000 327.814
35.67000 331.682
35.68000 333.842
35.69000 320.247
35.70000 310.809
35.71000 305.777
35.72000 304.411
35.73000 303.138
35.74000 306.806
35.75000 313.265
35.76000 319.501
35.77000 316.298
35.78000 309.803
35.79000 304.104
35.80000 306.875
35.81000 311.932
35.82000 316.660
35.83000 319.238
35.84000 321.427
35.85000 323.239
35.86000 323.111
35.87000 322.822
35.88000 321.827
35.89000 318.753
35.90000 315.542
35.91000 312.031
35.92000 307.907
35.93000 303.765
35.94000 301.338
35.95000 302.538
35.96000 303.402
35.97000 307.638
35.98000 315.016
35.99000 322.266
36.00000 319.622
36.01000 310.779
36.02000 302.177
36.03000 301.875
36.04000 305.004
36.05000 307.868
36.06000 307.447
36.07000 306.042
36.08000 304.878
36.09000 305.489
36.10000 306.461
36.11000 307.283
36.12000 308.734
36.13000 310.016
36.14000 311.762
36.15000 315.024
36.16000 318.405
36.17000 318.158
36.18000 309.702
36.19000 300.931
36.20000 295.561
36.21000 294.417
36.22000 293.633
36.23000 296.159
36.24000 302.153
36.25000 308.131
36.26000 312.165
36.27000 314.846
36.28000 317.471
36.29000 318.262
36.30000 318.179
36.31000 317.908
36.32000 314.852
36.33000 310.874
36.34000 307.521
36.35000 309.444
36.36000 312.563
36.37000 315.248
36.38000 314.193
36.39000 312.828
36.40000 311.825
36.41000 312.136
36.42000 312.568
36.43000 312.766
36.44000 312.384
36.45000 311.974
36.46000 311.713
36.47000 307.785
36.48000 304.880
36.49000 306.081
36.50000 312.101
36.51000 318.110
36.52000 319.368
36.53000 316.944
36.54000 314.558
36.55000 313.520
36.56000 313.206
36.57000 313.161
36.58000 317.867
36.59000 324.315
36.60000 329.889
36.61000 326.998
36.62000 321.972
36.63000 317.568
36.64000 319.207
36.65000 321.484
36.66000 323.074
36.67000 321.898
36.68000 320.431
36.69000 319.479
36.70000 319.953
36.71000 320.510
36.72000 320.879
36.73000 325.484
36.74000 328.962
36.75000 331.337
36.76000 332.266
36.77000 333.181
36.78000 328.337
36.79000 318.506
36.80000 308.779
36.81000 305.708
36.82000 306.521
36.83000 307.377
36.84000 309.156
36.85000 311.310
36.86000 313.298
36.87000 313.415
36.88000 313.010
36.89000 312.649
36.90000 315.987
36.91000 319.494
36.92000 322.652
36.93000 324.243
36.94000 325.646
36.95000 327.888
36.96000 332.703
36.97000 337.697
36.98000 341.125
36.99000 327.746
37.00000 317.304
37.01000 314.053
37.02000 321.296
37.03000 328.628
37.04000 332.348
37.05000 332.561
37.06000 332.772
37.07000 331.534
37.08000 329.385
37.09000 327.261
37.10000 325.828
37.11000 324.703
37.12000 323.385
37.13000 319.514
37.14000 314.851
37.15000 310.637
37.16000 313.337
37.17000 316.997
37.18000 320.642
37.19000 324.216
37.20000 327.780
37.21000 328.149
37.22000 317.679
37.23000 306.318
37.24000 298.255
37.25000 307.715
37.26000 315.464
37.27000 317.733
37.28000 311.122
37.29000 304.388
37.30000 301.488
37.31000 302.773
37.32000 304.054
37.33000 306.740
37.34000 310.409
37.35000 313.926
37.36000 312.105
37.37000 307.638
37.38000 303.391
37.39000 302.584
37.40000 302.959
37.41000 303.303
37.42000 305.480
37.43000 307.803
37.44000 309.021
37.45000 304.039
37.46000 298.091
37.47000 293.958
37.48000 296.651
37.49000 299.998
37.50000 302.448
37.51000 307.424
37.52000 311.365
37.53000 314.012
37.54000 314.336
37.55000 314.614
37.56000 311.196
37.57000 303.263
37.58000 295.332
37.59000 293.639
37.60000 296.960
37.61000 300.222
37.62000 300.641
37.63000 299.500
37.64000 298.581
37.65000 301.859
37.66000 306.733
37.67000 311.256
37.68000 308.988
37.69000 305.343
37.70000 303.192
37.71000 310.487
37.72000 319.438
37.73000 325.701
37.74000 320.722
37.75000 314.498
37.76000 309.812
37.77000 303.760
37.78000 298.957
37.79000 296.644
37.80000 299.285
37.81000 302.062
37.82000 305.367
37.83000 309.392
37.84000 313.421
37.85000 313.306
37.86000 309.459
37.87000 305.661
37.88000 305.174
37.89000 306.701
37.90000 308.194
37.91000 308.881
37.92000 309.231
37.93000 309.559
37.94000 313.022
37.95000 317.009
37.96000 319.728
37.97000 313.387
37.98000 305.265
37.99000 299.768
38.00000 306.513
38.01000 314.807
38.02000 321.221
38.03000 325.067
38.04000 327.968
38.05000 329.993
38.06000 330.090
38.07000 330.119
38.08000 330.416
38.09000 331.121
38.10000 331.831
38.11000 332.188
38.12000 327.951
38.13000 325.185
38.14000 329.477
38.15000 338.534
38.16000 347.313
38.17000 347.881
38.18000 344.633
38.19000 341.552
38.20000 345.138
38.21000 350.424
38.22000 355.396
38.23000 357.809
38.24000 359.659
38.25000 362.600
38.26000 371.226
38.27000 380.669
38.28000 388.156
38.29000 384.869
38.30000 381.471
38.31000 382.425
38.32000 393.964
38.33000 405.979
38.34000 413.233
38.35000 412.482
38.36000 411.603
38.37000 411.135
38.38000 430.869
38.39000 444.313
38.40000 456.468
38.41000 467.656
38.42000 478.654
38.43000 482.318
38.44000 482.210
38.45000 482.107
38.46000 494.793
38.47000 510.873
38.48000 526.133
38.49000 533.758
38.50000 539.516
38.51000 544.632
38.52000 546.003
38.53000 546.764
38.54000 547.381
38.55000 553.482
38.56000 558.908
38.57000 562.073
38.58000 559.162
38.59000 555.916
38.60000 555.796
38.61000 561.499
38.62000 567.333
38.63000 570.602
38.64000 565.573
38.65000 562.056
38.66000 553.011
38.67000 539.329
38.68000 525.798
38.69000 520.339
38.70000 519.475
38.71000 518.641
38.72000 508.123
38.73000 494.614
38.74000 481.941
38.75000 478.289
38.76000 477.088
38.77000 473.870
38.78000 457.342
38.79000 438.382
38.80000 422.661
38.81000 413.032
38.82000 405.662
38.83000 399.463
38.84000 396.745
38.85000 394.259
38.86000 391.382
38.87000 387.699
38.88000 383.992
38.89000 381.813
38.90000 382.377
38.91000 382.788
38.92000 381.589
38.93000 378.875
38.94000 376.093
38.95000 367.835
38.96000 356.119
38.97000 344.718
38.98000 343.024
38.99000 345.440
39.00000 346.942
39.01000 336.953
39.02000 323.501
39.03000 311.792
39.04000 313.112
39.05000 317.098
39.06000 320.470
39.07000 324.383
39.08000 327.718
39.09000 328.009
39.10000 318.270
39.11000 307.743
39.12000 301.394
39.13000 304.570
39.14000 308.116
39.15000 310.294
39.16000 310.646
39.17000 310.883
39.18000 313.061
39.19000 317.289
39.20000 321.479
39.21000 320.631
39.22000 316.249
39.23000 311.957
39.24000 304.277
39.25000 295.322
39.26000 286.608
39.27000 281.476
39.28000 277.540
39.29000 274.267
39.30000 276.648
39.31000 280.319
39.32000 283.483
39.33000 291.572
39.34000 299.057
39.35000 303.343
39.36000 295.941
39.37000 287.465
39.38000 281.236
39.39000 280.672
39.40000 280.383
39.41000 280.198
39.42000 279.494
39.43000 278.974
39.44000 279.540
39.45000 281.391
39.46000 283.233
39.47000 281.850
39.48000 277.949
39.49000 274.105
39.50000 275.154
39.51000 278.702
39.52000 281.906
39.53000 278.960
39.54000 273.743
39.55000 269.426
39.56000 273.938
39.57000 280.692
39.58000 286.617
39.59000 283.090
39.60000 278.684
39.61000 275.009
39.62000 274.295
39.63000 273.896
39.64000 273.280
39.65000 272.062
39.66000 270.808
39.67000 269.975
39.68000 267.020
39.69000 264.796
39.70000 265.255
39.71000 269.260
39.72000 273.281
39.73000 276.868
39.74000 280.076
39.75000 283.252
39.76000 278.354
39.77000 268.899
39.78000 260.078
39.79000 265.164
39.80000 275.931
39.81000 285.504
39.82000 281.496
39.83000 273.658
39.84000 266.672
39.85000 273.051
39.86000 280.810
39.87000 286.518
39.88000 282.958
39.89000 278.268
39.90000 275.003
39.91000 276.131
39.92000 277.570
39.93000 278.560
39.94000 280.124
39.95000 281.312
39.96000 279.082
39.97000 271.825
39.98000 264.524
39.99000 264.706
40.00000 272.217
40.01000 279.680
40.02000 280.266
40.03000 276.403
40.04000 272.573
40.05000 269.649
40.06000 267.133
40.07000 265.084
40.08000 269.264
40.09000 275.391
40.10000 280.934
40.11000 278.807
40.12000 275.498
40.13000 272.802
40.14000 273.201
40.15000 274.029
40.16000 273.035
40.17000 265.809
40.18000 258.064
40.19000 252.556
40.20000 260.588
40.21000 267.139
40.22000 271.013
40.23000 270.517
40.24000 269.959
40.25000 271.446
40.26000 275.184
40.27000 278.910
40.28000 282.514
40.29000 286.000
40.30000 289.338
40.31000 287.431
40.32000 282.904
40.33000 278.555
40.34000 277.020
40.35000 276.459
40.36000 275.944
40.37000 272.880
40.38000 269.610
40.39000 266.881
40.40000 267.211
40.41000 268.022
40.42000 268.986
40.43000 270.529
40.44000 272.128
40.45000 273.300
40.46000 269.017
40.47000 265.489
40.48000 264.682
40.49000 268.798
40.50000 273.016
40.51000 272.877
40.52000 267.375
40.53000 261.866
40.54000 262.148
40.55000 267.115
40.56000 272.001
40.57000 272.902
40.58000 271.600
40.59000 269.965
40.60000 261.936
40.61000 251.459
40.62000 241.727
40.63000 247.050
40.64000 255.432
40.65000 262.957
40.66000 265.018
40.67000 266.114
40.68000 267.081
40.69000 267.509
40.70000 267.876
40.71000 268.152
40.72000 267.145
40.73000 266.292
40.74000 266.174
40.75000 267.528
40.76000 268.922
40.77000 268.491
40.78000 265.554
40.79000 262.603
40.80000 262.180
40.81000 264.055
40.82000 265.973
40.83000 271.006
40.84000 277.946
40.85000 284.492
40.86000 281.680
40.87000 274.907
40.88000 268.544
40.89000 261.559
40.90000 255.018
40.91000 249.481
40.92000 251.183
40.93000 254.319
40.94000 257.105
40.95000 258.241
40.96000 259.166
40.97000 259.883
40.98000 264.494
40.99000 268.389
41.00000 269.914
41.01000 266.189
41.02000 262.274
41.03000 260.904
41.04000 263.420
41.05000 265.978
41.06000 267.271
41.07000 260.642
41.08000 256.245
41.09000 256.190
41.10000 259.089
41.11000 261.727
41.12000 256.480
41.13000 247.544
41.14000 239.059
41.15000 238.858
41.16000 241.152
41.17000 244.194
41.18000 253.379
41.19000 263.923
41.20000 272.593
41.21000 271.410
41.22000 268.797
41.23000 266.722
41.24000 264.869
41.25000 263.393
41.26000 261.864
41.27000 260.207
41.28000 258.544
41.29000 257.963
41.30000 259.213
41.31000 260.492
41.32000 261.176
41.33000 265.398
41.34000 268.250
41.35000 264.784
41.36000 256.533
41.37000 248.493
41.38000 248.814
41.39000 253.466
41.40000 257.924
41.41000 260.155
41.42000 261.490
41.43000 262.408
41.44000 259.393
41.45000 255.407
41.46000 252.061
41.47000 252.481
41.48000 253.519
41.49000 254.362
41.50000 252.197
41.51000 250.180
41.52000 249.204
41.53000 251.046
41.54000 253.046
41.55000 252.893
41.56000 248.703
41.57000 244.419
41.58000 242.010
41.59000 246.649
41.60000 249.889
41.61000 253.558
41.62000 257.590
41.63000 261.580
41.64000 263.207
41.65000 263.480
41.66000 263.744
41.67000 261.512
41.68000 258.473
41.69000 255.462
41.70000 252.761
41.71000 250.144
41.72000 247.544
41.73000 245.050
41.74000 242.577
41.75000 240.523
41.76000 241.994
41.77000 243.552
41.78000 245.823
41.79000 250.230
41.80000 254.780
41.81000 256.970
41.82000 254.260
41.83000 251.398
41.84000 249.711
41.85000 245.448
41.86000 242.426
41.87000 242.459
41.88000 245.385
41.89000 248.319
41.90000 251.809
41.91000 255.654
41.92000 259.398
41.93000 256.146
41.94000 250.123
41.95000 244.698
41.96000 246.900
41.97000 251.417
41.98000 255.481
41.99000 256.129
42.00000 256.072
42.01000 256.025
42.02000 251.866
42.03000 247.920
42.04000 244.040
42.05000 240.374
42.06000 236.726
42.07000 235.451
42.08000 239.629
42.09000 244.022
42.10000 246.729
42.11000 236.328
42.12000 228.746
42.13000 229.346
42.14000 238.661
42.15000 247.927
42.16000 250.327
42.17000 247.876
42.18000 245.473
42.19000 243.624
42.20000 242.105
42.21000 240.811
42.22000 242.927
42.23000 246.188
42.24000 248.912
42.25000 247.008
42.26000 244.038
42.27000 241.475
42.28000 238.156
42.29000 235.242
42.30000 233.569
42.31000 236.466
42.32000 239.788
42.33000 242.247
42.34000 242.516
42.35000 242.676
42.36000 242.779
42.37000 245.416
42.38000 247.373
42.39000 249.281
42.40000 251.133
42.41000 252.963
42.42000 248.849
42.43000 240.055
42.44000 231.388
42.45000 230.753
42.46000 234.324
42.47000 237.845
42.48000 240.458
42.49000 242.734
42.50000 244.566
42.51000 242.002
42.52000 238.313
42.53000 235.074
42.54000 239.279
42.55000 243.987
42.56000 247.192
42.57000 244.252
42.58000 240.653
42.59000 239.118
42.60000 243.381
42.61000 247.991
42.62000 251.062
42.63000 257.632
42.64000 262.561
42.65000 261.941
42.66000 253.932
42.67000 245.892
42.68000 242.759
42.69000 243.946
42.70000 245.121
42.71000 246.214
42.72000 247.235
42.73000 248.082
42.74000 245.039
42.75000 240.394
42.76000 236.533
42.77000 241.678
42.78000 249.382
42.79000 256.257
42.80000 248.821
42.81000 239.959
42.82000 232.146
42.83000 229.113
42.84000 226.668
42.85000 226.745
42.86000 234.655
42.87000 243.126
42.88000 248.971
42.89000 245.692
42.90000 242.997
42.91000 241.784
42.92000 242.765
42.93000 243.767
42.94000 242.503
42.95000 239.002
42.96000 235.522
42.97000 236.695
42.98000 240.879
42.99000 244.769
43.00000 240.392
43.01000 232.254
43.02000 224.806
43.03000 226.673
43.04000 231.472
43.05000 235.819
43.06000 241.557
43.07000 246.877
43.08000 250.256
43.09000 243.756
43.10000 235.872
43.11000 230.848
43.12000 235.667
43.13000 241.315
43.14000 245.341
43.15000 236.615
43.16000 229.545
43.17000 226.895
43.18000 231.510
43.19000 236.232
43.20000 238.825
43.21000 239.054
43.22000 239.281
43.23000 239.206
43.24000 238.912
43.25000 238.702
43.26000 241.578
43.27000 246.007
43.28000 250.007
43.29000 247.107
43.30000 241.800
43.31000 236.929
43.32000 236.404
43.33000 236.863
43.34000 237.990
43.35000 242.924
43.36000 248.462
43.37000 251.992
43.38000 247.850
43.39000 242.956
43.40000 239.360
43.41000 238.217
43.42000 237.434
43.43000 235.552
43.44000 231.666
43.45000 227.737
43.46000 225.083
43.47000 224.010
43.48000 222.943
43.49000 224.613
43.50000 228.510
43.51000 232.337
43.52000 232.619
43.53000 230.928
43.54000 229.328
43.55000 229.525
43.56000 230.415
43.57000 231.242
43.58000 234.358
43.59000 237.720
43.60000 240.910
43.61000 242.992
43.62000 244.877
43.63000 245.562
43.64000 241.151
43.65000 236.165
43.66000 232.396
43.67000 235.072
43.68000 237.494
43.69000 237.782
43.70000 233.768
43.71000 229.630
43.72000 228.077
43.73000 230.099
43.74000 232.142
43.75000 233.852
43.76000 235.255
43.77000 236.645
43.78000 237.033
43.79000 236.803
43.80000 236.581
43.81000 236.534
43.82000 236.563
43.83000 236.590
43.84000 237.346
43.85000 238.231
43.86000 238.922
43.87000 238.187
43.88000 237.167
43.89000 236.452
43.90000 237.183
43.91000 238.099
43.92000 238.810
43.93000 236.780
43.94000 235.001
43.95000 231.874
43.96000 225.741
43.97000 219.497
43.98000 217.429
43.99000 221.785
44.00000 226.212
44.01000 228.458
44.02000 235.855
44.03000 240.782
44.04000 242.339
44.05000 241.586
44.06000 240.816
44.07000 239.530
44.08000 238.000
44.09000 236.547
44.10000 235.856
44.11000 235.447
44.12000 235.528
44.13000 239.656
44.14000 244.686
44.15000 248.440
44.16000 245.422
44.17000 241.413
44.18000 238.224
44.19000 243.186
44.20000 247.769
44.21000 249.855
44.22000 245.781
44.23000 241.421
44.24000 242.100
44.25000 251.375
44.26000 260.795
44.27000 265.848
44.28000 255.471
44.29000 248.393
44.30000 245.722
44.31000 246.414
44.32000 247.192
44.33000 251.440
44.34000 257.497
44.35000 263.307
44.36000 263.284
44.37000 261.295
44.38000 259.948
44.39000 264.714
44.40000 270.997
44.41000 275.739
44.42000 271.306
44.43000 265.357
44.44000 260.513
44.45000 266.922
44.46000 273.103
44.47000 278.410
44.48000 281.328
44.49000 284.111
44.50000 287.771
44.51000 293.089
44.52000 298.446
44.53000 301.470
44.54000 305.544
44.55000 308.386
44.56000 316.488
44.57000 329.071
44.58000 341.571
44.59000 349.383
44.60000 354.487
44.61000 359.422
44.62000 371.047
44.63000 384.545
44.64000 397.259
44.65000 401.334
44.66000 403.027
44.67000 405.373
44.68000 412.101
44.69000 419.642
44.70000 425.914
44.71000 423.857
44.72000 421.337
44.73000 423.296
44.74000 438.771
44.75000 455.166
44.76000 470.794
44.77000 484.820
44.78000 498.795
44.79000 507.063
44.80000 507.680
44.81000 508.073
44.82000 508.464
44.83000 508.853
44.84000 509.204
44.85000 506.286
44.86000 501.274
44.87000 496.391
44.88000 498.264
44.89000 502.898
44.90000 507.522
44.91000 512.028
44.92000 516.498
44.93000 519.628
44.94000 512.553
44.95000 503.357
44.96000 495.556
44.97000 496.208
44.98000 497.712
44.99000 497.689
45.00000 492.564
45.01000 487.028
45.02000 481.094
45.03000 474.239
45.04000 467.347
45.05000 463.088
45.06000 454.008
45.07000 447.439
45.08000 444.234
45.09000 444.641
45.10000 445.006
45.11000 439.344
45.12000 429.389
45.13000 419.628
45.14000 410.740
45.15000 402.592
45.16000 394.926
45.17000 394.600
45.18000 396.760
45.19000 398.107
45.20000 392.388
45.21000 385.029
45.22000 378.670
45.23000 367.108
45.24000 356.612
45.25000 347.458
45.26000 343.284
45.27000 339.577
45.28000 336.285
45.29000 334.058
45.30000 331.883
45.31000 330.485
45.32000 335.169
45.33000 338.673
45.34000 335.270
45.35000 323.563
45.36000 311.855
45.37000 305.102
45.38000 302.281
45.39000 299.499
45.40000 298.716
45.41000 299.006
45.42000 299.065
45.43000 294.905
45.44000 289.163
45.45000 283.773
45.46000 281.901
45.47000 280.937
45.48000 280.089
45.49000 282.106
45.50000 284.265
45.51000 285.876
45.52000 285.228
45.53000 284.334
45.54000 281.943
45.55000 275.317
45.56000 268.434
45.57000 263.837
45.58000 263.808
45.59000 263.875
45.60000 267.806
45.61000 276.921
45.62000 286.051
45.63000 282.667
45.64000 268.179
45.65000 253.831
45.66000 250.376
45.67000 253.387
45.68000 256.216
45.69000 254.945
45.70000 251.976
45.71000 249.123
45.72000 247.630
45.73000 246.526
45.74000 245.540
45.75000 245.569
45.76000 245.766
45.77000 246.253
45.78000 248.069
45.79000 250.051
45.80000 249.663
45.81000 241.858
45.82000 233.515
45.83000 227.746
45.84000 231.946
45.85000 235.363
45.86000 238.055
45.87000 239.664
45.88000 241.263
45.89000 240.007
45.90000 235.908
45.91000 231.834
45.92000 228.001
45.93000 224.380
45.94000 220.921
45.95000 222.112
45.96000 225.431
45.97000 228.290
45.98000 224.847
45.99000 219.405
46.00000 214.472
46.01000 214.745
46.02000 215.978
46.03000 217.221
46.04000 218.514
46.05000 219.814
46.06000 220.992
46.07000 221.748
46.08000 222.468
46.09000 222.982
46.10000 212.676
46.11000 204.452
46.12000 201.143
46.13000 205.979
46.14000 210.937
46.15000 212.648
46.16000 210.728
46.17000 208.811
46.18000 208.830
46.19000 210.272
46.20000 211.640
46.21000 210.270
46.22000 207.512
46.23000 204.855
46.24000 203.857
46.25000 203.441
46.26000 203.059
46.27000 207.288
46.28000 212.055
46.29000 215.999
46.30000 215.207
46.31000 213.658
46.32000 212.736
46.33000 214.227
46.34000 215.957
46.35000 217.231
46.36000 212.618
46.37000 208.802
46.38000 206.459
46.39000 206.818
46.40000 207.235
46.41000 207.607
46.42000 207.922
46.43000 208.237
46.44000 209.704
46.45000 212.115
46.46000 214.524
46.47000 216.819
46.48000 219.051
46.49000 221.081
46.50000 219.148
46.51000 215.676
46.52000 212.446
46.53000 207.552
46.54000 202.728
46.55000 198.950
46.56000 201.945
46.57000 206.157
46.58000 209.001
46.59000 205.987
46.60000 202.305
46.61000 199.517
46.62000 196.659
46.63000 194.412
46.64000 193.429
46.65000 195.013
46.66000 196.673
46.67000 199.169
46.68000 202.831
46.69000 206.500
46.70000 209.732
46.71000 212.559
46.72000 215.353
46.73000 215.777
46.74000 214.725
46.75000 213.612
46.76000 210.992
46.77000 207.725
46.78000 204.651
46.79000 202.270
46.80000 200.281
46.81000 199.013
46.82000 203.039
46.83000 208.130
46.84000 211.032
46.85000 203.481
46.86000 194.569
46.87000 187.640
46.88000 191.198
46.89000 194.671
46.90000 198.534
46.91000 203.274
46.92000 208.047
46.93000 209.138
46.94000 204.521
46.95000 199.839
46.96000 197.454
46.97000 199.511
46.98000 200.903
46.99000 203.781
47.00000 207.686
47.01000 211.364
47.02000 207.990
47.03000 201.266
47.04000 194.874
47.05000 195.899
47.06000 199.104
47.07000 201.466
47.08000 196.778
47.09000 190.505
47.10000 186.341
47.11000 193.442
47.12000 202.207
47.13000 209.192
47.14000 206.918
47.15000 204.412
47.16000 202.793
47.17000 203.380
47.18000 204.070
47.19000 204.423
47.20000 204.197
47.21000 203.962
47.22000 203.835
47.23000 206.286
47.24000 207.946
47.25000 205.234
47.26000 199.162
47.27000 193.253
47.28000 194.132
47.29000 198.579
47.30000 202.846
47.31000 198.752
47.32000 192.080
47.33000 186.315
47.34000 189.256
47.35000 194.376
47.36000 199.246
47.37000 202.615
47.38000 205.733
47.39000 208.275
47.40000 204.916
47.41000 201.667
47.42000 200.049
47.43000 202.909
47.44000 206.027
47.45000 205.979
47.46000 199.904
47.47000 193.683
47.48000 190.160
47.49000 195.127
47.50000 198.604
47.51000 199.438
47.52000 198.002
47.53000 196.594
47.54000 196.862
47.55000 198.105
47.56000 199.307
47.57000 200.819
47.58000 202.366
47.59000 203.853
47.60000 204.685
47.61000 205.335
47.62000 205.079
47.63000 198.690
47.64000 191.153
47.65000 184.875
47.66000 185.237
47.67000 186.194
47.68000 188.468
47.69000 194.744
47.70000 201.296
47.71000 205.389
47.72000 204.303
47.73000 203.051
47.74000 202.308
47.75000 194.282
47.76000 188.560
47.77000 187.449
47.78000 190.779
47.79000 194.070
47.80000 194.020
47.81000 191.812
47.82000 189.661
47.83000 190.866
47.84000 193.442
47.85000 195.750
47.86000 194.571
47.87000 192.316
47.88000 190.244
47.89000 189.566
47.90000 189.180
47.91000 188.852
47.92000 190.587
47.93000 192.279
47.94000 193.510
47.95000 193.192
47.96000 192.748
47.97000 191.461
47.98000 188.209
47.99000 184.877
48.00000 182.812
48.01000 189.292
48.02000 194.036
48.03000 196.215
48.04000 195.618
48.05000 195.023
48.06000 194.888
48.07000 195.083
48.08000 195.273
48.09000 191.025
48.10000 184.827
48.11000 178.952
48.12000 178.080
48.13000 178.914
48.14000 179.935
48.15000 182.594
48.16000 185.635
48.17000 188.268
48.18000 190.442
48.19000 192.230
48.20000 192.743
48.21000 188.487
48.22000 183.778
48.23000 181.251
48.24000 184.341
48.25000 187.716
48.26000 189.893
48.27000 186.739
48.28000 184.359
48.29000 183.224
48.30000 183.598
48.31000 183.974
48.32000 183.720
48.33000 182.963
48.34000 182.216
48.35000 182.004
48.36000 182.080
48.37000 182.370
48.38000 186.653
48.39000 192.443
48.40000 197.740
48.41000 198.066
48.42000 197.101
48.43000 196.250
48.44000 194.925
48.45000 193.713
48.46000 191.879
48.47000 187.467
48.48000 182.771
48.49000 179.576
48.50000 180.651
48.51000 181.989
48.52000 182.885
48.53000 183.701
48.54000 184.304
48.55000 184.091
48.56000 182.773
48.57000 181.452
48.58000 183.314
48.59000 188.022
48.60000 192.686
48.61000 189.936
48.62000 182.855
48.63000 176.086
48.64000 176.479
48.65000 179.861
48.66000 183.357
48.67000 188.207
48.68000 193.446
48.69000 198.132
48.70000 194.391
48.71000 189.696
48.72000 186.078
48.73000 187.441
48.74000 189.428
48.75000 190.505
48.76000 188.706
48.77000 186.698
48.78000 185.305
48.79000 179.456
48.80000 174.935
48.81000 176.302
48.82000 186.526
48.83000 196.838
48.84000 201.672
48.85000 201.003
48.86000 200.338
48.87000 197.350
48.88000 192.866
48.89000 188.473
48.90000 186.723
48.91000 186.193
48.92000 185.710
48.93000 185.876
48.94000 186.249
48.95000 186.587
48.96000 186.425
48.97000 186.186
48.98000 186.386
48.99000 188.860
49.00000 191.657
49.01000 192.507
49.02000 186.551
49.03000 180.011
49.04000 175.327
49.05000 183.672
49.06000 190.486
49.07000 191.390
49.08000 182.428
49.09000 173.313
49.10000 171.236
49.11000 177.096
49.12000 182.946
49.13000 185.856
49.14000 186.568
49.15000 187.226
49.16000 185.819
49.17000 183.359
49.18000 180.928
49.19000 178.991
49.20000 177.229
49.21000 175.607
49.22000 179.809
49.23000 184.827
49.24000 188.189
49.25000 181.950
49.26000 174.162
49.27000 168.819
49.28000 172.953
49.29000 178.035
49.30000 181.784
49.31000 179.242
49.32000 177.006
49.33000 176.865
49.34000 180.595
49.35000 184.410
49.36000 185.628
49.37000 183.571
49.38000 181.505
49.39000 182.240
49.40000 185.297
49.41000 188.329
49.42000 190.021
49.43000 190.957
49.44000 191.766
49.45000 190.019
49.46000 187.273
49.47000 184.716
49.48000 182.063
49.49000 179.642
49.50000 177.399
49.51000 176.322
49.52000 175.457
49.53000 175.215
49.54000 177.668
49.55000 180.431
49.56000 182.527
49.57000 184.005
49.58000 185.135
49.59000 185.437
49.60000 184.044
49.61000 182.601
49.62000 181.274
49.63000 180.110
49.64000 178.948
49.65000 178.922
49.66000 179.956
49.67000 180.998
49.68000 182.672
49.69000 184.742
49.70000 186.807
49.71000 188.756
49.72000 190.655
49.73000 192.443
49.74000 193.373
49.75000 193.988
49.76000 194.118
49.77000 190.649
49.78000 186.449
49.79000 182.879
49.80000 182.344
49.81000 182.207
49.82000 182.100
49.83000 188.136
49.84000 193.324
49.85000 195.738
49.86000 191.872
49.87000 187.766
49.88000 184.666
49.89000 183.139
49.90000 181.631
49.91000 180.859
49.92000 187.277
49.93000 191.563
49.94000 192.477
49.95000 191.042
49.96000 189.639
49.97000 189.238
49.98000 189.315
49.99000 189.388
50.00000 188.453
50.01000 187.278
50.02000 186.857
50.03000 192.797
50.04000 200.179
50.05000 205.954
50.06000 203.078
50.07000 198.913
50.08000 195.588
50.09000 195.960
50.10000 196.531
50.11000 197.176
50.12000 198.006
50.13000 198.845
50.14000 200.586
50.15000 203.890
50.16000 207.222
50.17000 209.022
50.18000 205.939
50.19000 203.836
50.20000 204.993
50.21000 208.676
50.22000 212.387
50.23000 217.259
50.24000 222.746
50.25000 228.014
50.26000 224.939
50.27000 219.200
50.28000 214.439
50.29000 219.165
50.30000 226.283
50.31000 233.429
50.32000 240.752
50.33000 248.104
50.34000 254.107
50.35000 256.907
50.36000 258.922
50.37000 260.506
50.38000 260.895
50.39000 261.214
50.40000 263.804
50.41000 270.750
50.42000 277.803
50.43000 281.812
50.44000 285.975
50.45000 288.866
50.46000 284.157
50.47000 272.868
50.48000 261.873
50.49000 268.377
50.50000 285.142
50.51000 301.372
50.52000 301.045
50.53000 294.389
50.54000 288.274
50.55000 288.238
50.56000 289.904
50.57000 291.671
50.58000 294.127
50.59000 296.713
50.60000 298.870
50.61000 294.331
50.62000 289.896
50.63000 286.717
50.64000 287.380
50.65000 288.311
50.66000 286.175
50.67000 277.530
50.68000 268.673
50.69000 263.398
50.70000 266.204
50.71000 268.240
50.72000 267.949
50.73000 265.397
50.74000 262.837
50.75000 259.482
50.76000 255.611
50.77000 251.835
50.78000 243.412
50.79000 233.379
50.80000 223.771
50.81000 219.776
50.82000 217.523
50.83000 215.781
50.84000 217.996
50.85000 221.046
50.86000 223.641
50.87000 222.070
50.88000 220.269
50.89000 217.507
50.90000 211.485
50.91000 205.194
50.92000 201.787
50.93000 205.146
50.94000 208.787
50.95000 211.050
50.96000 204.342
50.97000 199.423
50.98000 199.034
50.99000 203.590
51.00000 208.115
51.01000 207.208
51.02000 202.375
51.03000 197.632
51.04000 195.546
51.05000 194.807
51.06000 194.074
51.07000 193.446
51.08000 192.855
51.09000 191.818
51.10000 186.829
51.11000 180.909
51.12000 175.779
51.13000 179.639
51.14000 184.115
51.15000 187.608
51.16000 187.405
51.17000 186.846
51.18000 186.507
51.19000 186.735
51.20000 186.993
51.21000 187.160
51.22000 181.970
51.23000 178.095
51.24000 176.245
51.25000 176.867
51.26000 177.498
51.27000 179.123
51.28000 181.549
51.29000 183.941
51.30000 185.574
51.31000 186.756
51.32000 187.674
51.33000 183.588
51.34000 177.601
51.35000 172.048
51.36000 170.945
51.37000 171.006
51.38000 171.060
51.39000 175.521
51.40000 180.031
51.41000 183.385
51.42000 181.906
51.43000 179.893
51.44000 178.900
51.45000 180.838
51.46000 182.959
51.47000 184.382
51.48000 184.931
51.49000 185.320
51.50000 185.018
51.51000 183.774
51.52000 182.523
51.53000 178.816
51.54000 172.894
51.55000 167.026
51.56000 165.570
51.57000 166.776
51.58000 168.031
51.59000 170.451
51.60000 173.360
51.61000 176.613
51.62000 183.955
51.63000 192.485
51.64000 200.122
51.65000 187.126
51.66000 172.245
51.67000 160.515
51.68000 163.481
51.69000 168.309
51.70000 171.762
51.71000 170.849
51.72000 169.612
51.73000 168.753
51.74000 171.075
51.75000 172.912
51.76000 174.787
51.77000 176.723
51.78000 178.659
51.79000 177.374
51.80000 172.825
51.81000 168.302
51.82000 164.356
51.83000 160.846
51.84000 157.508
51.85000 159.275
51.86000 163.416
51.87000 167.326
51.88000 168.015
51.89000 167.667
51.90000 167.352
51.91000 168.225
51.92000 169.228
51.93000 169.595
51.94000 166.652
51.95000 163.233
51.96000 161.081
51.97000 163.394
51.98000 166.095
51.99000 168.033
52.00000 178.670
52.01000 187.102
52.02000 188.591
52.03000 178.407
52.04000 168.036
52.05000 164.972
52.06000 170.217
52.07000 175.455
52.08000 176.335
52.09000 173.958
52.10000 171.628
52.11000 171.124
52.12000 171.561
52.13000 171.827
52.14000 169.242
52.15000 165.641
52.16000 162.326
52.17000 167.089
52.18000 173.116
52.19000 178.122
52.20000 177.156
52.21000 175.219
52.22000 172.862
52.23000 168.862
52.24000 164.696
52.25000 161.616
52.26000 167.085
52.27000 171.693
52.28000 172.491
52.29000 166.189
52.30000 159.727
52.31000 159.738
52.32000 167.974
52.33000 176.230
52.34000 179.471
52.35000 178.507
52.36000 177.519
52.37000 175.213
52.38000 172.155
52.39000 169.041
52.40000 164.785
52.41000 160.077
52.42000 155.691
52.43000 160.433
52.44000 166.971
52.45000 172.237
52.46000 169.115
52.47000 164.461
52.48000 160.906
52.49000 162.133
52.50000 163.916
52.51000 165.271
52.52000 165.156
52.53000 164.988
52.54000 163.873
52.55000 160.806
52.56000 157.679
52.57000 158.465
52.58000 164.789
52.59000 171.152
52.60000 171.866
52.61000 167.273
52.62000 162.758
52.63000 164.496
52.64000 170.181
52.65000 175.606
52.66000 174.434
52.67000 170.389
52.68000 166.577
52.69000 164.688
52.70000 163.491
52.71000 162.449
52.72000 162.580
52.73000 162.951
52.74000 162.906
52.75000 160.847
52.76000 158.521
52.77000 156.706
52.78000 163.970
52.79000 170.331
52.80000 173.585
52.81000 169.754
52.82000 165.648
52.83000 162.314
52.84000 160.194
52.85000 158.090
52.86000 157.008
52.87000 158.913
52.88000 160.207
52.89000 163.218
52.90000 167.431
52.91000 171.476
52.92000 170.071
52.93000 166.040
52.94000 162.203
52.95000 163.067
52.96000 165.322
52.97000 167.222
52.98000 166.099
52.99000 164.286
53.00000 163.522
53.01000 168.460
53.02000 174.255
53.03000 178.888
53.04000 168.297
53.05000 158.605
53.06000 152.494
53.07000 155.409
53.08000 158.761
53.09000 162.696
53.10000 167.646
53.11000 172.615
53.12000 175.310
53.13000 172.895
53.14000 171.241
53.15000 171.599
53.16000 173.528
53.17000 175.362
53.18000 173.058
53.19000 168.548
53.20000 164.214
53.21000 163.664
53.22000 164.458
53.23000 165.092
53.24000 164.165
53.25000 162.842
53.26000 162.170
53.27000 165.466
53.28000 169.435
53.29000 172.682
53.30000 168.937
53.31000 165.261
53.32000 162.821
53.33000 163.831
53.34000 165.045
53.35000 166.048
53.36000 166.645
53.37000 167.232
53.38000 167.567
53.39000 162.393
53.40000 158.769
53.41000 158.337
53.42000 160.690
53.43000 162.993
53.44000 162.248
53.45000 159.705
53.46000 157.240
53.47000 160.230
53.48000 165.167
53.49000 169.590
53.50000 168.167
53.51000 165.096
53.52000 162.420
53.53000 162.464
53.54000 163.027
53.55000 163.497
53.56000 164.331
53.57000 165.060
53.58000 165.426
53.59000 164.668
53.60000 163.830
53.61000 162.177
53.62000 158.781
53.63000 155.327
53.64000 153.263
53.65000 157.034
53.66000 159.745
53.67000 161.601
53.68000 162.619
53.69000 163.636
53.70000 164.553
53.71000 165.403
53.72000 166.233
53.73000 165.561
53.74000 164.272
53.75000 163.109
53.76000 163.634
53.77000 164.688
53.78000 165.677
53.79000 166.161
53.80000 166.538
53.81000 166.859
53.82000 165.853
53.83000 164.853
53.84000 164.134
53.85000 164.374
53.86000 164.694
53.87000 164.805
53.88000 164.421
53.89000 164.015
53.90000 163.763
53.91000 160.042
53.92000 157.325
53.93000 154.896
53.94000 152.784
53.95000 150.687
53.96000 151.066
53.97000 153.249
53.98000 155.392
53.99000 159.150
54.00000 163.552
54.01000 167.422
54.02000 162.848
54.03000 155.351
54.04000 148.910
54.05000 151.915
54.06000 157.161
54.07000 161.713
54.08000 159.241
54.09000 156.196
54.10000 154.623
54.11000 158.632
54.12000 163.183
54.13000 166.440
54.14000 166.316
54.15000 166.017
54.16000 165.822
54.17000 164.071
54.18000 162.765
54.19000 162.567
54.20000 163.733
54.21000 164.891
54.22000 161.575
54.23000 154.623
54.24000 147.763
54.25000 148.758
54.26000 153.955
54.27000 158.974
54.28000 160.566
54.29000 160.846
54.30000 160.961
54.31000 159.372
54.32000 157.334
54.33000 155.536
54.34000 159.050
54.35000 162.891
54.36000 164.999
54.37000 159.797
54.38000 153.778
54.39000 149.487
54.40000 150.193
54.41000 151.215
54.42000 151.902
54.43000 157.742
54.44000 162.190
54.45000 165.970
54.46000 168.832
54.47000 171.685
54.48000 169.760
54.49000 163.488
54.50000 157.272
54.51000 158.535
54.52000 164.270
54.53000 169.735
54.54000 168.802
54.55000 165.159
54.56000 161.931
54.57000 163.686
54.58000 166.900
54.59000 169.780
54.60000 166.948
54.61000 163.486
54.62000 160.755
54.63000 161.462
54.64000 162.609
54.65000 162.685
54.66000 159.338
54.67000 155.733
54.68000 153.222
54.69000 152.232
54.70000 151.527
54.71000 153.961
54.72000 161.187
54.73000 168.464
54.74000 168.655
54.75000 161.608
54.76000 154.598
54.77000 153.500
54.78000 156.389
54.79000 159.279
54.80000 162.217
54.81000 165.177
54.82000 168.019
54.83000 169.196
54.84000 169.832
54.85000 170.410
54.86000 165.694
54.87000 160.487
54.88000 156.629
54.89000 159.863
54.90000 164.126
54.91000 167.592
54.92000 168.231
54.93000 168.622
54.94000 168.903
54.95000 174.196
54.96000 178.423
54.97000 180.341
54.98000 178.351
54.99000 176.296
55.00000 174.737
55.01000 173.748
55.02000 172.762
55.03000 170.765
55.04000 168.021
55.05000 165.344
55.06000 165.283
55.07000 166.577
55.08000 167.834
55.09000 168.469
55.10000 168.881
55.11000 169.261
55.12000 171.569
55.13000 174.060
55.14000 177.374
55.15000 185.548
55.16000 194.517
55.17000 200.582
55.18000 195.201
55.19000 188.653
55.20000 183.801
55.21000 185.009
55.22000 186.211
55.23000 187.023
55.24000 187.105
55.25000 187.170
55.26000 190.612
55.27000 198.380
55.28000 206.157
55.29000 209.272
55.30000 208.448
55.31000 207.757
55.32000 214.349
55.33000 225.118
55.34000 235.561
55.35000 239.288
55.36000 240.348
55.37000 241.337
55.38000 244.954
55.39000 248.882
55.40000 253.532
55.41000 262.989
55.42000 273.332
55.43000 283.766
55.44000 294.603
55.45000 305.487
55.46000 313.779
55.47000 315.928
55.48000 317.295
55.49000 324.723
55.50000 344.737
55.51000 365.140
55.52000 381.714
55.53000 392.826
55.54000 403.896
55.55000 416.402
55.56000 430.265
55.57000 444.148
55.58000 459.641
55.59000 476.157
55.60000 492.508
55.61000 504.591
55.62000 514.801
55.63000 524.431
55.64000 533.589
55.65000 541.850
55.66000 549.098
55.67000 548.704
55.68000 546.734
55.69000 545.674
55.70000 549.070
55.71000 553.061
55.72000 556.181
55.73000 555.671
55.74000 555.032
55.75000 552.382
55.76000 545.111
55.77000 537.658
55.78000 532.072
55.79000 529.448
55.80000 526.860
55.81000 525.526
55.82000 516.152
55.83000 509.825
55.84000 501.984
55.85000 493.075
55.86000 484.028
55.87000 470.463
55.88000 454.705
55.89000 439.692
55.90000 427.989
55.91000 418.174
55.92000 408.432
55.93000 399.310
55.94000 390.332
55.95000 380.842
55.96000 368.550
55.97000 355.834
55.98000 345.649
55.99000 341.989
56.00000 339.517
56.01000 336.801
56.02000 333.464
56.03000 330.096
56.04000 320.465
56.05000 299.830
56.06000 278.989
56.07000 267.642
56.08000 272.338
56.09000 275.560
56.10000 272.439
56.11000 264.324
56.12000 256.269
56.13000 250.881
56.14000 246.926
56.15000 243.123
56.16000 239.232
56.17000 235.557
56.18000 232.011
56.19000 229.749
56.20000 227.816
56.21000 225.949
56.22000 224.481
56.23000 223.082
56.24000 221.936
56.25000 216.969
56.26000 212.560
56.27000 208.997
56.28000 207.809
56.29000 206.763
56.30000 206.476
56.31000 207.669
56.32000 208.899
56.33000 209.604
56.34000 201.224
56.35000 195.344
56.36000 192.692
56.37000 192.880
56.38000 193.049
56.39000 191.962
56.40000 190.128
56.41000 188.350
56.42000 188.815
56.43000 190.129
56.44000 191.390
56.45000 192.042
56.46000 192.522
56.47000 192.251
56.48000 186.757
56.49000 180.261
56.50000 174.827
56.51000 174.104
56.52000 173.985
56.53000 173.492
56.54000 171.836
56.55000 170.097
56.56000 169.946
56.57000 173.211
56.58000 176.593
56.59000 178.619
56.60000 165.756
56.61000 156.524
56.62000 154.489
56.63000 159.563
56.64000 164.599
56.65000 165.909
56.66000 164.758
56.67000 163.635
56.68000 163.389
56.69000 163.536
56.70000 163.758
56.71000 164.990
56.72000 166.540
56.73000 167.516
56.74000 163.956
56.75000 159.422
56.76000 155.555
56.77000 157.616
56.78000 160.050
56.79000 161.479
56.80000 159.446
56.81000 157.121
56.82000 156.875
56.83000 161.576
56.84000 166.490
56.85000 169.562
56.86000 165.480
56.87000 162.458
56.88000 159.751
56.89000 157.393
56.90000 155.041
56.91000 153.618
56.92000 152.877
56.93000 152.150
56.94000 148.773
56.95000 144.226
56.96000 139.943
56.97000 139.906
56.98000 141.350
56.99000 143.012
57.00000 146.640
57.01000 150.738
57.02000 154.297
57.03000 152.122
57.04000 149.493
57.05000 147.376
57.06000 147.217
57.07000 147.249
57.08000 147.596
57.09000 148.773
57.10000 149.994
57.11000 150.789
57.12000 152.513
57.13000 153.791
57.14000 151.519
57.15000 144.841
57.16000 138.164
57.17000 136.868
57.18000 139.978
57.19000 143.049
57.20000 143.535
57.21000 142.605
57.22000 141.790
57.23000 143.197
57.24000 145.462
57.25000 147.855
57.26000 151.588
57.27000 155.675
57.28000 159.287
57.29000 152.992
57.30000 146.032
57.31000 141.382
57.32000 146.550
57.33000 152.825
57.34000 156.686
57.35000 153.516
57.36000 149.896
57.37000 147.454
57.38000 150.416
57.39000 152.735
57.40000 152.762
57.41000 149.617
57.42000 146.454
57.43000 146.354
57.44000 149.063
57.45000 151.748
57.46000 150.726
57.47000 147.477
57.48000 144.425
57.49000 146.136
57.50000 149.877
57.51000 153.197
57.52000 151.394
57.53000 148.082
57.54000 145.109
57.55000 145.966
57.56000 147.384
57.57000 148.538
57.58000 148.441
57.59000 148.182
57.60000 147.672
57.61000 146.348
57.62000 144.963
57.63000 143.995
57.64000 148.049
57.65000 151.250
57.66000 152.174
57.67000 149.592
57.68000 146.972
57.69000 144.291
57.70000 141.548
57.71000 138.818
57.72000 142.005
57.73000 149.164
57.74000 156.100
57.75000 156.252
57.76000 153.205
57.77000 150.456
57.78000 151.985
57.79000 154.912
57.80000 157.576
57.81000 153.475
57.82000 148.509
57.83000 144.488
57.84000 145.469
57.85000 147.183
57.86000 147.894
57.87000 145.022
57.88000 141.832
57.89000 139.532
57.90000 143.665
57.91000 147.059
57.92000 149.823
57.93000 151.510
57.94000 153.179
57.95000 151.744
57.96000 146.722
57.97000 141.707
57.98000 142.144
57.99000 146.711
58.00000 151.219
58.01000 153.335
58.02000 154.203
58.03000 154.798
58.04000 150.691
58.05000 144.884
58.06000 139.528
58.07000 143.009
58.08000 148.094
58.09000 152.428
58.10000 152.296
58.11000 151.426
58.12000 150.115
58.13000 147.058
58.14000 143.821
58.15000 141.418
58.16000 140.783
58.17000 140.369
58.18000 140.623
58.19000 142.143
58.20000 143.693
58.21000 143.063
58.22000 139.618
58.23000 136.165
58.24000 135.657
58.25000 137.654
58.26000 139.659
58.27000 142.146
58.28000 144.910
58.29000 147.759
58.30000 152.379
58.31000 157.706
58.32000 162.679
58.33000 157.045
58.34000 149.286
58.35000 142.314
58.36000 140.629
58.37000 139.925
58.38000 140.199
58.39000 144.788
58.40000 149.888
58.41000 153.781
58.42000 149.527
58.43000 145.738
58.44000 142.936
58.45000 142.200
58.46000 141.529
58.47000 139.984
58.48000 137.183
58.49000 134.373
58.50000 131.094
58.51000 127.369
58.52000 123.707
58.53000 125.463
58.54000 130.690
58.55000 135.852
58.56000 139.280
58.57000 141.941
58.58000 144.453
58.59000 142.369
58.60000 139.168
58.61000 136.426
58.62000 137.183
58.63000 138.667
58.64000 140.356
58.65000 143.053
58.66000 145.886
58.67000 148.105
58.68000 141.031
58.69000 134.783
58.70000 132.361
58.71000 138.793
58.72000 145.581
58.73000 148.784
58.74000 146.263
58.75000 143.667
58.76000 142.323
58.77000 145.705
58.78000 147.952
58.79000 145.083
58.80000 138.570
58.81000 132.242
58.82000 132.151
58.83000 135.109
58.84000 137.929
58.85000 140.792
58.86000 143.461
58.87000 145.875
58.88000 146.068
58.89000 145.747
58.90000 144.281
58.91000 136.499
58.92000 127.750
58.93000 120.731
58.94000 118.033
58.95000 116.177
58.96000 116.401
58.97000 121.946
58.98000 127.756
58.99000 131.958
59.00000 133.312
59.01000 134.611
59.02000 135.322
59.03000 141.931
59.04000 146.464
59.05000 145.636
59.06000 140.554
59.07000 135.587
59.08000 135.840
59.09000 138.918
59.10000 141.878
59.11000 140.845
59.12000 138.472
59.13000 136.496
59.14000 138.492
59.15000 141.512
59.16000 143.771
59.17000 141.308
59.18000 138.031
59.19000 135.342
59.20000 138.124
59.21000 140.894
59.22000 142.373
59.23000 140.197
59.24000 137.799
59.25000 136.845
59.26000 138.722
59.27000 140.673
59.28000 141.794
59.29000 137.348
59.30000 134.221
59.31000 132.735
59.32000 132.705
59.33000 132.675
59.34000 132.631
59.35000 132.577
59.36000 132.525
59.37000 134.274
59.38000 136.638
59.39000 138.537
59.40000 135.017
59.41000 129.947
59.42000 125.756
59.43000 127.743
59.44000 130.925
59.45000 133.590
59.46000 135.724
59.47000 137.443
59.48000 139.611
59.49000 143.185
59.50000 146.861
59.51000 147.551
59.52000 141.766
59.53000 135.758
59.54000 132.147
59.55000 133.388
59.56000 134.304
59.57000 137.354
59.58000 142.530
59.59000 147.623
59.60000 144.242
59.61000 135.225
59.62000 126.420
59.63000 128.079
59.64000 134.255
59.65000 139.947
59.66000 139.030
59.67000 136.016
59.68000 133.499
59.69000 134.949
59.70000 137.256
59.71000 139.227
59.72000 138.054
59.73000 136.691
59.74000 135.947
59.75000 137.350
59.76000 138.935
59.77000 139.922
59.78000 139.475
59.79000 138.965
59.80000 138.646
59.81000 134.937
59.82000 132.221
59.83000 131.134
59.84000 131.871
59.85000 132.612
59.86000 133.827
59.87000 135.392
59.88000 136.929
59.89000 135.073
59.90000 131.617
59.91000 128.553
59.92000 131.874
59.93000 137.437
59.94000 142.669
59.95000 144.881
59.96000 146.365
59.97000 147.655
59.98000 140.538
59.99000 133.320
60.00000 127.482
60.01000 126.960
60.02000 126.965
60.03000 128.710
60.04000 135.069
60.05000 141.675
60.06000 145.985
60.07000 140.170
60.08000 135.742
60.09000 133.375
60.10000 133.586
60.11000 133.806
60.12000 134.806
60.13000 136.450
60.14000 138.073
60.15000 138.902
60.16000 139.275
60.17000 139.615
60.18000 139.306
60.19000 138.744
60.20000 137.889
60.21000 133.951
60.22000 129.188
60.23000 124.975
60.24000 129.286
60.25000 134.335
60.26000 138.827
60.27000 140.930
60.28000 142.761
60.29000 142.668
60.30000 136.934
60.31000 130.835
60.32000 126.709
60.33000 128.868
60.34000 130.613
60.35000 131.900
60.36000 132.549
60.37000 133.194
60.38000 134.051
60.39000 135.103
60.40000 136.147
60.41000 135.756
60.42000 134.496
60.43000 133.273
60.44000 132.981
60.45000 133.089
60.46000 132.926
60.47000 129.429
60.48000 124.942
60.49000 120.913
60.50000 128.075
60.51000 136.314
60.52000 142.782
60.53000 140.789
60.54000 137.695
60.55000 135.283
60.56000 135.090
60.57000 135.067
60.58000 135.051
60.59000 132.728
60.60000 130.907
60.61000 128.742
60.62000 126.046
60.63000 123.344
60.64000 124.521
60.65000 129.727
60.66000 134.909
60.67000 137.381
60.68000 137.974
60.69000 138.564
60.70000 139.054
60.71000 139.495
60.72000 139.725
60.73000 136.879
60.74000 133.020
60.75000 129.504
60.76000 132.186
60.77000 135.795
60.78000 138.951
60.79000 139.679
60.80000 140.049
60.81000 138.899
60.82000 132.277
60.83000 125.163
60.84000 120.024
60.85000 121.043
60.86000 122.047
60.87000 126.149
60.88000 135.576
60.89000 145.095
60.90000 147.479
60.91000 141.551
60.92000 135.626
60.93000 135.093
60.94000 138.688
60.95000 142.136
60.96000 139.505
60.97000 133.680
60.98000 128.281
60.99000 130.292
61.00000 135.002
61.01000 139.350
61.02000 143.032
61.03000 146.183
61.04000 148.690
61.05000 147.336
61.06000 145.337
61.07000 143.069
61.08000 139.722
61.09000 136.264
61.10000 133.690
61.11000 136.749
61.12000 139.381
61.13000 141.918
61.14000 144.275
61.15000 146.629
61.16000 148.646
61.17000 150.225
61.18000 151.801
61.19000 149.277
61.20000 143.243
61.21000 137.297
61.22000 136.486
61.23000 138.664
61.24000 140.923
61.25000 144.894
61.26000 149.556
61.27000 153.911
61.28000 151.521
61.29000 147.651
61.30000 144.288
61.31000 144.351
61.32000 145.055
61.33000 145.967
61.34000 147.803
61.35000 149.749
61.36000 151.237
61.37000 146.901
61.38000 143.165
61.39000 140.927
61.40000 141.845
61.41000 142.866
61.42000 142.841
61.43000 141.302
61.44000 139.750
61.45000 141.702
61.46000 147.029
61.47000 152.334
61.48000 155.794
61.49000 158.061
61.50000 160.564
61.51000 169.332
61.52000 180.888
61.53000 191.804
61.54000 203.141
61.55000 213.666
61.56000 224.335
61.57000 236.109
61.58000 248.114
61.59000 262.415
61.60000 288.119
61.61000 315.377
61.62000 336.764
61.63000 344.598
61.64000 349.981
61.65000 355.495
61.66000 361.315
61.67000 367.148
61.68000 372.358
61.69000 376.568
61.70000 380.764
61.71000 382.945
61.72000 380.636
61.73000 379.097
61.74000 380.868
61.75000 385.015
61.76000 388.762
61.77000 378.790
61.78000 362.063
61.79000 346.105
61.80000 319.114
61.81000 290.567
61.82000 263.402
61.83000 248.378
61.84000 236.190
61.85000 223.718
61.86000 209.656
61.87000 195.350
61.88000 183.853
61.89000 175.240
61.90000 168.480
61.91000 162.957
61.92000 160.618
61.93000 158.442
61.94000 156.617
61.95000 155.419
61.96000 154.233
61.97000 153.583
61.98000 151.603
61.99000 150.235
62.00000 147.618
62.01000 144.002
62.02000 140.464
62.03000 140.505
62.04000 142.497
62.05000 144.415
62.06000 145.395
62.07000 145.984
62.08000 146.328
62.09000 144.211
62.10000 141.453
62.11000 139.538
62.12000 142.908
62.13000 147.197
62.14000 150.721
62.15000 153.752
62.16000 156.196
62.17000 157.226
62.18000 154.224
62.19000 150.974
62.20000 148.237
62.21000 146.514
62.22000 144.817
62.23000 143.840
62.24000 147.797
62.25000 150.583
62.26000 149.603
62.27000 145.254
62.28000 140.992
62.29000 142.593
62.30000 147.733
62.31000 152.720
62.32000 153.654
62.33000 152.935
62.34000 152.252
62.35000 151.980
62.36000 151.826
62.37000 151.637
62.38000 151.199
62.39000 150.711
62.40000 150.302
62.41000 152.122
62.42000 153.870
62.43000 154.467
62.44000 151.435
62.45000 148.137
62.46000 146.690
62.47000 149.285
62.48000 152.022
62.49000 153.672
62.50000 153.942
62.51000 154.124
62.52000 153.402
62.53000 151.769
62.54000 150.146
62.55000 149.437
62.56000 149.340
62.57000 149.246
62.58000 149.163
62.59000 149.089
62.60000 149.129
62.61000 150.743
62.62000 152.860
62.63000 154.649
62.64000 153.793
62.65000 152.362
62.66000 151.138
62.67000 141.815
62.68000 132.980
62.69000 128.220
62.70000 137.704
62.71000 148.415
62.72000 154.562
62.73000 149.692
62.74000 144.335
62.75000 140.965
62.76000 145.694
62.77000 149.205
62.78000 149.541
62.79000 146.296
62.80000 143.081
62.81000 146.163
62.82000 153.943
62.83000 161.590
62.84000 160.960
62.85000 156.266
62.86000 151.846
62.87000 151.934
62.88000 153.616
62.89000 154.991
62.90000 153.526
62.91000 151.370
62.92000 149.493
62.93000 150.953
62.94000 152.659
62.95000 153.987
62.96000 153.851
62.97000 153.569
62.98000 152.805
62.99000 150.753
63.00000 148.630
63.01000 147.242
63.02000 144.147
63.03000 141.846
63.04000 143.757
63.05000 150.979
63.06000 158.206
63.07000 159.452
63.08000 155.720
63.09000 152.034
63.10000 150.167
63.11000 149.350
63.12000 148.673
63.13000 150.834
63.14000 154.105
63.15000 156.923
63.16000 154.910
63.17000 151.594
63.18000 148.658
63.19000 149.636
63.20000 151.097
63.21000 152.680
63.22000 154.792
63.23000 156.965
63.24000 157.697
63.25000 154.173
63.26000 150.369
63.27000 147.790
63.28000 143.673
63.29000 140.569
63.30000 140.716
63.31000 145.430
63.32000 150.174
63.33000 152.372
63.34000 152.197
63.35000 152.023
63.36000 152.318
63.37000 152.897
63.38000 153.396
63.39000 151.909
63.40000 149.563
63.41000 147.489
63.42000 148.801
63.43000 151.126
63.44000 153.217
63.45000 149.172
63.46000 144.539
63.47000 140.872
63.48000 141.855
63.49000 143.448
63.50000 146.506
63.51000 154.352
63.52000 162.569
63.53000 168.334
63.54000 164.047
63.55000 160.511
63.56000 158.503
63.57000 158.879
63.58000 159.283
63.59000 157.105
63.60000 152.222
63.61000 147.362
63.62000 146.402
63.63000 148.139
63.64000 149.893
63.65000 152.199
63.66000 154.768
63.67000 157.148
63.68000 156.744
63.69000 155.416
63.70000 154.205
63.71000 151.113
63.72000 147.994
63.73000 145.531
63.74000 146.611
63.75000 148.218
63.76000 150.402
63.77000 154.682
63.78000 159.153
63.79000 162.389
63.80000 166.204
63.81000 169.155
63.82000 169.889
63.83000 166.784
63.84000 163.612
63.85000 163.211
63.86000 166.066
63.87000 168.920
63.88000 170.063
63.89000 169.879
63.90000 169.736
63.91000 171.294
63.92000 173.752
63.93000 175.956
63.94000 173.688
63.95000 169.779
63.96000 166.167
63.97000 168.603
63.98000 172.157
63.99000 174.867
64.00000 172.472
64.01000 169.217
64.02000 166.296
64.03000 164.716
64.04000 163.277
64.05000 162.204
64.06000 159.937
64.07000 158.117
64.08000 156.515
64.09000 155.331
64.10000 154.157
64.11000 155.323
64.12000 159.557
64.13000 163.802
64.14000 164.622
64.15000 162.479
64.16000 160.369
64.17000 160.196
64.18000 161.157
64.19000 162.159
64.20000 164.031
64.21000 166.255
64.22000 168.335
64.23000 170.542
64.24000 172.577
64.25000 173.906
64.26000 170.404
64.27000 165.990
64.28000 162.578
64.29000 163.655
64.30000 165.275
64.31000 166.516
64.32000 166.029
64.33000 165.549
64.34000 166.345
64.35000 169.847
64.36000 173.437
64.37000 175.331
64.38000 174.750
64.39000 174.149
64.40000 173.318
64.41000 172.264
64.42000 171.239
64.43000 172.804
64.44000 176.053
64.45000 179.383
64.46000 184.918
64.47000 191.441
64.48000 197.607
64.49000 190.977
64.50000 181.238
64.51000 172.717
64.52000 173.650
64.53000 176.580
64.54000 179.356
64.55000 181.362
64.56000 183.261
64.57000 184.754
64.58000 187.273
64.59000 189.357
64.60000 189.645
64.61000 185.718
64.62000 181.615
64.63000 178.979
64.64000 178.717
64.65000 178.489
64.66000 178.370
64.67000 181.930
64.68000 184.334
64.69000 186.070
64.70000 187.323
64.71000 188.655
64.72000 192.787
64.73000 198.308
64.74000 203.578
64.75000 202.761
64.76000 200.058
64.77000 197.474
64.78000 195.941
64.79000 194.656
64.80000 194.048
64.81000 197.241
64.82000 201.025
64.83000 204.072
64.84000 203.543
64.85000 202.836
64.86000 204.503
64.87000 212.332
64.88000 220.477
64.89000 226.072
64.90000 227.083
64.91000 228.003
64.92000 228.509
64.93000 223.829
64.94000 220.618
64.95000 225.251
64.96000 236.209
64.97000 247.136
64.98000 256.621
64.99000 265.314
65.00000 273.687
65.01000 281.464
65.02000 288.554
65.03000 295.993
65.04000 307.001
65.05000 318.944
65.06000 330.979
65.07000 343.592
65.08000 356.307
65.09000 366.771
65.10000 373.458
65.11000 378.612
65.12000 389.717
65.13000 417.902
65.14000 447.151
65.15000 471.309
65.16000 485.345
65.17000 499.103
65.18000 507.058
65.19000 523.373
65.20000 534.841
65.21000 543.784
65.22000 550.449
65.23000 557.108
65.24000 563.304
65.25000 569.218
65.26000 574.959
65.27000 584.700
65.28000 595.538
65.29000 606.452
65.30000 618.270
65.31000 630.351
65.32000 640.275
65.33000 634.788
65.34000 626.273
65.35000 619.118
65.36000 623.121
65.37000 627.633
65.38000 631.186
65.39000 631.691
65.40000 631.970
65.41000 628.772
65.42000 617.924
65.43000 606.804
65.44000 600.077
65.45000 590.695
65.46000 583.989
65.47000 576.035
65.48000 566.819
65.49000 557.627
65.50000 551.195
65.51000 546.626
65.52000 542.160
65.53000 535.710
65.54000 528.644
65.55000 521.943
65.56000 520.338
65.57000 520.375
65.58000 519.193
65.59000 508.098
65.60000 494.827
65.61000 483.461
65.62000 488.949
65.63000 495.628
65.64000 501.929
65.65000 506.906
65.66000 511.767
65.67000 522.744
65.68000 548.594
65.69000 575.114
65.70000 591.842
65.71000 667.145
65.72000 722.349
65.73000 780.349
65.74000 841.528
65.75000 902.805
65.76000 983.464
65.77000 1078.687
65.78000 1172.320
65.79000 1249.553
65.80000 1316.097
65.81000 1382.275
65.82000 1442.327
65.83000 1500.195
65.84000 1555.321
65.85000 1584.891
65.86000 1608.209
65.87000 1628.540
65.88000 1629.354
65.89000 1627.338
65.90000 1622.411
65.91000 1606.107
65.92000 1588.653
65.93000 1562.761
65.94000 1514.174
65.95000 1464.334
65.96000 1431.649
65.97000 1328.137
65.98000 1250.834
65.99000 1162.440
66.00000 1059.948
66.01000 957.439
66.02000 871.477
66.03000 799.393
66.04000 728.155
66.05000 658.098
66.06000 590.412
66.07000 524.061
66.08000 484.855
66.09000 456.346
66.10000 429.111
66.11000 415.603
66.12000 405.826
66.13000 397.159
66.14000 382.641
66.15000 369.146
66.16000 358.561
66.17000 360.634
66.18000 364.177
66.19000 368.035
66.20000 372.829
66.21000 377.684
66.22000 380.986
66.23000 379.296
66.24000 377.921
66.25000 380.373
66.26000 388.242
66.27000 396.151
66.28000 408.398
66.29000 424.721
66.30000 440.920
66.31000 459.900
66.32000 480.285
66.33000 500.264
66.34000 509.979
66.35000 515.222
66.36000 521.249
66.37000 537.135
66.38000 555.994
66.39000 572.968
66.40000 578.286
66.41000 580.858
66.42000 583.201
66.43000 584.433
66.44000 585.517
66.45000 584.879
66.46000 578.567
66.47000 571.809
66.48000 567.056
66.49000 571.670
66.50000 575.441
66.51000 568.510
66.52000 544.741
66.53000 520.767
66.54000 501.061
66.55000 485.865
66.56000 470.736
66.57000 454.610
66.58000 437.960
66.59000 421.495
66.60000 411.007
66.61000 403.400
66.62000 395.998
66.63000 391.651
66.64000 388.323
66.65000 385.284
66.66000 380.178
66.67000 375.228
66.68000 371.327
66.69000 373.125
66.70000 375.779
66.71000 376.345
66.72000 369.277
66.73000 361.509
66.74000 355.872
66.75000 366.052
66.76000 374.465
66.77000 376.730
66.78000 368.267
66.79000 359.608
66.80000 356.896
66.81000 361.221
66.82000 365.550
66.83000 367.330
66.84000 367.119
66.85000 366.857
66.86000 364.365
66.87000 360.683
66.88000 357.319
66.89000 359.624
66.90000 364.023
66.91000 368.091
66.92000 376.533
66.93000 385.114
66.94000 391.837
66.95000 387.219
66.96000 380.678
66.97000 376.617
66.98000 382.628
66.99000 389.709
67.00000 394.999
67.01000 399.535
67.02000 403.036
67.03000 405.567
67.04000 406.221
67.05000 406.829
67.06000 404.392
67.07000 397.934
67.08000 391.460
67.09000 392.778
67.10000 400.884
67.11000 408.922
67.12000 412.718
67.13000 414.009
67.14000 415.378
67.15000 418.448
67.16000 422.213
67.17000 425.736
67.18000 427.195
67.19000 427.991
67.20000 429.034
67.21000 431.779
67.22000 434.847
67.23000 438.052
67.24000 441.875
67.25000 445.772
67.26000 448.764
67.27000 455.447
67.28000 460.935
67.29000 463.544
67.30000 460.001
67.31000 456.252
67.32000 453.663
67.33000 452.778
67.34000 451.909
67.35000 450.538
67.36000 448.675
67.37000 446.862
67.38000 449.809
67.39000 455.876
67.40000 461.799
67.41000 463.745
67.42000 463.896
67.43000 464.038
67.44000 466.576
67.45000 469.598
67.46000 473.273
67.47000 482.067
67.48000 491.951
67.49000 499.848
67.50000 497.718
67.51000 494.196
67.52000 491.423
67.53000 497.526
67.54000 503.009
67.55000 505.196
67.56000 499.595
67.57000 493.665
67.58000 493.565
67.59000 502.984
67.60000 512.538
67.61000 517.545
67.62000 501.686
67.63000 491.040
67.64000 497.731
67.65000 517.055
67.66000 536.126
67.67000 546.151
67.68000 551.656
67.69000 556.915
67.70000 555.315
67.71000 551.619
67.72000 547.952
67.73000 544.547
67.74000 541.203
67.75000 539.911
67.76000 550.229
67.77000 562.371
67.78000 572.160
67.79000 573.205
67.80000 573.365
67.81000 574.399
67.82000 577.715
67.83000 581.151
67.84000 583.263
67.85000 582.981
67.86000 582.650
67.87000 582.467
67.88000 585.231
67.89000 587.141
67.90000 588.376
67.91000 589.061
67.92000 589.826
67.93000 594.460
67.94000 601.235
67.95000 607.764
67.96000 607.573
67.97000 604.974
67.98000 603.906
67.99000 618.637
68.00000 637.536
68.01000 653.959
68.02000 654.605
68.03000 652.460
68.04000 650.693
68.05000 653.241
68.06000 655.736
68.07000 657.580
68.08000 657.542
68.09000 657.385
68.10000 657.371
68.11000 657.643
68.12000 657.923
68.13000 658.086
68.14000 672.361
68.15000 682.436
68.16000 686.364
68.17000 684.705
68.18000 683.216
68.19000 693.747
68.20000 711.647
68.21000 729.031
68.22000 732.595
68.23000 730.422
68.24000 729.019
68.25000 736.876
68.26000 747.444
68.27000 757.083
68.28000 760.017
68.29000 761.623
68.30000 762.974
68.31000 760.527
68.32000 758.082
68.33000 758.073
68.34000 765.860
68.35000 774.232
68.36000 782.394
68.37000 790.094
68.38000 797.776
68.39000 802.438
68.40000 823.699
68.41000 838.994
68.42000 850.125
68.43000 857.000
68.44000 863.928
68.45000 876.762
68.46000 893.615
68.47000 910.096
68.48000 922.614
68.49000 932.839
68.50000 943.113
68.51000 954.083
68.52000 965.277
68.53000 977.741
68.54000 1000.623
68.55000 1025.811
68.56000 1047.412
68.57000 1077.280
68.58000 1103.525
68.59000 1134.094
68.60000 1180.001
68.61000 1227.259
68.62000 1277.841
68.63000 1336.571
68.64000 1395.673
68.65000 1433.061
68.66000 1542.234
68.67000 1622.231
68.68000 1700.307
68.69000 1776.180
68.70000 1852.104
68.71000 1939.501
68.72000 2035.586
68.73000 2130.103
68.74000 2230.660
68.75000 2331.011
68.76000 2430.387
68.77000 2513.216
68.78000 2590.106
68.79000 2667.351
68.80000 2747.937
68.81000 2829.345
68.82000 2900.409
68.83000 3091.003
68.84000 3270.846
68.85000 3456.201
68.86000 3663.262
68.87000 3872.540
68.88000 4147.799
68.89000 4601.798
68.90000 5065.799
68.91000 5370.904
68.92000 6823.424
68.93000 7912.336
68.94000 9739.139
68.95000 12511.165
68.96000 15289.162
68.97000 19488.070
68.98000 24888.316
68.99000 30226.955
69.00000 37256.316
69.01000 45064.219
69.02000 52860.758
69.03000 60422.648
69.04000 67891.398
69.05000 75149.883
69.06000 80118.406
69.07000 84459.773
69.08000 88312.375
69.09000 90369.805
69.10000 91865.961
69.11000 93223.773
69.12000 93975.148
69.13000 94655.359
69.14000 95375.805
69.15000 96216.852
69.16000 97066.000
69.17000 97644.789
69.18000 98221.469
69.19000 98652.406
69.20000 98438.117
69.21000 97303.242
69.22000 96161.164
69.23000 93763.070
69.24000 90174.977
69.25000 86613.344
69.26000 81729.539
69.27000 76099.047
69.28000 70503.617
69.29000 65811.078
69.30000 61514.816
69.31000 57338.965
69.32000 54696.289
69.33000 52519.250
69.34000 50557.684
69.35000 49102.406
69.36000 47917.238
69.37000 46647.805
69.38000 44966.184
69.39000 43229.391
69.40000 41270.809
69.41000 38575.984
69.42000 35822.598
69.43000 33882.039
69.44000 29061.533
69.45000 25319.258
69.46000 21701.623
69.47000 18281.555
69.48000 14863.973
69.49000 12040.627
69.50000 9850.244
69.51000 7669.258
69.52000 6181.429
69.53000 5193.589
69.54000 4218.019
69.55000 3648.535
69.56000 3276.159
69.57000 2911.645
69.58000 2665.666
69.59000 2459.554
69.60000 2271.219
69.61000 2136.338
69.62000 2027.467
69.63000 1923.436
69.64000 1845.909
69.65000 1772.403
69.66000 1700.828
69.67000 1636.357
69.68000 1572.547
69.69000 1526.151
69.70000 1444.258
69.71000 1379.907
69.72000 1329.625
69.73000 1304.068
69.74000 1278.972
69.75000 1248.679
69.76000 1212.182
69.77000 1175.745
69.78000 1156.123
69.79000 1149.773
69.80000 1143.085
69.81000 1121.410
69.82000 1091.683
69.83000 1062.378
69.84000 1040.724
69.85000 1021.918
69.86000 1004.511
69.87000 987.881
69.88000 973.111
69.89000 958.115
69.90000 941.721
69.91000 925.089
69.92000 910.247
69.93000 902.729
69.94000 895.996
69.95000 890.957
69.96000 867.322
69.97000 848.012
69.98000 832.946
69.99000 826.140
70.00000 819.548
