20.00000 593.045
20.01000 587.955
20.02000 582.138
20.03000 576.665
20.04000 572.573
20.05000 568.624
20.06000 565.686
20.07000 576.119
20.08000 584.832
20.09000 588.960
20.10000 584.360
20.11000 579.550
20.12000 573.830
20.13000 566.928
20.14000 560.027
20.15000 556.155
20.16000 554.888
20.17000 553.729
20.18000 558.898
20.19000 567.747
20.20000 576.122
20.21000 574.411
20.22000 568.641
20.23000 563.249
20.24000 564.465
20.25000 567.233
20.26000 570.446
20.27000 576.671
20.28000 583.461
20.29000 588.342
20.30000 584.731
20.31000 580.105
20.32000 576.568
20.33000 581.728
20.34000 586.271
20.35000 589.523
20.36000 590.054
20.37000 590.498
20.38000 588.815
20.39000 584.051
20.40000 579.263
20.41000 574.732
20.42000 570.449
20.43000 566.188
20.44000 563.818
20.45000 562.669
20.46000 561.475
20.47000 559.101
20.48000 556.202
20.49000 553.464
20.50000 560.445
20.51000 569.600
20.52000 576.212
20.53000 563.292
20.54000 546.281
20.55000 533.497
20.56000 541.713
20.57000 552.791
20.58000 561.482
20.59000 567.081
20.60000 571.357
20.61000 573.625
20.62000 571.216
20.63000 568.616
20.64000 567.695
20.65000 569.477
20.66000 571.294
20.67000 572.239
20.68000 566.755
20.69000 563.078
20.70000 563.936
20.71000 568.048
20.72000 572.016
20.73000 571.074
20.74000 567.714
20.75000 564.509
20.76000 560.186
20.77000 555.819
20.78000 552.137
20.79000 554.464
20.80000 558.193
20.81000 561.327
20.82000 561.143
20.83000 560.447
20.84000 559.888
20.85000 564.273
20.86000 568.206
20.87000 570.439
20.88000 568.290
20.89000 565.919
20.90000 562.719
20.91000 558.039
20.92000 553.330
20.93000 550.748
20.94000 552.197
20.95000 553.191
20.96000 550.977
20.97000 546.197
20.98000 541.645
20.99000 547.633
21.00000 559.363
21.01000 570.653
21.02000 568.021
21.03000 560.621
21.04000 553.841
21.05000 553.317
21.06000 554.420
21.07000 556.298
21.08000 563.035
21.09000 570.616
21.10000 576.845
21.11000 562.574
21.12000 549.008
21.13000 542.469
21.14000 555.943
21.15000 570.647
21.16000 578.774
21.17000 573.920
21.18000 568.718
21.19000 565.720
21.20000 563.747
21.21000 562.370
21.22000 561.260
21.23000 560.390
21.24000 559.584
21.25000 563.098
21.26000 569.219
21.27000 575.157
21.28000 572.303
21.29000 566.119
21.30000 560.541
21.31000 562.094
21.32000 565.703
21.33000 569.036
21.34000 570.407
21.35000 571.397
21.36000 572.227
21.37000 570.931
21.38000 569.631
21.39000 567.285
21.40000 561.640
21.41000 555.753
21.42000 553.038
21.43000 557.248
21.44000 561.701
21.45000 564.386
21.46000 564.649
21.47000 564.818
21.48000 562.008
21.49000 556.203
21.50000 550.475
21.51000 552.672
21.52000 560.180
21.53000 567.515
21.54000 572.460
21.55000 576.139
21.56000 579.708
21.57000 581.754
21.58000 583.315
21.59000 585.187
21.60000 589.570
21.61000 594.500
21.62000 598.716
21.63000 594.818
21.64000 590.557
21.65000 587.831
21.66000 590.472
21.67000 593.574
21.68000 595.881
21.69000 596.268
21.70000 596.569
21.71000 596.759
21.72000 601.267
21.73000 604.576
21.74000 610.140
21.75000 618.248
21.76000 626.374
21.77000 637.749
21.78000 651.545
21.79000 665.105
21.80000 675.456
21.81000 683.879
21.82000 692.067
21.83000 696.373
21.84000 699.306
21.85000 702.303
21.86000 705.890
21.87000 709.620
21.88000 712.868
21.89000 723.411
21.90000 733.417
21.91000 744.679
21.92000 760.805
21.93000 777.418
21.94000 795.071
21.95000 815.503
21.96000 836.085
21.97000 849.545
21.98000 845.240
21.99000 841.789
22.00000 843.853
22.01000 852.871
22.02000 861.911
22.03000 871.346
22.04000 881.109
22.05000 890.754
22.06000 882.502
22.07000 864.598
22.08000 847.233
22.09000 840.682
22.10000 838.361
22.11000 836.096
22.12000 834.421
22.13000 832.905
22.14000 831.564
22.15000 824.751
22.16000 818.002
22.17000 808.467
22.18000 786.909
22.19000 763.968
22.20000 746.173
22.21000 743.574
22.22000 741.972
22.23000 740.885
22.24000 726.441
22.25000 715.373
22.26000 701.184
22.27000 682.609
22.28000 664.008
22.29000 656.906
22.30000 660.516
22.31000 664.098
22.32000 661.361
22.33000 654.784
22.34000 648.300
22.35000 644.158
22.36000 641.028
22.37000 637.583
22.38000 630.224
22.39000 621.694
22.40000 614.025
22.41000 610.223
22.42000 607.581
22.43000 603.495
22.44000 592.461
22.45000 580.515
22.46000 571.677
22.47000 573.000
22.48000 575.113
22.49000 576.595
22.50000 575.633
22.51000 574.834
22.52000 572.036
22.53000 566.117
22.54000 560.161
22.55000 552.397
22.56000 542.739
22.57000 533.126
22.58000 532.244
22.59000 537.380
22.60000 542.378
22.61000 542.944
22.62000 541.391
22.63000 539.861
22.64000 538.666
22.65000 537.582
22.66000 536.593
22.67000 529.670
22.68000 522.341
22.69000 517.650
22.70000 527.172
22.71000 538.811
22.72000 545.708
22.73000 535.413
22.74000 523.556
22.75000 514.972
22.76000 526.072
22.77000 535.315
22.78000 542.300
22.79000 545.373
22.80000 548.377
22.81000 544.461
22.82000 532.423
22.83000 520.399
22.84000 513.643
22.85000 510.983
22.86000 508.482
22.87000 512.704
22.88000 520.484
22.89000 527.870
22.90000 528.310
22.91000 526.203
22.92000 524.256
22.93000 522.931
22.94000 521.883
22.95000 521.179
22.96000 522.557
22.97000 524.285
22.98000 525.583
22.99000 525.152
23.00000 524.539
23.01000 524.083
23.02000 520.945
23.03000 518.380
23.04000 519.930
23.05000 529.369
23.06000 539.002
23.07000 539.937
23.08000 529.471
23.09000 518.961
23.10000 518.709
23.11000 527.321
23.12000 535.898
23.13000 542.412
23.14000 547.717
23.15000 552.544
23.16000 547.058
23.17000 537.391
23.18000 528.353
23.19000 520.372
23.20000 513.394
23.21000 506.859
23.22000 503.347
23.23000 500.406
23.24000 499.181
23.25000 505.653
23.26000 513.054
23.27000 518.725
23.28000 519.759
23.29000 520.319
23.30000 519.802
23.31000 516.999
23.32000 514.121
23.33000 512.364
23.34000 512.241
23.35000 512.133
23.36000 512.737
23.37000 514.033
23.38000 515.284
23.39000 512.527
23.40000 507.162
23.41000 502.119
23.42000 505.763
23.43000 513.303
23.44000 520.430
23.45000 518.959
23.46000 515.158
23.47000 511.559
23.48000 509.522
23.49000 507.816
23.50000 505.967
23.51000 503.403
23.52000 500.741
23.53000 498.649
23.54000 501.842
23.55000 504.746
23.56000 510.549
23.57000 523.154
23.58000 536.042
23.59000 536.349
23.60000 516.273
23.61000 495.916
23.62000 485.291
23.63000 492.616
23.64000 497.575
23.65000 502.350
23.66000 506.992
23.67000 511.545
23.68000 512.983
23.69000 512.877
23.70000 512.775
23.71000 517.529
23.72000 523.494
23.73000 528.449
23.74000 524.448
23.75000 518.339
23.76000 512.492
23.77000 508.111
23.78000 503.958
23.79000 500.616
23.80000 502.450
23.81000 504.342
23.82000 507.511
23.83000 513.993
23.84000 520.646
23.85000 523.181
23.86000 518.320
23.87000 513.312
23.88000 510.554
23.89000 512.902
23.90000 514.513
23.91000 510.931
23.92000 503.165
23.93000 495.570
23.94000 496.138
23.95000 501.186
23.96000 506.048
23.97000 502.058
23.98000 495.152
23.99000 489.409
24.00000 495.552
24.01000 504.806
24.02000 512.344
24.03000 509.045
24.04000 503.846
24.05000 499.568
24.06000 499.212
24.07000 499.276
24.08000 498.358
24.09000 494.626
24.10000 490.718
24.11000 486.971
24.12000 483.545
24.13000 480.128
24.14000 478.153
24.15000 486.760
24.16000 492.835
24.17000 496.708
24.18000 498.597
24.19000 500.424
24.20000 497.973
24.21000 492.919
24.22000 488.014
24.23000 488.376
24.24000 490.819
24.25000 493.327
24.26000 496.610
24.27000 500.119
24.28000 503.065
24.29000 501.993
24.30000 500.130
24.31000 498.566
24.32000 490.212
24.33000 482.536
24.34000 478.546
24.35000 486.259
24.36000 494.839
24.37000 501.271
24.38000 502.980
24.39000 504.521
24.40000 505.453
24.41000 502.528
24.42000 500.415
24.43000 498.858
24.44000 497.865
24.45000 496.852
24.46000 493.740
24.47000 489.210
24.48000 484.783
24.49000 487.698
24.50000 493.762
24.51000 499.447
24.52000 499.839
24.53000 498.528
24.54000 497.056
24.55000 494.276
24.56000 491.210
24.57000 488.583
24.58000 486.452
24.59000 484.714
24.60000 483.612
24.61000 484.748
24.62000 486.078
24.63000 487.630
24.64000 489.719
24.65000 491.832
24.66000 493.164
24.67000 484.281
24.68000 477.731
24.69000 477.385
24.70000 484.091
24.71000 490.787
24.72000 494.123
24.73000 494.935
24.74000 495.732
24.75000 493.440
24.76000 489.686
24.77000 485.952
24.78000 482.551
24.79000 479.270
24.80000 476.524
24.81000 478.760
24.82000 482.216
24.83000 485.228
24.84000 481.056
24.85000 476.491
24.86000 474.161
24.87000 480.565
24.88000 487.852
24.89000 491.307
24.90000 484.461
24.91000 477.046
24.92000 472.183
24.93000 485.688
24.94000 495.924
24.95000 501.932
24.96000 502.568
24.97000 503.178
24.98000 500.058
24.99000 493.810
25.00000 487.635
25.01000 483.981
25.02000 481.814
25.03000 479.666
25.04000 477.878
25.05000 476.231
25.06000 475.143
25.07000 480.067
25.08000 486.626
25.09000 492.438
25.10000 491.735
25.11000 490.096
25.12000 488.304
25.13000 485.842
25.14000 483.303
25.15000 481.806
25.16000 483.408
25.17000 485.216
25.18000 486.445
25.19000 489.083
25.20000 491.085
25.21000 494.676
25.22000 500.516
25.23000 506.371
25.24000 503.441
25.25000 492.259
25.26000 481.162
25.27000 476.238
25.28000 475.226
25.29000 474.118
25.30000 470.576
25.31000 465.973
25.32000 462.095
25.33000 467.327
25.34000 475.303
25.35000 482.483
25.36000 481.494
25.37000 479.162
25.38000 478.338
25.39000 484.828
25.40000 492.288
25.41000 497.583
25.42000 495.747
25.43000 493.351
25.44000 491.666
25.45000 491.322
25.46000 491.101
25.47000 487.850
25.48000 479.832
25.49000 471.755
25.50000 466.143
25.51000 463.133
25.52000 460.136
25.53000 459.785
25.54000 461.273
25.55000 462.816
25.56000 466.133
25.57000 470.303
25.58000 474.370
25.59000 476.904
25.60000 478.926
25.61000 480.772
25.62000 477.540
25.63000 473.643
25.64000 469.966
25.65000 467.486
25.66000 465.187
25.67000 464.937
25.68000 472.174
25.69000 480.099
25.70000 485.848
25.71000 476.939
25.72000 469.545
25.73000 464.114
25.74000 462.104
25.75000 460.156
25.76000 460.061
25.77000 462.156
25.78000 464.251
25.79000 467.620
25.80000 471.962
25.81000 476.156
25.82000 473.931
25.83000 468.284
25.84000 463.315
25.85000 470.456
25.86000 482.070
25.87000 492.810
25.88000 487.368
25.89000 478.790
25.90000 471.748
25.91000 474.080
25.92000 478.002
25.93000 480.744
25.94000 478.698
25.95000 476.143
25.96000 474.234
25.97000 476.099
25.98000 477.726
25.99000 478.610
26.00000 478.056
26.01000 477.465
26.02000 478.158
26.03000 480.546
26.04000 482.941
26.05000 477.130
26.06000 464.181
26.07000 451.425
26.08000 450.536
26.09000 456.653
26.10000 462.777
26.11000 469.065
26.12000 475.421
26.13000 481.368
26.14000 476.402
26.15000 469.091
26.16000 462.723
26.17000 462.853
26.18000 464.220
26.19000 464.927
26.20000 462.658
26.21000 460.025
26.22000 458.005
26.23000 464.959
26.24000 470.956
26.25000 473.320
26.26000 467.921
26.27000 462.264
26.28000 461.167
26.29000 466.775
26.30000 472.441
26.31000 473.409
26.32000 469.776
26.33000 466.116
26.34000 459.858
26.35000 451.898
26.36000 444.421
26.37000 450.228
26.38000 462.034
26.39000 473.202
26.40000 472.445
26.41000 468.322
26.42000 465.024
26.43000 468.184
26.44000 472.718
26.45000 474.229
26.46000 460.478
26.47000 444.608
26.48000 432.114
26.49000 445.030
26.50000 457.072
26.51000 466.514
26.52000 469.813
26.53000 472.852
26.54000 474.954
26.55000 475.524
26.56000 476.072
26.57000 476.360
26.58000 477.420
26.59000 478.099
26.60000 472.135
26.61000 461.333
26.62000 450.765
26.63000 448.584
26.64000 450.592
26.65000 452.510
26.66000 452.559
26.67000 452.002
26.68000 451.637
26.69000 452.991
26.70000 454.753
26.71000 455.818
26.72000 452.947
26.73000 449.458
26.74000 446.646
26.75000 449.955
26.76000 453.124
26.77000 455.741
26.78000 456.916
26.79000 458.015
26.80000 457.834
26.81000 455.336
26.82000 452.790
26.83000 451.383
26.84000 445.604
26.85000 441.625
26.86000 443.320
26.87000 449.623
26.88000 455.830
26.89000 457.300
26.90000 456.153
26.91000 455.047
26.92000 455.004
26.93000 455.345
26.94000 455.387
26.95000 452.343
26.96000 448.484
26.97000 445.026
26.98000 444.118
26.99000 443.661
27.00000 443.284
27.01000 449.989
27.02000 456.158
27.03000 459.515
27.04000 454.744
27.05000 449.461
27.06000 445.228
27.07000 443.099
27.08000 441.029
27.09000 439.828
27.10000 443.009
27.11000 445.259
27.12000 446.533
27.13000 446.921
27.14000 447.291
27.15000 446.433
27.16000 444.823
27.17000 443.259
27.18000 440.574
27.19000 437.574
27.20000 435.191
27.21000 440.233
27.22000 447.448
27.23000 453.352
27.24000 449.808
27.25000 444.393
27.26000 439.837
27.27000 443.542
27.28000 447.511
27.29000 449.650
27.30000 445.933
27.31000 441.777
27.32000 439.434
27.33000 441.108
27.34000 442.929
27.35000 444.033
27.36000 443.601
27.37000 443.281
27.38000 444.154
27.39000 446.246
27.40000 448.293
27.41000 445.240
27.42000 438.718
27.43000 432.340
27.44000 434.208
27.45000 439.699
27.46000 444.582
27.47000 440.843
27.48000 434.308
27.49000 429.061
27.50000 434.383
27.51000 442.045
27.52000 448.615
27.53000 438.536
27.54000 427.982
27.55000 421.378
27.56000 428.777
27.57000 437.408
27.58000 443.256
27.59000 442.288
27.60000 441.008
27.61000 440.199
27.62000 442.794
27.63000 444.716
27.64000 448.450
27.65000 454.259
27.66000 460.047
27.67000 460.660
27.68000 457.355
27.69000 454.104
27.70000 450.623
27.71000 447.138
27.72000 443.616
27.73000 439.453
27.74000 435.060
27.75000 431.143
27.76000 431.710
27.77000 433.381
27.78000 434.840
27.79000 433.539
27.80000 432.039
27.81000 430.836
27.82000 430.805
27.83000 430.893
27.84000 431.569
27.85000 433.841
27.86000 436.202
27.87000 437.754
27.88000 440.013
27.89000 441.689
27.90000 438.377
27.91000 428.677
27.92000 418.972
27.93000 420.094
27.94000 430.365
27.95000 440.519
27.96000 438.217
27.97000 428.999
27.98000 420.357
27.99000 423.588
28.00000 431.531
28.01000 438.704
28.02000 437.507
28.03000 434.019
28.04000 430.923
28.05000 426.967
28.06000 423.401
28.07000 420.748
28.08000 422.090
28.09000 423.902
28.10000 426.123
28.11000 429.574
28.12000 433.108
28.13000 435.517
28.14000 442.471
28.15000 447.774
28.16000 447.869
28.17000 440.536
28.18000 433.150
28.19000 434.163
28.20000 443.134
28.21000 452.037
28.22000 456.771
28.23000 458.819
28.24000 460.830
28.25000 461.877
28.26000 462.502
28.27000 463.191
28.28000 464.692
28.29000 466.440
28.30000 468.015
28.31000 454.244
28.32000 439.386
28.33000 427.030
28.34000 426.906
28.35000 428.419
28.36000 429.996
28.37000 431.790
28.38000 433.600
28.39000 434.876
28.40000 429.658
28.41000 425.507
28.42000 427.040
28.43000 437.579
28.44000 448.232
28.45000 452.105
28.46000 448.759
28.47000 445.426
28.48000 443.540
28.49000 442.687
28.50000 442.005
28.51000 446.956
28.52000 454.642
28.53000 461.424
28.54000 454.594
28.55000 443.187
28.56000 432.764
28.57000 433.195
28.58000 435.794
28.59000 436.967
28.60000 430.335
28.61000 422.519
28.62000 417.989
28.63000 425.555
28.64000 434.244
28.65000 440.561
28.66000 434.195
28.67000 428.817
28.68000 421.682
28.69000 411.461
28.70000 401.183
28.71000 403.860
28.72000 421.993
28.73000 440.119
28.74000 443.447
28.75000 435.167
28.76000 426.983
28.77000 423.065
28.78000 421.437
28.79000 420.310
28.80000 428.289
28.81000 439.653
28.82000 450.172
28.83000 438.694
28.84000 423.317
28.85000 410.339
28.86000 412.130
28.87000 416.445
28.88000 420.013
28.89000 420.526
28.90000 420.712
28.91000 420.850
28.92000 419.319
28.93000 418.046
28.94000 417.520
28.95000 418.448
28.96000 419.414
28.97000 417.552
28.98000 411.928
28.99000 406.288
29.00000 410.691
29.01000 423.911
29.02000 436.942
29.03000 438.039
29.04000 432.038
29.05000 426.222
29.06000 424.514
29.07000 424.497
29.08000 424.481
29.09000 419.609
29.10000 413.924
29.11000 409.712
29.12000 415.757
29.13000 423.768
29.14000 429.604
29.15000 425.527
29.16000 420.230
29.17000 416.157
29.18000 417.882
29.19000 419.575
29.20000 420.548
29.21000 419.973
29.22000 419.346
29.23000 419.906
29.24000 422.226
29.25000 424.562
29.26000 429.594
29.27000 437.288
29.28000 444.829
29.29000 437.579
29.30000 420.565
29.31000 404.173
29.32000 405.208
29.33000 414.168
29.34000 422.651
29.35000 421.900
29.36000 418.534
29.37000 415.252
29.38000 412.630
29.39000 410.150
29.40000 407.595
29.41000 404.666
29.42000 401.684
29.43000 399.332
29.44000 405.656
29.45000 411.313
29.46000 415.849
29.47000 417.718
29.48000 419.472
29.49000 420.069
29.50000 418.763
29.51000 417.428
29.52000 416.727
29.53000 426.468
29.54000 433.051
29.55000 434.779
29.56000 432.942
29.57000 431.029
29.58000 426.324
29.59000 420.214
29.60000 414.374
29.61000 417.843
29.62000 424.089
29.63000 429.396
29.64000 426.221
29.65000 421.018
29.66000 416.324
29.67000 414.525
29.68000 413.186
29.69000 412.104
29.70000 419.123
29.71000 425.473
29.72000 430.873
29.73000 433.773
29.74000 436.541
29.75000 435.046
29.76000 425.780
29.77000 416.350
29.78000 411.121
29.79000 419.684
29.80000 425.615
29.81000 427.719
29.82000 426.692
29.83000 425.731
29.84000 428.089
29.85000 432.295
29.86000 436.350
29.87000 436.448
29.88000 435.106
29.89000 434.079
29.90000 436.354
29.91000 439.506
29.92000 441.464
29.93000 435.744
29.94000 428.656
29.95000 422.806
29.96000 441.557
29.97000 459.290
29.98000 469.562
29.99000 458.117
30.00000 445.285
30.01000 437.442
30.02000 439.661
30.03000 442.168
30.04000 443.626
30.05000 451.564
30.06000 457.169
30.07000 461.262
30.08000 463.969
30.09000 466.565
30.10000 461.100
30.11000 450.659
30.12000 440.514
30.13000 445.333
30.14000 455.974
30.15000 465.900
30.16000 467.138
30.17000 465.815
30.18000 464.824
30.19000 466.253
30.20000 468.165
30.21000 469.776
30.22000 467.130
30.23000 464.464
30.24000 459.524
30.25000 447.259
30.26000 434.438
30.27000 425.231
30.28000 424.087
30.29000 423.241
30.30000 422.726
30.31000 424.060
30.32000 425.028
30.33000 426.807
30.34000 429.423
30.35000 431.985
30.36000 428.113
30.37000 419.831
30.38000 411.729
30.39000 417.135
30.40000 428.433
30.41000 438.715
30.42000 434.432
30.43000 425.392
30.44000 417.552
30.45000 419.657
30.46000 423.980
30.47000 427.691
30.48000 428.635
30.49000 429.091
30.50000 429.010
30.51000 427.010
30.52000 424.839
30.53000 424.769
30.54000 429.880
30.55000 435.230
30.56000 438.624
30.57000 434.519
30.58000 431.449
30.59000 429.956
30.60000 430.286
30.61000 430.634
30.62000 434.567
30.63000 441.236
30.64000 447.799
30.65000 446.515
30.66000 441.307
30.67000 436.490
30.68000 438.371
30.69000 442.672
30.70000 446.818
30.71000 449.474
30.72000 451.760
30.73000 453.757
30.74000 455.722
30.75000 457.400
30.76000 459.945
30.77000 465.927
30.78000 472.264
30.79000 478.233
30.80000 483.198
30.81000 488.105
30.82000 491.341
30.83000 481.208
30.84000 473.508
30.85000 473.909
30.86000 484.766
30.87000 495.655
30.88000 500.878
30.89000 501.275
30.90000 501.667
30.91000 512.786
30.92000 529.697
30.93000 546.177
30.94000 553.626
30.95000 557.464
30.96000 561.469
30.97000 567.301
30.98000 573.636
30.99000 579.265
31.00000 593.724
31.01000 607.686
31.02000 623.510
31.03000 647.552
31.04000 672.568
31.05000 696.818
31.06000 718.758
31.07000 740.541
31.08000 755.423
31.09000 819.188
31.10000 868.041
31.11000 921.635
31.12000 982.042
31.13000 1042.504
31.14000 1107.586
31.15000 1177.081
31.16000 1246.081
31.17000 1317.327
31.18000 1388.849
31.19000 1461.216
31.20000 1555.691
31.21000 1659.937
31.22000 1766.238
31.23000 1899.005
31.24000 2039.866
31.25000 2166.911
31.26000 2273.501
31.27000 2363.364
31.28000 2457.796
31.29000 2574.752
31.30000 2694.749
31.31000 2812.698
31.32000 2923.801
31.33000 3034.353
31.34000 3112.442
31.35000 3170.128
31.36000 3213.298
31.37000 3263.424
31.38000 3324.656
31.39000 3386.031
31.40000 3405.150
31.41000 3378.902
31.42000 3352.745
31.43000 3313.715
31.44000 3265.987
31.45000 3217.522
31.46000 3144.233
31.47000 3058.811
31.48000 2972.592
31.49000 2874.216
31.50000 2771.722
31.51000 2677.982
31.52000 2559.372
31.53000 2448.815
31.54000 2335.305
31.55000 2205.489
31.56000 2073.178
31.57000 1945.516
31.58000 1835.094
31.59000 1726.289
31.60000 1647.016
31.61000 1565.479
31.62000 1502.600
31.63000 1437.089
31.64000 1366.920
31.65000 1296.662
31.66000 1227.056
31.67000 1158.235
31.68000 1089.541
31.69000 1029.342
31.70000 976.132
31.71000 923.260
31.72000 885.663
31.73000 856.328
31.74000 826.991
31.75000 797.616
31.76000 768.227
31.77000 741.001
31.78000 709.359
31.79000 679.868
31.80000 652.878
31.81000 641.412
31.82000 632.621
31.83000 621.746
31.84000 602.280
31.85000 581.882
31.86000 566.585
31.87000 549.825
31.88000 536.665
31.89000 525.495
31.90000 518.223
31.91000 511.053
31.92000 501.772
31.93000 489.659
31.94000 477.536
31.95000 473.688
31.96000 477.175
31.97000 480.544
31.98000 476.314
31.99000 467.531
32.00000 458.981
32.01000 455.734
32.02000 454.683
32.03000 453.698
32.04000 448.855
32.05000 443.441
32.06000 439.092
32.07000 442.219
32.08000 446.791
32.09000 448.154
32.10000 434.783
32.11000 419.582
32.12000 407.871
32.13000 418.142
32.14000 427.536
32.15000 434.063
32.16000 434.375
32.17000 434.473
32.18000 431.517
32.19000 424.002
32.20000 416.444
32.21000 415.734
32.22000 421.845
32.23000 427.892
32.24000 427.411
32.25000 422.589
32.26000 417.821
32.27000 414.578
32.28000 412.033
32.29000 409.622
32.30000 411.945
32.31000 415.466
32.32000 418.042
32.33000 413.081
32.34000 406.491
32.35000 401.524
32.36000 404.882
32.37000 409.417
32.38000 413.000
32.39000 405.342
32.40000 398.426
32.41000 396.830
32.42000 407.986
32.43000 419.696
32.44000 422.014
32.45000 408.770
32.46000 395.291
32.47000 388.172
32.48000 402.115
32.49000 411.552
32.50000 413.195
32.51000 409.070
32.52000 404.997
32.53000 402.850
32.54000 401.679
32.55000 400.559
32.56000 393.556
32.57000 385.113
32.58000 377.947
32.59000 382.443
32.60000 389.749
32.61000 395.293
32.62000 390.700
32.63000 384.487
32.64000 379.462
32.65000 396.302
32.66000 411.764
32.67000 421.260
32.68000 414.943
32.69000 407.779
32.70000 403.275
32.71000 403.657
32.72000 404.144
32.73000 404.415
32.74000 398.197
32.75000 393.895
32.76000 394.242
32.77000 398.428
32.78000 402.604
32.79000 406.346
32.80000 409.845
32.81000 413.220
32.82000 418.439
32.83000 424.025
32.84000 429.589
32.85000 434.918
32.86000 440.184
32.87000 445.578
32.88000 451.806
32.89000 458.184
32.90000 463.456
32.91000 459.251
32.92000 454.893
32.93000 454.037
32.94000 463.449
32.95000 473.526
32.96000 477.340
32.97000 468.431
32.98000 459.151
32.99000 453.733
33.00000 463.696
33.01000 470.774
33.02000 471.911
33.03000 467.559
33.04000 463.138
33.05000 453.466
33.06000 440.529
33.07000 427.951
33.08000 417.203
33.09000 407.729
33.10000 398.122
33.11000 386.866
33.12000 375.121
33.13000 364.509
33.14000 362.216
33.15000 361.598
33.16000 361.077
33.17000 362.415
33.18000 363.735
33.19000 365.199
33.20000 367.132
33.21000 369.101
33.22000 369.727
33.23000 367.337
33.24000 364.833
33.25000 363.305
33.26000 354.328
33.27000 347.848
33.28000 346.315
33.29000 349.920
33.30000 353.516
33.31000 355.907
33.32000 357.467
33.33000 358.993
33.34000 357.457
33.35000 354.586
33.36000 352.046
33.37000 354.329
33.38000 358.198
33.39000 361.079
33.40000 355.704
33.41000 348.473
33.42000 342.256
33.43000 335.524
33.44000 329.762
33.45000 328.161
33.46000 341.535
33.47000 356.256
33.48000 364.886
33.49000 358.384
33.50000 351.170
33.51000 346.581
33.52000 353.995
33.53000 359.531
33.54000 357.878
33.55000 347.853
33.56000 337.846
33.57000 335.159
33.58000 338.101
33.59000 340.996
33.60000 344.319
33.61000 347.756
33.62000 350.859
33.63000 348.164
33.64000 343.356
33.65000 339.363
33.66000 343.189
33.67000 348.972
33.68000 354.031
33.69000 356.507
33.70000 358.259
33.71000 357.354
33.72000 345.822
33.73000 333.184
33.74000 326.313
33.75000 335.288
33.76000 345.174
33.77000 351.709
33.78000 355.476
33.79000 358.206
33.80000 358.640
33.81000 356.086
33.82000 353.520
33.83000 350.852
33.84000 348.097
33.85000 345.372
33.86000 347.821
33.87000 353.157
33.88000 358.160
33.89000 356.072
33.90000 351.130
33.91000 346.137
33.92000 340.576
33.93000 334.857
33.94000 329.770
33.95000 337.206
33.96000 345.695
33.97000 351.835
33.98000 347.521
33.99000 341.958
34.00000 340.422
34.01000 351.129
34.02000 362.680
34.03000 370.592
34.04000 358.255
34.05000 348.530
34.06000 342.241
34.07000 340.928
34.08000 339.656
34.09000 341.605
34.10000 346.656
34.11000 351.673
34.12000 350.105
34.13000 344.376
34.14000 338.638
34.15000 332.639
34.16000 326.525
34.17000 321.048
34.18000 323.870
34.19000 329.248
34.20000 334.104
34.21000 339.954
34.22000 345.277
34.23000 349.518
34.24000 348.375
34.25000 346.500
34.26000 346.111
34.27000 350.733
34.28000 355.761
34.29000 359.322
34.30000 357.910
34.31000 356.683
34.32000 350.418
34.33000 336.050
34.34000 321.572
34.35000 314.428
34.36000 315.222
34.37000 316.015
34.38000 320.025
34.39000 326.282
34.40000 332.370
34.41000 332.607
34.42000 329.962
34.43000 327.756
34.44000 332.322
34.45000 339.197
34.46000 345.491
34.47000 342.267
34.48000 337.420
34.49000 332.755
34.50000 329.102
34.51000 325.605
34.52000 323.080
34.53000 324.183
34.54000 325.631
34.55000 326.688
34.56000 330.116
34.57000 332.850
34.58000 334.201
34.59000 333.086
34.60000 331.921
34.61000 332.335
34.62000 334.662
34.63000 336.989
34.64000 334.155
34.65000 327.223
34.66000 320.433
34.67000 320.240
34.68000 323.641
34.69000 327.038
34.70000 330.364
34.71000 333.664
34.72000 336.723
34.73000 339.828
34.74000 342.633
34.75000 344.535
34.76000 340.780
34.77000 336.042
34.78000 332.047
34.79000 331.138
34.80000 330.567
34.81000 330.138
34.82000 329.490
34.83000 328.973
34.84000 327.984
34.85000 326.063
34.86000 324.116
34.87000 321.712
34.88000 318.689
34.89000 315.663
34.90000 318.389
34.91000 326.248
34.92000 334.096
34.93000 341.173
34.94000 347.785
34.95000 353.910
34.96000 348.866
34.97000 339.161
34.98000 330.058
34.99000 327.291
35.00000 326.436
35.01000 325.862
35.02000 327.282
35.03000 329.091
35.04000 329.473
35.05000 323.256
35.06000 316.211
35.07000 310.773
35.08000 322.406
35.09000 332.618
35.10000 336.351
35.11000 325.935
35.12000 315.022
35.13000 310.608
35.14000 315.964
35.15000 321.417
35.16000 324.150
35.17000 326.250
35.18000 327.643
35.19000 328.236
35.20000 328.293
35.21000 328.305
35.22000 327.049
35.23000 325.206
35.24000 323.460
35.25000 322.391
35.26000 321.606
35.27000 321.359
35.28000 325.442
35.29000 330.468
35.30000 333.825
35.31000 328.547
35.32000 322.037
35.33000 316.886
35.34000 314.609
35.35000 312.978
35.36000 310.551
35.37000 306.199
35.38000 301.763
35.39000 300.166
35.40000 303.309
35.41000 306.525
35.42000 308.231
35.43000 304.243
35.44000 301.550
35.45000 302.854
35.46000 307.140
35.47000 311.409
35.48000 315.011
35.49000 318.274
35.50000 321.397
35.51000 321.608
35.52000 320.844
35.53000 319.871
35.54000 316.962
35.55000 313.584
35.56000 310.982
35.57000 312.887
35.58000 315.518
35.59000 317.650
35.60000 323.873
35.61000 329.275
35.62000 332.843
35.63000 331.516
35.64000 329.923
35.65000 326.263
35.66000 318.780
35.67000 311.212
35.68000 306.986
35.69000 309.710
35.70000 311.608
35.71000 311.917
35.72000 310.906
35.73000 309.889
35.74000 308.527
35.75000 306.971
35.76000 305.468
35.77000 308.921
35.78000 313.998
35.79000 318.783
35.80000 320.455
35.81000 321.287
35.82000 321.448
35.83000 317.222
35.84000 312.200
35.85000 308.042
35.86000 310.470
35.87000 313.099
35.88000 313.629
35.89000 307.959
35.90000 301.884
35.91000 298.875
35.92000 302.140
35.93000 305.592
35.94000 307.615
35.95000 309.077
35.96000 310.104
35.97000 310.640
35.98000 310.718
35.99000 310.782
36.00000 309.711
36.01000 307.930
36.02000 306.196
36.03000 310.866
36.04000 317.944
36.05000 324.267
36.06000 321.189
36.07000 315.298
36.08000 309.694
36.09000 306.211
36.10000 303.158
36.11000 300.578
36.12000 308.600
36.13000 316.471
36.14000 321.229
36.15000 315.803
36.16000 309.586
36.17000 306.018
36.18000 308.448
36.19000 311.107
36.20000 312.735
36.21000 314.988
36.22000 316.606
36.23000 316.429
36.24000 314.372
36.25000 312.330
36.26000 312.266
36.27000 313.578
36.28000 314.863
36.29000 312.199
36.30000 307.824
36.31000 303.680
36.32000 302.934
36.33000 303.314
36.34000 303.011
36.35000 296.941
36.36000 289.564
36.37000 283.214
36.38000 292.203
36.39000 301.754
36.40000 309.139
36.41000 308.672
36.42000 307.492
36.43000 306.233
36.44000 304.780
36.45000 303.317
36.46000 302.384
36.47000 306.217
36.48000 309.066
36.49000 309.877
36.50000 308.292
36.51000 306.710
36.52000 306.613
36.53000 307.667
36.54000 308.705
36.55000 308.061
36.56000 306.574
36.57000 305.474
36.58000 311.208
36.59000 319.447
36.60000 326.641
36.61000 323.695
36.62000 318.193
36.63000 313.373
36.64000 302.969
36.65000 293.239
36.66000 286.967
36.67000 294.626
36.68000 303.751
36.69000 309.201
36.70000 304.480
36.71000 299.167
36.72000 295.645
36.73000 305.084
36.74000 312.291
36.75000 316.099
36.76000 315.452
36.77000 314.787
36.78000 315.568
36.79000 317.602
36.80000 319.614
36.81000 317.794
36.82000 313.817
36.83000 309.978
36.84000 309.111
36.85000 309.448
36.86000 309.708
36.87000 309.102
36.88000 308.253
36.89000 307.497
36.90000 312.264
36.91000 317.313
36.92000 320.675
36.93000 316.476
36.94000 311.365
36.95000 307.936
36.96000 309.662
36.97000 311.747
36.98000 313.179
36.99000 312.946
37.00000 312.731
37.01000 310.504
37.02000 305.340
37.03000 300.151
37.04000 296.449
37.05000 294.191
37.06000 291.948
37.07000 293.462
37.08000 297.360
37.09000 301.235
37.10000 304.478
37.11000 307.438
37.12000 309.989
37.13000 307.138
37.14000 302.610
37.15000 298.518
37.16000 304.675
37.17000 311.995
37.18000 317.354
37.19000 312.893
37.20000 307.081
37.21000 302.779
37.22000 303.596
37.23000 304.835
37.24000 305.715
37.25000 299.503
37.26000 294.554
37.27000 291.910
37.28000 292.998
37.29000 294.138
37.30000 298.607
37.31000 306.708
37.32000 314.782
37.33000 312.089
37.34000 301.704
37.35000 291.658
37.36000 293.515
37.37000 301.275
37.38000 308.633
37.39000 309.680
37.40000 308.559
37.41000 307.531
37.42000 304.932
37.43000 302.288
37.44000 299.844
37.45000 298.531
37.46000 297.394
37.47000 296.727
37.48000 297.831
37.49000 299.105
37.50000 300.038
37.51000 305.184
37.52000 309.323
37.53000 309.041
37.54000 300.818
37.55000 292.435
37.56000 291.032
37.57000 298.154
37.58000 305.286
37.59000 307.652
37.60000 306.185
37.61000 304.675
37.62000 301.144
37.63000 296.504
37.64000 292.062
37.65000 291.380
37.66000 292.127
37.67000 292.820
37.68000 293.606
37.69000 294.336
37.70000 294.960
37.71000 294.908
37.72000 294.737
37.73000 293.979
37.74000 290.758
37.75000 287.265
37.76000 284.635
37.77000 292.450
37.78000 299.074
37.79000 302.643
37.80000 300.135
37.81000 297.461
37.82000 296.169
37.83000 296.760
37.84000 297.363
37.85000 297.667
37.86000 297.701
37.87000 297.691
37.88000 294.650
37.89000 289.765
37.90000 285.143
37.91000 286.653
37.92000 290.739
37.93000 294.576
37.94000 293.892
37.95000 292.072
37.96000 290.906
37.97000 294.414
37.98000 298.841
37.99000 304.188
38.00000 313.828
38.01000 324.012
38.02000 331.887
38.03000 324.011
38.04000 316.835
38.05000 312.078
38.06000 312.637
38.07000 313.387
38.08000 312.272
38.09000 308.335
38.10000 304.368
38.11000 302.372
38.12000 311.492
38.13000 317.521
38.14000 316.541
38.15000 310.830
38.16000 305.349
38.17000 306.677
38.18000 311.168
38.19000 315.429
38.20000 324.574
38.21000 334.458
38.22000 342.726
38.23000 337.860
38.24000 330.111
38.25000 323.796
38.26000 324.961
38.27000 327.203
38.28000 328.980
38.29000 331.327
38.30000 333.255
38.31000 336.340
38.32000 342.237
38.33000 348.261
38.34000 352.570
38.35000 353.998
38.36000 355.380
38.37000 356.116
38.38000 382.830
38.39000 401.012
38.40000 414.094
38.41000 423.344
38.42000 432.609
38.43000 442.479
38.44000 452.660
38.45000 462.410
38.46000 475.651
38.47000 489.159
38.48000 502.570
38.49000 515.075
38.50000 527.359
38.51000 541.649
38.52000 567.677
38.53000 595.612
38.54000 618.279
38.55000 646.473
38.56000 669.913
38.57000 689.221
38.58000 697.418
38.59000 705.001
38.60000 723.758
38.61000 763.329
38.62000 803.370
38.63000 825.812
38.64000 816.455
38.65000 809.916
38.66000 816.017
38.67000 832.716
38.68000 849.313
38.69000 860.411
38.70000 868.379
38.71000 876.075
38.72000 872.489
38.73000 864.919
38.74000 857.176
38.75000 847.573
38.76000 837.465
38.77000 826.490
38.78000 809.789
38.79000 792.043
38.80000 777.328
38.81000 755.822
38.82000 737.404
38.83000 719.920
38.84000 705.216
38.85000 690.696
38.86000 671.196
38.87000 641.431
38.88000 611.356
38.89000 593.679
38.90000 579.846
38.91000 570.110
38.92000 552.043
38.93000 526.150
38.94000 500.399
38.95000 485.881
38.96000 478.454
38.97000 471.226
38.98000 457.766
38.99000 442.364
39.00000 427.811
39.01000 423.934
39.02000 423.276
39.03000 420.989
39.04000 406.531
39.05000 389.582
39.06000 375.244
39.07000 360.695
39.08000 348.495
39.09000 339.688
39.10000 342.059
39.11000 345.310
39.12000 347.050
39.13000 345.348
39.14000 343.512
39.15000 342.384
39.16000 340.358
39.17000 338.898
39.18000 336.107
39.19000 331.909
39.20000 327.697
39.21000 321.629
39.22000 314.259
39.23000 307.040
39.24000 303.251
39.25000 301.198
39.26000 299.152
39.27000 297.225
39.28000 295.337
39.29000 293.818
39.30000 295.434
39.31000 297.767
39.32000 299.777
39.33000 290.560
39.34000 281.315
39.35000 275.916
39.36000 284.570
39.37000 294.515
39.38000 301.340
39.39000 300.299
39.40000 298.876
39.41000 297.966
39.42000 297.486
39.43000 297.142
39.44000 295.448
39.45000 292.156
39.46000 288.872
39.47000 288.427
39.48000 290.198
39.49000 291.942
39.50000 288.670
39.51000 282.900
39.52000 277.401
39.53000 276.757
39.54000 277.907
39.55000 279.297
39.56000 283.043
39.57000 287.387
39.58000 291.197
39.59000 288.111
39.60000 284.457
39.61000 281.249
39.62000 279.855
39.63000 278.653
39.64000 277.536
39.65000 276.653
39.66000 275.784
39.67000 275.207
39.68000 281.496
39.69000 286.274
39.70000 286.486
39.71000 280.666
39.72000 274.818
39.73000 269.799
39.74000 265.504
39.75000 261.252
39.76000 259.951
39.77000 260.383
39.78000 260.859
39.79000 262.291
39.80000 264.114
39.81000 265.781
39.82000 265.682
39.83000 265.084
39.84000 264.552
39.85000 266.612
39.86000 268.832
39.87000 269.566
39.88000 263.579
39.89000 256.773
39.90000 254.509
39.91000 266.255
39.92000 278.991
39.93000 287.757
39.94000 280.659
39.95000 274.936
39.96000 274.497
39.97000 281.826
39.98000 289.224
39.99000 291.025
40.00000 287.345
40.01000 283.687
40.02000 278.737
40.03000 273.024
40.04000 267.421
40.05000 264.864
40.06000 263.684
40.07000 262.503
40.08000 261.330
40.09000 260.158
40.10000 259.098
40.11000 265.998
40.12000 273.563
40.13000 279.231
40.14000 275.319
40.15000 270.078
40.16000 265.820
40.17000 264.921
40.18000 264.302
40.19000 263.862
40.20000 269.427
40.21000 273.858
40.22000 274.124
40.23000 267.591
40.24000 260.961
40.25000 259.173
40.26000 262.714
40.27000 266.245
40.28000 272.185
40.29000 279.814
40.30000 287.084
40.31000 281.513
40.32000 269.528
40.33000 258.163
40.34000 256.624
40.35000 258.486
40.36000 260.194
40.37000 257.213
40.38000 253.565
40.39000 250.327
40.40000 249.403
40.41000 248.843
40.42000 249.737
40.43000 256.148
40.44000 263.093
40.45000 268.185
40.46000 273.163
40.47000 277.003
40.48000 278.654
40.49000 276.347
40.50000 273.957
40.51000 271.736
40.52000 269.723
40.53000 267.712
40.54000 266.311
40.55000 265.409
40.56000 264.572
40.57000 266.936
40.58000 271.069
40.59000 274.923
40.60000 273.407
40.61000 269.834
40.62000 266.516
40.63000 268.001
40.64000 270.484
40.65000 272.508
40.66000 271.611
40.67000 270.198
40.68000 268.281
40.69000 264.237
40.70000 259.955
40.71000 256.725
40.72000 261.170
40.73000 265.031
40.74000 266.439
40.75000 262.933
40.76000 259.289
40.77000 257.891
40.78000 259.575
40.79000 261.277
40.80000 261.773
40.81000 261.172
40.82000 260.584
40.83000 260.807
40.84000 261.527
40.85000 262.161
40.86000 260.751
40.87000 258.476
40.88000 256.338
40.89000 256.974
40.90000 258.296
40.91000 259.870
40.92000 263.265
40.93000 267.021
40.94000 269.055
40.95000 262.998
40.96000 255.907
40.97000 250.414
40.98000 252.091
40.99000 253.850
41.00000 256.429
41.01000 260.823
41.02000 265.282
41.03000 265.399
41.04000 258.884
41.05000 252.298
41.06000 248.970
41.07000 241.241
41.08000 236.132
41.09000 237.966
41.10000 244.525
41.11000 250.953
41.12000 253.455
41.13000 254.120
41.14000 254.751
41.15000 255.152
41.16000 255.452
41.17000 255.897
41.18000 257.524
41.19000 259.413
41.20000 260.108
41.21000 254.529
41.22000 248.040
41.23000 242.886
41.24000 242.052
41.25000 241.686
41.26000 241.078
41.27000 239.876
41.28000 238.646
41.29000 236.418
41.30000 232.501
41.31000 228.556
41.32000 226.449
41.33000 241.473
41.34000 251.710
41.35000 257.685
41.36000 260.435
41.37000 263.057
41.38000 260.653
41.39000 255.646
41.40000 250.847
41.41000 247.332
41.42000 244.481
41.43000 241.716
41.44000 239.761
41.45000 238.005
41.46000 236.984
41.47000 240.300
41.48000 244.326
41.49000 247.598
41.50000 244.372
41.51000 241.198
41.52000 240.844
41.53000 248.129
41.54000 255.841
41.55000 259.473
41.56000 255.450
41.57000 251.250
41.58000 248.887
41.59000 246.123
41.60000 244.205
41.61000 243.672
41.62000 244.310
41.63000 244.991
41.64000 247.986
41.65000 252.309
41.66000 256.486
41.67000 255.117
41.68000 251.750
41.69000 248.370
41.70000 244.860
41.71000 241.315
41.72000 238.322
41.73000 239.006
41.74000 240.367
41.75000 241.497
41.76000 244.332
41.77000 246.841
41.78000 247.915
41.79000 244.685
41.80000 241.166
41.81000 240.440
41.82000 245.511
41.83000 250.761
41.84000 253.857
41.85000 251.614
41.86000 250.001
41.87000 246.389
41.88000 240.882
41.89000 235.445
41.90000 235.725
41.91000 239.640
41.92000 243.452
41.93000 241.882
41.94000 238.135
41.95000 234.534
41.96000 232.785
41.97000 231.598
41.98000 230.647
41.99000 231.472
42.00000 232.663
42.01000 233.672
42.02000 232.850
42.03000 231.957
42.04000 232.307
42.05000 236.786
42.06000 241.593
42.07000 245.503
42.08000 247.353
42.09000 249.121
42.10000 250.210
42.11000 245.591
42.12000 242.226
42.13000 239.705
42.14000 238.084
42.15000 236.472
42.16000 236.029
42.17000 236.411
42.18000 236.787
42.19000 237.655
42.20000 238.721
42.21000 239.833
42.22000 241.637
42.23000 243.674
42.24000 245.436
42.25000 244.835
42.26000 243.691
42.27000 242.703
42.28000 242.429
42.29000 242.288
42.30000 242.855
42.31000 246.022
42.32000 249.432
42.33000 251.444
42.34000 249.911
42.35000 248.203
42.36000 247.107
42.37000 237.607
42.38000 230.568
42.39000 227.898
42.40000 230.440
42.41000 232.983
42.42000 232.628
42.43000 229.992
42.44000 227.395
42.45000 233.329
42.46000 243.537
42.47000 253.101
42.48000 250.983
42.49000 244.518
42.50000 238.944
42.51000 242.188
42.52000 247.689
42.53000 252.520
42.54000 245.699
42.55000 238.124
42.56000 231.383
42.57000 228.057
42.58000 225.098
42.59000 223.086
42.60000 223.734
42.61000 224.542
42.62000 225.080
42.63000 229.053
42.64000 232.059
42.65000 236.560
42.66000 243.052
42.67000 249.550
42.68000 252.249
42.69000 251.606
42.70000 250.970
42.71000 250.302
42.72000 249.630
42.73000 248.835
42.74000 245.297
42.75000 240.632
42.76000 236.111
42.77000 233.258
42.78000 230.880
42.79000 228.757
42.80000 233.530
42.81000 238.835
42.82000 243.157
42.83000 243.002
42.84000 242.296
42.85000 240.876
42.86000 237.240
42.87000 233.444
42.88000 230.826
42.89000 231.503
42.90000 232.096
42.91000 232.585
42.92000 232.921
42.93000 233.254
42.94000 234.118
42.95000 235.504
42.96000 236.882
42.97000 238.760
42.98000 240.938
42.99000 242.998
43.00000 241.743
43.01000 238.980
43.02000 236.455
43.03000 237.127
43.04000 238.807
43.05000 240.328
43.06000 238.447
43.07000 236.146
43.08000 234.521
43.09000 236.339
43.10000 238.639
43.11000 240.722
43.12000 242.061
43.13000 243.336
43.14000 244.246
43.15000 245.742
43.16000 246.901
43.17000 244.249
43.18000 235.326
43.19000 226.312
43.20000 223.301
43.21000 226.949
43.22000 230.589
43.23000 232.049
43.24000 231.909
43.25000 231.771
43.26000 231.714
43.27000 231.698
43.28000 231.655
43.29000 231.193
43.30000 230.585
43.31000 230.027
43.32000 232.482
43.33000 235.316
43.34000 237.334
43.35000 234.703
43.36000 231.335
43.37000 229.089
43.38000 231.130
43.39000 233.591
43.40000 235.399
43.41000 231.932
43.42000 229.035
43.43000 226.719
43.44000 225.463
43.45000 224.228
43.46000 223.588
43.47000 223.684
43.48000 223.783
43.49000 223.014
43.50000 221.542
43.51000 220.195
43.52000 225.104
43.53000 233.498
43.54000 241.664
43.55000 245.396
43.56000 247.418
43.57000 249.298
43.58000 241.464
43.59000 232.063
43.60000 224.520
43.61000 228.912
43.62000 235.431
43.63000 239.021
43.64000 230.163
43.65000 219.901
43.66000 212.144
43.67000 215.494
43.68000 218.677
43.69000 220.557
43.70000 219.810
43.71000 218.988
43.72000 217.684
43.73000 215.714
43.74000 213.739
43.75000 214.495
43.76000 217.750
43.77000 221.061
43.78000 228.419
43.79000 238.275
43.80000 247.526
43.81000 242.183
43.82000 230.618
43.83000 219.743
43.84000 222.879
43.85000 229.515
43.86000 235.391
43.87000 235.732
43.88000 234.969
43.89000 233.553
43.90000 229.052
43.91000 224.152
43.92000 220.349
43.93000 223.393
43.94000 226.227
43.95000 229.951
43.96000 235.661
43.97000 241.444
43.98000 242.496
43.99000 236.271
44.00000 229.966
44.01000 226.766
44.02000 236.068
44.03000 242.244
44.04000 241.892
44.05000 237.065
44.06000 232.270
44.07000 228.479
44.08000 225.160
44.09000 222.007
44.10000 225.973
44.11000 231.785
44.12000 236.956
44.13000 236.819
44.14000 235.499
44.15000 235.268
44.16000 240.811
44.17000 247.199
44.18000 252.281
44.19000 252.872
44.20000 253.026
44.21000 251.271
44.22000 244.806
44.23000 238.123
44.24000 235.669
44.25000 240.431
44.26000 245.314
44.27000 247.933
44.28000 247.991
44.29000 248.023
44.30000 246.868
44.31000 244.806
44.32000 242.753
44.33000 241.009
44.34000 239.427
44.35000 237.909
44.36000 235.391
44.37000 232.700
44.38000 230.307
44.39000 230.739
44.40000 231.873
44.41000 233.915
44.42000 241.362
44.43000 249.702
44.44000 256.491
44.45000 252.971
44.46000 249.227
44.47000 247.445
44.48000 251.014
44.49000 254.886
44.50000 257.378
44.51000 257.263
44.52000 257.086
44.53000 256.987
44.54000 257.635
44.55000 258.087
44.56000 258.103
44.57000 257.747
44.58000 257.391
44.59000 257.073
44.60000 256.777
44.61000 256.491
44.62000 262.025
44.63000 269.444
44.64000 276.229
44.65000 276.021
44.66000 273.884
44.67000 273.059
44.68000 281.043
44.69000 290.663
44.70000 298.663
44.71000 300.867
44.72000 302.123
44.73000 305.976
44.74000 317.667
44.75000 329.891
44.76000 337.771
44.77000 336.564
44.78000 335.071
44.79000 334.188
44.80000 346.738
44.81000 355.683
44.82000 368.915
44.83000 386.240
44.84000 403.412
44.85000 407.546
44.86000 403.327
44.87000 399.217
44.88000 410.489
44.89000 427.722
44.90000 444.067
44.91000 448.973
44.92000 450.380
44.93000 452.724
44.94000 462.201
44.95000 473.160
44.96000 482.458
44.97000 477.659
44.98000 472.039
44.99000 467.901
45.00000 468.715
45.01000 469.928
45.02000 470.217
45.03000 468.371
45.04000 466.439
45.05000 465.245
45.06000 486.189
45.07000 501.442
45.08000 504.508
45.09000 494.487
45.10000 484.506
45.11000 480.676
45.12000 481.228
45.13000 481.770
45.14000 474.929
45.15000 464.868
45.16000 455.358
45.17000 454.246
45.18000 455.978
45.19000 456.572
45.20000 447.270
45.21000 435.674
45.22000 425.652
45.23000 425.879
45.24000 427.404
45.25000 424.929
45.26000 407.618
45.27000 388.915
45.28000 373.572
45.29000 366.820
45.30000 360.498
45.31000 356.431
45.32000 355.604
45.33000 355.046
45.34000 353.337
45.35000 350.243
45.36000 347.138
45.37000 341.533
45.38000 333.945
45.39000 326.464
45.40000 322.658
45.41000 320.893
45.42000 319.000
45.43000 314.739
45.44000 309.592
45.45000 304.547
45.46000 300.523
45.47000 296.764
45.48000 293.459
45.49000 294.416
45.50000 295.873
45.51000 296.313
45.52000 292.567
45.53000 288.367
45.54000 285.809
45.55000 287.894
45.56000 290.261
45.57000 291.842
45.58000 282.416
45.59000 275.217
45.60000 270.408
45.61000 268.805
45.62000 267.219
45.63000 265.478
45.64000 263.599
45.65000 261.738
45.66000 262.276
45.67000 264.212
45.68000 265.788
45.69000 259.260
45.70000 249.373
45.71000 240.536
45.72000 243.896
45.73000 250.748
45.74000 256.869
45.75000 254.756
45.76000 251.527
45.77000 249.629
45.78000 253.837
45.79000 258.803
45.80000 261.619
45.81000 257.704
45.82000 253.302
45.83000 250.257
45.84000 246.816
45.85000 244.218
45.86000 240.007
45.87000 233.388
45.88000 226.745
45.89000 226.359
45.90000 232.204
45.91000 238.013
45.92000 234.788
45.93000 225.679
45.94000 216.907
45.95000 217.765
45.96000 223.034
45.97000 228.009
45.98000 228.950
45.99000 228.611
46.00000 228.304
46.01000 225.869
46.02000 223.315
46.03000 220.519
46.04000 216.473
46.05000 212.251
46.06000 209.486
46.07000 211.780
46.08000 214.504
46.09000 216.451
46.10000 217.245
46.11000 217.814
46.12000 217.430
46.13000 215.468
46.14000 213.483
46.15000 210.126
46.16000 205.234
46.17000 200.357
46.18000 202.747
46.19000 210.456
46.20000 218.023
46.21000 220.316
46.22000 219.936
46.23000 219.424
46.24000 216.755
46.25000 213.329
46.26000 210.181
46.27000 205.380
46.28000 200.740
46.29000 197.085
46.30000 199.103
46.31000 202.028
46.32000 204.390
46.33000 204.586
46.34000 204.567
46.35000 204.553
46.36000 208.506
46.37000 211.730
46.38000 213.928
46.39000 214.241
46.40000 214.514
46.41000 212.675
46.42000 208.195
46.43000 203.712
46.44000 205.152
46.45000 211.459
46.46000 217.657
46.47000 218.282
46.48000 215.781
46.49000 213.287
46.50000 210.924
46.51000 208.612
46.52000 206.462
46.53000 206.972
46.54000 208.077
46.55000 209.014
46.56000 208.864
46.57000 208.518
46.58000 208.558
46.59000 210.248
46.60000 212.126
46.61000 213.548
46.62000 210.168
46.63000 207.270
46.64000 205.039
46.65000 204.163
46.66000 203.326
46.67000 202.805
46.68000 202.724
46.69000 202.645
46.70000 203.154
46.71000 204.205
46.72000 205.237
46.73000 204.810
46.74000 203.476
46.75000 202.254
46.76000 203.777
46.77000 206.479
46.78000 209.022
46.79000 206.901
46.80000 203.696
46.81000 201.324
46.82000 205.062
46.83000 210.030
46.84000 213.902
46.85000 212.536
46.86000 210.489
46.87000 208.897
46.88000 210.334
46.89000 211.663
46.90000 213.044
46.91000 214.544
46.92000 216.049
46.93000 214.362
46.94000 207.730
46.95000 201.043
46.96000 197.635
46.97000 191.790
46.98000 187.918
46.99000 190.048
47.00000 196.323
47.01000 202.487
47.02000 205.155
47.03000 206.164
47.04000 207.123
47.05000 204.148
47.06000 200.200
47.07000 197.124
47.08000 201.334
47.09000 207.182
47.10000 211.639
47.11000 208.663
47.12000 204.588
47.13000 201.341
47.14000 197.598
47.15000 194.543
47.16000 191.905
47.17000 190.302
47.18000 188.748
47.19000 187.531
47.20000 186.896
47.21000 186.271
47.22000 185.934
47.23000 193.491
47.24000 198.640
47.25000 197.958
47.26000 192.792
47.27000 187.692
47.28000 185.332
47.29000 184.413
47.30000 183.531
47.31000 184.890
47.32000 186.924
47.33000 188.794
47.34000 189.094
47.35000 189.001
47.36000 188.619
47.37000 186.512
47.38000 184.116
47.39000 182.163
47.40000 187.951
47.41000 193.343
47.42000 196.842
47.43000 195.139
47.44000 193.136
47.45000 190.939
47.46000 188.369
47.47000 185.790
47.48000 184.329
47.49000 181.641
47.50000 179.774
47.51000 182.565
47.52000 189.357
47.53000 196.035
47.54000 196.068
47.55000 192.235
47.56000 188.525
47.57000 185.345
47.58000 182.541
47.59000 180.500
47.60000 186.953
47.61000 195.766
47.62000 203.200
47.63000 201.299
47.64000 197.650
47.65000 194.610
47.66000 193.412
47.67000 192.602
47.68000 192.538
47.69000 194.746
47.70000 197.111
47.71000 197.890
47.72000 195.331
47.73000 192.666
47.74000 191.084
47.75000 192.065
47.76000 192.774
47.77000 193.020
47.78000 192.821
47.79000 192.614
47.80000 191.802
47.81000 190.600
47.82000 189.427
47.83000 188.003
47.84000 186.537
47.85000 185.010
47.86000 182.696
47.87000 180.140
47.88000 177.814
47.89000 177.248
47.90000 177.052
47.91000 176.886
47.92000 183.641
47.93000 190.103
47.94000 195.054
47.95000 194.918
47.96000 194.369
47.97000 194.101
47.98000 194.489
47.99000 194.904
48.00000 195.161
48.01000 195.394
48.02000 195.561
48.03000 194.751
48.04000 192.881
48.05000 191.017
48.06000 190.041
48.07000 189.701
48.08000 189.369
48.09000 190.315
48.10000 191.834
48.11000 192.962
48.12000 188.064
48.13000 181.109
48.14000 174.756
48.15000 173.694
48.16000 173.869
48.17000 174.020
48.18000 179.236
48.19000 184.334
48.20000 188.680
48.21000 190.214
48.22000 191.481
48.23000 192.753
48.24000 194.039
48.25000 195.326
48.26000 196.156
48.27000 189.864
48.28000 185.165
48.29000 182.507
48.30000 182.323
48.31000 182.140
48.32000 180.603
48.33000 177.984
48.34000 175.401
48.35000 178.278
48.36000 183.965
48.37000 189.262
48.38000 187.265
48.39000 182.514
48.40000 178.044
48.41000 176.406
48.42000 175.505
48.43000 174.711
48.44000 180.497
48.45000 186.464
48.46000 191.323
48.47000 191.578
48.48000 191.329
48.49000 189.913
48.50000 185.173
48.51000 180.229
48.52000 176.918
48.53000 178.539
48.54000 179.839
48.55000 181.719
48.56000 184.383
48.57000 187.050
48.58000 188.555
48.59000 189.019
48.60000 189.480
48.61000 189.755
48.62000 189.916
48.63000 190.066
48.64000 189.968
48.65000 189.768
48.66000 189.382
48.67000 186.824
48.68000 183.639
48.69000 180.791
48.70000 178.170
48.71000 175.922
48.72000 174.941
48.73000 179.822
48.74000 185.438
48.75000 188.138
48.76000 181.641
48.77000 174.470
48.78000 169.498
48.79000 170.384
48.80000 171.206
48.81000 170.432
48.82000 167.257
48.83000 164.058
48.84000 167.387
48.85000 177.274
48.86000 187.105
48.87000 190.536
48.88000 189.690
48.89000 188.837
48.90000 187.792
48.91000 186.659
48.92000 185.562
48.93000 184.971
48.94000 184.542
48.95000 184.152
48.96000 186.389
48.97000 188.868
48.98000 189.963
48.99000 183.901
49.00000 176.818
49.01000 171.769
49.02000 173.826
49.03000 176.495
49.04000 178.406
49.05000 180.184
49.06000 181.537
49.07000 182.356
49.08000 182.283
49.09000 182.197
49.10000 183.478
49.11000 186.300
49.12000 189.115
49.13000 190.205
49.14000 190.010
49.15000 189.758
49.16000 187.351
49.17000 183.843
49.18000 180.468
49.19000 179.281
49.20000 178.867
49.21000 178.487
49.22000 180.181
49.23000 182.145
49.24000 183.676
49.25000 182.697
49.26000 181.314
49.27000 180.733
49.28000 183.260
49.29000 186.098
49.30000 188.192
49.31000 186.126
49.32000 184.350
49.33000 183.540
49.34000 184.514
49.35000 185.529
49.36000 188.190
49.37000 192.927
49.38000 197.665
49.39000 197.803
49.40000 194.123
49.41000 190.396
49.42000 184.208
49.43000 176.630
49.44000 169.398
49.45000 169.091
49.46000 171.494
49.47000 173.731
49.48000 171.471
49.49000 168.330
49.50000 166.536
49.51000 173.545
49.52000 182.149
49.53000 188.471
49.54000 184.943
49.55000 180.280
49.56000 176.743
49.57000 179.310
49.58000 181.643
49.59000 183.514
49.60000 184.443
49.61000 185.344
49.62000 183.614
49.63000 178.186
49.64000 172.734
49.65000 170.824
49.66000 172.214
49.67000 173.616
49.68000 175.983
49.69000 178.954
49.70000 181.808
49.71000 181.771
49.72000 180.482
49.73000 179.269
49.74000 180.240
49.75000 181.727
49.76000 183.132
49.77000 183.928
49.78000 184.600
49.79000 184.795
49.80000 182.694
49.81000 180.290
49.82000 178.418
49.83000 176.524
49.84000 175.014
49.85000 174.508
49.86000 176.272
49.87000 178.123
49.88000 177.270
49.89000 172.192
49.90000 167.066
49.91000 164.443
49.92000 162.130
49.93000 160.620
49.94000 164.719
49.95000 172.723
49.96000 180.428
49.97000 178.648
49.98000 172.330
49.99000 166.319
50.00000 167.834
50.01000 171.544
50.02000 175.299
50.03000 179.431
50.04000 183.648
50.05000 187.634
50.06000 190.377
50.07000 192.935
50.08000 194.977
50.09000 188.352
50.10000 182.366
50.11000 177.549
50.12000 175.658
50.13000 173.906
50.14000 175.582
50.15000 183.193
50.16000 190.910
50.17000 195.081
50.18000 183.766
50.19000 176.044
50.20000 178.177
50.21000 187.949
50.22000 197.451
50.23000 195.495
50.24000 187.475
50.25000 179.774
50.26000 178.894
50.27000 180.411
50.28000 182.564
50.29000 190.883
50.30000 200.758
50.31000 209.212
50.32000 209.064
50.33000 207.471
50.34000 206.170
50.35000 204.144
50.36000 202.424
50.37000 201.899
50.38000 204.683
50.39000 207.660
50.40000 209.573
50.41000 209.448
50.42000 209.272
50.43000 209.172
50.44000 213.385
50.45000 216.332
50.46000 218.909
50.47000 221.163
50.48000 223.373
50.49000 222.869
50.50000 220.774
50.51000 218.746
50.52000 225.492
50.53000 235.233
50.54000 244.532
50.55000 248.855
50.56000 251.784
50.57000 254.210
50.58000 253.196
50.59000 251.533
50.60000 250.146
50.61000 251.832
50.62000 253.538
50.63000 255.464
50.64000 258.061
50.65000 260.705
50.66000 263.145
50.67000 265.150
50.68000 267.141
50.69000 268.326
50.70000 276.918
50.71000 283.049
50.72000 284.716
50.73000 282.047
50.74000 279.408
50.75000 279.480
50.76000 281.317
50.77000 283.108
50.78000 284.584
50.79000 285.860
50.80000 286.769
50.81000 282.830
50.82000 277.386
50.83000 271.751
50.84000 264.631
50.85000 257.197
50.86000 250.873
50.87000 251.424
50.88000 252.680
50.89000 252.805
50.90000 249.089
50.91000 245.057
50.92000 241.660
50.93000 239.749
50.94000 237.900
50.95000 236.751
50.96000 232.517
50.97000 229.438
50.98000 227.415
50.99000 226.543
51.00000 225.647
51.01000 220.706
51.02000 212.841
51.03000 205.123
51.04000 204.037
51.05000 206.161
51.06000 208.039
51.07000 206.078
51.08000 202.797
51.09000 199.595
51.10000 197.091
51.11000 194.752
51.12000 192.726
51.13000 189.822
51.14000 187.236
51.15000 186.035
51.16000 190.051
51.17000 194.568
51.18000 196.708
51.19000 192.681
51.20000 188.337
51.21000 185.526
51.22000 191.726
51.23000 196.393
51.24000 196.536
51.25000 191.151
51.26000 185.765
51.27000 185.108
51.28000 188.262
51.29000 191.374
51.30000 189.145
51.31000 184.124
51.32000 179.306
51.33000 178.307
51.34000 178.759
51.35000 179.044
51.36000 177.609
51.37000 175.725
51.38000 174.064
51.39000 175.268
51.40000 176.739
51.41000 177.386
51.42000 174.587
51.43000 171.408
51.44000 169.305
51.45000 170.294
51.46000 171.474
51.47000 172.267
51.48000 172.233
51.49000 172.190
51.50000 172.550
51.51000 173.460
51.52000 174.373
51.53000 176.228
51.54000 178.933
51.55000 181.613
51.56000 182.461
51.57000 182.201
51.58000 181.773
51.59000 177.451
51.60000 171.492
51.61000 165.885
51.62000 164.463
51.63000 164.258
51.64000 164.073
51.65000 168.598
51.66000 173.355
51.67000 176.569
51.68000 172.588
51.69000 167.697
51.70000 164.548
51.71000 166.929
51.72000 169.721
51.73000 171.661
51.74000 174.549
51.75000 176.751
51.76000 176.040
51.77000 170.914
51.78000 165.742
51.79000 162.100
51.80000 160.008
51.81000 157.927
51.82000 158.093
51.83000 159.755
51.84000 161.518
51.85000 166.283
51.86000 172.444
51.87000 178.000
51.88000 175.076
51.89000 169.423
51.90000 164.288
51.91000 165.664
51.92000 168.144
51.93000 169.454
51.94000 164.673
51.95000 159.015
51.96000 155.068
51.97000 157.147
51.98000 159.750
51.99000 161.618
52.00000 165.691
52.01000 168.881
52.02000 169.859
52.03000 167.116
52.04000 164.314
52.05000 164.904
52.06000 169.350
52.07000 173.788
52.08000 174.430
52.09000 172.234
52.10000 170.152
52.11000 172.493
52.12000 177.107
52.13000 181.197
52.14000 176.516
52.15000 168.709
52.16000 161.523
52.17000 157.953
52.18000 155.553
52.19000 153.737
52.20000 155.345
52.21000 157.508
52.22000 159.186
52.23000 158.968
52.24000 158.559
52.25000 158.256
52.26000 161.988
52.27000 165.055
52.28000 166.204
52.29000 163.776
52.30000 161.267
52.31000 162.367
52.32000 168.053
52.33000 173.749
52.34000 173.289
52.35000 167.682
52.36000 162.160
52.37000 161.223
52.38000 162.896
52.39000 164.538
52.40000 165.538
52.41000 166.285
52.42000 166.981
52.43000 165.973
52.44000 164.641
52.45000 163.465
52.46000 163.317
52.47000 163.357
52.48000 163.060
52.49000 161.298
52.50000 159.365
52.51000 157.896
52.52000 159.389
52.53000 160.718
52.54000 164.433
52.55000 173.063
52.56000 181.843
52.57000 184.834
52.58000 179.630
52.59000 174.368
52.60000 172.523
52.61000 173.890
52.62000 175.196
52.63000 171.681
52.64000 165.122
52.65000 158.881
52.66000 160.668
52.67000 165.953
52.68000 170.934
52.69000 171.799
52.70000 171.454
52.71000 170.711
52.72000 166.994
52.73000 162.668
52.74000 158.979
52.75000 158.375
52.76000 158.181
52.77000 158.029
52.78000 160.041
52.79000 161.781
52.80000 162.670
52.81000 161.618
52.82000 160.490
52.83000 159.601
52.84000 159.086
52.85000 158.576
52.86000 158.314
52.87000 153.126
52.88000 149.677
52.89000 151.732
52.90000 157.647
52.91000 163.467
52.92000 166.184
52.93000 167.408
52.94000 168.572
52.95000 166.369
52.96000 163.287
52.97000 161.120
52.98000 166.753
52.99000 174.166
53.00000 179.355
53.01000 172.461
53.02000 163.751
53.03000 156.787
53.04000 160.119
53.05000 163.576
53.06000 165.815
53.07000 164.981
53.08000 163.997
53.09000 162.645
53.10000 160.648
53.11000 158.639
53.12000 157.549
53.13000 166.205
53.14000 172.134
53.15000 174.111
53.16000 173.002
53.17000 171.921
53.18000 172.056
53.19000 172.839
53.20000 173.591
53.21000 174.293
53.22000 174.932
53.23000 175.417
53.24000 174.388
53.25000 172.974
53.26000 171.753
53.27000 171.708
53.28000 171.863
53.29000 171.989
53.30000 171.212
53.31000 170.498
53.32000 170.384
53.33000 171.945
53.34000 173.606
53.35000 173.860
53.36000 171.399
53.37000 168.869
53.38000 167.426
53.39000 164.036
53.40000 161.666
53.41000 160.505
53.42000 160.399
53.43000 160.318
53.44000 161.840
53.45000 164.307
53.46000 166.696
53.47000 164.979
53.48000 161.768
53.49000 159.134
53.50000 163.070
53.51000 168.860
53.52000 173.308
53.53000 168.513
53.54000 161.958
53.55000 156.483
53.56000 161.266
53.57000 166.275
53.58000 169.214
53.59000 165.771
53.60000 161.877
53.61000 159.535
53.62000 160.510
53.63000 161.595
53.64000 162.243
53.65000 161.010
53.66000 160.123
53.67000 155.622
53.68000 147.580
53.69000 139.635
53.70000 140.814
53.71000 147.971
53.72000 154.953
53.73000 157.833
53.74000 158.814
53.75000 159.820
53.76000 161.166
53.77000 162.617
53.78000 163.550
53.79000 160.419
53.80000 156.424
53.81000 153.020
53.82000 156.903
53.83000 161.018
53.84000 165.125
53.85000 169.202
53.86000 173.276
53.87000 174.615
53.88000 169.487
53.89000 164.087
53.90000 160.720
53.91000 161.359
53.92000 161.861
53.93000 161.767
53.94000 161.017
53.95000 160.270
53.96000 160.078
53.97000 160.291
53.98000 160.500
53.99000 162.355
54.00000 164.937
54.01000 167.196
54.02000 164.324
54.03000 159.675
54.04000 155.331
54.05000 153.716
54.06000 152.750
54.07000 151.911
54.08000 153.949
54.09000 156.069
54.10000 156.911
54.11000 152.908
54.12000 148.434
54.13000 146.772
54.14000 152.453
54.15000 158.517
54.16000 162.450
54.17000 155.359
54.18000 150.000
54.19000 148.127
54.20000 150.544
54.21000 152.972
54.22000 155.174
54.23000 157.190
54.24000 159.181
54.25000 158.643
54.26000 156.761
54.27000 154.959
54.28000 154.708
54.29000 155.050
54.30000 155.275
54.31000 154.284
54.32000 152.971
54.33000 151.813
54.34000 151.858
54.35000 152.082
54.36000 152.449
54.37000 153.423
54.38000 154.465
54.39000 157.145
54.40000 164.562
54.41000 172.277
54.42000 177.470
54.43000 170.801
54.44000 165.596
54.45000 163.013
54.46000 164.029
54.47000 165.066
54.48000 165.207
54.49000 164.534
54.50000 163.867
54.51000 163.929
54.52000 164.428
54.53000 165.061
54.54000 168.863
54.55000 174.006
54.56000 178.398
54.57000 173.762
54.58000 166.484
54.59000 159.960
54.60000 160.542
54.61000 162.281
54.62000 164.227
54.63000 167.151
54.64000 170.198
54.65000 171.176
54.66000 165.530
54.67000 159.386
54.68000 155.106
54.69000 157.209
54.70000 158.970
54.71000 160.282
54.72000 160.906
54.73000 161.524
54.74000 162.169
54.75000 162.844
54.76000 163.516
54.77000 165.898
54.78000 169.400
54.79000 172.685
54.80000 169.467
54.81000 163.203
54.82000 157.522
54.83000 160.106
54.84000 165.371
54.85000 170.158
54.86000 167.630
54.87000 163.963
54.88000 161.695
54.89000 166.780
54.90000 172.933
54.91000 176.001
54.92000 168.129
54.93000 159.294
54.94000 152.941
54.95000 159.486
54.96000 164.947
54.97000 168.011
54.98000 167.016
54.99000 165.954
55.00000 166.122
55.01000 167.698
55.02000 169.272
55.03000 168.879
55.04000 167.011
55.05000 165.249
55.06000 167.733
55.07000 172.416
55.08000 176.735
55.09000 174.885
55.10000 170.820
55.11000 167.075
55.12000 166.291
55.13000 166.243
55.14000 166.186
55.15000 166.076
55.16000 165.956
55.17000 166.507
55.18000 169.699
55.19000 173.160
55.20000 175.724
55.21000 172.825
55.22000 170.338
55.23000 168.583
55.24000 168.204
55.25000 167.858
55.26000 170.609
55.27000 177.330
55.28000 184.058
55.29000 185.801
55.30000 183.335
55.31000 180.969
55.32000 184.060
55.33000 190.281
55.34000 196.292
55.35000 197.967
55.36000 197.921
55.37000 197.879
55.38000 196.161
55.39000 194.190
55.40000 192.706
55.41000 194.467
55.42000 196.826
55.43000 199.616
55.44000 204.297
55.45000 209.200
55.46000 212.935
55.47000 214.064
55.48000 214.814
55.49000 217.629
55.50000 224.731
55.51000 231.965
55.52000 237.107
55.53000 239.264
55.54000 241.398
55.55000 245.068
55.56000 250.190
55.57000 255.268
55.58000 256.634
55.59000 255.640
55.60000 255.101
55.61000 266.292
55.62000 282.631
55.63000 298.041
55.64000 305.991
55.65000 311.200
55.66000 316.999
55.67000 327.254
55.68000 338.427
55.69000 348.630
55.70000 354.090
55.71000 358.915
55.72000 362.687
55.73000 383.647
55.74000 401.467
55.75000 417.114
55.76000 427.772
55.77000 438.231
55.78000 448.589
55.79000 458.786
55.80000 468.980
55.81000 474.239
55.82000 497.803
55.83000 513.691
55.84000 530.974
55.85000 549.243
55.86000 567.096
55.87000 571.189
55.88000 568.603
55.89000 566.139
55.90000 572.304
55.91000 580.707
55.92000 588.030
55.93000 586.058
55.94000 581.947
55.95000 578.455
55.96000 578.353
55.97000 578.765
55.98000 579.095
55.99000 578.462
56.00000 577.876
56.01000 575.219
56.02000 567.299
56.03000 559.120
56.04000 549.589
56.05000 537.684
56.06000 525.734
56.07000 519.228
56.08000 504.680
56.09000 494.680
56.10000 482.982
56.11000 469.947
56.12000 457.053
56.13000 450.457
56.14000 447.243
56.15000 444.153
56.16000 429.708
56.17000 412.217
56.18000 395.386
56.19000 385.104
56.20000 376.498
56.21000 367.716
56.22000 357.850
56.23000 347.798
56.24000 339.563
56.25000 317.774
56.26000 298.716
56.27000 286.269
56.28000 292.386
56.29000 299.614
56.30000 298.741
56.31000 282.105
56.32000 265.063
56.33000 255.310
56.34000 256.199
56.35000 256.852
56.36000 252.410
56.37000 243.484
56.38000 234.638
56.39000 230.834
56.40000 230.030
56.41000 229.250
56.42000 220.781
56.43000 209.768
56.44000 199.557
56.45000 198.570
56.46000 200.204
56.47000 202.053
56.48000 205.394
56.49000 209.022
56.50000 212.058
56.51000 205.399
56.52000 198.877
56.53000 194.409
56.54000 196.328
56.55000 198.704
56.56000 199.344
56.57000 196.247
56.58000 193.024
56.59000 191.093
56.60000 189.148
56.61000 187.766
56.62000 188.040
56.63000 189.950
56.64000 191.802
56.65000 188.147
56.66000 180.854
56.67000 173.736
56.68000 170.859
56.69000 169.952
56.70000 169.411
56.71000 173.795
56.72000 179.731
56.73000 184.497
56.74000 180.019
56.75000 173.558
56.76000 168.047
56.77000 166.643
56.78000 165.946
56.79000 165.240
56.80000 164.500
56.81000 163.758
56.82000 162.858
56.83000 161.585
56.84000 160.296
56.85000 159.489
56.86000 158.961
56.87000 158.583
56.88000 157.433
56.89000 155.427
56.90000 153.454
56.91000 157.383
56.92000 165.647
56.93000 173.763
56.94000 169.963
56.95000 160.507
56.96000 151.852
56.97000 156.077
56.98000 164.792
56.99000 172.205
57.00000 167.837
57.01000 160.652
57.02000 154.411
57.03000 153.298
57.04000 153.042
57.05000 152.403
57.06000 150.305
57.07000 148.063
57.08000 147.053
57.09000 149.281
57.10000 151.681
57.11000 153.242
57.12000 148.349
57.13000 144.663
57.14000 143.995
57.15000 147.075
57.16000 150.164
57.17000 152.798
57.18000 155.059
57.19000 157.291
57.20000 157.047
57.21000 155.466
57.22000 154.014
57.23000 155.076
57.24000 157.107
57.25000 158.697
57.26000 155.679
57.27000 151.436
57.28000 147.688
57.29000 146.834
57.30000 146.541
57.31000 146.510
57.32000 147.587
57.33000 148.789
57.34000 149.165
57.35000 147.139
57.36000 144.958
57.37000 143.487
57.38000 136.752
57.39000 131.628
57.40000 131.282
57.41000 137.547
57.42000 143.853
57.43000 145.994
57.44000 144.319
57.45000 142.657
57.46000 142.396
57.47000 142.988
57.48000 143.641
57.49000 145.793
57.50000 148.583
57.51000 151.068
57.52000 149.844
57.53000 147.526
57.54000 145.447
57.55000 150.854
57.56000 156.889
57.57000 161.181
57.58000 157.217
57.59000 152.187
57.60000 148.035
57.61000 146.714
57.62000 145.608
57.63000 144.835
57.64000 145.726
57.65000 146.445
57.66000 146.002
57.67000 143.770
57.68000 141.519
57.69000 142.111
57.70000 145.630
57.71000 149.133
57.72000 148.462
57.73000 144.971
57.74000 141.568
57.75000 140.855
57.76000 141.412
57.77000 141.725
57.78000 138.547
57.79000 134.228
57.80000 130.297
57.81000 138.798
57.82000 148.775
57.83000 156.421
57.84000 151.712
57.85000 145.194
57.86000 140.417
57.87000 141.862
57.88000 143.861
57.89000 145.301
57.90000 143.599
57.91000 142.183
57.92000 140.737
57.93000 139.240
57.94000 137.742
57.95000 139.043
57.96000 143.577
57.97000 148.104
57.98000 147.356
57.99000 142.612
58.00000 137.959
58.01000 136.997
58.02000 137.959
58.03000 139.099
58.04000 143.278
58.05000 148.555
58.06000 153.422
58.07000 150.175
58.08000 145.461
58.09000 141.453
58.10000 141.644
58.11000 142.529
58.12000 143.206
58.13000 143.059
58.14000 142.828
58.15000 142.656
58.16000 141.201
58.17000 140.014
58.18000 141.059
58.19000 146.323
58.20000 151.686
58.21000 152.472
58.22000 147.347
58.23000 142.203
58.24000 141.655
58.25000 145.016
58.26000 148.295
58.27000 146.923
58.28000 142.865
58.29000 138.956
58.30000 138.181
58.31000 138.659
58.32000 139.105
58.33000 138.990
58.34000 138.747
58.35000 138.859
58.36000 141.361
58.37000 144.307
58.38000 146.258
58.39000 143.814
58.40000 140.849
58.41000 138.587
58.42000 137.748
58.43000 137.164
58.44000 136.883
58.45000 137.236
58.46000 137.608
58.47000 137.641
58.48000 137.185
58.49000 136.726
58.50000 137.990
58.51000 140.900
58.52000 143.795
58.53000 145.423
58.54000 146.239
58.55000 146.917
58.56000 143.974
58.57000 139.429
58.58000 135.140
58.59000 134.310
58.60000 134.520
58.61000 134.817
58.62000 135.783
58.63000 136.888
58.64000 138.493
58.65000 142.559
58.66000 146.958
58.67000 150.403
58.68000 143.163
58.69000 136.692
58.70000 133.147
58.71000 136.371
58.72000 139.868
58.73000 140.903
58.74000 138.008
58.75000 135.063
58.76000 133.537
58.77000 131.214
58.78000 129.670
58.79000 131.438
58.80000 135.565
58.81000 139.675
58.82000 143.202
58.83000 146.443
58.84000 149.534
58.85000 146.542
58.86000 141.857
58.87000 137.550
58.88000 136.535
58.89000 136.284
58.90000 135.717
58.91000 133.407
58.92000 130.831
58.93000 128.764
58.94000 132.956
58.95000 136.827
58.96000 139.441
58.97000 138.840
58.98000 138.078
58.99000 137.393
59.00000 136.843
59.01000 136.296
59.02000 135.996
59.03000 144.337
59.04000 150.057
59.05000 148.791
59.06000 141.980
59.07000 135.309
59.08000 134.981
59.09000 138.085
59.10000 141.071
59.11000 139.258
59.12000 135.872
59.13000 133.026
59.14000 135.586
59.15000 139.540
59.16000 143.005
59.17000 143.428
59.18000 143.326
59.19000 143.243
59.20000 144.435
59.21000 145.527
59.22000 145.782
59.23000 143.671
59.24000 141.416
59.25000 138.925
59.26000 135.972
59.27000 133.007
59.28000 131.304
59.29000 125.977
59.30000 122.243
59.31000 123.307
59.32000 128.627
59.33000 133.898
59.34000 135.993
59.35000 136.183
59.36000 136.368
59.37000 136.191
59.38000 135.883
59.39000 135.449
59.40000 133.566
59.41000 131.269
59.42000 129.277
59.43000 129.432
59.44000 130.003
59.45000 130.480
59.46000 131.882
59.47000 133.142
59.48000 133.585
59.49000 131.465
59.50000 129.160
59.51000 125.641
59.52000 119.489
59.53000 113.246
59.54000 109.493
59.55000 120.922
59.56000 129.151
59.57000 134.496
59.58000 136.969
59.59000 139.437
59.60000 141.482
59.61000 143.243
59.62000 144.964
59.63000 141.141
59.64000 135.053
59.65000 129.548
59.66000 132.014
59.67000 137.009
59.68000 141.273
59.69000 139.708
59.70000 136.882
59.71000 134.468
59.72000 132.324
59.73000 130.550
59.74000 130.100
59.75000 134.247
59.76000 138.785
59.77000 141.722
59.78000 140.821
59.79000 139.752
59.80000 139.082
59.81000 134.838
59.82000 131.733
59.83000 129.981
59.84000 129.745
59.85000 129.507
59.86000 128.699
59.87000 127.469
59.88000 126.261
59.89000 126.915
59.90000 128.460
59.91000 129.988
59.92000 131.237
59.93000 132.389
59.94000 133.467
59.95000 133.866
59.96000 134.101
59.97000 134.306
59.98000 132.243
59.99000 130.173
60.00000 128.026
60.01000 125.585
60.02000 123.115
60.03000 122.156
60.04000 125.207
60.05000 128.473
60.06000 130.603
60.07000 132.411
60.08000 133.732
60.09000 133.589
60.10000 131.612
60.11000 129.636
60.12000 130.092
60.13000 132.557
60.14000 134.992
60.15000 137.506
60.16000 140.000
60.17000 142.229
60.18000 139.251
60.19000 134.249
60.20000 129.830
60.21000 131.546
60.22000 134.906
60.23000 137.877
60.24000 140.308
60.25000 142.325
60.26000 143.789
60.27000 142.882
60.28000 141.705
60.29000 140.404
60.30000 138.738
60.31000 137.049
60.32000 135.906
60.33000 137.901
60.34000 139.455
60.35000 139.902
60.36000 138.806
60.37000 137.700
60.38000 136.653
60.39000 135.663
60.40000 134.680
60.41000 134.711
60.42000 135.361
60.43000 135.931
60.44000 134.577
60.45000 132.396
60.46000 130.455
60.47000 131.466
60.48000 133.353
60.49000 135.048
60.50000 135.724
60.51000 136.136
60.52000 136.412
60.53000 136.039
60.54000 135.580
60.55000 134.802
60.56000 132.986
60.57000 131.090
60.58000 129.763
60.59000 130.595
60.60000 131.285
60.61000 132.627
60.62000 134.977
60.63000 137.339
60.64000 139.085
60.65000 140.193
60.66000 141.295
60.67000 139.522
60.68000 135.804
60.69000 132.176
60.70000 131.368
60.71000 131.900
60.72000 132.509
60.73000 134.246
60.74000 136.355
60.75000 138.276
60.76000 138.025
60.77000 137.371
60.78000 136.885
60.79000 137.307
60.80000 137.862
60.81000 137.845
60.82000 135.769
60.83000 133.507
60.84000 131.873
60.85000 132.068
60.86000 132.284
60.87000 133.058
60.88000 134.792
60.89000 136.543
60.90000 137.813
60.91000 138.524
60.92000 139.233
60.93000 139.686
60.94000 139.942
60.95000 140.137
60.96000 137.794
60.97000 134.116
60.98000 130.608
60.99000 130.050
61.00000 130.565
61.01000 131.041
61.02000 134.072
61.03000 137.362
61.04000 140.168
61.05000 140.065
61.06000 139.478
61.07000 139.603
61.08000 142.577
61.09000 145.849
61.10000 148.283
61.11000 147.477
61.12000 146.706
61.13000 145.733
61.14000 144.376
61.15000 143.010
61.16000 141.893
61.17000 141.100
61.18000 140.310
61.19000 140.484
61.20000 141.484
61.21000 142.491
61.22000 143.928
61.23000 145.615
61.24000 147.160
61.25000 145.704
61.26000 143.039
61.27000 140.548
61.28000 140.198
61.29000 140.419
61.30000 140.501
61.31000 139.630
61.32000 138.581
61.33000 138.171
61.34000 140.606
61.35000 143.381
61.36000 145.503
61.37000 142.213
61.38000 139.324
61.39000 137.745
61.40000 138.929
61.41000 140.201
61.42000 143.498
61.43000 149.729
61.44000 155.983
61.45000 156.860
61.46000 152.557
61.47000 148.301
61.48000 148.168
61.49000 150.696
61.50000 153.592
61.51000 166.263
61.52000 183.288
61.53000 199.369
61.54000 209.184
61.55000 216.420
61.56000 225.102
61.57000 244.894
61.58000 267.014
61.59000 288.875
61.60000 309.446
61.61000 329.841
61.62000 345.843
61.63000 354.063
61.64000 360.130
61.65000 366.823
61.66000 374.974
61.67000 383.186
61.68000 384.345
61.69000 374.160
61.70000 363.823
61.71000 358.448
61.72000 362.286
61.73000 364.866
61.74000 365.265
61.75000 364.098
61.76000 362.644
61.77000 351.340
61.78000 335.186
61.79000 319.774
61.80000 295.770
61.81000 270.769
61.82000 246.952
61.83000 233.525
61.84000 222.525
61.85000 211.758
61.86000 202.280
61.87000 193.002
61.88000 185.546
61.89000 176.475
61.90000 168.998
61.91000 162.695
61.92000 159.417
61.93000 156.292
61.94000 155.511
61.95000 158.911
61.96000 162.392
61.97000 164.302
61.98000 155.910
61.99000 150.127
62.00000 146.491
62.01000 144.571
62.02000 142.695
62.03000 142.822
62.04000 144.041
62.05000 145.213
62.06000 147.503
62.07000 150.047
62.08000 152.462
62.09000 153.574
62.10000 154.346
62.11000 155.165
62.12000 156.272
62.13000 157.429
62.14000 158.380
62.15000 156.161
62.16000 154.053
62.17000 151.614
62.18000 148.228
62.19000 144.785
62.20000 142.550
62.21000 142.704
62.22000 142.922
62.23000 143.047
62.24000 147.997
62.25000 151.480
62.26000 153.569
62.27000 154.412
62.28000 155.206
62.29000 152.729
62.30000 148.276
62.31000 143.957
62.32000 145.253
62.33000 148.704
62.34000 151.890
62.35000 151.964
62.36000 151.141
62.37000 150.333
62.38000 149.629
62.39000 148.946
62.40000 148.373
62.41000 151.751
62.42000 154.975
62.43000 155.529
62.44000 147.661
62.45000 139.177
62.46000 135.321
62.47000 141.575
62.48000 148.183
62.49000 152.169
62.50000 147.768
62.51000 144.576
62.52000 143.789
62.53000 145.419
62.54000 147.039
62.55000 147.629
62.56000 147.529
62.57000 147.431
62.58000 146.051
62.59000 144.162
62.60000 142.412
62.61000 142.571
62.62000 143.342
62.63000 144.082
62.64000 144.578
62.65000 145.022
62.66000 145.401
62.67000 146.781
62.68000 148.064
62.69000 148.888
62.70000 148.103
62.71000 147.179
62.72000 145.723
62.73000 142.982
62.74000 140.184
62.75000 138.424
62.76000 150.021
62.77000 158.559
62.78000 159.545
62.79000 152.014
62.80000 144.505
62.81000 142.629
62.82000 144.953
62.83000 147.238
62.84000 147.389
62.85000 146.483
62.86000 145.563
62.87000 144.416
62.88000 143.189
62.89000 142.111
62.90000 142.413
62.91000 143.051
62.92000 143.607
62.93000 147.313
62.94000 150.912
62.95000 152.934
62.96000 148.840
62.97000 144.133
62.98000 141.781
62.99000 145.715
63.00000 149.990
63.01000 152.786
63.02000 152.308
63.03000 151.903
63.04000 151.755
63.05000 151.930
63.06000 152.105
63.07000 151.513
63.08000 150.285
63.09000 149.071
63.10000 152.752
63.11000 159.039
63.12000 165.002
63.13000 164.471
63.14000 161.399
63.15000 158.390
63.16000 156.056
63.17000 153.903
63.18000 151.998
63.19000 154.542
63.20000 157.440
63.21000 158.852
63.22000 153.845
63.23000 148.101
63.24000 144.691
63.25000 148.180
63.26000 152.121
63.27000 154.794
63.28000 147.532
63.29000 141.896
63.30000 140.210
63.31000 144.073
63.32000 147.974
63.33000 151.708
63.34000 155.284
63.35000 158.833
63.36000 160.628
63.37000 161.313
63.38000 161.855
63.39000 158.825
63.40000 154.250
63.41000 150.102
63.42000 151.254
63.43000 153.993
63.44000 156.456
63.45000 148.732
63.46000 140.158
63.47000 133.844
63.48000 138.416
63.49000 144.418
63.50000 149.502
63.51000 151.578
63.52000 153.421
63.53000 154.714
63.54000 159.025
63.55000 162.375
63.56000 163.462
63.57000 161.016
63.58000 158.528
63.59000 156.674
63.60000 155.482
63.61000 154.296
63.62000 153.542
63.63000 153.096
63.64000 152.585
63.65000 150.025
63.66000 146.485
63.67000 143.192
63.68000 143.529
63.69000 145.071
63.70000 146.476
63.71000 150.539
63.72000 154.675
63.73000 157.968
63.74000 156.714
63.75000 154.783
63.76000 153.289
63.77000 153.380
63.78000 153.615
63.79000 153.786
63.80000 161.924
63.81000 168.465
63.82000 171.208
63.83000 167.374
63.84000 163.422
63.85000 161.243
63.86000 161.144
63.87000 161.049
63.88000 158.682
63.89000 154.577
63.90000 150.593
63.91000 151.762
63.92000 155.657
63.93000 159.526
63.94000 162.907
63.95000 166.111
63.96000 169.071
63.97000 164.613
63.98000 158.935
63.99000 154.521
64.00000 157.762
64.01000 162.290
64.02000 165.698
64.03000 164.593
64.04000 163.014
64.05000 161.836
64.06000 166.267
64.07000 169.972
64.08000 170.928
64.09000 166.611
64.10000 162.164
64.11000 159.672
64.12000 159.741
64.13000 159.821
64.14000 160.319
64.15000 161.177
64.16000 162.023
64.17000 162.153
64.18000 161.862
64.19000 161.599
64.20000 161.933
64.21000 162.508
64.22000 163.047
64.23000 164.538
64.24000 166.134
64.25000 167.888
64.26000 170.722
64.27000 173.760
64.28000 176.511
64.29000 177.975
64.30000 179.284
64.31000 180.288
64.32000 173.151
64.33000 167.068
64.34000 163.085
64.35000 163.557
64.36000 164.176
64.37000 165.179
64.38000 166.744
64.39000 168.313
64.40000 170.875
64.41000 174.401
64.42000 177.854
64.43000 174.728
64.44000 167.322
64.45000 160.152
64.46000 159.343
64.47000 161.388
64.48000 163.321
64.49000 165.859
64.50000 168.363
64.51000 170.645
64.52000 171.204
64.53000 171.400
64.54000 171.974
64.55000 174.446
64.56000 177.178
64.57000 179.326
64.58000 181.592
64.59000 183.413
64.60000 184.310
64.61000 183.035
64.62000 181.671
64.63000 181.414
64.64000 182.954
64.65000 184.518
64.66000 185.335
64.67000 182.913
64.68000 181.257
64.69000 176.915
64.70000 170.631
64.71000 164.595
64.72000 167.263
64.73000 174.248
64.74000 180.917
64.75000 182.032
64.76000 181.295
64.77000 180.674
64.78000 181.073
64.79000 181.712
64.80000 182.361
64.81000 183.061
64.82000 183.769
64.83000 184.339
64.84000 187.776
64.85000 190.787
64.86000 193.420
64.87000 195.071
64.88000 196.672
64.89000 196.531
64.90000 193.261
64.91000 189.929
64.92000 188.094
64.93000 190.212
64.94000 191.673
64.95000 191.544
64.96000 190.133
64.97000 188.858
64.98000 194.030
64.99000 202.740
65.00000 211.129
65.01000 210.239
65.02000 206.091
65.03000 202.162
65.04000 200.471
65.05000 199.366
65.06000 199.635
65.07000 208.586
65.08000 219.059
65.09000 227.678
65.10000 226.997
65.11000 225.591
65.12000 225.881
65.13000 231.039
65.14000 236.500
65.15000 237.652
65.16000 230.236
65.17000 222.585
65.18000 218.162
65.19000 226.837
65.20000 232.971
65.21000 239.421
65.22000 246.156
65.23000 252.827
65.24000 255.063
65.25000 254.602
65.26000 254.154
65.27000 260.124
65.28000 268.349
65.29000 276.379
65.30000 282.093
65.31000 287.135
65.32000 292.053
65.33000 296.097
65.34000 299.969
65.35000 303.223
65.36000 311.242
65.37000 318.426
65.38000 324.756
65.39000 328.377
65.40000 331.797
65.41000 337.238
65.42000 347.125
65.43000 357.171
65.44000 363.248
65.45000 372.883
65.46000 379.775
65.47000 384.010
65.48000 385.553
65.49000 387.116
65.50000 390.878
65.51000 396.125
65.52000 401.253
65.53000 412.867
65.54000 426.885
65.55000 440.342
65.56000 445.956
65.57000 449.044
65.58000 452.765
65.59000 461.627
65.60000 471.619
65.61000 480.176
65.62000 499.388
65.63000 516.896
65.64000 532.131
65.65000 539.359
65.66000 545.891
65.67000 561.444
65.68000 598.937
65.69000 637.416
65.70000 661.688
65.71000 765.941
65.72000 842.356
65.73000 914.827
65.74000 982.811
65.75000 1050.841
65.76000 1129.013
65.77000 1214.807
65.78000 1299.167
65.79000 1362.546
65.80000 1413.411
65.81000 1463.919
65.82000 1508.470
65.83000 1550.897
65.84000 1591.525
65.85000 1615.382
65.86000 1635.137
65.87000 1652.360
65.88000 1648.363
65.89000 1641.998
65.90000 1633.484
65.91000 1616.569
65.92000 1598.804
65.93000 1568.769
65.94000 1505.729
65.95000 1440.867
65.96000 1398.331
65.97000 1275.092
65.98000 1183.118
65.99000 1085.370
66.00000 980.283
66.01000 875.210
66.02000 790.574
66.03000 723.080
66.04000 656.377
66.05000 602.996
66.06000 558.321
66.07000 514.407
66.08000 485.984
66.09000 463.665
66.10000 441.972
66.11000 427.023
66.12000 413.907
66.13000 402.281
66.14000 405.266
66.15000 410.161
66.16000 412.454
66.17000 403.429
66.18000 393.089
66.19000 384.567
66.20000 381.456
66.21000 378.704
66.22000 376.834
66.23000 384.536
66.24000 390.504
66.25000 402.319
66.26000 422.417
66.27000 442.572
66.28000 453.018
66.29000 454.341
66.30000 455.653
66.31000 471.262
66.32000 495.479
66.33000 519.226
66.34000 531.060
66.35000 537.704
66.36000 544.601
66.37000 554.691
66.38000 565.743
66.39000 575.690
66.40000 587.797
66.41000 598.797
66.42000 606.197
66.43000 596.131
66.44000 583.749
66.45000 574.846
66.46000 577.408
66.47000 580.871
66.48000 583.306
66.49000 574.879
66.50000 568.175
66.51000 554.402
66.52000 529.505
66.53000 504.473
66.54000 485.596
66.55000 473.221
66.56000 460.901
66.57000 446.526
66.58000 430.876
66.59000 415.445
66.60000 407.167
66.61000 402.336
66.62000 397.480
66.63000 392.253
66.64000 386.904
66.65000 382.020
66.66000 372.799
66.67000 363.738
66.68000 356.548
66.69000 359.523
66.70000 364.026
66.71000 368.204
66.72000 371.195
66.73000 374.077
66.74000 376.168
66.75000 373.458
66.76000 371.196
66.77000 369.007
66.78000 366.945
66.79000 364.886
66.80000 365.655
66.81000 369.774
66.82000 373.889
66.83000 376.601
66.84000 378.207
66.85000 379.753
66.86000 378.689
66.87000 376.233
66.88000 374.136
66.89000 378.454
66.90000 385.142
66.91000 391.327
66.92000 389.569
66.93000 386.178
66.94000 383.650
66.95000 386.395
66.96000 390.035
66.97000 393.744
66.98000 397.739
66.99000 401.763
67.00000 404.770
67.01000 399.673
67.02000 395.327
67.03000 395.240
67.04000 403.383
67.05000 411.733
67.06000 417.803
67.07000 420.862
67.08000 423.904
67.09000 423.347
67.10000 419.655
67.11000 415.989
67.12000 413.949
67.13000 412.870
67.14000 412.027
67.15000 416.347
67.16000 422.777
67.17000 428.794
67.18000 431.046
67.19000 432.126
67.20000 433.701
67.21000 438.682
67.22000 444.312
67.23000 448.676
67.24000 447.314
67.25000 445.254
67.26000 443.673
67.27000 450.179
67.28000 455.772
67.29000 460.208
67.30000 462.168
67.31000 464.045
67.32000 463.276
67.33000 458.614
67.34000 453.917
67.35000 453.157
67.36000 456.253
67.37000 459.392
67.38000 466.559
67.39000 476.366
67.40000 485.962
67.41000 489.756
67.42000 490.930
67.43000 492.039
67.44000 485.252
67.45000 476.742
67.46000 470.173
67.47000 478.797
67.48000 490.655
67.49000 499.109
67.50000 490.370
67.51000 479.245
67.52000 470.485
67.53000 485.918
67.54000 499.897
67.55000 510.558
67.56000 513.377
67.57000 515.864
67.58000 516.581
67.59000 514.407
67.60000 512.191
67.61000 511.030
67.62000 532.849
67.63000 547.565
67.64000 550.416
67.65000 544.622
67.66000 539.087
67.67000 542.809
67.68000 551.156
67.69000 559.130
67.70000 557.337
67.71000 552.527
67.72000 548.182
67.73000 548.001
67.74000 548.808
67.75000 551.094
67.76000 561.748
67.77000 573.717
67.78000 583.366
67.79000 581.022
67.80000 578.173
67.81000 578.362
67.82000 586.487
67.83000 595.026
67.84000 597.524
67.85000 589.087
67.86000 580.425
67.87000 575.639
67.88000 591.837
67.89000 603.042
67.90000 611.923
67.91000 618.916
67.92000 625.870
67.93000 630.944
67.94000 634.979
67.95000 638.867
67.96000 638.742
67.97000 637.181
67.98000 636.036
67.99000 639.193
68.00000 643.485
68.01000 648.244
68.02000 655.980
68.03000 664.243
68.04000 671.054
68.05000 664.896
68.06000 658.636
68.07000 654.006
68.08000 654.089
68.09000 654.469
68.10000 660.129
68.11000 676.364
68.12000 692.895
68.13000 702.485
68.14000 694.088
68.15000 688.123
68.16000 690.835
68.17000 701.434
68.18000 711.980
68.19000 718.719
68.20000 723.126
68.21000 727.406
68.22000 742.252
68.23000 760.597
68.24000 777.560
68.25000 777.906
68.26000 773.386
68.27000 768.636
68.28000 762.225
68.29000 755.483
68.30000 749.812
68.31000 769.680
68.32000 788.970
68.33000 805.770
68.34000 814.601
68.35000 822.836
68.36000 831.119
68.37000 839.512
68.38000 847.910
68.39000 853.005
68.40000 861.108
68.41000 866.911
68.42000 877.760
68.43000 893.762
68.44000 909.699
68.45000 918.280
68.46000 921.855
68.47000 925.350
68.48000 945.510
68.49000 972.324
68.50000 998.904
68.51000 1022.160
68.52000 1044.338
68.53000 1066.130
68.54000 1084.753
68.55000 1102.675
68.56000 1118.045
68.57000 1156.711
68.58000 1192.232
68.59000 1227.424
68.60000 1261.453
68.61000 1295.379
68.62000 1341.051
68.63000 1415.497
68.64000 1491.256
68.65000 1539.183
68.66000 1658.850
68.67000 1746.454
68.68000 1835.151
68.69000 1925.099
68.70000 2015.018
68.71000 2098.343
68.72000 2176.675
68.73000 2253.728
68.74000 2347.811
68.75000 2447.407
68.76000 2547.257
68.77000 2651.430
68.78000 2757.153
68.79000 2865.233
68.80000 2995.490
68.81000 3131.214
68.82000 3249.691
68.83000 3496.080
68.84000 3724.839
68.85000 3976.382
68.86000 4317.658
68.87000 4668.097
68.88000 5111.542
68.89000 5806.938
68.90000 6516.432
68.91000 6982.961
68.92000 9219.780
68.93000 10896.715
68.94000 13439.530
68.95000 17091.520
68.96000 20750.131
68.97000 25852.686
68.98000 32176.051
68.99000 38427.277
69.00000 45726.023
69.01000 53436.742
69.02000 61103.887
69.03000 67871.320
69.04000 74281.617
69.05000 80492.484
69.06000 84531.391
69.07000 87975.461
69.08000 91031.781
69.09000 92558.422
69.10000 93637.047
69.11000 94681.594
69.12000 95576.758
69.13000 96454.391
69.14000 97346.727
69.15000 98283.133
69.16000 99222.500
69.17000 99862.781
69.18000 99918.656
69.19000 99946.938
69.20000 98826.445
69.21000 96066.953
69.22000 93294.820
69.23000 89355.148
69.24000 84309.305
69.25000 79300.664
69.26000 74595.148
69.27000 70156.828
69.28000 65746.938
69.29000 62069.141
69.30000 58712.656
69.31000 55449.645
69.32000 53376.797
69.33000 51665.414
69.34000 50123.418
69.35000 48571.316
69.36000 47207.758
69.37000 45733.773
69.38000 43719.648
69.39000 41633.219
69.40000 39242.066
69.41000 35839.395
69.42000 32356.258
69.43000 29901.375
69.44000 24991.818
69.45000 21194.768
69.46000 17806.883
69.47000 15067.562
69.48000 12336.406
69.49000 10112.582
69.50000 8429.153
69.51000 6752.958
69.52000 5560.741
69.53000 4719.171
69.54000 3887.917
69.55000 3398.085
69.56000 3073.975
69.57000 2756.720
69.58000 2542.839
69.59000 2363.725
69.60000 2200.058
69.61000 2067.975
69.62000 1957.119
69.63000 1852.531
69.64000 1782.273
69.65000 1717.223
69.66000 1654.599
69.67000 1600.906
69.68000 1548.044
69.69000 1509.607
69.70000 1454.721
69.71000 1411.871
69.72000 1373.912
69.73000 1344.547
69.74000 1315.344
69.75000 1280.450
69.76000 1238.767
69.77000 1197.151
69.78000 1165.588
69.79000 1142.058
69.80000 1118.579
69.81000 1097.377
69.82000 1077.398
69.83000 1057.355
69.84000 1036.172
69.85000 1014.565
69.86000 994.565
69.87000 969.526
69.88000 945.858
69.89000 925.552
69.90000 925.943
69.91000 929.873
69.92000 931.212
69.93000 921.953
69.94000 911.556
69.95000 903.774
69.96000 887.033
69.97000 873.553
69.98000 861.652
69.99000 852.824
70.00000 844.076
