20.00000 570.026
20.01000 565.475
20.02000 560.275
20.03000 557.125
20.04000 562.168
20.05000 568.066
20.06000 572.453
20.07000 573.777
20.08000 574.671
20.09000 572.243
20.10000 563.492
20.11000 554.589
20.12000 551.971
20.13000 557.526
20.14000 563.111
20.15000 568.289
20.16000 573.108
20.17000 577.724
20.18000 570.620
20.19000 556.697
20.20000 543.519
20.21000 546.177
20.22000 555.209
20.23000 563.647
20.24000 561.809
20.25000 557.551
20.26000 554.165
20.27000 556.690
20.28000 560.321
20.29000 563.878
20.30000 567.103
20.31000 570.288
20.32000 572.724
20.33000 564.375
20.34000 557.203
20.35000 555.768
20.36000 566.417
20.37000 577.452
20.38000 582.712
20.39000 579.610
20.40000 576.439
20.41000 571.650
20.42000 565.304
20.43000 559.067
20.44000 562.382
20.45000 571.861
20.46000 580.902
20.47000 578.262
20.48000 570.424
20.49000 563.021
20.50000 560.429
20.51000 559.410
20.52000 558.398
20.53000 557.440
20.54000 556.493
20.55000 556.933
20.56000 564.266
20.57000 572.539
20.58000 579.029
20.59000 566.454
20.60000 555.158
20.61000 550.265
20.62000 560.284
20.63000 570.912
20.64000 575.460
20.65000 570.230
20.66000 564.870
20.67000 562.083
20.68000 552.268
20.69000 545.686
20.70000 546.605
20.71000 552.905
20.72000 559.035
20.73000 559.327
20.74000 556.745
20.75000 554.282
20.76000 555.572
20.77000 557.958
20.78000 559.807
20.79000 556.939
20.80000 552.970
20.81000 550.055
20.82000 553.009
20.83000 556.869
20.84000 559.970
20.85000 558.176
20.86000 556.346
20.87000 552.651
20.88000 544.157
20.89000 535.420
20.90000 531.277
20.91000 535.327
20.92000 539.537
20.93000 541.846
20.94000 540.051
20.95000 538.805
20.96000 535.920
20.97000 531.724
20.98000 527.518
20.99000 522.842
21.00000 517.909
21.01000 513.161
21.02000 520.555
21.03000 531.791
21.04000 542.325
21.05000 545.746
21.06000 547.320
21.07000 549.228
21.08000 553.228
21.09000 557.591
21.10000 561.177
21.11000 560.206
21.12000 558.998
21.13000 555.539
21.14000 545.670
21.15000 535.406
21.16000 530.891
21.17000 537.722
21.18000 544.857
21.19000 548.968
21.20000 542.846
21.21000 538.523
21.22000 536.398
21.23000 536.239
21.24000 536.123
21.25000 538.872
21.26000 543.350
21.27000 547.695
21.28000 548.078
21.29000 546.875
21.30000 546.025
21.31000 549.338
21.32000 553.851
21.33000 557.178
21.34000 552.110
21.35000 545.406
21.36000 539.783
21.37000 545.866
21.38000 552.150
21.39000 557.281
21.40000 558.776
21.41000 560.004
21.42000 557.977
21.43000 548.842
21.44000 539.459
21.45000 533.801
21.46000 539.260
21.47000 543.225
21.48000 548.229
21.49000 554.277
21.50000 560.283
21.51000 561.965
21.52000 560.750
21.53000 559.564
21.54000 558.122
21.55000 556.628
21.56000 554.838
21.57000 548.951
21.58000 541.755
21.59000 535.688
21.60000 538.715
21.61000 543.722
21.62000 548.005
21.63000 549.051
21.64000 549.544
21.65000 550.229
21.66000 551.582
21.67000 552.992
21.68000 553.710
21.69000 552.754
21.70000 551.724
21.71000 551.077
21.72000 562.325
21.73000 570.594
21.74000 572.355
21.75000 566.778
21.76000 561.231
21.77000 562.439
21.78000 568.682
21.79000 574.819
21.80000 574.483
21.81000 570.964
21.82000 567.855
21.83000 571.511
21.84000 577.558
21.85000 583.331
21.86000 586.576
21.87000 589.206
21.88000 591.497
21.89000 589.940
21.90000 588.082
21.91000 587.397
21.92000 591.262
21.93000 595.582
21.94000 600.555
21.95000 607.273
21.96000 614.085
21.97000 618.540
21.98000 631.859
21.99000 641.787
22.00000 645.254
22.01000 640.578
22.02000 635.885
22.03000 636.298
22.04000 640.956
22.05000 645.559
22.06000 650.514
22.07000 655.540
22.08000 660.529
22.09000 664.796
22.10000 668.781
22.11000 671.761
22.12000 664.037
22.13000 653.426
22.14000 644.031
22.15000 654.075
22.16000 665.808
22.17000 675.600
22.18000 677.017
22.19000 677.469
22.20000 673.507
22.21000 656.508
22.22000 638.655
22.23000 626.547
22.24000 646.984
22.25000 662.944
22.26000 667.551
22.27000 656.209
22.28000 644.758
22.29000 638.543
22.30000 637.206
22.31000 635.879
22.32000 634.210
22.33000 632.359
22.34000 630.313
22.35000 623.435
22.36000 614.466
22.37000 605.967
22.38000 603.317
22.39000 602.416
22.40000 601.606
22.41000 593.461
22.42000 585.024
22.43000 577.763
22.44000 576.157
22.45000 575.294
22.46000 574.221
22.47000 572.461
22.48000 570.647
22.49000 569.375
22.50000 564.727
22.51000 561.113
22.52000 559.031
22.53000 559.341
22.54000 559.679
22.55000 558.867
22.56000 556.850
22.57000 554.842
22.58000 548.221
22.59000 538.496
22.60000 529.165
22.61000 532.390
22.62000 541.619
22.63000 550.093
22.64000 547.467
22.65000 541.164
22.66000 535.416
22.67000 531.115
22.68000 527.593
22.69000 522.692
22.70000 510.370
22.71000 496.942
22.72000 489.667
22.73000 504.701
22.74000 521.762
22.75000 534.112
22.76000 542.072
22.77000 548.022
22.78000 544.043
22.79000 522.872
22.80000 501.396
22.81000 493.072
22.82000 500.186
22.83000 507.309
22.84000 507.494
22.85000 502.332
22.86000 497.423
22.87000 503.239
22.88000 514.729
22.89000 525.449
22.90000 522.584
22.91000 514.738
22.92000 507.488
22.93000 511.233
22.94000 517.080
22.95000 521.298
22.96000 515.652
22.97000 508.349
22.98000 502.085
22.99000 500.003
23.00000 498.362
23.01000 497.138
23.02000 507.196
23.03000 515.540
23.04000 521.624
23.05000 523.376
23.06000 525.021
23.07000 524.022
23.08000 519.556
23.09000 515.079
23.10000 514.131
23.11000 516.234
23.12000 518.268
23.13000 516.149
23.14000 511.596
23.15000 507.346
23.16000 509.643
23.17000 514.594
23.18000 519.224
23.19000 517.837
23.20000 515.048
23.21000 512.013
23.22000 507.298
23.23000 502.266
23.24000 497.297
23.25000 492.614
23.26000 487.965
23.27000 484.403
23.28000 492.308
23.29000 499.181
23.30000 506.108
23.31000 513.148
23.32000 520.192
23.33000 522.412
23.34000 517.592
23.35000 512.713
23.36000 515.225
23.37000 524.915
23.38000 534.486
23.39000 533.345
23.40000 525.237
23.41000 517.367
23.42000 515.919
23.43000 517.351
23.44000 518.704
23.45000 520.315
23.46000 521.869
23.47000 522.449
23.48000 515.475
23.49000 506.907
23.50000 499.971
23.51000 501.211
23.52000 503.576
23.53000 505.434
23.54000 510.240
23.55000 514.281
23.56000 517.390
23.57000 518.313
23.58000 519.145
23.59000 516.721
23.60000 509.021
23.61000 501.248
23.62000 497.191
23.63000 522.652
23.64000 539.777
23.65000 540.246
23.66000 528.674
23.67000 517.305
23.68000 513.057
23.69000 512.340
23.70000 511.656
23.71000 509.563
23.72000 507.169
23.73000 505.100
23.74000 505.903
23.75000 507.382
23.76000 509.492
23.77000 515.140
23.78000 521.339
23.79000 526.328
23.80000 536.009
23.81000 544.229
23.82000 548.860
23.83000 544.185
23.84000 539.032
23.85000 537.398
23.86000 542.085
23.87000 546.898
23.88000 549.548
23.89000 537.126
23.90000 528.563
23.91000 526.797
23.92000 530.509
23.93000 534.197
23.94000 536.800
23.95000 538.809
23.96000 540.743
23.97000 539.969
23.98000 538.276
23.99000 537.019
24.00000 540.225
24.01000 544.598
24.02000 547.471
24.03000 540.862
24.04000 532.592
24.05000 525.787
24.06000 527.372
24.07000 529.439
24.08000 531.463
24.09000 533.365
24.10000 535.259
24.11000 536.872
24.12000 537.928
24.13000 538.969
24.14000 539.571
24.15000 534.737
24.16000 531.327
24.17000 527.649
24.18000 523.729
24.19000 519.894
24.20000 521.905
24.21000 527.471
24.22000 532.874
24.23000 528.764
24.24000 521.070
24.25000 513.874
24.26000 512.611
24.27000 513.070
24.28000 513.546
24.29000 514.139
24.30000 514.755
24.31000 515.272
24.32000 512.141
24.33000 509.148
24.34000 506.609
24.35000 505.515
24.36000 504.528
24.37000 504.332
24.38000 505.876
24.39000 507.482
24.40000 508.453
24.41000 497.109
24.42000 488.934
24.43000 488.110
24.44000 494.729
24.45000 501.303
24.46000 502.913
24.47000 501.170
24.48000 499.467
24.49000 491.204
24.50000 480.365
24.51000 470.198
24.52000 469.441
24.53000 471.713
24.54000 474.302
24.55000 479.460
24.56000 485.183
24.57000 490.084
24.58000 493.160
24.59000 495.535
24.60000 497.021
24.61000 495.382
24.62000 493.470
24.63000 490.233
24.64000 483.774
24.65000 477.171
24.66000 473.006
24.67000 477.980
24.68000 481.688
24.69000 484.617
24.70000 486.661
24.71000 488.697
24.72000 489.384
24.73000 489.058
24.74000 488.738
24.75000 487.469
24.76000 485.771
24.77000 483.975
24.78000 480.538
24.79000 476.518
24.80000 472.782
24.81000 471.698
24.82000 471.264
24.83000 470.884
24.84000 472.574
24.85000 474.305
24.86000 475.669
24.87000 475.596
24.88000 475.378
24.89000 475.577
24.90000 476.899
24.91000 478.282
24.92000 479.190
24.93000 474.236
24.94000 470.496
24.95000 468.668
24.96000 469.270
24.97000 469.881
24.98000 470.620
24.99000 471.467
25.00000 472.304
25.01000 469.737
25.02000 465.343
25.03000 461.266
25.04000 463.645
25.05000 468.567
25.06000 472.960
25.07000 471.658
25.08000 468.808
25.09000 466.282
25.10000 467.302
25.11000 468.746
25.12000 469.813
25.13000 469.243
25.14000 468.483
25.15000 469.284
25.16000 474.730
25.17000 480.485
25.18000 484.397
25.19000 486.050
25.20000 487.233
25.21000 483.514
25.22000 472.857
25.23000 462.152
25.24000 461.442
25.25000 470.121
25.26000 478.734
25.27000 480.386
25.28000 477.693
25.29000 474.968
25.30000 471.449
25.31000 467.584
25.32000 464.056
25.33000 464.766
25.34000 466.752
25.35000 468.540
25.36000 474.175
25.37000 479.803
25.38000 485.260
25.39000 489.884
25.40000 494.397
25.41000 494.125
25.42000 478.094
25.43000 460.824
25.44000 448.682
25.45000 461.925
25.46000 472.706
25.47000 480.986
25.48000 485.331
25.49000 489.629
25.50000 485.995
25.51000 473.983
25.52000 462.023
25.53000 458.738
25.54000 461.507
25.55000 464.283
25.56000 467.325
25.57000 470.494
25.58000 473.425
25.59000 472.798
25.60000 470.984
25.61000 469.328
25.62000 464.369
25.63000 459.300
25.64000 454.484
25.65000 451.045
25.66000 447.813
25.67000 445.575
25.68000 446.965
25.69000 448.689
25.70000 449.940
25.71000 447.916
25.72000 446.239
25.73000 446.131
25.74000 448.760
25.75000 451.438
25.76000 454.817
25.77000 459.027
25.78000 463.229
25.79000 464.544
25.80000 463.607
25.81000 462.592
25.82000 458.159
25.83000 451.903
25.84000 446.134
25.85000 449.055
25.86000 455.187
25.87000 460.857
25.88000 467.841
25.89000 474.413
25.90000 478.918
25.91000 470.804
25.92000 460.551
25.93000 452.777
25.94000 455.064
25.95000 458.420
25.96000 460.927
25.97000 473.942
25.98000 484.570
25.99000 486.304
26.00000 470.862
26.01000 454.987
26.02000 446.932
26.03000 449.208
26.04000 451.531
26.05000 452.458
26.06000 452.166
26.07000 451.926
26.08000 454.844
26.09000 459.627
26.10000 464.211
26.11000 464.421
26.12000 462.844
26.13000 461.368
26.14000 460.142
26.15000 459.093
26.16000 458.218
26.17000 458.548
26.18000 459.108
26.19000 459.325
26.20000 457.994
26.21000 456.474
26.22000 455.308
26.23000 448.612
26.24000 443.012
26.25000 438.998
26.26000 438.373
26.27000 437.860
26.28000 436.540
26.29000 434.033
26.30000 431.515
26.31000 436.219
26.32000 447.996
26.33000 459.623
26.34000 457.211
26.35000 445.602
26.36000 434.347
26.37000 432.840
26.38000 435.735
26.39000 438.473
26.40000 438.402
26.41000 437.530
26.42000 438.250
26.43000 451.425
26.44000 467.251
26.45000 479.116
26.46000 470.983
26.47000 460.075
26.48000 451.487
26.49000 455.953
26.50000 460.402
26.51000 462.818
26.52000 460.431
26.53000 457.841
26.54000 455.508
26.55000 453.593
26.56000 451.684
26.57000 450.684
26.58000 454.205
26.59000 456.556
26.60000 453.149
26.61000 445.545
26.62000 438.123
26.63000 437.184
26.64000 439.483
26.65000 441.679
26.66000 443.942
26.67000 446.067
26.68000 447.919
26.69000 447.321
26.70000 446.142
26.71000 445.200
26.72000 445.604
26.73000 446.219
26.74000 446.715
26.75000 447.797
26.76000 448.722
26.77000 447.934
26.78000 442.672
26.79000 437.176
26.80000 433.511
26.81000 433.155
26.82000 432.867
26.83000 432.708
26.84000 443.735
26.85000 451.348
26.86000 454.344
26.87000 453.589
26.88000 452.811
26.89000 450.934
26.90000 448.450
26.91000 446.056
26.92000 446.615
26.93000 448.203
26.94000 448.885
26.95000 440.216
26.96000 429.082
26.97000 420.487
26.98000 428.079
26.99000 438.530
27.00000 447.144
27.01000 451.104
27.02000 453.935
27.03000 452.995
27.04000 441.160
27.05000 428.638
27.06000 419.992
27.07000 419.109
27.08000 418.442
27.09000 418.056
27.10000 435.405
27.11000 447.650
27.12000 453.056
27.13000 452.245
27.14000 451.361
27.15000 445.403
27.16000 436.335
27.17000 427.528
27.18000 432.974
27.19000 443.874
27.20000 453.593
27.21000 449.126
27.22000 440.508
27.23000 432.915
27.24000 432.715
27.25000 433.980
27.26000 435.044
27.27000 429.547
27.28000 424.263
27.29000 421.627
27.30000 427.458
27.31000 433.925
27.32000 437.444
27.33000 434.436
27.34000 431.191
27.35000 429.222
27.36000 428.324
27.37000 427.691
27.38000 427.731
27.39000 428.457
27.40000 429.182
27.41000 429.743
27.42000 430.193
27.43000 430.633
27.44000 436.428
27.45000 444.390
27.46000 451.536
27.47000 447.143
27.48000 439.009
27.49000 431.548
27.50000 429.618
27.51000 428.913
27.52000 428.308
27.53000 424.488
27.54000 420.868
27.55000 419.809
27.56000 427.837
27.57000 436.664
27.58000 442.718
27.59000 441.981
27.60000 440.933
27.61000 440.271
27.62000 428.692
27.63000 420.169
27.64000 417.981
27.65000 423.052
27.66000 428.102
27.67000 426.787
27.68000 420.654
27.69000 414.620
27.70000 418.465
27.71000 427.136
27.72000 435.373
27.73000 436.267
27.74000 434.527
27.75000 433.074
27.76000 434.328
27.77000 436.250
27.78000 437.927
27.79000 429.756
27.80000 421.385
27.81000 415.411
27.82000 418.877
27.83000 423.308
27.84000 427.218
27.85000 429.719
27.86000 432.142
27.87000 433.734
27.88000 440.955
27.89000 446.366
27.90000 443.923
27.91000 431.420
27.92000 418.897
27.93000 416.413
27.94000 422.413
27.95000 428.345
27.96000 426.149
27.97000 419.456
27.98000 413.332
27.99000 418.932
28.00000 429.185
28.01000 438.713
28.02000 440.347
28.03000 439.818
28.04000 439.350
28.05000 434.293
28.06000 429.179
28.07000 424.666
28.08000 422.789
28.09000 421.221
28.10000 420.233
28.11000 420.978
28.12000 421.841
28.13000 422.429
28.14000 430.148
28.15000 436.081
28.16000 438.042
28.17000 434.341
28.18000 430.595
28.19000 422.731
28.20000 410.965
28.21000 399.287
28.22000 403.086
28.23000 416.502
28.24000 429.617
28.25000 435.009
28.26000 437.011
28.27000 438.428
28.28000 432.405
28.29000 424.123
28.30000 416.660
28.31000 426.232
28.32000 437.711
28.33000 445.896
28.34000 437.976
28.35000 427.902
28.36000 420.312
28.37000 420.967
28.38000 422.277
28.39000 423.201
28.40000 431.364
28.41000 437.771
28.42000 438.562
28.43000 430.454
28.44000 422.233
28.45000 422.081
28.46000 430.521
28.47000 438.927
28.48000 434.817
28.49000 421.996
28.50000 409.596
28.51000 411.140
28.52000 419.449
28.53000 427.087
28.54000 424.610
28.55000 418.732
28.56000 413.361
28.57000 413.369
28.58000 414.476
28.59000 416.210
28.60000 421.376
28.61000 427.062
28.62000 430.449
28.63000 425.374
28.64000 419.513
28.65000 415.253
28.66000 426.104
28.67000 435.025
28.68000 438.843
28.69000 433.695
28.70000 428.381
28.71000 426.972
28.72000 430.224
28.73000 433.478
28.74000 431.278
28.75000 424.817
28.76000 418.411
28.77000 414.449
28.78000 411.801
28.79000 409.233
28.80000 408.137
28.81000 407.589
28.82000 407.082
28.83000 413.419
28.84000 420.690
28.85000 426.045
28.86000 419.608
28.87000 411.155
28.88000 405.009
28.89000 408.297
28.90000 412.598
28.91000 415.817
28.92000 424.569
28.93000 431.655
28.94000 435.149
28.95000 431.651
28.96000 427.973
28.97000 422.879
28.98000 415.900
28.99000 408.915
29.00000 407.173
29.01000 410.041
29.02000 412.798
29.03000 408.629
29.04000 400.340
29.05000 392.626
29.06000 397.736
29.07000 408.120
29.08000 417.845
29.09000 418.102
29.10000 415.890
29.11000 414.074
29.12000 415.008
29.13000 416.469
29.14000 417.118
29.15000 414.064
29.16000 410.553
29.17000 407.854
29.18000 414.183
29.19000 419.701
29.20000 421.961
29.21000 417.208
29.22000 412.218
29.23000 411.087
29.24000 415.673
29.25000 420.312
29.26000 423.745
29.27000 425.988
29.28000 428.189
29.29000 426.425
29.30000 422.044
29.31000 417.628
29.32000 412.215
29.33000 406.350
29.34000 400.797
29.35000 403.296
29.36000 407.928
29.37000 411.809
29.38000 409.761
29.39000 406.442
29.40000 404.226
29.41000 407.630
29.42000 411.820
29.43000 415.125
29.44000 411.025
29.45000 407.238
29.46000 406.304
29.47000 412.164
29.48000 418.315
29.49000 419.338
29.50000 411.931
29.51000 404.400
29.52000 400.439
29.53000 414.519
29.54000 424.025
29.55000 424.499
29.56000 418.344
29.57000 412.250
29.58000 408.379
29.59000 405.627
29.60000 402.997
29.61000 402.836
29.62000 403.487
29.63000 404.007
29.64000 403.340
29.65000 402.388
29.66000 402.919
29.67000 411.905
29.68000 422.231
29.69000 430.569
29.70000 430.253
29.71000 429.308
29.72000 426.784
29.73000 420.106
29.74000 413.209
29.75000 407.982
29.76000 405.803
29.77000 403.687
29.78000 402.514
29.79000 408.170
29.80000 412.083
29.81000 413.432
29.82000 412.683
29.83000 411.922
29.84000 410.602
29.85000 408.971
29.86000 407.399
29.87000 406.569
29.88000 406.059
29.89000 405.495
29.90000 404.362
29.91000 403.078
29.92000 403.597
29.93000 415.708
29.94000 429.885
29.95000 441.586
29.96000 437.454
29.97000 432.579
29.98000 427.780
29.99000 423.205
30.00000 418.645
30.01000 414.315
30.02000 410.450
30.03000 406.599
30.04000 404.358
30.05000 411.175
30.06000 416.004
30.07000 417.171
30.08000 414.983
30.09000 412.830
30.10000 413.151
30.11000 415.001
30.12000 416.799
30.13000 425.085
30.14000 435.589
30.15000 444.703
30.16000 436.929
30.17000 424.175
30.18000 412.871
30.19000 412.107
30.20000 413.449
30.21000 414.579
30.22000 418.325
30.23000 421.733
30.24000 425.505
30.25000 430.449
30.26000 435.481
30.27000 437.432
30.28000 432.508
30.29000 427.329
30.30000 424.178
30.31000 418.120
30.32000 413.770
30.33000 413.747
30.34000 418.181
30.35000 422.588
30.36000 423.916
30.37000 423.134
30.38000 422.368
30.39000 419.139
30.40000 414.925
30.41000 411.278
30.42000 415.769
30.43000 422.917
30.44000 428.918
30.45000 425.417
30.46000 419.798
30.47000 414.972
30.48000 423.174
30.49000 431.720
30.50000 437.042
30.51000 430.841
30.52000 423.616
30.53000 417.936
30.54000 416.069
30.55000 414.379
30.56000 413.306
30.57000 423.661
30.58000 431.314
30.59000 433.976
30.60000 430.870
30.61000 427.758
30.62000 424.831
30.63000 422.045
30.64000 419.304
30.65000 419.816
30.66000 421.956
30.67000 424.237
30.68000 428.950
30.69000 434.540
30.70000 439.962
30.71000 443.775
30.72000 447.189
30.73000 450.173
30.74000 451.391
30.75000 452.185
30.76000 452.871
30.77000 453.131
30.78000 453.346
30.79000 453.759
30.80000 454.707
30.81000 455.686
30.82000 456.331
30.83000 447.802
30.84000 441.356
30.85000 440.914
30.86000 448.220
30.87000 455.551
30.88000 459.718
30.89000 461.189
30.90000 462.644
30.91000 461.369
30.92000 458.585
30.93000 456.328
30.94000 465.123
30.95000 478.335
30.96000 490.339
30.97000 489.044
30.98000 484.080
30.99000 479.670
31.00000 487.597
31.01000 496.459
31.02000 506.128
31.03000 519.361
31.04000 533.016
31.05000 547.620
31.06000 565.089
31.07000 582.752
31.08000 594.821
31.09000 592.799
31.10000 590.955
31.11000 600.597
31.12000 626.746
31.13000 653.025
31.14000 683.814
31.15000 718.910
31.16000 753.755
31.17000 780.695
31.18000 802.219
31.19000 824.381
31.20000 863.213
31.21000 909.412
31.22000 956.185
31.23000 1010.364
31.24000 1066.806
31.25000 1117.714
31.26000 1200.101
31.27000 1278.188
31.28000 1351.115
31.29000 1398.604
31.30000 1442.659
31.31000 1494.664
31.32000 1573.242
31.33000 1653.958
31.34000 1710.971
31.35000 1764.090
31.36000 1804.297
31.37000 1845.396
31.38000 1887.918
31.39000 1930.459
31.40000 1957.082
31.41000 1966.614
31.42000 1976.103
31.43000 1989.047
31.44000 2004.302
31.45000 2018.344
31.46000 1991.464
31.47000 1944.585
31.48000 1898.303
31.49000 1861.150
31.50000 1827.090
31.51000 1795.938
31.52000 1746.469
31.53000 1698.723
31.54000 1647.995
31.55000 1580.808
31.56000 1511.104
31.57000 1444.311
31.58000 1388.309
31.59000 1333.320
31.60000 1293.255
31.61000 1220.237
31.62000 1162.738
31.63000 1106.270
31.64000 1051.628
31.65000 997.020
31.66000 950.208
31.67000 912.767
31.68000 875.415
31.69000 836.961
31.70000 797.817
31.71000 758.986
31.72000 734.326
31.73000 717.331
31.74000 700.313
31.75000 682.852
31.76000 665.226
31.77000 648.897
31.78000 616.404
31.79000 583.423
31.80000 553.750
31.81000 544.622
31.82000 539.036
31.83000 534.774
31.84000 535.971
31.85000 537.761
31.86000 539.103
31.87000 522.575
31.88000 508.821
31.89000 498.612
31.90000 495.353
31.91000 492.276
31.92000 485.787
31.93000 474.721
31.94000 463.637
31.95000 456.934
31.96000 454.121
31.97000 451.299
31.98000 447.835
31.99000 443.988
32.00000 440.081
32.01000 434.855
32.02000 429.081
32.03000 423.669
32.04000 416.607
32.05000 409.749
32.06000 404.274
32.07000 408.504
32.08000 414.610
32.09000 420.379
32.10000 424.601
32.11000 428.632
32.12000 431.737
32.13000 423.728
32.14000 416.748
32.15000 414.235
32.16000 421.404
32.17000 428.907
32.18000 428.406
32.19000 415.956
32.20000 403.392
32.21000 393.408
32.22000 385.992
32.23000 378.646
32.24000 378.387
32.25000 382.841
32.26000 387.329
32.27000 392.779
32.28000 398.669
32.29000 404.249
32.30000 403.205
32.31000 400.310
32.32000 397.525
32.33000 395.623
32.34000 393.912
32.35000 393.171
32.36000 397.406
32.37000 402.343
32.38000 406.244
32.39000 402.462
32.40000 398.902
32.41000 394.734
32.42000 389.108
32.43000 383.420
32.44000 381.657
32.45000 386.399
32.46000 391.239
32.47000 393.795
32.48000 393.270
32.49000 392.899
32.50000 390.194
32.51000 385.762
32.52000 381.410
32.53000 380.009
32.54000 380.103
32.55000 380.194
32.56000 382.357
32.57000 385.050
32.58000 387.693
32.59000 389.889
32.60000 391.978
32.61000 393.017
32.62000 388.016
32.63000 382.051
32.64000 377.226
32.65000 377.051
32.66000 377.283
32.67000 376.235
32.68000 371.798
32.69000 367.178
32.70000 363.012
32.71000 359.676
32.72000 356.359
32.73000 354.513
32.74000 367.354
32.75000 376.260
32.76000 383.451
32.77000 389.226
32.78000 394.850
32.79000 392.712
32.80000 386.220
32.81000 379.956
32.82000 380.065
32.83000 382.496
32.84000 384.097
32.85000 376.949
32.86000 367.457
32.87000 359.462
32.88000 361.163
32.89000 364.606
32.90000 367.452
32.91000 367.333
32.92000 366.956
32.93000 363.823
32.94000 352.608
32.95000 340.869
32.96000 337.488
32.97000 351.087
32.98000 365.180
32.99000 373.409
33.00000 371.910
33.01000 370.810
33.02000 369.305
33.03000 367.428
33.04000 365.553
33.05000 363.882
33.06000 362.339
33.07000 360.838
33.08000 355.410
33.09000 348.645
33.10000 342.756
33.11000 347.635
33.12000 355.712
33.13000 362.285
33.14000 357.816
33.15000 351.124
33.16000 345.478
33.17000 343.954
33.18000 343.130
33.19000 344.156
33.20000 351.191
33.21000 358.687
33.22000 361.316
33.23000 353.006
33.24000 344.285
33.25000 338.961
33.26000 335.783
33.27000 333.528
33.28000 333.971
33.29000 337.219
33.30000 340.438
33.31000 340.252
33.32000 337.713
33.33000 335.227
33.34000 336.849
33.35000 340.278
33.36000 343.722
33.37000 347.384
33.38000 351.117
33.39000 353.793
33.40000 347.628
33.41000 339.476
33.42000 332.466
33.43000 335.873
33.44000 340.058
33.45000 343.118
33.46000 342.131
33.47000 340.780
33.48000 339.309
33.49000 337.539
33.50000 335.756
33.51000 334.622
33.52000 331.380
33.53000 328.999
33.54000 330.318
33.55000 335.948
33.56000 341.580
33.57000 346.310
33.58000 350.346
33.59000 354.320
33.60000 350.369
33.61000 342.506
33.62000 335.256
33.63000 338.656
33.64000 345.933
33.65000 352.285
33.66000 349.752
33.67000 344.997
33.68000 340.836
33.69000 346.888
33.70000 353.534
33.71000 357.399
33.72000 350.148
33.73000 341.740
33.74000 334.277
33.75000 329.415
33.76000 324.702
33.77000 321.587
33.78000 328.820
33.79000 334.341
33.80000 337.524
33.81000 337.666
33.82000 337.796
33.83000 338.630
33.84000 340.067
33.85000 341.489
33.86000 338.984
33.87000 334.305
33.88000 329.860
33.89000 330.407
33.90000 332.964
33.91000 334.872
33.92000 329.555
33.93000 322.231
33.94000 315.717
33.95000 328.346
33.96000 342.418
33.97000 353.898
33.98000 353.838
33.99000 352.398
34.00000 351.621
34.01000 352.858
34.02000 354.235
34.03000 355.178
34.04000 344.257
34.05000 335.794
34.06000 330.590
34.07000 330.105
34.08000 329.658
34.09000 330.761
34.10000 333.356
34.11000 335.934
34.12000 339.651
34.13000 344.034
34.14000 348.267
34.15000 348.480
34.16000 346.903
34.17000 345.148
34.18000 341.059
34.19000 336.252
34.20000 331.911
34.21000 334.377
34.22000 337.798
34.23000 341.927
34.24000 349.572
34.25000 357.696
34.26000 361.897
34.27000 352.886
34.28000 342.800
34.29000 335.660
34.30000 348.850
34.31000 359.505
34.32000 364.966
34.33000 362.074
34.34000 359.070
34.35000 357.199
34.36000 356.554
34.37000 355.912
34.38000 350.842
34.39000 342.672
34.40000 334.747
34.41000 335.247
34.42000 339.893
34.43000 344.056
34.44000 340.762
34.45000 334.924
34.46000 329.580
34.47000 329.113
34.48000 329.710
34.49000 331.446
34.50000 339.518
34.51000 348.566
34.52000 354.167
34.53000 346.887
34.54000 338.384
34.55000 332.175
34.56000 324.639
34.57000 318.778
34.58000 317.096
34.59000 322.863
34.60000 328.777
34.61000 332.552
34.62000 333.733
34.63000 334.906
34.64000 335.397
34.65000 335.342
34.66000 335.192
34.67000 330.656
34.68000 323.731
34.69000 317.310
34.70000 320.281
34.71000 326.798
34.72000 332.840
34.73000 332.525
34.74000 330.754
34.75000 328.931
34.76000 326.785
34.77000 324.582
34.78000 322.934
34.79000 323.586
34.80000 324.491
34.81000 325.171
34.82000 335.311
34.83000 343.693
34.84000 346.742
34.85000 339.262
34.86000 331.500
34.87000 329.339
34.88000 334.751
34.89000 340.202
34.90000 338.704
34.91000 331.001
34.92000 323.376
34.93000 320.982
34.94000 321.745
34.95000 322.528
34.96000 323.739
34.97000 325.129
34.98000 326.433
34.99000 324.570
35.00000 322.041
35.01000 319.258
35.02000 314.670
35.03000 309.731
35.04000 306.417
35.05000 310.624
35.06000 315.773
35.07000 319.748
35.08000 312.029
35.09000 305.232
35.10000 302.876
35.11000 310.215
35.12000 317.894
35.13000 320.595
35.14000 315.810
35.15000 310.951
35.16000 308.516
35.17000 322.131
35.18000 331.171
35.19000 335.791
35.20000 337.449
35.21000 338.909
35.22000 334.639
35.23000 327.725
35.24000 321.170
35.25000 320.256
35.26000 321.074
35.27000 321.482
35.28000 318.587
35.29000 314.972
35.30000 311.660
35.31000 309.911
35.32000 308.386
35.33000 307.179
35.34000 306.958
35.35000 306.849
35.36000 307.832
35.37000 311.450
35.38000 315.184
35.39000 317.379
35.40000 317.002
35.41000 316.586
35.42000 316.366
35.43000 309.700
35.44000 305.182
35.45000 304.307
35.46000 306.149
35.47000 307.889
35.48000 305.775
35.49000 301.693
35.50000 297.786
35.51000 297.961
35.52000 299.469
35.53000 301.205
35.54000 305.030
35.55000 309.363
35.56000 312.408
35.57000 307.985
35.58000 302.358
35.59000 297.800
35.60000 303.921
35.61000 309.776
35.62000 312.993
35.63000 309.167
35.64000 304.958
35.65000 299.256
35.66000 290.791
35.67000 282.266
35.68000 277.504
35.69000 286.333
35.70000 292.470
35.71000 295.534
35.72000 296.041
35.73000 296.618
35.74000 300.884
35.75000 307.232
35.76000 313.361
35.77000 312.071
35.78000 308.121
35.79000 304.647
35.80000 306.236
35.81000 309.191
35.82000 311.440
35.83000 309.072
35.84000 305.867
35.85000 303.213
35.86000 305.794
35.87000 308.421
35.88000 308.858
35.89000 302.826
35.90000 296.369
35.91000 294.284
35.92000 301.146
35.93000 308.273
35.94000 312.449
35.95000 310.299
35.96000 308.753
35.97000 304.637
35.98000 298.125
35.99000 291.707
36.00000 292.503
36.01000 297.819
36.02000 302.990
36.03000 301.746
36.04000 297.923
36.05000 294.046
36.06000 289.497
36.07000 284.746
36.08000 281.330
36.09000 287.799
36.10000 296.274
36.11000 303.433
36.12000 306.936
36.13000 309.463
36.14000 310.334
36.15000 305.792
36.16000 300.829
36.17000 296.584
36.18000 293.964
36.19000 291.406
36.20000 289.839
36.21000 291.447
36.22000 292.625
36.23000 295.368
36.24000 299.752
36.25000 304.100
36.26000 303.785
36.27000 300.224
36.28000 296.738
36.29000 294.828
36.30000 293.717
36.31000 292.757
36.32000 294.036
36.33000 296.056
36.34000 297.657
36.35000 295.717
36.36000 292.976
36.37000 290.615
36.38000 292.261
36.39000 294.161
36.40000 295.525
36.41000 294.946
36.42000 294.190
36.43000 293.733
36.44000 294.020
36.45000 294.343
36.46000 294.550
36.47000 305.774
36.48000 314.080
36.49000 313.880
36.50000 303.692
36.51000 293.496
36.52000 285.257
36.53000 278.533
36.54000 271.911
36.55000 275.362
36.56000 283.878
36.57000 292.198
36.58000 297.068
36.59000 300.673
36.60000 304.012
36.61000 304.760
36.62000 304.854
36.63000 304.937
36.64000 302.888
36.65000 300.822
36.66000 299.601
36.67000 301.779
36.68000 304.314
36.69000 304.837
36.70000 299.789
36.71000 294.416
36.72000 290.856
36.73000 286.429
36.74000 283.144
36.75000 282.467
36.76000 285.208
36.77000 287.967
36.78000 292.471
36.79000 298.487
36.80000 304.440
36.81000 305.251
36.82000 303.097
36.83000 300.849
36.84000 296.592
36.85000 291.520
36.86000 286.725
36.87000 285.046
36.88000 284.239
36.89000 283.520
36.90000 292.222
36.91000 301.326
36.92000 307.761
36.93000 302.223
36.94000 295.239
36.95000 289.543
36.96000 287.790
36.97000 286.312
36.98000 285.298
36.99000 303.093
37.00000 316.894
37.01000 320.718
37.02000 309.984
37.03000 299.125
37.04000 297.286
37.05000 304.208
37.06000 311.083
37.07000 309.708
37.08000 303.067
37.09000 296.662
37.10000 296.650
37.11000 299.504
37.12000 302.198
37.13000 302.783
37.14000 302.713
37.15000 302.650
37.16000 301.606
37.17000 300.504
37.18000 299.398
37.19000 298.267
37.20000 297.131
37.21000 295.216
37.22000 290.656
37.23000 285.878
37.24000 282.488
37.25000 292.965
37.26000 301.373
37.27000 302.871
37.28000 293.171
37.29000 283.317
37.30000 280.246
37.31000 284.579
37.32000 288.900
37.33000 285.850
37.34000 277.545
37.35000 269.527
37.36000 271.584
37.37000 278.637
37.38000 285.488
37.39000 289.159
37.40000 291.739
37.41000 294.103
37.42000 293.891
37.43000 293.162
37.44000 292.080
37.45000 289.011
37.46000 285.634
37.47000 283.291
37.48000 284.842
37.49000 286.767
37.50000 288.175
37.51000 290.079
37.52000 291.568
37.53000 293.502
37.54000 296.236
37.55000 298.986
37.56000 300.069
37.57000 299.117
37.58000 298.161
37.59000 292.288
37.60000 282.492
37.61000 272.915
37.62000 273.749
37.63000 280.296
37.64000 286.727
37.65000 290.961
37.66000 294.361
37.67000 297.515
37.68000 299.639
37.69000 301.311
37.70000 302.195
37.71000 298.108
37.72000 293.150
37.73000 288.621
37.74000 285.889
37.75000 283.355
37.76000 281.448
37.77000 282.133
37.78000 282.795
37.79000 284.887
37.80000 289.819
37.81000 294.829
37.82000 294.974
37.83000 288.492
37.84000 281.973
37.85000 281.378
37.86000 286.118
37.87000 290.783
37.88000 290.210
37.89000 286.453
37.90000 282.892
37.91000 283.904
37.92000 286.840
37.93000 289.595
37.94000 290.740
37.95000 291.357
37.96000 291.967
37.97000 292.523
37.98000 293.069
37.99000 292.825
38.00000 288.899
38.01000 284.508
38.02000 281.111
38.03000 281.197
38.04000 281.469
38.05000 284.879
38.06000 295.187
38.07000 305.742
38.08000 311.812
38.09000 311.085
38.10000 310.288
38.11000 309.887
38.12000 295.402
38.13000 285.808
38.14000 285.156
38.15000 290.544
38.16000 295.799
38.17000 297.105
38.18000 296.577
38.19000 296.075
38.20000 298.516
38.21000 301.641
38.22000 304.574
38.23000 305.943
38.24000 306.969
38.25000 307.482
38.26000 305.321
38.27000 302.776
38.28000 300.758
38.29000 299.990
38.30000 299.460
38.31000 300.154
38.32000 303.825
38.33000 307.630
38.34000 311.464
38.35000 315.347
38.36000 319.231
38.37000 321.298
38.38000 307.987
38.39000 298.992
38.40000 305.984
38.41000 324.988
38.42000 343.629
38.43000 348.188
38.44000 345.506
38.45000 342.938
38.46000 348.867
38.47000 357.219
38.48000 366.303
38.49000 382.207
38.50000 399.780
38.51000 416.991
38.52000 432.085
38.53000 446.836
38.54000 458.805
38.55000 471.708
38.56000 482.304
38.57000 496.335
38.58000 519.604
38.59000 543.383
38.60000 572.249
38.61000 610.590
38.62000 649.145
38.63000 670.754
38.64000 709.931
38.65000 737.131
38.66000 764.443
38.67000 791.850
38.68000 819.508
38.69000 860.665
38.70000 909.506
38.71000 956.683
38.72000 978.926
38.73000 990.630
38.74000 1001.983
38.75000 1009.554
38.76000 1016.097
38.77000 1021.083
38.78000 1015.797
38.79000 1008.634
38.80000 1002.695
38.81000 990.827
38.82000 980.454
38.83000 968.063
38.84000 949.672
38.85000 930.883
38.86000 910.754
38.87000 887.865
38.88000 864.892
38.89000 851.390
38.90000 818.833
38.91000 795.778
38.92000 762.034
38.93000 718.251
38.94000 674.640
38.95000 644.696
38.96000 623.380
38.97000 602.634
38.98000 572.756
38.99000 540.517
39.00000 509.203
39.01000 489.538
39.02000 473.384
39.03000 456.626
39.04000 435.359
39.05000 413.168
39.06000 394.394
39.07000 379.967
39.08000 368.375
39.09000 357.396
39.10000 348.439
39.11000 339.642
39.12000 332.651
39.13000 329.782
39.14000 327.073
39.15000 325.408
39.16000 323.786
39.17000 322.623
39.18000 318.448
39.19000 311.091
39.20000 303.753
39.21000 298.919
39.22000 295.840
39.23000 292.825
39.24000 293.451
39.25000 295.741
39.26000 297.530
39.27000 291.864
39.28000 283.709
39.29000 276.597
39.30000 278.382
39.31000 282.198
39.32000 285.488
39.33000 282.975
39.34000 280.106
39.35000 278.334
39.36000 280.574
39.37000 283.182
39.38000 285.089
39.39000 285.230
39.40000 285.285
39.41000 285.320
39.42000 270.577
39.43000 259.646
39.44000 257.764
39.45000 266.590
39.46000 275.419
39.47000 280.208
39.48000 281.840
39.49000 283.447
39.50000 280.156
39.51000 274.428
39.52000 268.995
39.53000 268.852
39.54000 270.663
39.55000 272.309
39.56000 272.348
39.57000 271.979
39.58000 271.655
39.59000 277.878
39.60000 284.174
39.61000 288.052
39.62000 282.114
39.63000 275.131
39.64000 269.437
39.65000 267.335
39.66000 265.444
39.67000 264.188
39.68000 262.034
39.69000 260.425
39.70000 261.822
39.71000 267.193
39.72000 272.579
39.73000 274.217
39.74000 272.586
39.75000 270.970
39.76000 270.775
39.77000 271.404
39.78000 272.020
39.79000 272.372
39.80000 272.616
39.81000 272.453
39.82000 267.663
39.83000 261.568
39.84000 256.136
39.85000 258.358
39.86000 261.557
39.87000 264.931
39.88000 269.094
39.89000 273.353
39.90000 275.445
39.91000 270.851
39.92000 265.785
39.93000 262.298
39.94000 262.817
39.95000 263.307
39.96000 264.661
39.97000 267.285
39.98000 269.920
39.99000 268.346
40.00000 262.652
40.01000 256.994
40.02000 255.410
40.03000 256.479
40.04000 257.534
40.05000 258.187
40.06000 258.659
40.07000 258.937
40.08000 256.628
40.09000 253.509
40.10000 250.688
40.11000 248.680
40.12000 247.063
40.13000 246.262
40.14000 249.576
40.15000 253.461
40.16000 255.478
40.17000 251.112
40.18000 246.215
40.19000 242.732
40.20000 255.024
40.21000 264.892
40.22000 268.895
40.23000 263.323
40.24000 257.615
40.25000 256.008
40.26000 258.913
40.27000 261.810
40.28000 259.986
40.29000 254.768
40.30000 249.723
40.31000 250.882
40.32000 255.141
40.33000 258.933
40.34000 255.332
40.35000 249.172
40.36000 243.521
40.37000 244.995
40.38000 247.814
40.39000 249.734
40.40000 246.564
40.41000 242.595
40.42000 239.393
40.43000 239.096
40.44000 239.082
40.45000 239.071
40.46000 245.855
40.47000 251.370
40.48000 255.096
40.49000 255.586
40.50000 256.010
40.51000 256.258
40.52000 256.291
40.53000 256.323
40.54000 254.998
40.55000 252.581
40.56000 250.235
40.57000 251.304
40.58000 254.262
40.59000 256.988
40.60000 255.282
40.61000 251.878
40.62000 248.717
40.63000 244.394
40.64000 240.218
40.65000 236.570
40.66000 236.284
40.67000 236.594
40.68000 237.307
40.69000 239.723
40.70000 242.331
40.71000 244.297
40.72000 246.067
40.73000 247.443
40.74000 247.894
40.75000 246.493
40.76000 245.039
40.77000 246.293
40.78000 251.264
40.79000 256.255
40.80000 256.280
40.81000 251.795
40.82000 247.387
40.83000 248.427
40.84000 252.807
40.85000 256.853
40.86000 252.997
40.87000 245.796
40.88000 239.030
40.89000 240.497
40.90000 244.036
40.91000 247.568
40.92000 251.061
40.93000 254.545
40.94000 257.037
40.95000 254.866
40.96000 252.099
40.97000 249.955
40.98000 248.915
40.99000 248.155
41.00000 247.767
41.01000 248.205
41.02000 248.673
41.03000 248.126
41.04000 246.029
41.05000 243.915
41.06000 242.847
41.07000 253.961
41.08000 261.329
41.09000 261.119
41.10000 255.753
41.11000 250.416
41.12000 245.924
41.13000 241.827
41.14000 237.938
41.15000 237.019
41.16000 237.059
41.17000 237.118
41.18000 237.329
41.19000 237.575
41.20000 238.176
41.21000 240.646
41.22000 243.387
41.23000 245.564
41.24000 249.824
41.25000 253.401
41.26000 253.748
41.27000 246.182
41.28000 238.255
41.29000 235.375
41.30000 241.042
41.31000 246.849
41.32000 249.951
41.33000 242.104
41.34000 236.777
41.35000 238.064
41.36000 244.360
41.37000 250.510
41.38000 250.910
41.39000 248.332
41.40000 245.861
41.41000 243.387
41.42000 241.077
41.43000 238.855
41.44000 237.461
41.45000 236.270
41.46000 235.624
41.47000 238.189
41.48000 241.280
41.49000 243.792
41.50000 247.888
41.51000 251.362
41.52000 252.961
41.53000 249.481
41.54000 245.717
41.55000 243.915
41.56000 245.794
41.57000 247.758
41.58000 248.863
41.59000 245.427
41.60000 243.029
41.61000 240.105
41.62000 236.736
41.63000 233.501
41.64000 237.639
41.65000 246.005
41.66000 254.091
41.67000 252.125
41.68000 246.508
41.69000 241.491
41.70000 243.006
41.71000 246.308
41.72000 248.182
41.73000 240.548
41.74000 231.163
41.75000 223.370
41.76000 228.555
41.77000 234.103
41.78000 238.154
41.79000 237.723
41.80000 236.991
41.81000 237.352
41.82000 239.981
41.83000 242.681
41.84000 244.273
41.85000 243.321
41.86000 242.635
41.87000 241.257
41.88000 239.221
41.89000 237.207
41.90000 236.925
41.91000 237.744
41.92000 238.541
41.93000 238.818
41.94000 238.864
41.95000 239.006
41.96000 240.377
41.97000 242.121
41.98000 243.721
41.99000 244.242
42.00000 244.539
42.01000 244.791
42.02000 242.031
42.03000 239.381
42.04000 237.329
42.05000 237.264
42.06000 237.357
42.07000 238.808
42.08000 243.379
42.09000 248.073
42.10000 250.965
42.11000 243.136
42.12000 237.421
42.13000 235.876
42.14000 238.773
42.15000 241.658
42.16000 242.888
42.17000 242.949
42.18000 243.009
42.19000 242.077
42.20000 240.717
42.21000 239.503
42.22000 240.502
42.23000 242.244
42.24000 243.417
42.25000 239.694
42.26000 234.845
42.27000 230.660
42.28000 229.901
42.29000 229.698
42.30000 229.661
42.31000 230.230
42.32000 230.856
42.33000 231.129
42.34000 230.508
42.35000 229.843
42.36000 229.417
42.37000 228.989
42.38000 228.678
42.39000 229.761
42.40000 232.507
42.41000 235.253
42.42000 237.032
42.43000 238.048
42.44000 239.050
42.45000 238.074
42.46000 236.096
42.47000 234.018
42.48000 230.118
42.49000 225.540
42.50000 221.633
42.51000 224.363
42.52000 228.791
42.53000 232.680
42.54000 230.948
42.55000 228.632
42.56000 227.930
42.57000 233.823
42.58000 240.424
42.59000 243.206
42.60000 235.264
42.61000 226.681
42.62000 220.962
42.63000 223.048
42.64000 224.741
42.65000 230.036
42.66000 240.125
42.67000 250.230
42.68000 253.506
42.69000 250.771
42.70000 248.064
42.71000 245.851
42.72000 243.972
42.73000 242.167
42.74000 241.992
42.75000 242.488
42.76000 242.751
42.77000 240.350
42.78000 237.191
42.79000 234.372
42.80000 233.412
42.81000 232.886
42.82000 233.134
42.83000 236.903
42.84000 241.105
42.85000 243.010
42.86000 237.772
42.87000 232.023
42.88000 228.057
42.89000 227.453
42.90000 227.084
42.91000 225.610
42.92000 222.502
42.93000 219.378
42.94000 221.118
42.95000 227.664
42.96000 234.169
42.97000 235.430
42.98000 233.262
42.99000 231.027
43.00000 226.953
43.01000 222.043
43.02000 217.760
43.03000 221.957
43.04000 228.825
43.05000 235.045
43.06000 234.221
43.07000 232.163
43.08000 229.522
43.09000 223.911
43.10000 217.885
43.11000 215.538
43.12000 225.863
43.13000 237.254
43.14000 245.374
43.15000 229.070
43.16000 215.844
43.17000 210.903
43.18000 219.588
43.19000 228.473
43.20000 232.678
43.21000 231.690
43.22000 230.702
43.23000 228.574
43.24000 225.633
43.25000 222.768
43.26000 222.692
43.27000 224.018
43.28000 225.475
43.29000 229.042
43.30000 233.344
43.31000 237.293
43.32000 234.264
43.33000 230.074
43.34000 226.741
43.35000 228.294
43.36000 230.621
43.37000 231.622
43.38000 227.559
43.39000 222.999
43.40000 219.649
43.41000 220.806
43.42000 221.885
43.43000 222.193
43.44000 221.098
43.45000 219.972
43.46000 221.138
43.47000 225.148
43.48000 229.161
43.49000 228.976
43.50000 225.365
43.51000 221.839
43.52000 222.596
43.53000 225.737
43.54000 228.648
43.55000 227.063
43.56000 223.744
43.57000 220.659
43.58000 223.869
43.59000 228.277
43.60000 231.597
43.61000 227.924
43.62000 223.005
43.63000 219.399
43.64000 221.366
43.65000 223.963
43.66000 225.925
43.67000 226.815
43.68000 227.459
43.69000 227.555
43.70000 226.546
43.71000 225.505
43.72000 223.510
43.73000 220.193
43.74000 216.869
43.75000 217.422
43.76000 221.525
43.77000 225.605
43.78000 227.937
43.79000 229.190
43.80000 230.251
43.81000 226.681
43.82000 221.135
43.83000 215.921
43.84000 217.472
43.85000 220.711
43.86000 224.031
43.87000 227.947
43.88000 231.981
43.89000 234.895
43.90000 232.503
43.91000 229.427
43.92000 227.039
43.93000 226.545
43.94000 226.266
43.95000 226.827
43.96000 229.261
43.97000 231.764
43.98000 229.819
43.99000 221.035
44.00000 212.174
44.01000 207.678
44.02000 222.411
44.03000 232.210
44.04000 233.685
44.05000 229.452
44.06000 225.357
44.07000 225.478
44.08000 227.586
44.09000 229.590
44.10000 231.826
44.11000 233.961
44.12000 235.668
44.13000 233.819
44.14000 231.177
44.15000 228.594
44.16000 226.326
44.17000 224.104
44.18000 222.336
44.19000 223.609
44.20000 224.853
44.21000 225.930
44.22000 226.594
44.23000 227.240
44.24000 226.338
44.25000 222.793
44.26000 219.204
44.27000 217.279
44.28000 213.444
44.29000 210.842
44.30000 212.289
44.31000 216.827
44.32000 221.286
44.33000 222.560
44.34000 222.173
44.35000 221.801
44.36000 220.930
44.37000 219.948
44.38000 218.848
44.39000 216.624
44.40000 214.120
44.41000 213.335
44.42000 222.776
44.43000 233.906
44.44000 242.967
44.45000 235.564
44.46000 228.131
44.47000 223.349
44.48000 225.800
44.49000 228.662
44.50000 230.432
44.51000 230.140
44.52000 229.800
44.53000 229.608
44.54000 237.240
44.55000 242.561
44.56000 245.304
44.57000 245.850
44.58000 246.338
44.59000 243.506
44.60000 238.756
44.61000 234.163
44.62000 236.642
44.63000 241.651
44.64000 245.811
44.65000 240.616
44.66000 232.842
44.67000 226.027
44.68000 225.652
44.69000 226.473
44.70000 227.156
44.71000 235.310
44.72000 242.791
44.73000 248.449
44.74000 248.602
44.75000 248.381
44.76000 248.790
44.77000 250.518
44.78000 252.287
44.79000 253.334
44.80000 252.962
44.81000 252.692
44.82000 253.442
44.83000 255.166
44.84000 256.847
44.85000 254.875
44.86000 250.562
44.87000 246.361
44.88000 247.538
44.89000 250.929
44.90000 254.513
44.91000 260.601
44.92000 267.453
44.93000 273.385
44.94000 272.296
44.95000 269.749
44.96000 267.588
44.97000 274.450
44.98000 281.225
44.99000 285.235
45.00000 279.999
45.01000 274.018
45.02000 271.213
45.03000 275.751
45.04000 280.584
45.05000 283.571
45.06000 276.320
45.07000 271.016
45.08000 272.535
45.09000 281.380
45.10000 290.212
45.11000 296.721
45.12000 301.577
45.13000 306.338
45.14000 309.826
45.15000 312.585
45.16000 314.899
45.17000 310.412
45.18000 303.622
45.19000 297.293
45.20000 294.975
45.21000 293.586
45.22000 292.386
45.23000 301.932
45.24000 311.436
45.25000 317.135
45.26000 308.722
45.27000 298.983
45.28000 291.540
45.29000 289.966
45.30000 288.685
45.31000 287.862
45.32000 282.884
45.33000 279.194
45.34000 278.634
45.35000 281.840
45.36000 285.056
45.37000 289.065
45.38000 293.703
45.39000 298.277
45.40000 295.777
45.41000 289.632
45.42000 283.729
45.43000 282.293
45.44000 282.531
45.45000 281.892
45.46000 272.478
45.47000 260.801
45.48000 250.534
45.49000 261.091
45.50000 273.260
45.51000 282.393
45.52000 279.008
45.53000 274.265
45.54000 270.528
45.55000 269.636
45.56000 268.917
45.57000 268.436
45.58000 256.075
45.59000 246.683
45.60000 243.856
45.61000 249.837
45.62000 255.858
45.63000 255.485
45.64000 249.440
45.65000 243.453
45.66000 243.420
45.67000 246.883
45.68000 250.281
45.69000 252.216
45.70000 253.545
45.71000 254.584
45.72000 252.259
45.73000 248.969
45.74000 246.031
45.75000 244.266
45.76000 242.927
45.77000 242.395
45.78000 245.573
45.79000 249.211
45.80000 250.091
45.81000 242.335
45.82000 233.955
45.83000 228.159
45.84000 224.789
45.85000 222.318
45.86000 221.915
45.87000 224.600
45.88000 227.314
45.89000 228.265
45.90000 227.458
45.91000 226.657
45.92000 226.869
45.93000 227.743
45.94000 228.673
45.95000 231.206
45.96000 234.473
45.97000 237.314
45.98000 234.339
45.99000 229.519
46.00000 225.150
46.01000 223.817
46.02000 223.222
46.03000 222.338
46.04000 219.976
46.05000 217.406
46.06000 213.814
46.07000 206.680
46.08000 199.245
46.09000 193.933
46.10000 204.730
46.11000 213.504
46.12000 217.761
46.13000 214.533
46.14000 211.193
46.15000 210.165
46.16000 211.723
46.17000 213.278
46.18000 212.219
46.19000 209.249
46.20000 206.382
46.21000 207.310
46.22000 210.163
46.23000 212.951
46.24000 214.675
46.25000 216.025
46.26000 217.266
46.27000 212.811
46.28000 207.609
46.29000 203.760
46.30000 207.699
46.31000 212.883
46.32000 216.581
46.33000 214.562
46.34000 211.977
46.35000 210.073
46.36000 210.036
46.37000 210.085
46.38000 208.961
46.39000 205.682
46.40000 202.357
46.41000 200.778
46.42000 201.382
46.43000 201.993
46.44000 201.023
46.45000 198.756
46.46000 196.521
46.47000 195.922
46.48000 196.240
46.49000 196.549
46.50000 196.663
46.51000 196.702
46.52000 196.739
46.53000 199.916
46.54000 203.547
46.55000 206.665
46.56000 206.462
46.57000 205.663
46.58000 205.364
46.59000 207.211
46.60000 209.302
46.61000 210.886
46.62000 206.672
46.63000 203.070
46.64000 201.807
46.65000 205.296
46.66000 208.923
46.67000 210.206
46.68000 208.220
46.69000 206.212
46.70000 207.053
46.71000 210.525
46.72000 213.918
46.73000 211.455
46.74000 205.349
46.75000 199.441
46.76000 198.365
46.77000 199.365
46.78000 200.306
46.79000 201.180
46.80000 201.961
46.81000 202.189
46.82000 198.349
46.83000 193.690
46.84000 190.923
46.85000 197.190
46.86000 204.634
46.87000 210.422
46.88000 210.933
46.89000 211.018
46.90000 209.093
46.91000 202.652
46.92000 196.042
46.93000 192.595
46.94000 194.052
46.95000 195.564
46.96000 196.335
46.97000 198.189
46.98000 199.425
46.99000 199.716
47.00000 199.353
47.01000 198.947
47.02000 197.209
47.03000 194.837
47.04000 192.582
47.05000 194.136
47.06000 196.731
47.07000 199.431
47.08000 203.009
47.09000 206.785
47.10000 209.198
47.11000 204.329
47.12000 198.385
47.13000 193.648
47.14000 194.695
47.15000 195.960
47.16000 196.399
47.17000 194.787
47.18000 193.078
47.19000 193.092
47.20000 196.066
47.21000 199.091
47.22000 200.720
47.23000 198.498
47.24000 196.967
47.25000 193.298
47.26000 187.985
47.27000 182.850
47.28000 185.054
47.29000 191.116
47.30000 196.932
47.31000 199.818
47.32000 201.518
47.33000 202.941
47.34000 201.712
47.35000 199.819
47.36000 197.467
47.37000 192.358
47.38000 186.790
47.39000 182.250
47.40000 185.527
47.41000 188.872
47.42000 189.635
47.43000 183.304
47.44000 176.564
47.45000 173.297
47.46000 176.640
47.47000 180.143
47.48000 182.127
47.49000 185.026
47.50000 187.043
47.51000 187.250
47.52000 185.902
47.53000 184.559
47.54000 183.507
47.55000 182.624
47.56000 181.770
47.57000 183.822
47.58000 186.867
47.59000 189.387
47.60000 186.082
47.61000 181.157
47.62000 177.474
47.63000 182.198
47.64000 188.496
47.65000 193.742
47.66000 194.552
47.67000 194.785
47.68000 194.127
47.69000 190.762
47.70000 187.211
47.71000 185.314
47.72000 186.903
47.73000 188.604
47.74000 189.613
47.75000 187.852
47.76000 186.590
47.77000 186.732
47.78000 188.226
47.79000 189.702
47.80000 189.656
47.81000 188.627
47.82000 187.623
47.83000 185.641
47.84000 183.334
47.85000 181.113
47.86000 180.005
47.87000 179.240
47.88000 178.555
47.89000 178.481
47.90000 178.534
47.91000 178.580
47.92000 184.641
47.93000 190.417
47.94000 194.320
47.95000 191.917
47.96000 189.002
47.97000 185.478
47.98000 180.540
47.99000 175.544
48.00000 172.447
48.01000 179.819
48.02000 185.222
48.03000 187.718
48.04000 187.068
48.05000 186.415
48.06000 185.591
48.07000 184.646
48.08000 183.719
48.09000 182.754
48.10000 181.807
48.11000 181.022
48.12000 182.740
48.13000 185.311
48.14000 187.122
48.15000 182.261
48.16000 175.840
48.17000 170.284
48.18000 171.740
48.19000 173.898
48.20000 175.878
48.21000 177.195
48.22000 178.449
48.23000 180.233
48.24000 183.379
48.25000 186.594
48.26000 188.668
48.27000 191.782
48.28000 194.073
48.29000 192.004
48.30000 184.652
48.31000 177.309
48.32000 176.831
48.33000 181.842
48.34000 186.785
48.35000 190.105
48.36000 192.473
48.37000 194.713
48.38000 194.563
48.39000 193.510
48.40000 192.579
48.41000 192.872
48.42000 193.483
48.43000 194.020
48.44000 193.636
48.45000 193.167
48.46000 191.754
48.47000 186.427
48.48000 180.670
48.49000 176.583
48.50000 177.252
48.51000 178.213
48.52000 178.857
48.53000 181.005
48.54000 182.628
48.55000 181.821
48.56000 177.728
48.57000 173.620
48.58000 175.374
48.59000 182.368
48.60000 189.297
48.61000 190.803
48.62000 189.069
48.63000 187.256
48.64000 183.623
48.65000 179.229
48.66000 175.220
48.67000 175.737
48.68000 177.560
48.69000 179.190
48.70000 181.412
48.71000 183.449
48.72000 184.062
48.73000 178.084
48.74000 171.280
48.75000 167.814
48.76000 174.874
48.77000 182.704
48.78000 188.133
48.79000 183.713
48.80000 180.126
48.81000 178.339
48.82000 179.258
48.83000 180.204
48.84000 181.505
48.85000 183.162
48.86000 184.809
48.87000 184.966
48.88000 184.135
48.89000 183.223
48.90000 179.938
48.91000 175.557
48.92000 171.625
48.93000 173.900
48.94000 178.158
48.95000 182.022
48.96000 184.959
48.97000 187.372
48.98000 188.605
48.99000 183.726
49.00000 177.976
49.01000 173.864
49.02000 175.477
49.03000 177.582
49.04000 179.089
49.05000 182.238
49.06000 184.699
49.07000 186.328
49.08000 186.568
49.09000 186.786
49.10000 186.961
49.11000 187.086
49.12000 187.212
49.13000 183.318
49.14000 176.479
49.15000 169.821
49.16000 170.083
49.17000 173.878
49.18000 177.502
49.19000 178.310
49.20000 178.121
49.21000 177.948
49.22000 178.758
49.23000 179.694
49.24000 180.428
49.25000 179.985
49.26000 179.352
49.27000 179.152
49.28000 180.627
49.29000 182.269
49.30000 183.481
49.31000 176.212
49.32000 170.222
49.33000 167.448
49.34000 170.623
49.35000 173.929
49.36000 176.703
49.37000 178.805
49.38000 180.903
49.39000 179.050
49.40000 173.927
49.41000 168.959
49.42000 172.183
49.43000 180.035
49.44000 187.331
49.45000 183.476
49.46000 175.257
49.47000 167.604
49.48000 167.606
49.49000 169.476
49.50000 171.182
49.51000 171.820
49.52000 172.264
49.53000 172.205
49.54000 169.972
49.55000 167.488
49.56000 165.604
49.57000 174.570
49.58000 182.173
49.59000 186.580
49.60000 184.447
49.61000 182.119
49.62000 181.391
49.63000 182.913
49.64000 184.449
49.65000 184.546
49.66000 183.301
49.67000 182.029
49.68000 178.737
49.69000 174.178
49.70000 169.703
49.71000 167.300
49.72000 165.794
49.73000 164.375
49.74000 171.423
49.75000 180.188
49.76000 187.869
49.77000 187.522
49.78000 185.546
49.79000 183.994
49.80000 184.489
49.81000 185.252
49.82000 185.847
49.83000 181.011
49.84000 176.823
49.85000 174.621
49.86000 176.918
49.87000 179.386
49.88000 180.627
49.89000 179.951
49.90000 179.252
49.91000 178.894
49.92000 175.625
49.93000 173.454
49.94000 174.578
49.95000 177.995
49.96000 181.324
49.97000 181.847
49.98000 181.028
49.99000 180.248
50.00000 180.283
50.01000 180.566
50.02000 180.715
50.03000 179.732
50.04000 178.493
50.05000 177.404
50.06000 177.129
50.07000 176.975
50.08000 176.851
50.09000 176.753
50.10000 176.676
50.11000 176.612
50.12000 176.580
50.13000 176.550
50.14000 176.144
50.15000 175.086
50.16000 174.017
50.17000 173.439
50.18000 169.228
50.19000 166.353
50.20000 166.346
50.21000 168.564
50.22000 170.742
50.23000 171.252
50.24000 170.879
50.25000 170.522
50.26000 174.008
50.27000 178.589
50.28000 182.678
50.29000 182.001
50.30000 180.122
50.31000 178.786
50.32000 180.732
50.33000 183.231
50.34000 185.271
50.35000 180.018
50.36000 175.092
50.37000 172.042
50.38000 174.186
50.39000 176.632
50.40000 179.733
50.41000 184.086
50.42000 188.470
50.43000 190.962
50.44000 186.999
50.45000 184.220
50.46000 183.496
50.47000 184.549
50.48000 185.569
50.49000 184.571
50.50000 182.390
50.51000 180.278
50.52000 182.609
50.53000 186.517
50.54000 190.341
50.55000 193.223
50.56000 195.842
50.57000 198.481
50.58000 201.261
50.59000 204.067
50.60000 206.408
50.61000 210.830
50.62000 214.706
50.63000 217.140
50.64000 215.157
50.65000 212.866
50.66000 211.834
50.67000 213.473
50.68000 215.199
50.69000 216.227
50.70000 216.335
50.71000 216.406
50.72000 217.249
50.73000 218.842
50.74000 220.415
50.75000 220.203
50.76000 218.829
50.77000 217.489
50.78000 218.855
50.79000 221.319
50.80000 223.790
50.81000 226.371
50.82000 228.986
50.83000 231.196
50.84000 230.262
50.85000 228.665
50.86000 227.306
50.87000 236.228
50.88000 244.911
50.89000 248.565
50.90000 235.155
50.91000 220.342
50.92000 210.707
50.93000 213.224
50.94000 216.246
50.95000 218.124
50.96000 211.480
50.97000 206.612
50.98000 202.125
50.99000 198.055
51.00000 194.025
51.01000 196.385
51.02000 203.365
51.03000 210.215
51.04000 208.764
51.05000 203.396
51.06000 198.076
51.07000 193.506
51.08000 189.195
51.09000 185.221
51.10000 184.239
51.11000 183.962
51.12000 183.722
51.13000 187.278
51.14000 190.807
51.15000 192.213
51.16000 185.631
51.17000 178.282
51.18000 171.835
51.19000 167.728
51.20000 163.742
51.21000 161.163
51.22000 163.902
51.23000 165.983
51.24000 167.842
51.25000 169.431
51.26000 171.018
51.27000 172.117
51.28000 172.825
51.29000 173.523
51.30000 175.660
51.31000 178.508
51.32000 181.045
51.33000 177.724
51.34000 172.176
51.35000 167.140
51.36000 167.347
51.37000 168.928
51.38000 170.320
51.39000 170.338
51.40000 170.146
51.41000 170.361
51.42000 172.282
51.43000 174.391
51.44000 174.788
51.45000 170.269
51.46000 165.445
51.47000 162.206
51.48000 165.783
51.49000 168.577
51.50000 170.594
51.51000 171.550
51.52000 172.499
51.53000 172.126
51.54000 170.562
51.55000 169.011
51.56000 165.237
51.57000 160.212
51.58000 155.393
51.59000 155.392
51.60000 157.416
51.61000 159.510
51.62000 162.438
51.63000 165.608
51.64000 168.447
51.65000 167.851
51.66000 166.742
51.67000 165.414
51.68000 163.064
51.69000 160.585
51.70000 158.174
51.71000 155.980
51.72000 153.802
51.73000 152.288
51.74000 155.544
51.75000 158.127
51.76000 161.799
51.77000 167.124
51.78000 172.465
51.79000 174.525
51.80000 173.260
51.81000 172.002
51.82000 168.155
51.83000 162.631
51.84000 157.442
51.85000 162.162
51.86000 171.488
51.87000 179.862
51.88000 174.903
51.89000 165.654
51.90000 157.251
51.91000 160.151
51.92000 164.906
51.93000 168.450
51.94000 165.678
51.95000 161.998
51.96000 158.570
51.97000 156.030
51.98000 153.568
51.99000 151.801
52.00000 155.873
52.01000 159.188
52.02000 161.530
52.03000 162.235
52.04000 162.914
52.05000 161.353
52.06000 157.246
52.07000 153.148
52.08000 150.432
52.09000 148.767
52.10000 147.157
52.11000 147.733
52.12000 149.433
52.13000 151.112
52.14000 152.436
52.15000 153.633
52.16000 154.735
52.17000 159.284
52.18000 164.107
52.19000 167.509
52.20000 162.597
52.21000 156.333
52.22000 151.654
52.23000 153.166
52.24000 155.304
52.25000 156.885
52.26000 155.273
52.27000 153.885
52.28000 153.784
52.29000 156.077
52.30000 158.425
52.31000 161.171
52.32000 164.421
52.33000 167.671
52.34000 169.165
52.35000 169.188
52.36000 169.139
52.37000 165.211
52.38000 159.074
52.39000 153.307
52.40000 155.052
52.41000 159.756
52.42000 164.141
52.43000 160.895
52.44000 156.081
52.45000 152.000
52.46000 152.755
52.47000 154.393
52.48000 155.443
52.49000 153.935
52.50000 152.131
52.51000 150.759
52.52000 154.971
52.53000 158.574
52.54000 162.097
52.55000 165.454
52.56000 168.805
52.57000 168.863
52.58000 164.257
52.59000 159.618
52.60000 157.511
52.61000 157.783
52.62000 158.078
52.63000 160.187
52.64000 163.441
52.65000 166.370
52.66000 161.067
52.67000 152.178
52.68000 143.800
52.69000 146.893
52.70000 152.891
52.71000 158.004
52.72000 156.507
52.73000 153.658
52.74000 151.379
52.75000 151.872
52.76000 152.731
52.77000 153.403
52.78000 154.874
52.79000 156.097
52.80000 158.848
52.81000 165.083
52.82000 171.453
52.83000 171.663
52.84000 162.183
52.85000 152.584
52.86000 147.654
52.87000 152.957
52.88000 156.507
52.89000 157.534
52.90000 156.791
52.91000 156.044
52.92000 155.184
52.93000 154.270
52.94000 153.399
52.95000 153.140
52.96000 153.088
52.97000 153.148
52.98000 154.151
52.99000 155.370
53.00000 156.115
53.01000 154.280
53.02000 152.058
53.03000 150.281
53.04000 149.220
53.05000 148.416
53.06000 147.764
53.07000 147.499
53.08000 147.253
53.09000 149.010
53.10000 154.261
53.11000 159.576
53.12000 162.460
53.13000 159.734
53.14000 157.863
53.15000 157.055
53.16000 157.078
53.17000 157.102
53.18000 157.207
53.19000 157.356
53.20000 157.498
53.21000 157.051
53.22000 156.429
53.23000 155.939
53.24000 156.751
53.25000 157.894
53.26000 159.080
53.27000 160.528
53.28000 162.022
53.29000 163.243
53.30000 163.736
53.31000 164.075
53.32000 164.117
53.33000 163.329
53.34000 162.493
53.35000 161.619
53.36000 160.672
53.37000 159.723
53.38000 159.182
53.39000 157.641
53.40000 156.566
53.41000 157.525
53.42000 160.261
53.43000 162.985
53.44000 164.927
53.45000 166.407
53.46000 167.842
53.47000 166.469
53.48000 164.085
53.49000 161.747
53.50000 159.935
53.51000 158.271
53.52000 156.670
53.53000 155.508
53.54000 154.429
53.55000 153.527
53.56000 152.408
53.57000 151.458
53.58000 150.869
53.59000 151.398
53.60000 152.005
53.61000 153.122
53.62000 155.326
53.63000 157.566
53.64000 158.905
53.65000 157.003
53.66000 155.633
53.67000 154.944
53.68000 154.923
53.69000 154.898
53.70000 154.644
53.71000 154.239
53.72000 153.844
53.73000 155.435
53.74000 157.813
53.75000 159.953
53.76000 158.923
53.77000 156.902
53.78000 155.376
53.79000 157.725
53.80000 160.900
53.81000 163.604
53.82000 159.243
53.83000 154.751
53.84000 151.190
53.85000 150.809
53.86000 150.692
53.87000 150.019
53.88000 148.031
53.89000 145.987
53.90000 144.713
53.91000 149.865
53.92000 153.645
53.93000 155.771
53.94000 156.078
53.95000 156.403
53.96000 159.764
53.97000 165.338
53.98000 170.810
53.99000 171.099
54.00000 168.881
54.01000 166.541
54.02000 162.273
54.03000 157.338
54.04000 152.717
54.05000 150.920
54.06000 149.793
54.07000 148.815
54.08000 150.718
54.09000 152.725
54.10000 154.605
54.11000 156.003
54.12000 157.355
54.13000 157.934
54.14000 156.495
54.15000 154.952
54.16000 153.950
54.17000 147.872
54.18000 143.344
54.19000 141.612
54.20000 143.322
54.21000 145.045
54.22000 148.324
54.23000 152.867
54.24000 157.351
54.25000 156.273
54.26000 152.232
54.27000 148.409
54.28000 148.776
54.29000 150.747
54.30000 152.568
54.31000 152.831
54.32000 152.682
54.33000 152.550
54.34000 151.894
54.35000 151.247
54.36000 149.970
54.37000 146.037
54.38000 141.807
54.39000 138.297
54.40000 136.864
54.41000 135.562
54.42000 134.685
54.43000 145.432
54.44000 153.663
54.45000 159.265
54.46000 161.258
54.47000 163.228
54.48000 162.784
54.49000 160.146
54.50000 157.531
54.51000 155.949
54.52000 155.018
54.53000 154.127
54.54000 154.161
54.55000 154.587
54.56000 155.211
54.57000 158.213
54.58000 161.911
54.59000 165.226
54.60000 157.236
54.61000 148.300
54.62000 141.035
54.63000 141.630
54.64000 143.228
54.65000 145.807
54.66000 151.525
54.67000 157.479
54.68000 161.626
54.69000 158.270
54.70000 155.533
54.71000 152.990
54.72000 150.745
54.73000 148.504
54.74000 147.373
54.75000 147.378
54.76000 147.382
54.77000 148.615
54.78000 150.657
54.79000 152.728
54.80000 155.647
54.81000 158.963
54.82000 161.873
54.83000 159.034
54.84000 154.331
54.85000 150.054
54.86000 152.434
54.87000 155.841
54.88000 159.149
54.89000 161.931
54.90000 164.636
54.91000 166.339
54.92000 164.487
54.93000 162.322
54.94000 160.764
54.95000 160.393
54.96000 160.149
54.97000 160.447
54.98000 161.662
54.99000 162.891
55.00000 160.550
55.01000 154.115
55.02000 147.693
55.03000 148.178
55.04000 153.854
55.05000 159.443
55.06000 161.544
55.07000 161.838
55.08000 162.204
55.09000 163.785
55.10000 165.801
55.11000 167.660
55.12000 163.737
55.13000 158.951
55.14000 155.103
55.15000 156.787
55.16000 159.378
55.17000 161.293
55.18000 160.544
55.19000 159.524
55.20000 158.768
55.21000 159.406
55.22000 159.962
55.23000 161.070
55.24000 163.216
55.25000 165.386
55.26000 164.527
55.27000 159.787
55.28000 155.038
55.29000 154.522
55.30000 157.577
55.31000 160.643
55.32000 164.234
55.33000 168.128
55.34000 171.802
55.35000 170.940
55.36000 168.277
55.37000 165.793
55.38000 164.605
55.39000 163.850
55.40000 163.970
55.41000 169.918
55.42000 176.939
55.43000 181.352
55.44000 174.338
55.45000 165.982
55.46000 159.617
55.47000 173.532
55.48000 185.561
55.49000 192.366
55.50000 188.326
55.51000 183.951
55.52000 183.929
55.53000 190.116
55.54000 196.349
55.55000 199.709
55.56000 200.346
55.57000 200.994
55.58000 202.466
55.59000 204.462
55.60000 206.398
55.61000 206.747
55.62000 206.401
55.63000 206.074
55.64000 207.729
55.65000 209.796
55.66000 212.493
55.67000 219.943
55.68000 228.372
55.69000 236.285
55.70000 241.675
55.71000 246.727
55.72000 250.677
55.73000 248.555
55.74000 246.476
55.75000 249.112
55.76000 262.575
55.77000 276.466
55.78000 288.059
55.79000 296.008
55.80000 303.912
55.81000 307.989
55.82000 333.051
55.83000 349.932
55.84000 365.964
55.85000 381.394
55.86000 396.765
55.87000 410.132
55.88000 422.526
55.89000 434.335
55.90000 450.195
55.91000 466.155
55.92000 481.277
55.93000 489.189
55.94000 495.440
55.95000 504.031
55.96000 525.432
55.97000 548.775
55.98000 567.471
55.99000 580.926
56.00000 591.418
56.01000 599.408
56.02000 601.046
56.03000 602.372
56.04000 602.976
56.05000 602.311
56.06000 601.622
56.07000 601.247
56.08000 601.102
56.09000 600.979
56.10000 594.180
56.11000 582.123
56.12000 570.118
56.13000 560.377
56.14000 551.851
56.15000 543.655
56.16000 534.283
56.17000 525.092
56.18000 516.201
56.19000 510.284
56.20000 505.130
56.21000 497.778
56.22000 476.905
56.23000 453.719
56.24000 434.726
56.25000 417.614
56.26000 403.751
56.27000 391.867
56.28000 385.542
56.29000 379.550
56.30000 370.334
56.31000 354.847
56.32000 339.198
56.33000 330.241
56.34000 307.020
56.35000 290.761
56.36000 282.758
56.37000 282.019
56.38000 281.147
56.39000 271.890
56.40000 257.645
56.41000 243.838
56.42000 239.019
56.43000 237.956
56.44000 236.746
56.45000 233.847
56.46000 230.469
56.47000 226.402
56.48000 217.552
56.49000 207.783
56.50000 199.611
56.51000 204.407
56.52000 209.717
56.53000 211.323
56.54000 201.414
56.55000 190.682
56.56000 182.902
56.57000 181.478
56.58000 180.269
56.59000 179.544
56.60000 181.519
56.61000 182.938
56.62000 183.254
56.63000 182.479
56.64000 181.718
56.65000 182.356
56.66000 183.916
56.67000 185.439
56.68000 179.302
56.69000 170.100
56.70000 161.555
56.71000 161.888
56.72000 165.017
56.73000 167.266
56.74000 162.558
56.75000 156.358
56.76000 151.069
56.77000 154.939
56.78000 159.275
56.79000 163.243
56.80000 165.942
56.81000 168.534
56.82000 168.111
56.83000 160.509
56.84000 152.598
56.85000 147.652
56.86000 150.958
56.87000 153.431
56.88000 153.966
56.89000 152.350
56.90000 150.733
56.91000 149.344
56.92000 148.121
56.93000 146.921
56.94000 144.680
56.95000 142.012
56.96000 139.623
56.97000 141.721
56.98000 145.384
56.99000 148.568
57.00000 147.429
57.01000 145.256
57.02000 143.369
57.03000 147.310
57.04000 151.457
57.05000 154.237
57.06000 151.792
57.07000 148.834
57.08000 147.457
57.09000 150.235
57.10000 153.233
57.11000 155.183
57.12000 149.541
57.13000 145.288
57.14000 141.328
57.15000 137.731
57.16000 134.148
57.17000 135.607
57.18000 141.194
57.19000 146.711
57.20000 146.843
57.21000 144.052
57.22000 141.381
57.23000 141.066
57.24000 141.660
57.25000 142.341
57.26000 143.931
57.27000 145.762
57.28000 147.380
57.29000 144.119
57.30000 140.554
57.31000 138.705
57.32000 144.150
57.33000 150.419
57.34000 154.424
57.35000 151.841
57.36000 148.836
57.37000 146.809
57.38000 144.007
57.39000 141.906
57.40000 140.053
57.41000 138.542
57.42000 137.035
57.43000 136.987
57.44000 138.277
57.45000 139.557
57.46000 139.091
57.47000 137.576
57.48000 136.142
57.49000 136.669
57.50000 138.031
57.51000 139.075
57.52000 136.255
57.53000 132.296
57.54000 128.743
57.55000 132.772
57.56000 137.617
57.57000 141.618
57.58000 141.617
57.59000 141.099
57.60000 140.254
57.61000 138.352
57.62000 136.369
57.63000 134.985
57.64000 137.381
57.65000 139.296
57.66000 141.159
57.67000 142.940
57.68000 144.720
57.69000 146.051
57.70000 146.920
57.71000 147.784
57.72000 144.584
57.73000 138.667
57.74000 132.972
57.75000 134.080
57.76000 138.396
57.77000 142.401
57.78000 141.946
57.79000 140.035
57.80000 138.295
57.81000 138.132
57.82000 138.299
57.83000 138.571
57.84000 139.399
57.85000 140.310
57.86000 141.788
57.87000 145.298
57.88000 148.988
57.89000 151.648
57.90000 146.510
57.91000 142.297
57.92000 140.166
57.93000 141.590
57.94000 143.073
57.95000 142.135
57.96000 138.400
57.97000 134.670
57.98000 132.448
57.99000 131.383
58.00000 130.420
58.01000 133.583
58.02000 138.899
58.03000 143.923
58.04000 143.941
58.05000 142.151
58.06000 140.499
58.07000 137.839
58.08000 135.232
58.09000 133.314
58.10000 135.503
58.11000 138.371
58.12000 140.581
58.13000 140.184
58.14000 139.517
58.15000 139.023
58.16000 138.653
58.17000 138.371
58.18000 139.663
58.19000 143.932
58.20000 148.271
58.21000 149.867
58.22000 147.920
58.23000 145.960
58.24000 143.373
58.25000 140.258
58.26000 137.174
58.27000 135.831
58.28000 135.493
58.29000 135.217
58.30000 136.217
58.31000 137.726
58.32000 139.135
58.33000 140.840
58.34000 142.458
58.35000 143.962
58.36000 144.691
58.37000 145.277
58.38000 145.192
58.39000 142.140
58.40000 138.736
58.41000 136.139
58.42000 137.036
58.43000 137.931
58.44000 138.017
58.45000 136.413
58.46000 134.755
58.47000 133.849
58.48000 134.024
58.49000 134.207
58.50000 135.529
58.51000 137.938
58.52000 140.312
58.53000 139.655
58.54000 137.057
58.55000 134.579
58.56000 135.227
58.57000 137.259
58.58000 139.176
58.59000 137.470
58.60000 134.888
58.61000 132.648
58.62000 133.004
58.63000 133.899
58.64000 134.626
58.65000 134.521
58.66000 134.304
58.67000 134.133
58.68000 129.956
58.69000 126.361
58.70000 123.922
58.71000 124.155
58.72000 124.496
58.73000 127.812
58.74000 135.879
58.75000 144.007
58.76000 148.217
58.77000 141.156
58.78000 136.419
58.79000 135.943
58.80000 138.501
58.81000 141.042
58.82000 143.004
58.83000 144.683
58.84000 146.283
58.85000 144.496
58.86000 141.773
58.87000 138.527
58.88000 130.730
58.89000 121.876
58.90000 114.823
58.91000 117.709
58.92000 122.115
58.93000 125.650
58.94000 123.944
58.95000 122.164
58.96000 121.459
58.97000 123.504
58.98000 125.687
58.99000 128.752
59.00000 133.381
59.01000 138.040
59.02000 140.586
59.03000 133.293
59.04000 128.283
59.05000 128.151
59.06000 131.889
59.07000 135.545
59.08000 135.523
59.09000 133.510
59.10000 131.573
59.11000 133.321
59.12000 136.255
59.13000 138.909
59.14000 138.763
59.15000 137.895
59.16000 136.814
59.17000 134.412
59.18000 131.782
59.19000 129.624
59.20000 131.906
59.21000 134.174
59.22000 134.845
59.23000 130.999
59.24000 126.879
59.25000 123.931
59.26000 123.280
59.27000 122.689
59.28000 122.350
59.29000 121.799
59.30000 121.416
59.31000 123.570
59.32000 127.975
59.33000 132.360
59.34000 135.359
59.35000 137.529
59.36000 139.634
59.37000 137.593
59.38000 134.033
59.39000 130.820
59.40000 131.643
59.41000 133.621
59.42000 135.717
59.43000 138.638
59.44000 141.719
59.45000 144.299
59.46000 139.599
59.47000 134.938
59.48000 131.788
59.49000 133.366
59.50000 135.287
59.51000 135.444
59.52000 131.778
59.53000 127.981
59.54000 125.698
59.55000 133.761
59.56000 139.564
59.57000 140.867
59.58000 137.687
59.59000 134.519
59.60000 132.602
59.61000 131.517
59.62000 130.457
59.63000 132.433
59.64000 135.654
59.65000 138.808
59.66000 141.025
59.67000 142.945
59.68000 144.473
59.69000 142.875
59.70000 140.600
59.71000 138.657
59.72000 135.774
59.73000 133.233
59.74000 131.150
59.75000 130.656
59.76000 130.297
59.77000 131.027
59.78000 134.368
59.79000 137.824
59.80000 139.991
59.81000 139.878
59.82000 139.772
59.83000 140.661
59.84000 142.663
59.85000 144.651
59.86000 143.804
59.87000 140.860
59.88000 137.967
59.89000 138.740
59.90000 141.280
59.91000 143.420
59.92000 139.028
59.93000 132.341
59.94000 126.188
59.95000 124.904
59.96000 124.793
59.97000 124.696
59.98000 124.684
59.99000 124.685
60.00000 125.231
60.01000 127.871
60.02000 130.719
60.03000 132.304
60.04000 130.542
60.05000 128.599
60.06000 127.333
60.07000 131.965
60.08000 135.458
60.09000 136.247
60.10000 133.652
60.11000 131.046
60.12000 128.259
60.13000 125.322
60.14000 122.422
60.15000 120.723
60.16000 119.724
60.17000 118.950
60.18000 122.621
60.19000 128.019
60.20000 132.815
60.21000 131.271
60.22000 128.029
60.23000 125.162
60.24000 128.042
60.25000 131.423
60.26000 134.374
60.27000 135.478
60.28000 136.372
60.29000 136.525
60.30000 134.508
60.31000 132.351
60.32000 130.891
60.33000 134.792
60.34000 137.813
60.35000 138.963
60.36000 137.503
60.37000 136.025
60.38000 134.720
60.39000 133.573
60.40000 132.436
60.41000 130.833
60.42000 128.974
60.43000 127.241
60.44000 128.618
60.45000 131.331
60.46000 133.926
60.47000 135.074
60.48000 135.792
60.49000 136.437
60.50000 137.707
60.51000 138.929
60.52000 139.994
60.53000 140.310
60.54000 140.529
60.55000 140.820
60.56000 141.345
60.57000 141.889
60.58000 142.269
60.59000 135.596
60.60000 130.350
60.61000 127.273
60.62000 127.558
60.63000 127.880
60.64000 129.718
60.65000 133.129
60.66000 136.523
60.67000 137.309
60.68000 136.305
60.69000 135.373
60.70000 136.685
60.71000 139.063
60.72000 141.113
60.73000 138.394
60.74000 134.105
60.75000 130.197
60.76000 130.492
60.77000 131.591
60.78000 132.213
60.79000 130.293
60.80000 127.998
60.81000 126.827
60.82000 129.708
60.83000 132.954
60.84000 135.298
60.85000 134.958
60.86000 134.601
60.87000 134.822
60.88000 136.039
60.89000 137.273
60.90000 137.799
60.91000 137.500
60.92000 137.200
60.93000 136.424
60.94000 135.287
60.95000 134.146
60.96000 132.825
60.97000 131.409
60.98000 130.057
60.99000 129.835
61.00000 130.024
61.01000 130.199
61.02000 131.344
61.03000 132.588
61.04000 133.852
61.05000 135.234
61.06000 136.635
61.07000 137.890
61.08000 138.555
61.09000 139.160
61.10000 139.609
61.11000 139.777
61.12000 139.894
61.13000 139.091
61.14000 136.532
61.15000 133.932
61.16000 132.722
61.17000 133.321
61.18000 133.927
61.19000 132.373
61.20000 128.971
61.21000 125.681
61.22000 128.933
61.23000 135.993
61.24000 142.741
61.25000 142.840
61.26000 140.262
61.27000 137.853
61.28000 133.319
61.29000 128.670
61.30000 125.108
61.31000 128.910
61.32000 134.091
61.33000 138.419
61.34000 138.943
61.35000 139.013
61.36000 139.067
61.37000 140.526
61.38000 141.753
61.39000 142.510
61.40000 142.275
61.41000 142.008
61.42000 143.820
61.43000 148.643
61.44000 153.490
61.45000 153.620
61.46000 149.207
61.47000 144.832
61.48000 143.846
61.49000 145.048
61.50000 146.344
61.51000 150.137
61.52000 155.043
61.53000 159.676
61.54000 163.761
61.55000 167.355
61.56000 172.353
61.57000 188.151
61.58000 206.212
61.59000 222.045
61.60000 226.810
61.61000 230.066
61.62000 232.621
61.63000 245.958
61.64000 257.325
61.65000 265.649
61.66000 266.880
61.67000 267.822
61.68000 271.745
61.69000 280.464
61.70000 289.247
61.71000 293.814
61.72000 283.948
61.73000 277.291
61.74000 272.184
61.75000 268.191
61.76000 264.079
61.77000 255.865
61.78000 245.633
61.79000 235.871
61.80000 228.390
61.81000 222.168
61.82000 215.137
61.83000 201.002
61.84000 185.206
61.85000 170.649
61.86000 162.985
61.87000 156.384
61.88000 151.080
61.89000 151.092
61.90000 151.511
61.91000 150.463
61.92000 145.639
61.93000 140.623
61.94000 137.309
61.95000 137.030
61.96000 136.810
61.97000 136.690
61.98000 136.148
61.99000 135.781
62.00000 137.684
62.01000 141.401
62.02000 145.086
62.03000 147.285
62.04000 148.673
62.05000 150.010
62.06000 150.704
62.07000 151.128
62.08000 151.132
62.09000 146.882
62.10000 141.527
62.11000 136.996
62.12000 137.626
62.13000 139.154
62.14000 140.409
62.15000 138.516
62.16000 136.678
62.17000 135.229
62.18000 134.886
62.19000 134.612
62.20000 135.013
62.21000 136.747
62.22000 138.516
62.23000 139.536
62.24000 137.287
62.25000 135.701
62.26000 134.103
62.27000 132.495
62.28000 130.985
62.29000 135.928
62.30000 144.767
62.31000 153.344
62.32000 149.059
62.33000 139.908
62.34000 131.701
62.35000 134.596
62.36000 140.694
62.37000 145.815
62.38000 144.013
62.39000 140.860
62.40000 138.216
62.41000 142.939
62.42000 147.639
62.43000 150.600
62.44000 148.076
62.45000 145.151
62.46000 142.765
62.47000 141.558
62.48000 140.391
62.49000 139.688
62.50000 139.892
62.51000 140.044
62.52000 141.356
62.53000 143.835
62.54000 146.284
62.55000 145.688
62.56000 143.051
62.57000 140.475
62.58000 140.016
62.59000 140.513
62.60000 141.054
62.61000 142.202
62.62000 143.546
62.63000 144.896
62.64000 146.307
62.65000 147.730
62.66000 148.947
62.67000 147.312
62.68000 145.591
62.69000 143.706
62.70000 141.253
62.71000 138.751
62.72000 138.455
62.73000 143.484
62.74000 148.749
62.75000 152.061
62.76000 148.953
62.77000 146.633
62.78000 143.503
62.79000 139.459
62.80000 135.430
62.81000 134.632
62.82000 136.244
62.83000 137.827
62.84000 140.300
62.85000 143.128
62.86000 145.694
62.87000 143.915
62.88000 140.599
62.89000 137.809
62.90000 139.875
62.91000 143.118
62.92000 145.943
62.93000 144.730
62.94000 143.139
62.95000 141.803
62.96000 141.454
62.97000 141.205
62.98000 142.260
62.99000 146.799
63.00000 151.528
63.01000 154.621
63.02000 149.812
63.03000 146.152
63.04000 144.034
63.05000 143.862
63.06000 143.695
63.07000 142.661
63.08000 140.906
63.09000 139.173
63.10000 141.100
63.11000 144.995
63.12000 148.758
63.13000 149.849
63.14000 149.895
63.15000 149.760
63.16000 147.705
63.17000 145.132
63.18000 142.854
63.19000 141.243
63.20000 139.954
63.21000 138.955
63.22000 139.208
63.23000 139.604
63.24000 140.142
63.25000 141.097
63.26000 142.079
63.27000 142.746
63.28000 141.731
63.29000 140.937
63.30000 141.083
63.31000 142.551
63.32000 144.028
63.33000 146.217
63.34000 149.069
63.35000 151.899
63.36000 156.354
63.37000 161.732
63.38000 166.829
63.39000 164.925
63.40000 159.992
63.41000 155.474
63.42000 156.120
63.43000 158.311
63.44000 160.281
63.45000 154.568
63.46000 148.198
63.47000 143.302
63.48000 145.496
63.49000 148.623
63.50000 150.254
63.51000 146.993
63.52000 143.353
63.53000 140.799
63.54000 144.767
63.55000 147.959
63.56000 148.244
63.57000 143.989
63.58000 139.680
63.59000 139.909
63.60000 144.892
63.61000 149.852
63.62000 151.940
63.63000 152.027
63.64000 152.082
63.65000 151.115
63.66000 149.659
63.67000 148.210
63.68000 146.856
63.69000 145.533
63.70000 144.327
63.71000 143.971
63.72000 143.827
63.73000 143.992
63.74000 145.819
63.75000 147.894
63.76000 148.758
63.77000 145.231
63.78000 141.305
63.79000 138.463
63.80000 149.661
63.81000 158.774
63.82000 162.324
63.83000 156.239
63.84000 149.983
63.85000 148.449
63.86000 152.461
63.87000 156.473
63.88000 155.467
63.89000 150.599
63.90000 145.819
63.91000 144.776
63.92000 145.712
63.93000 146.666
63.94000 147.948
63.95000 149.350
63.96000 150.645
63.97000 152.271
63.98000 153.805
63.99000 155.606
64.00000 159.025
64.01000 162.715
64.02000 164.507
64.03000 158.648
64.04000 151.984
64.05000 147.016
64.06000 147.863
64.07000 148.786
64.08000 150.967
64.09000 155.561
64.10000 160.215
64.11000 161.494
64.12000 158.349
64.13000 155.185
64.14000 156.746
64.15000 162.387
64.16000 167.948
64.17000 168.767
64.18000 166.805
64.19000 164.808
64.20000 162.037
64.21000 158.953
64.22000 156.069
64.23000 155.833
64.24000 156.291
64.25000 156.676
64.26000 156.567
64.27000 156.363
64.28000 156.818
64.29000 160.221
64.30000 163.981
64.31000 166.862
64.32000 163.477
64.33000 160.458
64.34000 158.877
64.35000 160.345
64.36000 161.913
64.37000 163.567
64.38000 165.345
64.39000 167.124
64.40000 165.744
64.41000 161.296
64.42000 156.908
64.43000 157.991
64.44000 162.632
64.45000 167.257
64.46000 171.426
64.47000 175.390
64.48000 179.137
64.49000 177.476
64.50000 174.409
64.51000 171.203
64.52000 166.929
64.53000 162.428
64.54000 159.473
64.55000 164.260
64.56000 170.112
64.57000 174.712
64.58000 173.112
64.59000 171.424
64.60000 171.472
64.61000 175.595
64.62000 179.887
64.63000 182.074
64.64000 180.851
64.65000 179.580
64.66000 178.917
64.67000 172.758
64.68000 168.607
64.69000 167.007
64.70000 167.252
64.71000 167.545
64.72000 169.494
64.73000 172.266
64.74000 174.912
64.75000 173.912
64.76000 171.819
64.77000 170.576
64.78000 176.881
64.79000 184.962
64.80000 191.415
64.81000 188.726
64.82000 184.613
64.83000 181.302
64.84000 181.792
64.85000 182.484
64.86000 183.020
64.87000 183.149
64.88000 183.256
64.89000 182.963
64.90000 181.949
64.91000 180.921
64.92000 180.355
64.93000 188.523
64.94000 194.150
64.95000 194.613
64.96000 190.913
64.97000 187.267
64.98000 186.189
64.99000 186.521
65.00000 186.840
65.01000 187.924
65.02000 189.215
65.03000 190.224
65.04000 188.342
65.05000 185.703
65.06000 183.918
65.07000 187.520
65.08000 192.068
65.09000 195.810
65.10000 195.945
65.11000 195.728
65.12000 196.108
65.13000 198.202
65.14000 200.402
65.15000 202.572
65.16000 204.681
65.17000 206.788
65.18000 208.006
65.19000 205.756
65.20000 204.166
65.21000 205.903
65.22000 210.639
65.23000 215.287
65.24000 213.907
65.25000 208.859
65.26000 203.960
65.27000 209.046
65.28000 217.856
65.29000 226.324
65.30000 230.729
65.31000 233.952
65.32000 236.352
65.33000 232.864
65.34000 228.218
65.35000 224.315
65.36000 232.811
65.37000 241.198
65.38000 247.575
65.39000 247.569
65.40000 247.091
65.41000 248.584
65.42000 254.417
65.43000 260.404
65.44000 264.026
65.45000 263.044
65.46000 262.310
65.47000 267.854
65.48000 279.758
65.49000 291.610
65.50000 297.908
65.51000 300.453
65.52000 302.942
65.53000 302.076
65.54000 299.752
65.55000 297.932
65.56000 303.165
65.57000 310.670
65.58000 318.749
65.59000 331.499
65.60000 345.275
65.61000 357.074
65.62000 363.507
65.63000 368.285
65.64000 373.114
65.65000 378.122
65.66000 383.146
65.67000 393.366
65.68000 416.222
65.69000 439.647
65.70000 454.424
65.71000 505.412
65.72000 542.751
65.73000 582.545
65.74000 625.128
65.75000 667.733
65.76000 714.281
65.77000 763.793
65.78000 812.478
65.79000 852.298
65.80000 886.403
65.81000 919.861
65.82000 942.484
65.83000 961.248
65.84000 978.831
65.85000 985.419
65.86000 989.318
65.87000 992.717
65.88000 1000.504
65.89000 1007.771
65.90000 1011.018
65.91000 998.554
65.92000 984.502
65.93000 967.113
65.94000 940.748
65.95000 913.888
65.96000 896.274
65.97000 805.422
65.98000 737.391
65.99000 678.069
66.00000 629.818
66.01000 581.613
66.02000 537.460
66.03000 496.707
66.04000 456.431
66.05000 425.565
66.06000 400.682
66.07000 376.080
66.08000 357.218
66.09000 340.619
66.10000 325.200
66.11000 322.501
66.12000 323.260
66.13000 323.932
66.14000 321.752
66.15000 319.413
66.16000 314.874
66.17000 300.761
66.18000 285.536
66.19000 277.553
66.20000 291.117
66.21000 306.113
66.22000 316.308
66.23000 315.845
66.24000 315.258
66.25000 317.557
66.26000 323.940
66.27000 330.353
66.28000 337.349
66.29000 344.895
66.30000 352.382
66.31000 365.954
66.32000 383.071
66.33000 399.800
66.34000 406.672
66.35000 409.251
66.36000 411.845
66.37000 414.648
66.38000 417.513
66.39000 420.093
66.40000 418.281
66.41000 415.905
66.42000 414.173
66.43000 415.560
66.44000 417.361
66.45000 418.541
66.46000 417.671
66.47000 416.640
66.48000 415.915
66.49000 413.200
66.50000 411.084
66.51000 409.647
66.52000 409.278
66.53000 408.922
66.54000 398.132
66.55000 376.318
66.56000 354.599
66.57000 338.821
66.58000 327.331
66.59000 315.972
66.60000 308.844
66.61000 303.756
66.62000 299.207
66.63000 302.693
66.64000 308.862
66.65000 314.494
66.66000 313.874
66.67000 312.057
66.68000 310.333
66.69000 309.108
66.70000 307.959
66.71000 306.637
66.72000 304.688
66.73000 302.682
66.74000 301.226
66.75000 306.692
66.76000 311.152
66.77000 315.933
66.78000 321.275
66.79000 326.627
66.80000 327.753
66.81000 323.877
66.82000 320.001
66.83000 321.228
66.84000 326.416
66.85000 331.461
66.86000 330.318
66.87000 325.875
66.88000 321.522
66.89000 318.783
66.90000 316.640
66.91000 314.658
66.92000 318.074
66.93000 322.373
66.94000 326.780
66.95000 331.838
66.96000 337.006
66.97000 342.280
66.98000 347.982
66.99000 353.731
67.00000 358.025
67.01000 350.932
67.02000 344.879
67.03000 339.394
67.04000 335.008
67.05000 330.649
67.06000 333.080
67.07000 344.480
67.08000 355.917
67.09000 359.452
67.10000 356.095
67.11000 352.829
67.12000 355.096
67.13000 360.631
67.14000 366.091
67.15000 369.894
67.16000 373.021
67.17000 375.946
67.18000 372.237
67.19000 367.165
67.20000 362.687
67.21000 362.306
67.22000 362.706
67.23000 364.779
67.24000 374.418
67.25000 384.980
67.26000 393.088
67.27000 388.460
67.28000 384.090
67.29000 380.380
67.30000 378.078
67.31000 375.823
67.32000 375.659
67.33000 378.569
67.34000 381.506
67.35000 386.639
67.36000 393.923
67.37000 401.154
67.38000 403.493
67.39000 402.626
67.40000 401.762
67.41000 400.960
67.42000 400.186
67.43000 399.454
67.44000 396.992
67.45000 394.231
67.46000 392.286
67.47000 396.731
67.48000 402.536
67.49000 406.771
67.50000 403.075
67.51000 398.278
67.52000 394.501
67.53000 404.515
67.54000 413.458
67.55000 422.171
67.56000 430.338
67.57000 438.483
67.58000 442.164
67.59000 438.557
67.60000 434.847
67.61000 432.903
67.62000 440.999
67.63000 446.481
67.64000 450.993
67.65000 454.800
67.66000 458.549
67.67000 460.243
67.68000 460.911
67.69000 461.549
67.70000 458.740
67.71000 455.019
67.72000 451.508
67.73000 449.874
67.74000 448.685
67.75000 447.454
67.76000 445.985
67.77000 444.479
67.78000 443.264
67.79000 458.929
67.80000 472.979
67.81000 483.227
67.82000 483.540
67.83000 483.334
67.84000 485.381
67.85000 491.508
67.86000 497.719
67.87000 501.151
67.88000 503.990
67.89000 505.941
67.90000 505.707
67.91000 503.697
67.92000 501.766
67.93000 503.687
67.94000 507.737
67.95000 511.640
67.96000 507.907
67.97000 501.649
67.98000 496.205
67.99000 499.150
68.00000 504.309
68.01000 509.745
68.02000 516.945
68.03000 524.457
68.04000 530.648
68.05000 523.037
68.06000 515.504
68.07000 512.753
68.08000 523.826
68.09000 535.772
68.10000 545.237
68.11000 549.731
68.12000 554.087
68.13000 556.614
68.14000 562.086
68.15000 565.940
68.16000 572.144
68.17000 580.486
68.18000 588.745
68.19000 591.201
68.20000 590.099
68.21000 589.029
68.22000 592.301
68.23000 597.153
68.24000 602.289
68.25000 610.831
68.26000 620.371
68.27000 628.545
68.28000 626.873
68.29000 623.249
68.30000 620.201
68.31000 636.842
68.32000 652.816
68.33000 663.949
68.34000 659.587
68.35000 654.062
68.36000 652.727
68.37000 660.673
68.38000 668.957
68.39000 673.984
68.40000 679.334
68.41000 683.153
68.42000 690.550
68.43000 701.603
68.44000 712.590
68.45000 716.180
68.46000 714.736
68.47000 713.324
68.48000 724.974
68.49000 742.010
68.50000 758.367
68.51000 765.098
68.52000 768.706
68.53000 774.250
68.54000 795.681
68.55000 820.630
68.56000 842.025
68.57000 865.587
68.58000 885.758
68.59000 905.280
68.60000 922.503
68.61000 939.523
68.62000 965.434
68.63000 1013.125
68.64000 1061.812
68.65000 1092.612
68.66000 1160.789
68.67000 1210.659
68.68000 1259.749
68.69000 1307.947
68.70000 1356.121
68.71000 1399.474
68.72000 1439.173
68.73000 1478.225
68.74000 1527.829
68.75000 1581.129
68.76000 1633.639
68.77000 1672.753
68.78000 1707.058
68.79000 1745.758
68.80000 1825.818
68.81000 1916.075
68.82000 1994.863
68.83000 2079.065
68.84000 2151.870
68.85000 2234.788
68.86000 2357.536
68.87000 2484.350
68.88000 2653.592
68.89000 2937.771
68.90000 3228.380
68.91000 3419.471
68.92000 4544.826
68.93000 5389.242
68.94000 6778.834
68.95000 8866.784
68.96000 10958.873
68.97000 13943.078
68.98000 17681.539
68.99000 21377.352
69.00000 25813.166
69.01000 30557.234
69.02000 35268.246
69.03000 39296.746
69.04000 43054.320
69.05000 46678.590
69.06000 48851.055
69.07000 50625.914
69.08000 52200.949
69.09000 52862.617
69.10000 53290.133
69.11000 53715.086
69.12000 54128.809
69.13000 54541.211
69.14000 55053.453
69.15000 55864.953
69.16000 56696.570
69.17000 57263.410
69.18000 57521.711
69.19000 57707.641
69.20000 57227.785
69.21000 55798.012
69.22000 54360.879
69.23000 52031.895
69.24000 48857.930
69.25000 45707.371
69.26000 42576.273
69.27000 39508.953
69.28000 36478.484
69.29000 34396.727
69.30000 32731.357
69.31000 31113.139
69.32000 30095.256
69.33000 29259.697
69.34000 28506.840
69.35000 27802.383
69.36000 27193.090
69.37000 26514.744
69.38000 25498.633
69.39000 24437.311
69.40000 23146.820
69.41000 21095.623
69.42000 18983.916
69.43000 17495.605
69.44000 14475.215
69.45000 12138.586
69.46000 10036.043
69.47000 8304.547
69.48000 6577.722
69.49000 5281.193
69.50000 4443.003
69.51000 3608.462
69.52000 3043.127
69.53000 2671.849
69.54000 2304.952
69.55000 2083.040
69.56000 1931.500
69.57000 1782.011
69.58000 1663.432
69.59000 1555.249
69.60000 1456.396
69.61000 1388.460
69.62000 1334.440
69.63000 1283.659
69.64000 1250.610
69.65000 1220.253
69.66000 1186.982
69.67000 1142.986
69.68000 1097.995
69.69000 1065.281
69.70000 1037.068
69.71000 1015.532
69.72000 996.095
69.73000 980.346
69.74000 964.666
69.75000 945.561
69.76000 922.369
69.77000 899.215
69.78000 881.927
69.79000 869.323
69.80000 856.631
69.81000 840.096
69.82000 821.497
69.83000 802.996
69.84000 786.284
69.85000 770.238
69.86000 755.385
69.87000 745.792
69.88000 738.379
69.89000 730.694
69.90000 721.329
69.91000 711.676
69.92000 702.763
69.93000 696.878
69.94000 691.317
69.95000 687.155
69.96000 677.856
69.97000 670.361
69.98000 665.170
69.99000 664.464
70.00000 663.874
