20.00000 1062.700
20.01000 1055.933
20.02000 1048.200
20.03000 1042.294
20.04000 1043.691
20.05000 1045.849
20.06000 1047.454
20.07000 1054.514
20.08000 1060.250
20.09000 1060.419
20.10000 1049.992
20.11000 1039.309
20.12000 1034.096
20.13000 1035.996
20.14000 1037.925
20.15000 1037.448
20.16000 1034.911
20.17000 1032.462
20.18000 1035.178
20.19000 1040.899
20.20000 1046.373
20.21000 1046.617
20.22000 1044.755
20.23000 1043.016
20.24000 1045.232
20.25000 1048.239
20.26000 1051.607
20.27000 1057.412
20.28000 1063.674
20.29000 1067.468
20.30000 1060.281
20.31000 1051.780
20.32000 1045.280
20.33000 1043.797
20.34000 1042.900
20.35000 1040.057
20.36000 1033.115
20.37000 1026.041
20.38000 1027.031
20.39000 1039.697
20.40000 1052.458
20.41000 1051.801
20.42000 1038.225
20.43000 1024.769
20.44000 1021.848
20.45000 1025.726
20.46000 1029.425
20.47000 1028.366
20.48000 1025.190
20.49000 1022.190
20.50000 1028.470
20.51000 1036.858
20.52000 1044.530
20.53000 1046.709
20.54000 1047.736
20.55000 1046.332
20.56000 1032.845
20.57000 1017.713
20.58000 1005.841
20.59000 1001.487
20.60000 998.494
20.61000 999.501
20.62000 1009.824
20.63000 1020.527
20.64000 1027.159
20.65000 1027.246
20.66000 1027.245
20.67000 1027.245
20.68000 1033.403
20.69000 1037.500
20.70000 1031.938
20.71000 1019.447
20.72000 1007.122
20.73000 1000.476
20.74000 996.627
20.75000 992.955
20.76000 992.547
20.77000 993.202
20.78000 992.750
20.79000 982.578
20.80000 970.135
20.81000 960.814
20.82000 968.860
20.83000 979.587
20.84000 988.206
20.85000 980.743
20.86000 973.457
20.87000 971.595
20.88000 983.698
20.89000 996.509
20.90000 1000.931
20.91000 990.397
20.92000 979.570
20.93000 973.632
20.94000 983.509
20.95000 990.317
20.96000 993.062
20.97000 992.560
20.98000 992.040
20.99000 990.653
21.00000 988.795
21.01000 987.007
21.02000 990.063
21.03000 994.645
21.04000 997.887
21.05000 987.575
21.06000 973.742
21.07000 961.523
21.08000 959.412
21.09000 959.058
21.10000 958.767
21.11000 960.084
21.12000 961.310
21.13000 961.743
21.14000 959.918
21.15000 957.954
21.16000 956.203
21.17000 954.873
21.18000 953.555
21.19000 952.795
21.20000 963.823
21.21000 971.584
21.22000 974.491
21.23000 973.057
21.24000 971.741
21.25000 978.229
21.26000 989.430
21.27000 1000.296
21.28000 994.619
21.29000 982.690
21.30000 971.866
21.31000 974.016
21.32000 979.909
21.33000 985.110
21.34000 985.425
21.35000 984.786
21.36000 984.251
21.37000 985.853
21.38000 987.409
21.39000 987.776
21.40000 984.392
21.41000 980.734
21.42000 974.273
21.43000 961.691
21.44000 948.896
21.45000 941.181
21.46000 955.637
21.47000 966.084
21.48000 973.128
21.49000 976.756
21.50000 980.301
21.51000 975.251
21.52000 964.443
21.53000 953.883
21.54000 950.085
21.55000 949.436
21.56000 949.427
21.57000 958.266
21.58000 969.932
21.59000 978.997
21.60000 967.115
21.61000 950.670
21.62000 936.605
21.63000 945.425
21.64000 955.612
21.65000 961.716
21.66000 953.560
21.67000 944.176
21.68000 938.539
21.69000 941.948
21.70000 945.757
21.71000 948.152
21.72000 958.770
21.73000 966.541
21.74000 965.115
21.75000 953.319
21.76000 941.521
21.77000 931.078
21.78000 921.647
21.79000 912.378
21.80000 920.211
21.81000 936.218
21.82000 950.921
21.83000 944.092
21.84000 929.649
21.85000 916.793
21.86000 918.570
21.87000 923.898
21.88000 928.538
21.89000 933.021
21.90000 936.829
21.91000 940.414
21.92000 943.138
21.93000 945.775
21.94000 946.366
21.95000 941.497
21.96000 936.331
21.97000 932.953
21.98000 937.833
21.99000 941.552
22.00000 939.016
22.01000 928.595
22.02000 918.169
22.03000 917.504
22.04000 924.957
22.05000 932.321
22.06000 933.711
22.07000 931.777
22.08000 929.910
22.09000 929.418
22.10000 929.463
22.11000 929.894
22.12000 934.438
22.13000 940.093
22.14000 945.098
22.15000 932.702
22.16000 919.253
22.17000 907.743
22.18000 904.599
22.19000 902.417
22.20000 900.534
22.21000 899.532
22.22000 898.588
22.23000 897.948
22.24000 892.724
22.25000 888.727
22.26000 892.761
22.27000 908.076
22.28000 923.466
22.29000 925.924
22.30000 916.336
22.31000 906.825
22.32000 901.466
22.33000 898.758
22.34000 896.055
22.35000 893.491
22.36000 890.987
22.37000 889.081
22.38000 894.625
22.39000 902.397
22.40000 909.385
22.41000 909.383
22.42000 908.139
22.43000 907.752
22.44000 911.493
22.45000 915.776
22.46000 918.486
22.47000 916.052
22.48000 913.217
22.49000 911.229
22.50000 891.993
22.51000 876.937
22.52000 866.973
22.53000 864.961
22.54000 863.042
22.55000 861.876
22.56000 861.497
22.57000 861.120
22.58000 870.112
22.59000 885.455
22.60000 900.163
22.61000 894.669
22.62000 879.513
22.63000 865.484
22.64000 868.026
22.65000 876.059
22.66000 883.384
22.67000 873.648
22.68000 861.590
22.69000 851.681
22.70000 853.348
22.71000 856.738
22.72000 861.964
22.73000 873.845
22.74000 886.331
22.75000 895.369
22.76000 901.495
22.77000 906.091
22.78000 909.212
22.79000 909.778
22.80000 910.299
22.81000 901.954
22.82000 883.199
22.83000 864.471
22.84000 854.739
22.85000 851.996
22.86000 849.328
22.87000 849.855
22.88000 852.074
22.89000 854.589
22.90000 862.338
22.91000 872.005
22.92000 880.936
22.93000 867.099
22.94000 849.533
22.95000 837.300
22.96000 857.343
22.97000 882.811
22.98000 900.921
22.99000 889.399
23.00000 874.759
23.01000 863.845
23.02000 871.997
23.03000 879.210
23.04000 880.037
23.05000 868.622
23.06000 856.904
23.07000 855.024
23.08000 866.038
23.09000 877.101
23.10000 879.784
23.11000 875.222
23.12000 870.672
23.13000 866.832
23.14000 863.408
23.15000 860.182
23.16000 861.219
23.17000 863.984
23.18000 866.570
23.19000 864.873
23.20000 862.244
23.21000 860.019
23.22000 860.550
23.23000 861.601
23.24000 863.884
23.25000 871.687
23.26000 880.157
23.27000 886.646
23.28000 861.838
23.29000 840.527
23.30000 825.172
23.31000 822.452
23.32000 820.144
23.33000 822.589
23.34000 831.969
23.35000 841.408
23.36000 846.198
23.37000 846.474
23.38000 846.757
23.39000 847.616
23.40000 848.850
23.41000 850.177
23.42000 853.999
23.43000 858.940
23.44000 863.611
23.45000 853.474
23.46000 839.943
23.47000 828.116
23.48000 829.512
23.49000 833.699
23.50000 836.970
23.51000 835.655
23.52000 833.709
23.53000 832.180
23.54000 825.421
23.55000 819.666
23.56000 818.890
23.57000 829.791
23.58000 841.177
23.59000 847.775
23.60000 846.615
23.61000 845.349
23.62000 844.687
23.63000 837.991
23.64000 833.463
23.65000 829.427
23.66000 825.746
23.67000 822.415
23.68000 831.339
23.69000 846.338
23.70000 860.656
23.71000 857.372
23.72000 848.704
23.73000 840.775
23.74000 839.404
23.75000 839.577
23.76000 839.501
23.77000 838.034
23.78000 836.350
23.79000 834.994
23.80000 831.765
23.81000 828.999
23.82000 827.106
23.83000 827.475
23.84000 827.961
23.85000 828.819
23.86000 830.346
23.87000 831.886
23.88000 832.734
23.89000 851.941
23.90000 865.151
23.91000 860.196
23.92000 840.602
23.93000 821.375
23.94000 819.577
23.95000 827.343
23.96000 834.822
23.97000 825.345
23.98000 810.395
23.99000 797.131
24.00000 801.094
24.01000 809.567
24.02000 817.148
24.03000 819.096
24.04000 820.056
24.05000 820.847
24.06000 827.423
24.07000 833.355
24.08000 836.279
24.09000 830.571
24.10000 824.326
24.11000 818.925
24.12000 815.205
24.13000 811.531
24.14000 809.407
24.15000 809.239
24.16000 809.129
24.17000 806.906
24.18000 802.779
24.19000 798.633
24.20000 793.141
24.21000 786.831
24.22000 780.706
24.23000 781.509
24.24000 785.033
24.25000 787.735
24.26000 780.653
24.27000 770.729
24.28000 763.775
24.29000 778.042
24.30000 796.479
24.31000 811.968
24.32000 815.191
24.33000 816.583
24.34000 814.631
24.35000 802.056
24.36000 788.693
24.37000 782.365
24.38000 791.504
24.39000 801.194
24.40000 807.055
24.41000 801.193
24.42000 796.929
24.43000 793.363
24.44000 790.503
24.45000 787.670
24.46000 787.786
24.47000 789.893
24.48000 791.952
24.49000 790.341
24.50000 787.162
24.51000 784.059
24.52000 782.022
24.53000 780.327
24.54000 779.842
24.55000 789.178
24.56000 800.672
24.57000 810.515
24.58000 800.067
24.59000 788.787
24.60000 780.674
24.61000 783.707
24.62000 787.711
24.63000 789.037
24.64000 783.854
24.65000 778.378
24.66000 774.924
24.67000 793.860
24.68000 807.830
24.69000 811.241
24.70000 802.648
24.71000 794.014
24.72000 779.360
24.73000 760.185
24.74000 741.329
24.75000 742.534
24.76000 753.672
24.77000 764.506
24.78000 770.231
24.79000 774.137
24.80000 776.752
24.81000 767.351
24.82000 755.010
24.83000 744.251
24.84000 747.523
24.85000 752.268
24.86000 757.545
24.87000 764.903
24.88000 772.471
24.89000 779.700
24.90000 786.020
24.91000 792.291
24.92000 796.402
24.93000 785.497
24.94000 777.227
24.95000 770.892
24.96000 767.012
24.97000 763.150
24.98000 763.960
24.99000 768.685
25.00000 773.356
25.01000 766.239
25.02000 752.752
25.03000 739.928
25.04000 740.595
25.05000 746.578
25.06000 752.868
25.07000 762.466
25.08000 772.964
25.09000 782.268
25.10000 772.214
25.11000 760.449
25.12000 751.521
25.13000 754.931
25.14000 759.774
25.15000 760.273
25.16000 747.850
25.17000 734.569
25.18000 725.540
25.19000 745.371
25.20000 760.828
25.21000 767.103
25.22000 760.383
25.23000 753.570
25.24000 750.632
25.25000 751.333
25.26000 752.028
25.27000 755.144
25.28000 759.709
25.29000 763.980
25.30000 760.848
25.31000 754.491
25.32000 748.683
25.33000 749.776
25.34000 752.950
25.35000 755.806
25.36000 750.691
25.37000 744.779
25.38000 740.421
25.39000 743.602
25.40000 747.783
25.41000 749.540
25.42000 743.310
25.43000 736.452
25.44000 731.630
25.45000 738.097
25.46000 743.328
25.47000 747.614
25.48000 750.412
25.49000 753.192
25.50000 752.262
25.51000 747.415
25.52000 742.588
25.53000 745.610
25.54000 754.048
25.55000 762.082
25.56000 757.063
25.57000 745.755
25.58000 734.750
25.59000 728.256
25.60000 723.269
25.61000 718.716
25.62000 728.139
25.63000 739.331
25.64000 748.060
25.65000 743.417
25.66000 736.765
25.67000 732.535
25.68000 737.153
25.69000 742.584
25.70000 746.524
25.71000 743.426
25.72000 740.783
25.73000 738.089
25.74000 735.305
25.75000 732.519
25.76000 724.816
25.77000 711.295
25.78000 697.792
25.79000 702.925
25.80000 722.511
25.81000 741.938
25.82000 754.502
25.83000 763.409
25.84000 770.718
25.85000 749.460
25.86000 717.652
25.87000 688.238
25.88000 705.555
25.89000 731.768
25.90000 752.769
25.91000 741.968
25.92000 725.777
25.93000 713.036
25.94000 714.300
25.95000 717.052
25.96000 719.108
25.97000 726.563
25.98000 732.623
25.99000 732.737
26.00000 721.368
26.01000 709.709
26.02000 707.786
26.03000 718.722
26.04000 729.711
26.05000 725.525
26.06000 708.125
26.07000 691.083
26.08000 695.960
26.09000 713.780
26.10000 730.951
26.11000 733.892
26.12000 731.021
26.13000 728.335
26.14000 715.297
26.15000 700.796
26.16000 688.271
26.17000 689.366
26.18000 693.053
26.19000 696.186
26.20000 696.820
26.21000 697.148
26.22000 697.401
26.23000 695.652
26.24000 694.159
26.25000 697.129
26.26000 709.635
26.27000 722.459
26.28000 724.523
26.29000 710.769
26.30000 696.876
26.31000 692.662
26.32000 697.927
26.33000 703.156
26.34000 705.053
26.35000 704.768
26.36000 704.519
26.37000 705.296
26.38000 706.536
26.39000 707.708
26.40000 714.589
26.41000 722.554
26.42000 729.052
26.43000 724.068
26.44000 716.641
26.45000 709.627
26.46000 704.703
26.47000 700.069
26.48000 696.420
26.49000 690.484
26.50000 685.575
26.51000 684.393
26.52000 692.017
26.53000 700.012
26.54000 705.693
26.55000 707.596
26.56000 709.446
26.57000 710.415
26.58000 695.044
26.59000 684.708
26.60000 687.815
26.61000 700.714
26.62000 713.292
26.63000 714.353
26.64000 709.662
26.65000 705.180
26.66000 700.478
26.67000 696.035
26.68000 691.290
26.69000 683.841
26.70000 675.749
26.71000 669.146
26.72000 670.966
26.73000 674.107
26.74000 676.640
26.75000 673.857
26.76000 671.178
26.77000 670.411
26.78000 674.638
26.79000 679.125
26.80000 682.015
26.81000 682.015
26.82000 681.956
26.83000 681.923
26.84000 686.060
26.85000 688.908
26.86000 686.843
26.87000 680.787
26.88000 674.903
26.89000 677.400
26.90000 684.530
26.91000 691.402
26.92000 692.066
26.93000 690.457
26.94000 688.388
26.95000 681.571
26.96000 673.502
26.97000 667.745
26.98000 676.715
26.99000 688.288
27.00000 697.827
27.01000 688.900
27.02000 679.857
27.03000 673.419
27.04000 674.511
27.05000 676.077
27.06000 672.860
27.07000 660.061
27.08000 646.995
27.09000 639.417
27.10000 646.225
27.11000 651.065
27.12000 658.606
27.13000 668.601
27.14000 678.498
27.15000 681.556
27.16000 680.423
27.17000 679.323
27.18000 676.427
27.19000 672.955
27.20000 669.714
27.21000 669.243
27.22000 669.581
27.23000 669.846
27.24000 669.578
27.25000 669.205
27.26000 668.891
27.27000 668.984
27.28000 669.106
27.29000 668.873
27.30000 667.510
27.31000 666.063
27.32000 663.783
27.33000 659.660
27.34000 655.470
27.35000 652.927
27.36000 651.907
27.37000 651.190
27.38000 650.124
27.39000 648.701
27.40000 647.326
27.41000 651.324
27.42000 658.977
27.43000 666.461
27.44000 667.075
27.45000 664.580
27.46000 662.075
27.47000 659.429
27.48000 656.737
27.49000 653.774
27.50000 648.584
27.51000 642.903
27.52000 638.030
27.53000 637.940
27.54000 638.450
27.55000 638.377
27.56000 636.242
27.57000 633.925
27.58000 633.369
27.59000 637.129
27.60000 641.085
27.61000 643.588
27.62000 652.808
27.63000 659.572
27.64000 657.916
27.65000 646.611
27.66000 635.336
27.67000 632.688
27.68000 636.570
27.69000 640.390
27.70000 645.811
27.71000 651.860
27.72000 657.507
27.73000 656.344
27.74000 652.738
27.75000 649.396
27.76000 648.549
27.77000 648.317
27.78000 648.114
27.79000 640.950
27.80000 633.845
27.81000 629.649
27.82000 636.906
27.83000 645.332
27.84000 649.891
27.85000 643.979
27.86000 637.482
27.87000 633.210
27.88000 628.848
27.89000 625.636
27.90000 626.410
27.91000 632.290
27.92000 638.190
27.93000 645.117
27.94000 652.912
27.95000 660.618
27.96000 654.714
27.97000 641.335
27.98000 628.895
27.99000 635.838
28.00000 650.472
28.01000 663.296
28.02000 656.410
28.03000 644.127
28.04000 633.227
28.05000 632.034
28.06000 632.549
28.07000 633.791
28.08000 638.213
28.09000 643.009
28.10000 645.334
28.11000 640.255
28.12000 634.678
28.13000 630.878
28.14000 637.126
28.15000 642.028
28.16000 641.133
28.17000 631.970
28.18000 622.746
28.19000 619.779
28.20000 622.737
28.21000 625.674
28.22000 628.366
28.23000 630.860
28.24000 632.866
28.25000 622.327
28.26000 606.284
28.27000 591.776
28.28000 596.794
28.29000 607.740
28.30000 617.602
28.31000 613.475
28.32000 607.325
28.33000 604.593
28.34000 618.578
28.35000 634.800
28.36000 646.206
28.37000 641.632
28.38000 635.787
28.39000 631.668
28.40000 628.818
28.41000 626.695
28.42000 623.632
28.43000 619.080
28.44000 614.509
28.45000 616.114
28.46000 624.295
28.47000 632.444
28.48000 632.721
28.49000 627.490
28.50000 622.555
28.51000 627.380
28.52000 636.941
28.53000 645.700
28.54000 642.363
28.55000 634.960
28.56000 628.195
28.57000 628.582
28.58000 630.387
28.59000 631.273
28.60000 627.128
28.61000 622.220
28.62000 619.707
28.63000 626.008
28.64000 633.128
28.65000 638.304
28.66000 621.171
28.67000 607.145
28.68000 598.691
28.69000 600.029
28.70000 601.549
28.71000 607.954
28.72000 620.185
28.73000 632.403
28.74000 627.361
28.75000 608.825
28.76000 590.623
28.77000 587.159
28.78000 591.609
28.79000 595.918
28.80000 597.656
28.81000 598.439
28.82000 599.164
28.83000 602.762
28.84000 606.657
28.85000 609.668
28.86000 607.233
28.87000 603.868
28.88000 602.415
28.89000 608.779
28.90000 615.983
28.91000 621.375
28.92000 614.133
28.93000 607.892
28.94000 600.834
28.95000 592.186
28.96000 583.498
28.97000 583.038
28.98000 593.531
28.99000 604.073
29.00000 605.425
29.01000 598.702
29.02000 592.108
29.03000 593.646
29.04000 600.021
29.05000 606.334
29.06000 611.257
29.07000 615.608
29.08000 619.683
29.09000 613.469
29.10000 605.158
29.11000 597.682
29.12000 596.014
29.13000 595.459
29.14000 595.329
29.15000 597.136
29.16000 599.180
29.17000 600.753
29.18000 599.071
29.19000 597.556
29.20000 596.811
29.21000 597.723
29.22000 598.691
29.23000 596.572
29.24000 589.881
29.25000 583.148
29.26000 583.879
29.27000 591.980
29.28000 600.013
29.29000 601.417
29.30000 598.444
29.31000 595.520
29.32000 593.976
29.33000 593.058
29.34000 592.190
29.35000 583.070
29.36000 572.288
29.37000 563.559
29.38000 571.055
29.39000 582.029
29.40000 589.989
29.41000 582.601
29.42000 573.064
29.43000 565.542
29.44000 578.829
29.45000 590.890
29.46000 597.667
29.47000 591.870
29.48000 585.533
29.49000 581.036
29.50000 579.564
29.51000 578.137
29.52000 577.386
29.53000 574.654
29.54000 572.821
29.55000 574.456
29.56000 578.638
29.57000 582.698
29.58000 582.334
29.59000 579.744
29.60000 577.268
29.61000 572.384
29.62000 567.061
29.63000 562.919
29.64000 569.469
29.65000 578.574
29.66000 585.677
29.67000 581.352
29.68000 575.217
29.69000 570.263
29.70000 572.402
29.71000 574.705
29.72000 575.858
29.73000 573.983
29.74000 571.949
29.75000 568.790
29.76000 563.581
29.77000 558.328
29.78000 555.416
29.79000 563.357
29.80000 568.857
29.81000 572.014
29.82000 573.254
29.83000 574.470
29.84000 574.483
29.85000 573.827
29.86000 573.194
29.87000 569.806
29.88000 565.620
29.89000 561.164
29.90000 553.895
29.91000 545.879
29.92000 539.259
29.93000 541.614
29.94000 545.568
29.95000 548.833
29.96000 552.279
29.97000 555.134
29.98000 558.653
29.99000 564.101
30.00000 569.673
30.01000 576.701
30.02000 586.666
30.03000 596.716
30.04000 602.564
30.05000 580.084
30.06000 564.170
30.07000 562.919
30.08000 575.104
30.09000 587.131
30.10000 587.655
30.11000 581.079
30.12000 574.689
30.13000 571.605
30.14000 570.016
30.15000 568.583
30.16000 569.065
30.17000 570.112
30.18000 570.633
30.19000 567.327
30.20000 563.258
30.21000 559.830
30.22000 564.888
30.23000 570.022
30.24000 572.696
30.25000 567.440
30.26000 561.583
30.27000 556.828
30.28000 554.529
30.29000 552.322
30.30000 550.978
30.31000 550.431
30.32000 550.047
30.33000 551.942
30.34000 556.184
30.35000 560.382
30.36000 559.268
30.37000 554.512
30.38000 549.859
30.39000 554.081
30.40000 562.146
30.41000 569.204
30.42000 561.822
30.43000 549.723
30.44000 539.347
30.45000 543.241
30.46000 550.317
30.47000 556.393
30.48000 556.528
30.49000 555.907
30.50000 555.743
30.51000 557.214
30.52000 558.831
30.53000 559.236
30.54000 556.652
30.55000 553.930
30.56000 552.203
30.57000 546.210
30.58000 541.808
30.59000 542.689
30.60000 549.673
30.61000 556.625
30.62000 554.627
30.63000 545.799
30.64000 537.112
30.65000 535.586
30.66000 537.723
30.67000 539.569
30.68000 536.394
30.69000 531.403
30.70000 526.568
30.71000 523.200
30.72000 520.196
30.73000 517.571
30.74000 526.703
30.75000 536.188
30.76000 544.508
30.77000 548.207
30.78000 551.430
30.79000 553.508
30.80000 552.462
30.81000 551.240
30.82000 550.434
30.83000 553.735
30.84000 556.240
30.85000 553.019
30.86000 542.411
30.87000 531.784
30.88000 527.592
30.89000 528.882
30.90000 530.159
30.91000 528.510
30.92000 525.248
30.93000 522.159
30.94000 522.669
30.95000 524.618
30.96000 527.358
30.97000 538.803
30.98000 552.649
30.99000 564.949
31.00000 555.209
31.01000 543.213
31.02000 533.047
31.03000 530.959
31.04000 529.828
31.05000 530.022
31.06000 534.212
31.07000 538.675
31.08000 541.724
31.09000 541.079
31.10000 540.509
31.11000 538.972
31.12000 536.044
31.13000 533.106
31.14000 531.183
31.15000 530.228
31.16000 529.280
31.17000 527.147
31.18000 524.299
31.19000 521.693
31.20000 525.379
31.21000 531.845
31.22000 538.296
31.23000 544.544
31.24000 550.731
31.25000 556.311
31.26000 545.970
31.27000 533.985
31.28000 523.439
31.29000 519.987
31.30000 517.493
31.31000 516.585
31.32000 520.982
31.33000 525.805
31.34000 529.212
31.35000 534.945
31.36000 539.369
31.37000 538.927
31.38000 530.716
31.39000 522.405
31.40000 519.991
31.41000 523.910
31.42000 527.814
31.43000 534.504
31.44000 543.092
31.45000 551.246
31.46000 544.753
31.47000 531.103
31.48000 518.119
31.49000 515.318
31.50000 515.965
31.51000 516.557
31.52000 510.556
31.53000 503.864
31.54000 498.864
31.55000 503.206
31.56000 508.978
31.57000 513.107
31.58000 511.142
31.59000 508.606
31.60000 506.758
31.61000 510.780
31.62000 514.104
31.63000 518.375
31.64000 524.325
31.65000 530.306
31.66000 532.209
31.67000 529.207
31.68000 526.201
31.69000 522.572
31.70000 518.470
31.71000 514.435
31.72000 513.461
31.73000 514.144
31.74000 514.863
31.75000 516.252
31.76000 517.893
31.77000 519.413
31.78000 517.050
31.79000 514.023
31.80000 511.416
31.81000 511.417
31.82000 511.868
31.83000 511.970
31.84000 510.637
31.85000 509.147
31.86000 508.030
31.87000 506.115
31.88000 504.581
31.89000 503.673
31.90000 503.991
31.91000 504.341
31.92000 505.593
31.93000 508.054
31.94000 510.520
31.95000 507.159
31.96000 498.641
31.97000 490.320
31.98000 494.689
31.99000 506.665
32.00000 518.155
32.01000 518.682
32.02000 514.666
32.03000 510.901
32.04000 507.925
32.05000 505.421
32.06000 503.345
32.07000 504.267
32.08000 505.769
32.09000 506.257
32.10000 502.089
32.11000 497.343
32.12000 493.686
32.13000 499.124
32.14000 503.952
32.15000 505.718
32.16000 500.847
32.17000 495.748
32.18000 495.478
32.19000 502.416
32.20000 509.423
32.21000 510.236
32.22000 504.881
32.23000 499.570
32.24000 498.740
32.25000 500.889
32.26000 503.138
32.27000 508.216
32.28000 514.590
32.29000 520.628
32.30000 518.472
32.31000 514.093
32.32000 509.250
32.33000 500.709
32.34000 491.368
32.35000 484.190
32.36000 488.112
32.37000 493.602
32.38000 497.939
32.39000 499.801
32.40000 501.127
32.41000 501.957
32.42000 501.601
32.43000 501.194
32.44000 500.775
32.45000 500.338
32.46000 499.900
32.47000 499.669
32.48000 503.988
32.49000 506.869
32.50000 499.788
32.51000 485.337
32.52000 471.370
32.53000 475.444
32.54000 488.659
32.55000 501.300
32.56000 505.369
32.57000 506.355
32.58000 507.333
32.59000 508.243
32.60000 509.135
32.61000 508.626
32.62000 500.046
32.63000 490.176
32.64000 482.194
32.65000 479.845
32.66000 478.387
32.67000 479.115
32.68000 485.640
32.69000 492.475
32.70000 495.969
32.71000 493.329
32.72000 490.557
32.73000 489.014
32.74000 486.782
32.75000 485.239
32.76000 484.922
32.77000 485.616
32.78000 486.303
32.79000 486.610
32.80000 486.704
32.81000 486.794
32.82000 490.808
32.83000 496.020
32.84000 501.253
32.85000 506.719
32.86000 512.246
32.87000 516.209
32.88000 510.024
32.89000 502.016
32.90000 495.396
32.91000 487.395
32.92000 480.669
32.93000 477.972
32.94000 487.088
32.95000 496.969
32.96000 501.799
32.97000 496.369
32.98000 490.641
32.99000 487.296
33.00000 489.359
33.01000 490.836
33.02000 492.882
33.03000 495.455
33.04000 498.003
33.05000 498.694
33.06000 498.232
33.07000 497.782
33.08000 499.148
33.09000 501.188
33.10000 502.125
33.11000 489.499
33.12000 472.844
33.13000 458.188
33.14000 458.195
33.15000 461.155
33.16000 463.652
33.17000 466.148
33.18000 468.232
33.19000 471.746
33.20000 479.902
33.21000 488.413
33.22000 492.164
33.23000 485.215
33.24000 477.865
33.25000 473.377
33.26000 473.799
33.27000 474.140
33.28000 475.074
33.29000 476.624
33.30000 478.167
33.31000 478.728
33.32000 478.611
33.33000 478.496
33.34000 478.034
33.35000 477.433
33.36000 476.374
33.37000 468.693
33.38000 458.832
33.39000 451.054
33.40000 460.696
33.41000 474.252
33.42000 485.907
33.43000 475.063
33.44000 463.073
33.45000 453.084
33.46000 450.297
33.47000 448.157
33.48000 449.272
33.49000 458.472
33.50000 468.053
33.51000 474.148
33.52000 466.362
33.53000 460.532
33.54000 461.309
33.55000 469.781
33.56000 478.221
33.57000 476.511
33.58000 466.994
33.59000 457.626
33.60000 457.687
33.61000 462.547
33.62000 467.089
33.63000 466.079
33.64000 463.050
33.65000 460.526
33.66000 462.860
33.67000 466.409
33.68000 469.515
33.69000 464.071
33.70000 458.184
33.71000 453.158
33.72000 451.579
33.73000 450.358
33.74000 452.593
33.75000 464.324
33.76000 476.600
33.77000 484.715
33.78000 473.661
33.79000 465.163
33.80000 459.672
33.81000 458.092
33.82000 456.528
33.83000 455.004
33.84000 453.515
33.85000 452.042
33.86000 446.419
33.87000 438.564
33.88000 431.223
33.89000 434.793
33.90000 442.756
33.91000 450.411
33.92000 454.646
33.93000 457.930
33.94000 460.850
33.95000 455.907
33.96000 450.339
33.97000 446.486
33.98000 450.268
33.99000 454.964
34.00000 457.122
34.01000 451.566
34.02000 445.478
34.03000 441.309
34.04000 439.159
34.05000 437.598
34.06000 436.852
34.07000 437.285
34.08000 437.729
34.09000 437.636
34.10000 437.026
34.11000 436.421
34.12000 445.695
34.13000 461.103
34.14000 475.855
34.15000 473.127
34.16000 462.619
34.17000 452.646
34.18000 449.643
34.19000 448.787
34.20000 448.015
34.21000 447.985
34.22000 448.095
34.23000 449.267
34.24000 455.716
34.25000 462.883
34.26000 468.374
34.27000 468.214
34.28000 467.595
34.29000 467.157
34.30000 451.849
34.31000 439.754
34.32000 432.438
34.33000 432.806
34.34000 433.277
34.35000 438.635
34.36000 449.281
34.37000 459.888
34.38000 461.656
34.39000 457.123
34.40000 452.621
34.41000 449.183
34.42000 446.269
34.43000 443.226
34.44000 438.206
34.45000 432.511
34.46000 427.297
34.47000 432.315
34.48000 438.906
34.49000 444.621
34.50000 445.457
34.51000 445.540
34.52000 445.520
34.53000 445.112
34.54000 444.666
34.55000 444.341
34.56000 441.436
34.57000 439.095
34.58000 438.814
34.59000 442.206
34.60000 445.671
34.61000 444.191
34.62000 436.720
34.63000 429.248
34.64000 430.362
34.65000 438.305
34.66000 446.045
34.67000 444.320
34.68000 437.437
34.69000 430.730
34.70000 427.310
34.71000 425.130
34.72000 423.109
34.73000 428.539
34.74000 435.172
34.75000 440.490
34.76000 437.579
34.77000 433.237
34.78000 430.673
34.79000 435.493
34.80000 441.122
34.81000 445.352
34.82000 439.683
34.83000 434.776
34.84000 429.996
34.85000 425.469
34.86000 420.948
34.87000 418.579
34.88000 419.120
34.89000 419.677
34.90000 421.074
34.91000 423.219
34.92000 425.331
34.93000 425.223
34.94000 423.773
34.95000 422.486
34.96000 424.918
34.97000 428.902
34.98000 432.639
34.99000 434.238
35.00000 435.132
35.01000 436.016
35.02000 436.821
35.03000 437.611
35.04000 437.681
35.05000 434.418
35.06000 430.738
35.07000 427.898
35.08000 427.959
35.09000 428.176
35.10000 427.743
35.11000 425.891
35.12000 423.988
35.13000 423.523
35.14000 425.220
35.15000 426.938
35.16000 427.799
35.17000 441.840
35.18000 451.102
35.19000 449.307
35.20000 440.101
35.21000 431.128
35.22000 428.900
35.23000 429.785
35.24000 430.623
35.25000 427.703
35.26000 423.905
35.27000 421.422
35.28000 429.525
35.29000 439.934
35.30000 447.937
35.31000 443.501
35.32000 437.292
35.33000 432.378
35.34000 425.864
35.35000 420.519
35.36000 417.320
35.37000 419.304
35.38000 421.517
35.39000 422.370
35.40000 420.951
35.41000 419.498
35.42000 418.727
35.43000 424.309
35.44000 428.085
35.45000 427.382
35.46000 423.338
35.47000 419.285
35.48000 414.842
35.49000 410.200
35.50000 405.758
35.51000 409.276
35.52000 415.178
35.53000 420.079
35.54000 415.759
35.55000 409.199
35.56000 403.941
35.57000 406.229
35.58000 409.733
35.59000 412.571
35.60000 414.857
35.61000 416.673
35.62000 416.749
35.63000 412.178
35.64000 407.354
35.65000 404.686
35.66000 406.004
35.67000 407.411
35.68000 408.196
35.69000 411.439
35.70000 413.689
35.71000 415.588
35.72000 417.194
35.73000 418.736
35.74000 416.939
35.75000 413.256
35.76000 409.700
35.77000 415.444
35.78000 424.282
35.79000 432.261
35.80000 431.094
35.81000 427.458
35.82000 423.711
35.83000 419.232
35.84000 414.620
35.85000 410.802
35.86000 419.274
35.87000 427.432
35.88000 431.815
35.89000 425.043
35.90000 417.541
35.91000 414.939
35.92000 422.366
35.93000 430.091
35.94000 434.616
35.95000 421.409
35.96000 412.021
35.97000 405.453
35.98000 401.511
35.99000 397.615
36.00000 397.293
36.01000 399.210
36.02000 401.074
36.03000 405.449
36.04000 410.645
36.05000 415.221
36.06000 412.086
36.07000 406.644
36.08000 401.762
36.09000 401.026
36.10000 401.131
36.11000 401.219
36.12000 409.273
36.13000 416.882
36.14000 423.232
36.15000 425.465
36.16000 427.379
36.17000 428.467
36.18000 427.687
36.19000 426.836
36.20000 426.315
36.21000 419.117
36.22000 413.907
36.23000 412.641
36.24000 415.505
36.25000 418.305
36.26000 412.781
36.27000 401.464
36.28000 390.383
36.29000 390.121
36.30000 394.842
36.31000 399.099
36.32000 396.525
36.33000 391.687
36.34000 387.988
36.35000 393.898
36.36000 401.986
36.37000 408.948
36.38000 400.082
36.39000 390.574
36.40000 383.614
36.41000 385.895
36.42000 389.016
36.43000 391.303
36.44000 391.504
36.45000 391.605
36.46000 391.669
36.47000 388.429
36.48000 386.030
36.49000 390.982
36.50000 404.564
36.51000 418.099
36.52000 416.159
36.53000 402.227
36.54000 388.507
36.55000 387.913
36.56000 394.073
36.57000 399.777
36.58000 397.438
36.59000 392.149
36.60000 387.868
36.61000 393.365
36.62000 401.328
36.63000 408.305
36.64000 408.918
36.65000 408.527
36.66000 406.486
36.67000 397.794
36.68000 388.403
36.69000 381.604
36.70000 381.980
36.71000 382.774
36.72000 383.301
36.73000 381.504
36.74000 380.135
36.75000 379.145
36.76000 378.653
36.77000 378.170
36.78000 382.692
36.79000 391.549
36.80000 400.314
36.81000 400.031
36.82000 394.570
36.83000 389.304
36.84000 388.258
36.85000 388.923
36.86000 389.745
36.87000 392.335
36.88000 395.419
36.89000 398.166
36.90000 394.738
36.91000 390.747
36.92000 386.209
36.93000 379.214
36.94000 371.923
36.95000 369.036
36.96000 379.634
36.97000 391.172
36.98000 399.095
36.99000 409.642
37.00000 417.614
37.01000 417.606
37.02000 405.954
37.03000 394.203
37.04000 389.083
37.05000 390.401
37.06000 391.711
37.07000 385.748
37.08000 375.215
37.09000 365.128
37.10000 367.091
37.11000 374.456
37.12000 381.308
37.13000 381.389
37.14000 379.368
37.15000 377.542
37.16000 378.818
37.17000 380.517
37.18000 382.126
37.19000 383.286
37.20000 384.384
37.21000 384.169
37.22000 379.499
37.23000 374.462
37.24000 370.889
37.25000 375.789
37.26000 379.784
37.27000 381.913
37.28000 381.016
37.29000 380.077
37.30000 377.996
37.31000 374.666
37.32000 371.349
37.33000 368.403
37.34000 365.750
37.35000 363.117
37.36000 361.194
37.37000 359.624
37.38000 358.247
37.39000 359.906
37.40000 362.609
37.41000 365.085
37.42000 367.628
37.43000 369.907
37.44000 371.860
37.45000 371.988
37.46000 371.831
37.47000 370.833
37.48000 366.664
37.49000 362.192
37.50000 358.919
37.51000 358.016
37.52000 357.414
37.53000 360.973
37.54000 372.008
37.55000 383.192
37.56000 387.004
37.57000 381.807
37.58000 376.596
37.59000 378.441
37.60000 385.942
37.61000 393.173
37.62000 387.606
37.63000 375.013
37.64000 362.982
37.65000 361.592
37.66000 364.246
37.67000 366.710
37.68000 373.433
37.69000 380.496
37.70000 385.641
37.71000 378.672
37.72000 369.578
37.73000 362.292
37.74000 362.565
37.75000 363.674
37.76000 364.509
37.77000 367.645
37.78000 370.212
37.79000 371.767
37.80000 371.314
37.81000 370.805
37.82000 370.543
37.83000 370.617
37.84000 370.692
37.85000 367.151
37.86000 360.356
37.87000 353.664
37.88000 354.057
37.89000 358.758
37.90000 363.348
37.91000 365.361
37.92000 366.289
37.93000 367.161
37.94000 364.263
37.95000 360.622
37.96000 357.925
37.97000 361.969
37.98000 367.338
37.99000 370.327
38.00000 362.215
38.01000 352.698
38.02000 345.338
38.03000 352.429
38.04000 358.906
38.05000 364.425
38.06000 367.838
38.07000 371.176
38.08000 371.980
38.09000 368.946
38.10000 365.872
38.11000 364.325
38.12000 365.368
38.13000 366.060
38.14000 366.204
38.15000 365.979
38.16000 365.735
38.17000 364.956
38.18000 363.928
38.19000 362.953
38.20000 361.823
38.21000 360.735
38.22000 359.249
38.23000 354.529
38.24000 349.099
38.25000 344.577
38.26000 344.788
38.27000 345.679
38.28000 346.386
38.29000 351.004
38.30000 354.993
38.31000 357.771
38.32000 357.609
38.33000 357.315
38.34000 357.942
38.35000 360.117
38.36000 362.318
38.37000 363.489
38.38000 361.567
38.39000 360.280
38.40000 363.789
38.41000 370.901
38.42000 377.861
38.43000 378.895
38.44000 376.883
38.45000 374.956
38.46000 366.310
38.47000 356.016
38.48000 346.780
38.49000 347.395
38.50000 350.419
38.51000 352.507
38.52000 349.113
38.53000 344.829
38.54000 341.352
38.55000 341.509
38.56000 341.936
38.57000 344.366
38.58000 352.181
38.59000 360.294
38.60000 363.838
38.61000 358.876
38.62000 353.721
38.63000 350.831
38.64000 348.356
38.65000 346.656
38.66000 352.664
38.67000 365.134
38.68000 377.360
38.69000 376.430
38.70000 368.012
38.71000 359.880
38.72000 359.635
38.73000 362.334
38.74000 365.071
38.75000 368.226
38.76000 371.495
38.77000 374.071
38.78000 372.073
38.79000 369.239
38.80000 366.890
38.81000 362.151
38.82000 358.007
38.83000 353.740
38.84000 349.107
38.85000 344.451
38.86000 340.852
38.87000 339.432
38.88000 338.078
38.89000 337.282
38.90000 343.507
38.91000 347.931
38.92000 345.791
38.93000 337.485
38.94000 329.279
38.95000 329.023
38.96000 333.786
38.97000 338.421
38.98000 343.287
38.99000 348.017
39.00000 352.269
39.01000 350.509
39.02000 346.936
39.03000 343.362
39.04000 339.769
39.05000 336.172
39.06000 333.129
39.07000 336.447
39.08000 339.930
39.09000 342.666
39.10000 342.942
39.11000 343.025
39.12000 342.231
39.13000 339.438
39.14000 336.568
39.15000 334.805
39.16000 339.522
39.17000 342.960
39.18000 344.312
39.19000 343.461
39.20000 342.618
39.21000 342.718
39.22000 343.480
39.23000 344.227
39.24000 344.266
39.25000 343.976
39.26000 343.606
39.27000 342.059
39.28000 340.118
39.29000 338.235
39.30000 336.842
39.31000 335.562
39.32000 334.459
39.33000 334.933
39.34000 335.536
39.35000 337.362
39.36000 343.654
39.37000 350.356
39.38000 354.260
39.39000 351.110
39.40000 347.617
39.41000 345.383
39.42000 336.732
39.43000 330.348
39.44000 328.510
39.45000 332.054
39.46000 335.609
39.47000 339.676
39.48000 344.144
39.49000 348.545
39.50000 348.000
39.51000 344.913
39.52000 341.774
39.53000 337.714
39.54000 333.313
39.55000 329.624
39.56000 332.905
39.57000 337.957
39.58000 342.389
39.59000 341.961
39.60000 340.886
39.61000 340.011
39.62000 339.946
39.63000 339.968
39.64000 339.047
39.65000 335.502
39.66000 331.801
39.67000 329.342
39.68000 325.938
39.69000 323.403
39.70000 326.408
39.71000 336.731
39.72000 347.079
39.73000 349.085
39.74000 343.811
39.75000 338.590
39.76000 338.745
39.77000 342.002
39.78000 344.977
39.79000 341.769
39.80000 336.036
39.81000 330.703
39.82000 329.907
39.83000 330.391
39.84000 330.823
39.85000 328.271
39.86000 325.558
39.87000 324.333
39.88000 329.835
39.89000 336.156
39.90000 339.661
39.91000 334.473
39.92000 328.671
39.93000 324.678
39.94000 324.646
39.95000 324.721
39.96000 327.737
39.97000 335.077
39.98000 342.456
39.99000 343.981
40.00000 339.774
40.01000 335.593
40.02000 333.241
40.03000 332.102
40.04000 330.902
40.05000 328.016
40.06000 324.370
40.07000 321.211
40.08000 324.559
40.09000 329.942
40.10000 334.811
40.11000 336.618
40.12000 337.636
40.13000 338.996
40.14000 342.091
40.15000 345.427
40.16000 347.183
40.17000 343.541
40.18000 339.451
40.19000 336.542
40.20000 333.249
40.21000 330.728
40.22000 327.336
40.23000 322.520
40.24000 317.684
40.25000 316.620
40.26000 319.707
40.27000 322.785
40.28000 322.513
40.29000 319.822
40.30000 317.192
40.31000 316.708
40.32000 317.297
40.33000 318.013
40.34000 320.758
40.35000 324.206
40.36000 327.368
40.37000 329.214
40.38000 330.581
40.39000 331.606
40.40000 330.691
40.41000 329.473
40.42000 327.628
40.43000 323.408
40.44000 318.958
40.45000 315.694
40.46000 314.402
40.47000 313.483
40.48000 310.419
40.49000 303.477
40.50000 296.454
40.51000 294.591
40.52000 299.081
40.53000 303.582
40.54000 308.877
40.55000 314.796
40.56000 320.599
40.57000 320.770
40.58000 317.826
40.59000 314.819
40.60000 310.581
40.61000 305.871
40.62000 301.497
40.63000 298.805
40.64000 296.777
40.65000 296.076
40.66000 303.836
40.67000 313.091
40.68000 321.004
40.69000 323.262
40.70000 324.887
40.71000 326.113
40.72000 319.859
40.73000 314.590
40.74000 314.200
40.75000 323.579
40.76000 333.232
40.77000 337.676
40.78000 334.966
40.79000 332.215
40.80000 327.759
40.81000 321.759
40.82000 315.837
40.83000 315.467
40.84000 318.498
40.85000 321.538
40.86000 324.812
40.87000 328.186
40.88000 331.355
40.89000 332.782
40.90000 333.618
40.91000 334.108
40.92000 332.091
40.93000 329.579
40.94000 326.655
40.95000 321.802
40.96000 316.702
40.97000 312.751
40.98000 308.419
40.99000 304.955
41.00000 305.824
41.01000 316.290
41.02000 327.105
41.03000 332.765
41.04000 330.553
41.05000 328.258
41.06000 327.098
41.07000 324.652
41.08000 323.017
41.09000 321.540
41.10000 320.171
41.11000 318.847
41.12000 318.901
41.13000 319.601
41.14000 320.265
41.15000 315.747
41.16000 310.026
41.17000 305.043
41.18000 306.110
41.19000 308.517
41.20000 310.176
41.21000 307.905
41.22000 305.064
41.23000 302.808
41.24000 310.405
41.25000 317.220
41.26000 322.361
41.27000 323.400
41.28000 324.252
41.29000 321.199
41.30000 311.531
41.31000 301.755
41.32000 296.531
41.33000 310.885
41.34000 320.628
41.35000 317.715
41.36000 305.220
41.37000 293.093
41.38000 295.572
41.39000 305.615
41.40000 315.240
41.41000 313.559
41.42000 308.204
41.43000 303.144
41.44000 300.862
41.45000 299.264
41.46000 298.290
41.47000 300.991
41.48000 304.294
41.49000 306.979
41.50000 303.660
41.51000 300.451
41.52000 298.850
41.53000 301.600
41.54000 304.593
41.55000 306.208
41.56000 305.236
41.57000 304.205
41.58000 303.625
41.59000 303.963
41.60000 304.197
41.61000 302.931
41.62000 300.397
41.63000 297.916
41.64000 298.308
41.65000 300.349
41.66000 302.322
41.67000 309.551
41.68000 318.338
41.69000 326.257
41.70000 324.733
41.71000 320.624
41.72000 316.930
41.73000 316.008
41.74000 315.596
41.75000 315.254
41.76000 309.185
41.77000 303.612
41.78000 298.891
41.79000 296.725
41.80000 294.731
41.81000 294.600
41.82000 298.337
41.83000 302.194
41.84000 304.469
41.85000 309.328
41.86000 312.772
41.87000 312.389
41.88000 308.382
41.89000 304.401
41.90000 302.615
41.91000 302.224
41.92000 301.843
41.93000 300.582
41.94000 299.011
41.95000 297.776
41.96000 300.799
41.97000 305.115
41.98000 309.130
41.99000 310.880
42.00000 312.163
42.01000 313.249
42.02000 308.828
42.03000 304.507
42.04000 300.258
42.05000 296.249
42.06000 292.260
42.07000 291.937
42.08000 300.031
42.09000 308.459
42.10000 313.651
42.11000 303.311
42.12000 295.752
42.13000 291.950
42.14000 292.150
42.15000 292.363
42.16000 294.259
42.17000 297.344
42.18000 300.367
42.19000 297.858
42.20000 292.860
42.21000 288.055
42.22000 286.143
42.23000 285.204
42.24000 284.469
42.25000 285.482
42.26000 286.897
42.27000 288.118
42.28000 286.644
42.29000 285.046
42.30000 283.908
42.31000 284.463
42.32000 285.176
42.33000 286.221
42.34000 288.110
42.35000 290.041
42.36000 291.280
42.37000 301.809
42.38000 309.611
42.39000 310.327
42.40000 302.590
42.41000 294.864
42.42000 294.649
42.43000 300.347
42.44000 305.962
42.45000 301.190
42.46000 291.142
42.47000 281.644
42.48000 282.139
42.49000 286.352
42.50000 289.810
42.51000 285.804
42.52000 279.887
42.53000 274.691
42.54000 280.685
42.55000 287.482
42.56000 293.637
42.57000 297.170
42.58000 300.422
42.59000 302.271
42.60000 300.185
42.61000 297.863
42.62000 296.316
42.63000 290.600
42.64000 286.290
42.65000 286.710
42.66000 293.428
42.67000 300.171
42.68000 300.864
42.69000 296.232
42.70000 291.646
42.71000 290.661
42.72000 291.793
42.73000 292.843
42.74000 292.044
42.75000 290.484
42.76000 288.917
42.77000 287.277
42.78000 285.616
42.79000 284.134
42.80000 288.963
42.81000 294.219
42.82000 297.984
42.83000 294.956
42.84000 291.091
42.85000 287.920
42.86000 286.901
42.87000 286.037
42.88000 285.441
42.89000 292.528
42.90000 298.048
42.91000 296.927
42.92000 285.967
42.93000 274.917
42.94000 270.550
42.95000 272.783
42.96000 275.002
42.97000 278.380
42.98000 282.466
42.99000 286.380
43.00000 285.447
43.01000 282.311
43.02000 279.511
43.03000 281.247
43.04000 284.410
43.05000 287.275
43.06000 287.316
43.07000 286.818
43.08000 286.915
43.09000 290.038
43.10000 293.584
43.11000 295.552
43.12000 292.081
43.13000 288.152
43.14000 285.352
43.15000 279.764
43.16000 275.414
43.17000 274.262
43.18000 278.371
43.19000 282.556
43.20000 284.395
43.21000 283.629
43.22000 282.864
43.23000 286.008
43.24000 291.975
43.25000 297.728
43.26000 295.721
43.27000 289.810
43.28000 284.238
43.29000 284.132
43.30000 285.932
43.31000 287.584
43.32000 289.896
43.33000 292.100
43.34000 293.496
43.35000 290.286
43.36000 286.347
43.37000 282.430
43.38000 278.595
43.39000 274.768
43.40000 271.956
43.41000 273.426
43.42000 274.737
43.43000 275.279
43.44000 274.419
43.45000 273.528
43.46000 274.235
43.47000 276.923
43.48000 279.614
43.49000 281.921
43.50000 283.908
43.51000 285.826
43.52000 284.270
43.53000 280.780
43.54000 277.412
43.55000 276.418
43.56000 276.339
43.57000 276.266
43.58000 278.367
43.59000 280.784
43.60000 282.266
43.61000 277.727
43.62000 272.116
43.63000 267.787
43.64000 268.906
43.65000 270.641
43.66000 271.952
43.67000 270.643
43.68000 269.485
43.69000 270.186
43.70000 274.639
43.71000 279.199
43.72000 282.015
43.73000 282.418
43.74000 282.806
43.75000 285.219
43.76000 289.487
43.77000 293.652
43.78000 290.423
43.79000 282.630
43.80000 275.012
43.81000 271.601
43.82000 269.985
43.83000 268.465
43.84000 273.250
43.85000 279.318
43.86000 284.823
43.87000 286.230
43.88000 286.818
43.89000 286.939
43.90000 284.849
43.91000 282.474
43.92000 280.630
43.93000 276.289
43.94000 272.688
43.95000 270.764
43.96000 272.584
43.97000 274.542
43.98000 277.287
43.99000 281.243
44.00000 285.212
44.01000 287.226
44.02000 280.297
44.03000 275.678
44.04000 273.773
44.05000 273.728
44.06000 273.689
44.07000 273.842
44.08000 274.085
44.09000 274.316
44.10000 272.937
44.11000 271.177
44.12000 269.374
44.13000 267.211
44.14000 264.967
44.15000 262.595
44.16000 259.547
44.17000 256.399
44.18000 253.895
44.19000 262.823
44.20000 270.837
44.21000 277.382
44.22000 280.304
44.23000 283.058
44.24000 282.629
44.25000 276.768
44.26000 270.816
44.27000 267.624
44.28000 264.793
44.29000 262.883
44.30000 265.773
44.31000 272.326
44.32000 278.725
44.33000 278.891
44.34000 275.804
44.35000 272.844
44.36000 271.071
44.37000 269.816
44.38000 268.521
44.39000 266.842
44.40000 265.068
44.41000 263.792
44.42000 265.484
44.43000 267.666
44.44000 269.442
44.45000 268.003
44.46000 266.558
44.47000 265.647
44.48000 266.196
44.49000 266.828
44.50000 268.603
44.51000 272.538
44.52000 276.523
44.53000 278.773
44.54000 270.792
44.55000 265.226
44.56000 264.890
44.57000 269.009
44.58000 272.988
44.59000 269.029
44.60000 260.485
44.61000 252.223
44.62000 253.816
44.63000 259.039
44.64000 263.786
44.65000 263.300
44.66000 261.370
44.67000 260.154
44.68000 263.731
44.69000 268.197
44.70000 271.912
44.71000 271.368
44.72000 270.500
44.73000 269.771
44.74000 269.462
44.75000 269.182
44.76000 267.320
44.77000 262.150
44.78000 256.876
44.79000 253.756
44.80000 258.600
44.81000 262.068
44.82000 265.743
44.83000 269.615
44.84000 273.403
44.85000 270.075
44.86000 262.186
44.87000 254.501
44.88000 251.955
44.89000 251.692
44.90000 251.413
44.91000 250.917
44.92000 250.354
44.93000 250.134
44.94000 252.527
44.95000 255.463
44.96000 257.954
44.97000 255.193
44.98000 252.283
44.99000 251.499
45.00000 257.823
45.01000 264.718
45.02000 268.825
45.03000 266.481
45.04000 263.878
45.05000 262.269
45.06000 266.845
45.07000 270.190
45.08000 274.658
45.09000 280.333
45.10000 285.948
45.11000 282.823
45.12000 273.476
45.13000 264.311
45.14000 259.663
45.15000 257.313
45.16000 255.015
45.17000 253.493
45.18000 252.235
45.19000 251.427
45.20000 254.536
45.21000 258.554
45.22000 262.027
45.23000 263.117
45.24000 263.733
45.25000 264.031
45.26000 263.148
45.27000 262.154
45.28000 261.455
45.29000 261.510
45.30000 261.602
45.31000 261.661
45.32000 262.001
45.33000 262.253
45.34000 261.530
45.35000 259.632
45.36000 257.729
45.37000 254.546
45.38000 250.349
45.39000 246.211
45.40000 251.115
45.41000 260.631
45.42000 269.685
45.43000 270.223
45.44000 267.571
45.45000 264.607
45.46000 258.517
45.47000 251.620
45.48000 245.557
45.49000 244.952
45.50000 245.240
45.51000 245.407
45.52000 245.071
45.53000 244.681
45.54000 244.789
45.55000 246.306
45.56000 247.909
45.57000 248.979
45.58000 253.506
45.59000 256.928
45.60000 258.141
45.61000 256.392
45.62000 254.627
45.63000 252.923
45.64000 251.274
45.65000 249.640
45.66000 248.528
45.67000 247.746
45.68000 246.963
45.69000 246.136
45.70000 245.292
45.71000 244.683
45.72000 246.808
45.73000 249.714
45.74000 252.311
45.75000 251.908
45.76000 251.051
45.77000 250.361
45.78000 250.440
45.79000 250.614
45.80000 250.059
45.81000 247.220
45.82000 244.216
45.83000 242.139
45.84000 247.363
45.85000 251.481
45.86000 255.303
45.87000 258.683
45.88000 262.059
45.89000 261.252
45.90000 256.280
45.91000 251.336
45.92000 245.708
45.93000 239.708
45.94000 233.946
45.95000 234.991
45.96000 239.153
45.97000 243.132
45.98000 244.602
45.99000 245.277
46.00000 245.889
46.01000 247.071
46.02000 248.221
46.03000 249.131
46.04000 248.807
46.05000 248.310
46.06000 247.754
46.07000 246.994
46.08000 246.217
46.09000 245.661
46.10000 251.540
46.11000 256.239
46.12000 256.035
46.13000 247.703
46.14000 239.250
46.15000 236.605
46.16000 240.460
46.17000 244.307
46.18000 245.407
46.19000 244.481
46.20000 243.604
46.21000 244.518
46.22000 246.339
46.23000 247.857
46.24000 244.428
46.25000 239.261
46.26000 234.514
46.27000 232.267
46.28000 230.798
46.29000 230.017
46.30000 233.190
46.31000 236.996
46.32000 239.886
46.33000 239.253
46.34000 238.271
46.35000 237.548
46.36000 245.850
46.37000 252.651
46.38000 255.996
46.39000 252.996
46.40000 249.860
46.41000 247.139
46.42000 244.940
46.43000 242.746
46.44000 241.192
46.45000 240.170
46.46000 239.230
46.47000 242.447
46.48000 247.998
46.49000 253.112
46.50000 249.604
46.51000 242.746
46.52000 236.366
46.53000 238.354
46.54000 242.175
46.55000 244.878
46.56000 240.331
46.57000 234.481
46.58000 230.931
46.59000 237.234
46.60000 244.659
46.61000 250.283
46.62000 250.831
46.63000 251.003
46.64000 249.870
46.65000 246.089
46.66000 242.229
46.67000 239.953
46.68000 239.881
46.69000 239.825
46.70000 240.399
46.71000 241.555
46.72000 242.671
46.73000 240.803
46.74000 237.079
46.75000 233.545
46.76000 234.665
46.77000 237.783
46.78000 240.718
46.79000 237.266
46.80000 232.376
46.81000 228.616
46.82000 233.146
46.83000 239.346
46.84000 243.894
46.85000 240.559
46.86000 236.197
46.87000 232.806
46.88000 234.927
46.89000 236.953
46.90000 236.808
46.91000 231.784
46.92000 226.577
46.93000 226.253
46.94000 233.494
46.95000 240.823
46.96000 244.556
46.97000 236.063
46.98000 230.415
46.99000 230.991
47.00000 235.866
47.01000 240.608
47.02000 241.187
47.03000 239.788
47.04000 238.458
47.05000 237.567
47.06000 236.878
47.07000 236.368
47.08000 237.361
47.09000 238.692
47.10000 239.759
47.11000 239.413
47.12000 238.858
47.13000 238.416
47.14000 236.891
47.15000 235.582
47.16000 234.513
47.17000 234.039
47.18000 233.592
47.19000 234.441
47.20000 237.514
47.21000 240.626
47.22000 242.302
47.23000 240.236
47.24000 238.821
47.25000 237.530
47.26000 236.335
47.27000 235.160
47.28000 234.833
47.29000 234.951
47.30000 235.065
47.31000 232.468
47.32000 229.118
47.33000 226.158
47.34000 226.933
47.35000 228.642
47.36000 229.896
47.37000 228.417
47.38000 226.482
47.39000 224.904
47.40000 228.449
47.41000 231.784
47.42000 234.781
47.43000 236.852
47.44000 238.870
47.45000 240.539
47.46000 241.545
47.47000 242.534
47.48000 243.094
47.49000 245.397
47.50000 246.998
47.51000 243.833
47.52000 236.575
47.53000 229.437
47.54000 229.263
47.55000 233.140
47.56000 236.892
47.57000 238.117
47.58000 238.314
47.59000 238.302
47.60000 235.963
47.61000 232.977
47.62000 230.157
47.63000 228.462
47.64000 226.978
47.65000 225.741
47.66000 231.038
47.67000 236.073
47.68000 239.138
47.69000 236.211
47.70000 232.872
47.71000 231.584
47.72000 234.619
47.73000 237.791
47.74000 239.675
47.75000 232.908
47.76000 228.070
47.77000 228.841
47.78000 235.014
47.79000 241.099
47.80000 239.515
47.81000 232.978
47.82000 226.607
47.83000 231.506
47.84000 240.967
47.85000 249.268
47.86000 242.447
47.87000 230.965
47.88000 221.119
47.89000 223.844
47.90000 229.202
47.91000 233.754
47.92000 236.435
47.93000 238.472
47.94000 240.328
47.95000 241.577
47.96000 242.777
47.97000 242.100
47.98000 237.052
47.99000 231.825
48.00000 228.585
48.01000 224.448
48.02000 221.464
48.03000 221.431
48.04000 224.594
48.05000 227.757
48.06000 230.852
48.07000 233.897
48.08000 236.884
48.09000 234.466
48.10000 229.573
48.11000 224.707
48.12000 220.251
48.13000 215.936
48.14000 212.491
48.15000 216.678
48.16000 222.649
48.17000 227.815
48.18000 233.913
48.19000 239.220
48.20000 242.673
48.21000 239.200
48.22000 235.069
48.23000 230.880
48.24000 226.542
48.25000 222.196
48.26000 219.392
48.27000 224.051
48.28000 227.562
48.29000 230.762
48.30000 233.585
48.31000 236.398
48.32000 236.472
48.33000 234.356
48.34000 232.270
48.35000 231.099
48.36000 230.446
48.37000 229.837
48.38000 230.044
48.39000 230.559
48.40000 230.741
48.41000 227.553
48.42000 223.489
48.43000 219.912
48.44000 222.053
48.45000 224.751
48.46000 226.162
48.47000 222.221
48.48000 217.693
48.49000 215.322
48.50000 219.092
48.51000 223.240
48.52000 226.017
48.53000 222.905
48.54000 220.479
48.55000 221.088
48.56000 225.800
48.57000 230.533
48.58000 232.341
48.59000 231.533
48.60000 230.732
48.61000 229.621
48.62000 228.350
48.63000 226.971
48.64000 223.120
48.65000 218.237
48.66000 214.046
48.67000 217.994
48.68000 224.289
48.69000 229.918
48.70000 224.356
48.71000 217.604
48.72000 211.696
48.73000 209.694
48.74000 208.181
48.75000 208.843
48.76000 216.359
48.77000 224.377
48.78000 229.936
48.79000 224.861
48.80000 220.759
48.81000 219.439
48.82000 222.304
48.83000 225.211
48.84000 225.886
48.85000 224.320
48.86000 222.763
48.87000 219.297
48.88000 214.615
48.89000 210.074
48.90000 209.609
48.91000 211.026
48.92000 212.209
48.93000 210.159
48.94000 207.075
48.95000 204.276
48.96000 205.680
48.97000 207.726
48.98000 209.916
48.99000 212.842
49.00000 215.873
49.01000 219.360
49.02000 224.436
49.03000 229.648
49.04000 233.381
49.05000 227.228
49.06000 222.194
49.07000 219.954
49.08000 222.377
49.09000 224.873
49.10000 224.730
49.11000 221.613
49.12000 218.502
49.13000 216.699
49.14000 215.877
49.15000 215.071
49.16000 214.885
49.17000 215.015
49.18000 214.968
49.19000 211.994
49.20000 207.984
49.21000 204.296
49.22000 208.125
49.23000 213.176
49.24000 217.808
49.25000 220.004
49.26000 221.807
49.27000 223.084
49.28000 222.314
49.29000 221.340
49.30000 220.621
49.31000 222.017
49.32000 223.188
49.33000 220.964
49.34000 212.460
49.35000 203.817
49.36000 199.746
49.37000 201.438
49.38000 203.146
49.39000 207.637
49.40000 214.422
49.41000 221.154
49.42000 225.129
49.43000 227.544
49.44000 229.605
49.45000 224.575
49.46000 216.771
49.47000 209.504
49.48000 206.818
49.49000 205.506
49.50000 204.973
49.51000 209.531
49.52000 215.012
49.53000 218.973
49.54000 216.375
49.55000 213.021
49.56000 210.476
49.57000 208.938
49.58000 207.781
49.59000 207.343
49.60000 208.378
49.61000 209.457
49.62000 209.292
49.63000 207.380
49.64000 205.457
49.65000 206.025
49.66000 208.912
49.67000 211.765
49.68000 211.902
49.69000 210.336
49.70000 208.884
49.71000 210.250
49.72000 212.836
49.73000 215.270
49.74000 218.817
49.75000 222.366
49.76000 225.449
49.77000 225.080
49.78000 224.010
49.79000 223.209
49.80000 223.705
49.81000 224.372
49.82000 224.891
49.83000 223.199
49.84000 221.713
49.85000 218.794
49.86000 212.632
49.87000 206.345
49.88000 202.210
49.89000 201.438
49.90000 200.705
49.91000 200.331
49.92000 209.109
49.93000 214.971
49.94000 216.202
49.95000 214.210
49.96000 212.297
49.97000 212.900
49.98000 214.706
49.99000 216.425
50.00000 217.995
50.01000 219.403
50.02000 220.345
50.03000 217.343
50.04000 213.449
50.05000 210.022
50.06000 209.116
50.07000 208.585
50.08000 208.162
50.09000 208.905
50.10000 209.590
50.11000 209.700
50.12000 208.371
50.13000 206.972
50.14000 206.032
50.15000 205.883
50.16000 205.749
50.17000 205.676
50.18000 214.743
50.19000 220.931
50.20000 220.246
50.21000 214.232
50.22000 208.328
50.23000 207.043
50.24000 208.204
50.25000 209.319
50.26000 208.037
50.27000 206.016
50.28000 204.608
50.29000 209.148
50.30000 215.187
50.31000 219.835
50.32000 216.060
50.33000 210.869
50.34000 206.630
50.35000 202.673
50.36000 199.458
50.37000 198.336
50.38000 203.004
50.39000 208.009
50.40000 210.878
50.41000 209.651
50.42000 208.323
50.43000 207.567
50.44000 204.107
50.45000 201.691
50.46000 201.526
50.47000 203.312
50.48000 205.066
50.49000 204.880
50.50000 203.557
50.51000 202.277
50.52000 201.133
50.53000 200.105
50.54000 199.181
50.55000 199.437
50.56000 200.025
50.57000 200.855
50.58000 203.344
50.59000 206.147
50.60000 208.485
50.61000 209.900
50.62000 210.981
50.63000 212.138
50.64000 213.529
50.65000 214.938
50.66000 214.886
50.67000 211.736
50.68000 208.486
50.69000 206.550
50.70000 205.706
50.71000 205.115
50.72000 205.186
50.73000 205.900
50.74000 206.592
50.75000 205.298
50.76000 202.712
50.77000 200.190
50.78000 199.035
50.79000 198.517
50.80000 198.121
50.81000 199.330
50.82000 201.037
50.83000 202.407
50.84000 201.159
50.85000 199.359
50.86000 197.827
50.87000 197.840
50.88000 198.028
50.89000 199.360
50.90000 204.568
50.91000 210.095
50.92000 213.293
50.93000 211.024
50.94000 208.528
50.95000 206.977
50.96000 199.287
50.97000 193.689
50.98000 194.052
50.99000 200.921
51.00000 207.766
51.01000 210.291
51.02000 209.693
51.03000 209.106
51.04000 208.064
51.05000 206.841
51.06000 205.741
51.07000 206.581
51.08000 208.086
51.09000 209.001
51.10000 204.679
51.11000 199.125
51.12000 194.312
51.13000 198.895
51.14000 204.040
51.15000 208.627
51.16000 211.114
51.17000 213.400
51.18000 213.803
51.19000 209.322
51.20000 204.589
51.21000 201.527
51.22000 202.933
51.23000 204.027
51.24000 204.691
51.25000 204.829
51.26000 204.962
51.27000 203.786
51.28000 201.554
51.29000 199.353
51.30000 198.480
51.31000 198.340
51.32000 198.045
51.33000 194.836
51.34000 190.519
51.35000 186.766
51.36000 188.781
51.37000 192.306
51.38000 195.413
51.39000 194.239
51.40000 192.580
51.41000 191.621
51.42000 193.586
51.43000 195.875
51.44000 197.589
51.45000 197.654
51.46000 197.616
51.47000 197.590
51.48000 195.651
51.49000 194.171
51.50000 194.373
51.51000 196.865
51.52000 199.369
51.53000 201.099
51.54000 202.130
51.55000 203.152
51.56000 198.914
51.57000 191.621
51.58000 184.808
51.59000 189.171
51.60000 198.232
51.61000 206.570
51.62000 206.321
51.63000 203.576
51.64000 201.118
51.65000 201.715
51.66000 202.760
51.67000 203.285
51.68000 201.389
51.69000 199.187
51.70000 197.268
51.71000 196.250
51.72000 195.299
51.73000 194.638
51.74000 199.143
51.75000 202.677
51.76000 201.678
51.77000 193.809
51.78000 185.870
51.79000 184.967
51.80000 191.190
51.81000 197.380
51.82000 199.211
51.83000 198.113
51.84000 196.972
51.85000 194.586
51.86000 191.621
51.87000 189.020
51.88000 191.513
51.89000 195.645
51.90000 199.399
51.91000 201.460
51.92000 202.954
51.93000 203.485
51.94000 198.997
51.95000 193.788
51.96000 190.250
51.97000 192.593
51.98000 195.449
51.99000 197.498
52.00000 198.053
52.01000 198.426
52.02000 198.942
52.03000 199.698
52.04000 200.458
52.05000 197.248
52.06000 189.526
52.07000 181.820
52.08000 180.887
52.09000 185.015
52.10000 189.101
52.11000 191.613
52.12000 193.315
52.13000 195.052
52.14000 197.378
52.15000 199.915
52.16000 202.250
52.17000 198.944
52.18000 194.754
52.19000 191.525
52.20000 193.928
52.21000 197.246
52.22000 199.295
52.23000 196.387
52.24000 192.978
52.25000 190.457
52.26000 194.165
52.27000 197.307
52.28000 198.940
52.29000 197.758
52.30000 196.514
52.31000 195.948
52.32000 196.247
52.33000 196.548
52.34000 196.200
52.35000 195.309
52.36000 194.361
52.37000 190.348
52.38000 184.589
52.39000 179.153
52.40000 180.283
52.41000 183.999
52.42000 187.462
52.43000 192.277
52.44000 196.966
52.45000 200.300
52.46000 194.686
52.47000 187.437
52.48000 181.457
52.49000 180.994
52.50000 181.171
52.51000 181.306
52.52000 187.470
52.53000 192.633
52.54000 196.142
52.55000 196.243
52.56000 196.241
52.57000 194.673
52.58000 190.887
52.59000 187.085
52.60000 189.170
52.61000 196.783
52.62000 204.282
52.63000 202.748
52.64000 195.512
52.65000 188.597
52.66000 189.814
52.67000 194.575
52.68000 199.061
52.69000 203.610
52.70000 207.791
52.71000 210.618
52.72000 203.310
52.73000 193.929
52.74000 185.497
52.75000 181.665
52.76000 178.443
52.77000 175.928
52.78000 185.689
52.79000 194.242
52.80000 199.311
52.81000 196.439
52.82000 193.258
52.83000 190.863
52.84000 189.703
52.85000 188.558
52.86000 187.969
52.87000 195.731
52.88000 200.899
52.89000 198.850
52.90000 191.738
52.91000 184.810
52.92000 183.844
52.93000 185.751
52.94000 187.567
52.95000 190.754
52.96000 194.129
52.97000 197.038
52.98000 195.965
52.99000 193.982
53.00000 192.074
53.01000 190.570
53.02000 189.126
53.03000 187.971
53.04000 188.917
53.05000 189.838
53.06000 191.145
53.07000 193.425
53.08000 195.753
53.09000 197.503
53.10000 198.244
53.11000 198.968
53.12000 199.360
53.13000 191.395
53.14000 185.938
53.15000 183.836
53.16000 184.353
53.17000 184.800
53.18000 182.243
53.19000 178.084
53.20000 174.087
53.21000 178.475
53.22000 185.482
53.23000 191.625
53.24000 189.289
53.25000 184.800
53.26000 181.580
53.27000 186.114
53.28000 191.963
53.29000 196.746
53.30000 193.028
53.31000 189.243
53.32000 187.784
53.33000 192.809
53.34000 198.218
53.35000 199.256
53.36000 191.851
53.37000 184.234
53.38000 179.890
53.39000 181.224
53.40000 182.172
53.41000 182.760
53.42000 183.032
53.43000 183.277
53.44000 181.844
53.45000 179.419
53.46000 177.071
53.47000 177.855
53.48000 179.808
53.49000 181.535
53.50000 180.696
53.51000 179.133
53.52000 177.906
53.53000 178.994
53.54000 180.523
53.55000 181.800
53.56000 178.531
53.57000 175.358
53.58000 174.063
53.59000 178.566
53.60000 183.478
53.61000 188.895
53.62000 195.389
53.63000 201.919
53.64000 205.820
53.65000 199.959
53.66000 195.740
53.67000 191.167
53.68000 186.246
53.69000 181.367
53.70000 180.410
53.71000 182.024
53.72000 183.598
53.73000 181.664
53.74000 178.302
53.75000 174.955
53.76000 171.803
53.77000 168.712
53.78000 166.617
53.79000 172.321
53.80000 179.684
53.81000 185.957
53.82000 183.364
53.83000 180.150
53.84000 178.706
53.85000 183.308
53.86000 188.415
53.87000 192.015
53.88000 192.055
53.89000 191.944
53.90000 191.875
53.91000 186.375
53.92000 182.355
53.93000 180.570
53.94000 181.244
53.95000 181.917
53.96000 182.160
53.97000 182.088
53.98000 182.018
53.99000 182.078
54.00000 182.199
54.01000 182.298
54.02000 182.049
54.03000 181.680
54.04000 181.075
54.05000 178.361
54.06000 175.147
54.07000 172.359
54.08000 173.173
54.09000 174.348
54.10000 176.004
54.11000 179.482
54.12000 183.137
54.13000 185.663
54.14000 185.243
54.15000 184.669
54.16000 184.296
54.17000 187.751
54.18000 190.338
54.19000 192.319
54.20000 193.554
54.21000 194.778
54.22000 192.662
54.23000 187.831
54.24000 183.064
54.25000 181.929
54.26000 182.778
54.27000 183.547
54.28000 182.791
54.29000 181.450
54.30000 180.055
54.31000 178.090
54.32000 175.976
54.33000 174.111
54.34000 172.766
54.35000 171.684
54.36000 171.660
54.37000 176.093
54.38000 181.024
54.39000 184.063
54.40000 181.635
54.41000 178.862
54.42000 176.996
54.43000 185.399
54.44000 191.859
54.45000 192.066
54.46000 183.685
54.47000 175.255
54.48000 171.438
54.49000 171.815
54.50000 172.189
54.51000 176.038
54.52000 181.905
54.53000 187.646
54.54000 190.424
54.55000 191.947
54.56000 192.884
54.57000 186.771
54.58000 178.595
54.59000 171.267
54.60000 170.969
54.61000 171.925
54.62000 172.923
54.63000 174.118
54.64000 175.338
54.65000 176.022
54.66000 174.995
54.67000 173.838
54.68000 173.033
54.69000 177.605
54.70000 181.203
54.71000 183.573
54.72000 184.069
54.73000 184.545
54.74000 183.175
54.75000 179.919
54.76000 176.681
54.77000 177.635
54.78000 181.395
54.79000 185.075
54.80000 186.352
54.81000 186.504
54.82000 186.729
54.83000 187.992
54.84000 189.592
54.85000 191.047
54.86000 187.355
54.87000 183.083
54.88000 178.869
54.89000 174.957
54.90000 171.089
54.91000 168.373
54.92000 169.740
54.93000 171.467
54.94000 172.709
54.95000 174.484
54.96000 175.861
54.97000 176.705
54.98000 176.645
54.99000 176.571
55.00000 176.836
55.01000 177.492
55.02000 178.146
55.03000 175.597
55.04000 170.655
55.05000 165.795
55.06000 164.218
55.07000 164.340
55.08000 164.566
55.09000 166.546
55.10000 169.156
55.11000 171.561
55.12000 173.260
55.13000 174.625
55.14000 175.140
55.15000 170.638
55.16000 165.313
55.17000 161.334
55.18000 162.652
55.19000 164.510
55.20000 165.887
55.21000 170.263
55.22000 173.791
55.23000 176.146
55.24000 176.301
55.25000 176.405
55.26000 176.329
55.27000 176.022
55.28000 175.714
55.29000 175.041
55.30000 174.063
55.31000 173.084
55.32000 172.048
55.33000 170.979
55.34000 170.074
55.35000 172.543
55.36000 176.351
55.37000 179.903
55.38000 176.044
55.39000 170.712
55.40000 166.492
55.41000 169.677
55.42000 174.227
55.43000 179.130
55.44000 185.578
55.45000 192.208
55.46000 197.259
55.47000 189.442
55.48000 182.607
55.49000 177.115
55.50000 174.414
55.51000 171.799
55.52000 170.643
55.53000 171.570
55.54000 172.512
55.55000 176.742
55.56000 184.086
55.57000 191.319
55.58000 189.400
55.59000 181.660
55.60000 174.124
55.61000 171.821
55.62000 171.815
55.63000 171.810
55.64000 173.886
55.65000 176.368
55.66000 178.617
55.67000 179.115
55.68000 179.250
55.69000 179.204
55.70000 178.270
55.71000 177.216
55.72000 176.393
55.73000 170.119
55.74000 164.765
55.75000 162.392
55.76000 166.864
55.77000 171.606
55.78000 172.722
55.79000 168.089
55.80000 163.383
55.81000 160.956
55.82000 169.093
55.83000 174.540
55.84000 175.114
55.85000 172.243
55.86000 169.402
55.87000 167.572
55.88000 166.234
55.89000 164.959
55.90000 168.604
55.91000 173.515
55.92000 177.631
55.93000 174.901
55.94000 170.595
55.95000 166.842
55.96000 166.117
55.97000 165.852
55.98000 165.639
55.99000 174.915
56.00000 183.132
56.01000 187.134
56.02000 180.433
56.03000 173.205
56.04000 169.196
56.05000 170.844
56.06000 172.597
56.07000 173.552
56.08000 170.199
56.09000 167.901
56.10000 168.356
56.11000 170.978
56.12000 173.482
56.13000 170.782
56.14000 165.286
56.15000 160.003
56.16000 161.529
56.17000 165.331
56.18000 168.726
56.19000 168.081
56.20000 166.403
56.21000 164.943
56.22000 164.831
56.23000 164.950
56.24000 165.048
56.25000 169.626
56.26000 173.774
56.27000 176.520
56.28000 175.327
56.29000 173.898
56.30000 174.545
56.31000 179.233
56.32000 184.024
56.33000 186.766
56.34000 181.026
56.35000 176.989
56.36000 174.279
56.37000 172.739
56.38000 171.174
56.39000 168.135
56.40000 164.219
56.41000 160.424
56.42000 162.418
56.43000 166.562
56.44000 170.402
56.45000 170.753
56.46000 170.113
56.47000 169.131
56.48000 165.769
56.49000 161.950
56.50000 158.756
56.51000 164.982
56.52000 171.118
56.53000 175.598
56.54000 174.931
56.55000 173.895
56.56000 173.484
56.57000 174.414
56.58000 175.390
56.59000 175.975
56.60000 173.889
56.61000 172.390
56.62000 172.403
56.63000 173.908
56.64000 175.366
56.65000 172.271
56.66000 166.168
56.67000 160.211
56.68000 158.348
56.69000 158.348
56.70000 158.477
56.71000 160.362
56.72000 162.799
56.73000 165.268
56.74000 167.991
56.75000 170.769
56.76000 173.138
56.77000 168.825
56.78000 164.408
56.79000 160.857
56.80000 160.289
56.81000 159.973
56.82000 159.188
56.83000 157.290
56.84000 155.345
56.85000 154.129
56.86000 157.313
56.87000 159.658
56.88000 161.935
56.89000 164.136
56.90000 166.330
56.91000 167.238
56.92000 167.204
56.93000 167.169
56.94000 166.274
56.95000 164.992
56.96000 163.874
56.97000 165.404
56.98000 167.857
56.99000 170.067
57.00000 170.075
57.01000 169.556
57.02000 169.106
57.03000 165.152
57.04000 161.309
57.05000 159.825
57.06000 167.357
57.07000 175.772
57.08000 181.026
57.09000 177.961
57.10000 174.455
57.11000 172.175
57.12000 167.164
57.13000 163.448
57.14000 162.802
57.15000 165.965
57.16000 169.134
57.17000 170.378
57.18000 170.043
57.19000 169.713
57.20000 167.324
57.21000 163.881
57.22000 160.590
57.23000 160.270
57.24000 161.097
57.25000 162.114
57.26000 165.117
57.27000 168.649
57.28000 171.769
57.29000 168.781
57.30000 165.262
57.31000 163.102
57.32000 166.725
57.33000 170.999
57.34000 174.164
57.35000 174.095
57.36000 173.819
57.37000 173.633
57.38000 176.256
57.39000 178.268
57.40000 176.680
57.41000 170.112
57.42000 163.514
57.43000 162.372
57.44000 166.231
57.45000 170.057
57.46000 170.040
57.47000 167.695
57.48000 165.371
57.49000 163.577
57.50000 162.009
57.51000 160.667
57.52000 162.073
57.53000 164.289
57.54000 166.277
57.55000 164.712
57.56000 162.723
57.57000 160.769
57.58000 158.986
57.59000 157.224
57.60000 156.590
57.61000 159.592
57.62000 162.869
57.63000 165.158
57.64000 162.366
57.65000 160.116
57.66000 157.196
57.67000 153.247
57.68000 149.286
57.69000 150.611
57.70000 157.381
57.71000 164.117
57.72000 165.992
57.73000 164.553
57.74000 162.976
57.75000 157.188
57.76000 149.413
57.77000 142.408
57.78000 146.455
57.79000 154.111
57.80000 161.079
57.81000 162.977
57.82000 163.656
57.83000 164.202
57.84000 164.045
57.85000 163.785
57.86000 163.444
57.87000 162.810
57.88000 162.151
57.89000 161.676
57.90000 162.523
57.91000 163.219
57.92000 163.339
57.93000 162.478
57.94000 161.601
57.95000 160.424
57.96000 158.901
57.97000 157.381
57.98000 158.961
57.99000 162.883
58.00000 166.778
58.01000 169.584
58.02000 171.822
58.03000 173.780
58.04000 170.927
58.05000 166.336
58.06000 162.101
58.07000 158.517
58.08000 155.452
58.09000 153.167
58.10000 155.525
58.11000 158.651
58.12000 161.211
58.13000 161.523
58.14000 161.602
58.15000 161.661
58.16000 164.238
58.17000 166.351
58.18000 166.838
58.19000 164.253
58.20000 161.595
58.21000 160.959
58.22000 162.934
58.23000 164.916
58.24000 166.388
58.25000 167.423
58.26000 168.373
58.27000 164.578
58.28000 158.040
58.29000 151.996
58.30000 156.285
58.31000 164.704
58.32000 172.563
58.33000 171.633
58.34000 168.590
58.35000 165.933
58.36000 165.862
58.37000 166.270
58.38000 166.796
58.39000 167.840
58.40000 168.946
58.41000 169.790
58.42000 162.024
58.43000 155.442
58.44000 152.039
58.45000 155.285
58.46000 158.740
58.47000 160.018
58.48000 158.167
58.49000 156.290
58.50000 154.001
58.51000 151.316
58.52000 148.695
58.53000 151.408
58.54000 157.540
58.55000 163.573
58.56000 167.021
58.57000 169.327
58.58000 171.503
58.59000 167.709
58.60000 162.554
58.61000 158.419
58.62000 162.055
58.63000 167.307
58.64000 171.182
58.65000 168.274
58.66000 164.449
58.67000 161.454
58.68000 164.859
58.69000 167.991
58.70000 169.295
58.71000 166.369
58.72000 163.274
58.73000 159.991
58.74000 156.407
58.75000 152.820
58.76000 150.962
58.77000 155.948
58.78000 159.293
58.79000 159.849
58.80000 158.418
58.81000 157.043
58.82000 157.557
58.83000 158.995
58.84000 160.365
58.85000 156.713
58.86000 151.747
58.87000 147.408
58.88000 148.514
58.89000 150.882
58.90000 153.563
58.91000 157.974
58.92000 162.649
58.93000 166.400
58.94000 167.180
58.95000 167.586
58.96000 166.942
58.97000 163.612
58.98000 160.148
58.99000 158.019
59.00000 158.252
59.01000 158.531
59.02000 158.683
59.03000 155.469
59.04000 153.268
59.05000 154.531
59.06000 158.544
59.07000 162.538
59.08000 165.687
59.09000 168.380
59.10000 170.970
59.11000 166.360
59.12000 159.508
59.13000 153.506
59.14000 156.007
59.15000 160.701
59.16000 164.985
59.17000 166.720
59.18000 168.016
59.19000 169.079
59.20000 169.665
59.21000 170.104
59.22000 169.989
59.23000 168.311
59.24000 166.537
59.25000 165.004
59.26000 163.943
59.27000 162.894
59.28000 162.292
59.29000 156.252
59.30000 152.014
59.31000 153.284
59.32000 159.439
59.33000 165.514
59.34000 166.346
59.35000 164.037
59.36000 161.797
59.37000 160.553
59.38000 159.765
59.39000 158.995
59.40000 158.427
59.41000 157.919
59.42000 157.200
59.43000 155.008
59.44000 152.531
59.45000 150.456
59.46000 155.681
59.47000 160.781
59.48000 163.731
59.49000 159.956
59.50000 155.693
59.51000 153.111
59.52000 154.170
59.53000 155.355
59.54000 156.067
59.55000 156.526
59.56000 156.850
59.57000 155.726
59.58000 153.160
59.59000 150.611
59.60000 149.880
59.61000 150.356
59.62000 150.821
59.63000 153.643
59.64000 157.377
59.65000 160.933
59.66000 162.055
59.67000 162.404
59.68000 162.730
59.69000 162.860
59.70000 162.949
59.71000 163.025
59.72000 161.137
59.73000 159.312
59.74000 157.514
59.75000 155.806
59.76000 154.105
59.77000 151.588
59.78000 147.115
59.79000 142.556
59.80000 139.697
59.81000 150.462
59.82000 158.389
59.83000 161.428
59.84000 158.999
59.85000 156.578
59.86000 156.565
59.87000 158.332
59.88000 160.068
59.89000 158.378
59.90000 155.069
59.91000 151.914
59.92000 151.270
59.93000 151.508
59.94000 152.058
59.95000 155.465
59.96000 159.559
59.97000 163.120
59.98000 158.656
59.99000 153.753
60.00000 150.826
60.01000 155.509
60.02000 160.944
60.03000 164.663
60.04000 163.828
60.05000 162.750
60.06000 162.046
60.07000 158.401
60.08000 155.679
60.09000 154.064
60.10000 153.834
60.11000 153.609
60.12000 153.900
60.13000 154.617
60.14000 155.326
60.15000 154.404
60.16000 152.613
60.17000 151.035
60.18000 153.650
60.19000 157.893
60.20000 162.091
60.21000 165.815
60.22000 169.413
60.23000 172.595
60.24000 169.640
60.25000 166.133
60.26000 162.479
60.27000 158.193
60.28000 153.835
60.29000 150.595
60.30000 150.632
60.31000 150.881
60.32000 151.049
60.33000 158.845
60.34000 164.819
60.35000 166.695
60.36000 162.856
60.37000 158.981
60.38000 158.135
60.39000 160.088
60.40000 162.026
60.41000 164.771
60.42000 167.961
60.43000 170.915
60.44000 168.103
60.45000 162.815
60.46000 157.974
60.47000 158.642
60.48000 160.946
60.49000 163.015
60.50000 161.504
60.51000 159.552
60.52000 158.020
60.53000 158.497
60.54000 159.237
60.55000 161.342
60.56000 167.881
60.57000 174.761
60.58000 179.576
60.59000 168.963
60.60000 160.501
60.61000 156.244
60.62000 158.505
60.63000 160.840
60.64000 162.514
60.65000 163.500
60.66000 164.481
60.67000 161.974
60.68000 157.114
60.69000 152.428
60.70000 153.187
60.71000 156.534
60.72000 159.505
60.73000 157.023
60.74000 152.746
60.75000 148.849
60.76000 149.796
60.77000 151.599
60.78000 153.894
60.79000 158.816
60.80000 164.127
60.81000 167.098
60.82000 161.646
60.83000 155.436
60.84000 150.950
60.85000 150.446
60.86000 150.203
60.87000 150.767
60.88000 152.717
60.89000 154.691
60.90000 157.930
60.91000 162.643
60.92000 167.347
60.93000 169.550
60.94000 169.827
60.95000 170.116
60.96000 170.888
60.97000 171.914
60.98000 172.692
60.99000 169.148
61.00000 164.031
61.01000 159.307
61.02000 154.731
61.03000 150.661
61.04000 147.171
61.05000 147.161
61.06000 147.730
61.07000 148.839
61.08000 152.102
61.09000 155.589
61.10000 158.183
61.11000 160.389
61.12000 162.087
61.13000 162.436
61.14000 160.217
61.15000 157.935
61.16000 156.691
61.17000 156.795
61.18000 156.905
61.19000 158.380
61.20000 161.025
61.21000 163.658
61.22000 165.639
61.23000 167.242
61.24000 168.660
61.25000 166.151
61.26000 162.061
61.27000 158.240
61.28000 157.026
61.29000 156.582
61.30000 156.082
61.31000 155.199
61.32000 154.246
61.33000 153.328
61.34000 152.574
61.35000 151.840
61.36000 151.278
61.37000 158.696
61.38000 164.982
61.39000 169.406
61.40000 169.906
61.41000 170.281
61.42000 169.458
61.43000 166.899
61.44000 164.327
61.45000 161.635
61.46000 158.830
61.47000 156.065
61.48000 156.817
61.49000 159.839
61.50000 162.909
61.51000 167.251
61.52000 172.158
61.53000 176.794
61.54000 188.261
61.55000 200.718
61.56000 213.129
61.57000 225.183
61.58000 237.162
61.59000 247.012
61.60000 246.282
61.61000 244.110
61.62000 242.407
61.63000 250.536
61.64000 257.678
61.65000 261.029
61.66000 255.548
61.67000 249.707
61.68000 248.200
61.69000 253.668
61.70000 259.228
61.71000 262.119
61.72000 268.221
61.73000 272.305
61.74000 270.512
61.75000 264.501
61.76000 258.398
61.77000 249.083
61.78000 238.187
61.79000 227.792
61.80000 215.764
61.81000 204.083
61.82000 193.113
61.83000 188.387
61.84000 185.120
61.85000 181.777
61.86000 178.015
61.87000 174.187
61.88000 171.112
61.89000 169.684
61.90000 168.654
61.91000 168.142
61.92000 168.966
61.93000 169.858
61.94000 169.977
61.95000 168.718
61.96000 167.432
61.97000 166.727
61.98000 163.089
61.99000 160.587
62.00000 159.955
62.01000 160.817
62.02000 161.683
62.03000 162.750
62.04000 163.926
62.05000 165.058
62.06000 162.781
62.07000 159.438
62.08000 156.694
62.09000 160.002
62.10000 164.883
62.11000 168.885
62.12000 167.376
62.13000 164.910
62.14000 162.883
62.15000 167.477
62.16000 171.847
62.17000 175.049
62.18000 174.924
62.19000 174.593
62.20000 173.369
62.21000 170.379
62.22000 167.342
62.23000 165.592
62.24000 167.727
62.25000 169.233
62.26000 166.987
62.27000 161.383
62.28000 155.859
62.29000 155.631
62.30000 158.600
62.31000 161.481
62.32000 158.411
62.33000 153.145
62.34000 148.489
62.35000 151.005
62.36000 155.591
62.37000 159.851
62.38000 161.806
62.39000 163.312
62.40000 164.576
62.41000 166.862
62.42000 168.872
62.43000 169.061
62.44000 163.508
62.45000 157.535
62.46000 154.805
62.47000 159.157
62.48000 163.758
62.49000 166.533
62.50000 166.261
62.51000 166.045
62.52000 166.950
62.53000 168.978
62.54000 171.008
62.55000 173.120
62.56000 175.286
62.57000 177.403
62.58000 174.565
62.59000 169.658
62.60000 165.178
62.61000 166.612
62.62000 169.936
62.63000 172.652
62.64000 170.472
62.65000 167.226
62.66000 164.449
62.67000 160.973
62.68000 157.958
62.69000 156.610
62.70000 161.089
62.71000 166.070
62.72000 169.313
62.73000 168.358
62.74000 167.217
62.75000 166.499
62.76000 161.425
62.77000 157.707
62.78000 155.957
62.79000 156.429
62.80000 156.917
62.81000 160.171
62.82000 165.487
62.83000 170.713
62.84000 169.442
62.85000 165.007
62.86000 160.712
62.87000 158.703
62.88000 157.503
62.89000 156.194
62.90000 153.881
62.91000 151.324
62.92000 149.097
62.93000 154.093
62.94000 159.354
62.95000 163.961
62.96000 166.032
62.97000 167.849
62.98000 169.329
62.99000 169.909
63.00000 170.440
63.01000 170.788
63.02000 166.558
63.03000 163.377
63.04000 161.404
63.05000 160.956
63.06000 160.524
63.07000 165.629
63.08000 175.341
63.09000 184.936
63.10000 184.992
63.11000 179.792
63.12000 174.645
63.13000 170.576
63.14000 166.929
63.15000 163.546
63.16000 162.975
63.17000 163.163
63.18000 163.329
63.19000 166.547
63.20000 169.809
63.21000 172.436
63.22000 172.325
63.23000 171.899
63.24000 171.922
63.25000 173.271
63.26000 174.708
63.27000 175.683
63.28000 170.871
63.29000 167.154
63.30000 165.491
63.31000 166.714
63.32000 167.956
63.33000 167.360
63.34000 165.050
63.35000 162.758
63.36000 163.730
63.37000 166.693
63.38000 169.477
63.39000 167.761
63.40000 164.098
63.41000 160.890
63.42000 163.336
63.43000 167.475
63.44000 171.196
63.45000 169.614
63.46000 167.286
63.47000 164.925
63.48000 162.411
63.49000 159.877
63.50000 158.360
63.51000 160.173
63.52000 162.244
63.53000 163.697
63.54000 162.412
63.55000 161.360
63.56000 161.540
63.57000 163.644
63.58000 165.771
63.59000 167.707
63.60000 169.442
63.61000 171.170
63.62000 172.276
63.63000 172.941
63.64000 173.619
63.65000 174.693
63.66000 175.956
63.67000 177.169
63.68000 177.648
63.69000 177.884
63.70000 178.100
63.71000 174.515
63.72000 170.574
63.73000 166.923
63.74000 164.842
63.75000 162.994
63.76000 162.976
63.77000 169.593
63.78000 176.814
63.79000 182.041
63.80000 175.932
63.81000 170.825
63.82000 168.410
63.83000 170.658
63.84000 172.989
63.85000 176.553
63.86000 181.564
63.87000 186.567
63.88000 184.420
63.89000 176.773
63.90000 169.318
63.91000 169.967
63.92000 174.906
63.93000 179.359
63.94000 175.210
63.95000 167.907
63.96000 161.159
63.97000 163.626
63.98000 167.923
63.99000 172.298
64.00000 177.138
64.01000 182.056
64.02000 186.110
64.03000 186.683
64.04000 186.890
64.05000 187.044
64.06000 177.161
64.07000 169.010
64.08000 163.547
64.09000 163.240
64.10000 163.062
64.11000 164.033
64.12000 166.514
64.13000 169.000
64.14000 171.879
64.15000 175.092
64.16000 178.215
64.17000 175.972
64.18000 170.582
64.19000 165.782
64.20000 173.709
64.21000 186.799
64.22000 199.038
64.23000 195.762
64.24000 188.843
64.25000 182.351
64.26000 178.774
64.27000 175.748
64.28000 173.588
64.29000 175.313
64.30000 177.507
64.31000 179.189
64.32000 183.119
64.33000 186.345
64.34000 187.461
64.35000 184.098
64.36000 180.588
64.37000 179.324
64.38000 181.336
64.39000 183.377
64.40000 184.752
64.41000 185.481
64.42000 186.176
64.43000 183.725
64.44000 179.228
64.45000 174.925
64.46000 175.884
64.47000 179.201
64.48000 182.337
64.49000 182.706
64.50000 182.256
64.51000 182.168
64.52000 184.889
64.53000 188.203
64.54000 190.901
64.55000 190.517
64.56000 189.708
64.57000 189.073
64.58000 187.363
64.59000 185.923
64.60000 184.381
64.61000 182.597
64.62000 180.804
64.63000 182.548
64.64000 190.024
64.65000 197.579
64.66000 201.524
64.67000 195.639
64.68000 191.686
64.69000 192.606
64.70000 197.049
64.71000 201.447
64.72000 204.225
64.73000 206.202
64.74000 208.088
64.75000 204.283
64.76000 198.931
64.77000 194.101
64.78000 193.897
64.79000 194.783
64.80000 195.470
64.81000 195.050
64.82000 194.458
64.83000 193.981
64.84000 198.476
64.85000 202.510
64.86000 203.833
64.87000 198.119
64.88000 192.044
64.89000 187.480
64.90000 185.630
64.91000 183.835
64.92000 182.847
64.93000 190.643
64.94000 196.023
64.95000 199.363
64.96000 201.059
64.97000 202.641
64.98000 198.857
64.99000 192.126
65.00000 185.643
65.01000 189.517
65.02000 196.852
65.03000 203.450
65.04000 202.520
65.05000 199.618
65.06000 197.209
65.07000 197.909
65.08000 199.153
65.09000 200.178
65.10000 197.120
65.11000 194.235
65.12000 192.544
65.13000 194.278
65.14000 196.225
65.15000 199.627
65.16000 205.923
65.17000 212.299
65.18000 215.985
65.19000 207.675
65.20000 201.805
65.21000 200.408
65.22000 203.045
65.23000 205.663
65.24000 206.935
65.25000 207.388
65.26000 207.828
65.27000 211.822
65.28000 217.029
65.29000 221.965
65.30000 223.687
65.31000 224.476
65.32000 224.318
65.33000 217.403
65.34000 209.159
65.35000 202.233
65.36000 206.955
65.37000 212.118
65.38000 216.749
65.39000 219.693
65.40000 222.511
65.41000 223.758
65.42000 221.549
65.43000 219.217
65.44000 217.806
65.45000 221.290
65.46000 223.809
65.47000 223.947
65.48000 221.673
65.49000 219.413
65.50000 218.808
65.51000 219.319
65.52000 219.819
65.53000 222.371
65.54000 225.731
65.55000 229.389
65.56000 237.216
65.57000 246.385
65.58000 254.265
65.59000 251.661
65.60000 246.754
65.61000 242.552
65.62000 252.182
65.63000 261.989
65.64000 271.043
65.65000 277.448
65.66000 283.623
65.67000 293.882
65.68000 314.074
65.69000 334.713
65.70000 347.732
65.71000 382.945
65.72000 408.700
65.73000 444.320
65.74000 491.158
65.75000 538.030
65.76000 589.404
65.77000 644.164
65.78000 698.009
65.79000 733.094
65.80000 757.698
65.81000 781.557
65.82000 792.968
65.83000 799.942
65.84000 807.264
65.85000 817.829
65.86000 829.188
65.87000 839.091
65.88000 847.534
65.89000 854.549
65.90000 856.517
65.91000 838.760
65.92000 819.009
65.93000 797.399
65.94000 770.786
65.95000 743.896
65.96000 726.262
65.97000 660.839
65.98000 611.931
65.99000 563.388
66.00000 515.308
66.01000 467.244
66.02000 427.064
66.03000 393.497
66.04000 360.324
66.05000 338.599
66.06000 323.764
66.07000 309.039
66.08000 296.529
66.09000 284.892
66.10000 274.686
66.11000 279.906
66.12000 289.319
66.13000 297.663
66.14000 292.865
66.15000 286.632
66.16000 281.132
66.17000 278.823
66.18000 276.884
66.19000 275.711
66.20000 276.817
66.21000 278.074
66.22000 278.929
66.23000 280.813
66.24000 282.243
66.25000 289.003
66.26000 303.310
66.27000 317.670
66.28000 326.907
66.29000 331.330
66.30000 335.720
66.31000 341.709
66.32000 348.591
66.33000 355.564
66.34000 364.862
66.35000 375.173
66.36000 384.924
66.37000 387.630
66.38000 388.211
66.39000 388.735
66.40000 389.749
66.41000 390.726
66.42000 392.372
66.43000 397.264
66.44000 402.586
66.45000 406.587
66.46000 406.236
66.47000 405.543
66.48000 405.055
66.49000 387.855
66.50000 374.332
66.51000 366.543
66.52000 367.777
66.53000 369.122
66.54000 365.383
66.55000 356.275
66.56000 347.205
66.57000 336.137
66.58000 323.797
66.59000 311.720
66.60000 308.159
66.61000 308.703
66.62000 309.198
66.63000 308.973
66.64000 308.507
66.65000 308.082
66.66000 308.340
66.67000 308.707
66.68000 309.618
66.69000 313.483
66.70000 317.793
66.71000 321.081
66.72000 320.634
66.73000 319.844
66.74000 319.271
66.75000 310.959
66.76000 304.282
66.77000 302.259
66.78000 308.354
66.79000 314.598
66.80000 320.112
66.81000 324.764
66.82000 329.405
66.83000 328.374
66.84000 322.942
66.85000 317.618
66.86000 316.942
66.87000 318.744
66.88000 320.499
66.89000 321.406
66.90000 321.999
66.91000 322.548
66.92000 320.424
66.93000 317.907
66.94000 316.458
66.95000 321.528
66.96000 327.703
66.97000 333.412
66.98000 337.226
66.99000 340.839
67.00000 343.537
67.01000 338.070
67.02000 333.431
67.03000 332.429
67.04000 338.452
67.05000 344.651
67.06000 347.442
67.07000 345.728
67.08000 343.995
67.09000 344.928
67.10000 348.185
67.11000 351.395
67.12000 351.717
67.13000 350.332
67.14000 348.996
67.15000 348.748
67.16000 348.943
67.17000 349.126
67.18000 355.270
67.19000 362.382
67.20000 368.627
67.21000 368.891
67.22000 368.017
67.23000 367.591
67.24000 369.195
67.25000 371.047
67.26000 372.468
67.27000 372.056
67.28000 371.628
67.29000 371.348
67.30000 371.383
67.31000 371.429
67.32000 373.821
67.33000 379.663
67.34000 385.536
67.35000 390.285
67.36000 393.932
67.37000 397.574
67.38000 400.666
67.39000 403.397
67.40000 405.977
67.41000 404.364
67.42000 400.859
67.43000 397.543
67.44000 405.096
67.45000 415.164
67.46000 423.594
67.47000 419.196
67.48000 412.067
67.49000 405.372
67.50000 400.869
67.51000 396.671
67.52000 393.365
67.53000 395.046
67.54000 396.726
67.55000 400.442
67.56000 408.969
67.57000 417.699
67.58000 421.063
67.59000 415.665
67.60000 410.143
67.61000 407.248
67.62000 415.675
67.63000 421.353
67.64000 421.502
67.65000 417.620
67.66000 413.937
67.67000 417.334
67.68000 424.269
67.69000 430.894
67.70000 431.451
67.71000 430.015
67.72000 429.051
67.73000 432.300
67.74000 436.550
67.75000 439.559
67.76000 435.544
67.77000 430.427
67.78000 426.301
67.79000 439.987
67.80000 452.504
67.81000 463.018
67.82000 468.299
67.83000 473.306
67.84000 475.876
67.85000 474.035
67.86000 472.103
67.87000 471.035
67.88000 480.158
67.89000 486.444
67.90000 482.858
67.91000 471.252
67.92000 459.936
67.93000 462.761
67.94000 473.404
67.95000 483.662
67.96000 481.920
67.97000 475.964
67.98000 471.499
67.99000 482.422
68.00000 497.405
68.01000 510.668
68.02000 512.968
68.03000 513.329
68.04000 513.628
68.05000 516.179
68.06000 518.486
68.07000 519.851
68.08000 518.495
68.09000 516.968
68.10000 520.295
68.11000 533.349
68.12000 546.674
68.13000 554.404
68.14000 550.379
68.15000 547.503
68.16000 541.403
68.17000 532.374
68.18000 523.595
68.19000 532.469
68.20000 552.162
68.21000 571.288
68.22000 569.324
68.23000 558.978
68.24000 550.360
68.25000 562.517
68.26000 580.757
68.27000 596.357
68.28000 592.927
68.29000 585.725
68.30000 579.666
68.31000 583.203
68.32000 587.175
68.33000 592.244
68.34000 600.824
68.35000 609.667
68.36000 616.492
68.37000 618.843
68.38000 621.031
68.39000 622.359
68.40000 627.696
68.41000 631.535
68.42000 636.526
68.43000 642.695
68.44000 648.893
68.45000 658.286
68.46000 669.853
68.47000 681.165
68.48000 689.378
68.49000 695.862
68.50000 702.413
68.51000 709.909
68.52000 717.710
68.53000 725.430
68.54000 732.480
68.55000 739.381
68.56000 745.299
68.57000 765.445
68.58000 784.208
68.59000 806.510
68.60000 841.367
68.61000 877.329
68.62000 910.894
68.63000 938.587
68.64000 966.013
68.65000 983.363
68.66000 1034.208
68.67000 1071.466
68.68000 1117.793
68.69000 1174.518
68.70000 1231.210
68.71000 1278.612
68.72000 1318.978
68.73000 1358.685
68.74000 1408.217
68.75000 1461.083
68.76000 1512.585
68.77000 1540.985
68.78000 1561.094
68.79000 1582.534
68.80000 1616.511
68.81000 1653.579
68.82000 1685.937
68.83000 1752.173
68.84000 1813.599
68.85000 1884.307
68.86000 1991.574
68.87000 2102.574
68.88000 2224.994
68.89000 2378.349
68.90000 2533.436
68.91000 2635.414
68.92000 3303.677
68.93000 3805.308
68.94000 4764.021
68.95000 6308.245
68.96000 7856.240
68.97000 10326.551
68.98000 13576.651
68.99000 16789.674
69.00000 21212.432
69.01000 26206.754
69.02000 31165.941
69.03000 35399.660
69.04000 39345.406
69.05000 43103.402
69.06000 44816.648
69.07000 45969.902
69.08000 46993.313
69.09000 46847.504
69.10000 46534.492
69.11000 46257.719
69.12000 46139.773
69.13000 46040.473
69.14000 46126.711
69.15000 46769.066
69.16000 47448.816
69.17000 47912.145
69.18000 48351.293
69.19000 48678.938
69.20000 48398.914
69.21000 47251.906
69.22000 46098.117
69.23000 43808.848
69.24000 40443.770
69.25000 37103.512
69.26000 34054.676
69.27000 31238.406
69.28000 28467.867
69.29000 26874.707
69.30000 25798.299
69.31000 24759.576
69.32000 24200.738
69.33000 23787.643
69.34000 23415.434
69.35000 23109.463
69.36000 22853.008
69.37000 22481.277
69.38000 21545.680
69.39000 20534.607
69.40000 19305.719
69.41000 17353.801
69.42000 15344.370
69.43000 13928.142
69.44000 10858.720
69.45000 8481.272
69.46000 6510.015
69.47000 5182.603
69.48000 3863.298
69.49000 2990.699
69.50000 2593.919
69.51000 2198.930
69.52000 1944.189
69.53000 1790.147
69.54000 1637.645
69.55000 1536.126
69.56000 1459.354
69.57000 1384.621
69.58000 1340.637
69.59000 1306.995
69.60000 1276.255
69.61000 1220.222
69.62000 1165.288
69.63000 1113.876
69.64000 1081.760
69.65000 1052.570
69.66000 1022.405
69.67000 988.649
69.68000 954.559
69.69000 929.772
69.70000 914.626
69.71000 903.339
69.72000 889.662
69.73000 871.787
69.74000 853.834
69.75000 840.498
69.76000 832.672
69.77000 824.871
69.78000 812.491
69.79000 796.586
69.80000 780.854
69.81000 772.828
69.82000 768.940
69.83000 764.375
69.84000 747.524
69.85000 726.101
69.86000 706.272
69.87000 703.809
69.88000 705.592
69.89000 706.444
69.90000 701.564
69.91000 695.704
69.92000 688.511
69.93000 675.862
69.94000 662.627
69.95000 652.721
69.96000 652.374
69.97000 652.549
69.98000 649.513
69.99000 640.228
70.00000 630.782
