20.00000 581.128
20.01000 576.786
20.02000 571.824
20.03000 569.743
20.04000 579.182
20.05000 589.820
20.06000 597.734
20.07000 585.056
20.08000 574.273
20.09000 566.926
20.10000 566.119
20.11000 565.469
20.12000 565.251
20.13000 565.593
20.14000 565.937
20.15000 565.370
20.16000 564.024
20.17000 562.826
20.18000 570.214
20.19000 582.599
20.20000 594.100
20.21000 586.796
20.22000 571.923
20.23000 558.027
20.24000 565.825
20.25000 578.368
20.26000 589.077
20.27000 587.370
20.28000 583.339
20.29000 579.482
20.30000 576.405
20.31000 573.420
20.32000 571.138
20.33000 582.887
20.34000 592.916
20.35000 595.974
20.36000 584.349
20.37000 572.255
20.38000 565.965
20.39000 568.082
20.40000 570.268
20.41000 570.960
20.42000 570.212
20.43000 569.530
20.44000 574.496
20.45000 583.108
20.46000 591.261
20.47000 587.183
20.48000 577.661
20.49000 568.667
20.50000 566.091
20.51000 565.542
20.52000 564.773
20.53000 562.317
20.54000 559.507
20.55000 557.388
20.56000 558.706
20.57000 560.491
20.58000 561.892
20.59000 574.096
20.60000 584.558
20.61000 591.116
20.62000 588.581
20.63000 585.674
20.64000 583.825
20.65000 583.676
20.66000 583.549
20.67000 583.484
20.68000 571.910
20.69000 564.117
20.70000 560.637
20.71000 560.250
20.72000 560.055
20.73000 566.471
20.74000 576.139
20.75000 585.363
20.76000 580.946
20.77000 572.526
20.78000 564.757
20.79000 562.697
20.80000 561.971
20.81000 561.499
20.82000 562.443
20.83000 563.605
20.84000 564.539
20.85000 572.607
20.86000 579.696
20.87000 583.875
20.88000 580.562
20.89000 576.870
20.90000 576.460
20.91000 581.903
20.92000 587.460
20.93000 590.508
20.94000 580.158
20.95000 573.041
20.96000 574.007
20.97000 581.436
20.98000 588.685
20.99000 587.575
21.00000 581.911
21.01000 576.460
21.02000 567.598
21.03000 558.074
21.04000 549.792
21.05000 554.060
21.06000 561.587
21.07000 568.088
21.08000 568.165
21.09000 567.125
21.10000 566.270
21.11000 575.073
21.12000 583.172
21.13000 587.528
21.14000 581.219
21.15000 574.255
21.16000 570.093
21.17000 571.459
21.18000 572.974
21.19000 573.847
21.20000 577.580
21.21000 580.201
21.22000 578.104
21.23000 571.788
21.24000 565.586
21.25000 566.890
21.26000 572.727
21.27000 578.390
21.28000 579.383
21.29000 578.477
21.30000 578.123
21.31000 584.263
21.32000 592.276
21.33000 599.765
21.34000 603.547
21.35000 606.607
21.36000 609.173
21.37000 606.243
21.38000 603.232
21.39000 600.682
21.40000 599.589
21.41000 598.602
21.42000 596.647
21.43000 592.578
21.44000 588.434
21.45000 585.935
21.46000 576.661
21.47000 570.013
21.48000 569.389
21.49000 574.815
21.50000 580.250
21.51000 586.592
21.52000 593.543
21.53000 600.334
21.54000 610.518
21.55000 621.768
21.56000 632.005
21.57000 628.225
21.58000 619.968
21.59000 614.088
21.60000 627.349
21.61000 644.781
21.62000 659.689
21.63000 668.842
21.64000 675.868
21.65000 683.832
21.66000 695.073
21.67000 706.595
21.68000 718.390
21.69000 730.844
21.70000 743.328
21.71000 751.178
21.72000 759.827
21.73000 766.092
21.74000 785.813
21.75000 820.709
21.76000 855.589
21.77000 884.880
21.78000 910.006
21.79000 934.703
21.80000 961.806
21.81000 989.192
21.82000 1017.045
21.83000 1052.599
21.84000 1090.878
21.85000 1127.293
21.86000 1146.518
21.87000 1161.572
21.88000 1174.680
21.89000 1193.679
21.90000 1210.716
21.91000 1225.633
21.92000 1232.333
21.93000 1238.211
21.94000 1243.478
21.95000 1247.113
21.96000 1250.658
21.97000 1252.977
21.98000 1244.075
21.99000 1237.353
22.00000 1227.887
22.01000 1214.961
22.02000 1201.997
22.03000 1175.623
22.04000 1138.096
22.05000 1101.023
22.06000 1073.854
22.07000 1052.824
22.08000 1031.645
22.09000 1007.512
22.10000 982.223
22.11000 957.070
22.12000 933.366
22.13000 910.052
22.14000 889.411
22.15000 859.584
22.16000 832.347
22.17000 806.991
22.18000 789.750
22.19000 773.442
22.20000 757.018
22.21000 740.248
22.22000 723.455
22.23000 712.067
22.24000 688.462
22.25000 670.588
22.26000 658.379
22.27000 654.126
22.28000 649.928
22.29000 643.747
22.30000 635.719
22.31000 627.754
22.32000 621.693
22.33000 616.909
22.34000 612.131
22.35000 607.520
22.36000 602.980
22.37000 598.567
22.38000 595.715
22.39000 593.332
22.40000 591.189
22.41000 590.787
22.42000 590.745
22.43000 590.782
22.44000 591.206
22.45000 591.679
22.46000 590.222
22.47000 582.449
22.48000 574.186
22.49000 568.389
22.50000 559.199
22.51000 552.147
22.52000 548.705
22.53000 550.899
22.54000 553.161
22.55000 554.495
22.56000 554.859
22.57000 555.221
22.58000 556.229
22.59000 557.670
22.60000 558.833
22.61000 551.158
22.62000 539.255
22.63000 528.273
22.64000 530.810
22.65000 537.826
22.66000 544.225
22.67000 540.480
22.68000 535.123
22.69000 530.217
22.70000 527.742
22.71000 525.629
22.72000 525.267
22.73000 531.256
22.74000 537.822
22.75000 542.575
22.76000 539.045
22.77000 536.030
22.78000 537.843
22.79000 548.013
22.80000 558.330
22.81000 559.902
22.82000 551.208
22.83000 542.517
22.84000 539.492
22.85000 540.850
22.86000 541.919
22.87000 530.791
22.88000 513.209
22.89000 496.714
22.90000 499.405
22.91000 509.130
22.92000 518.116
22.93000 523.769
22.94000 528.089
22.95000 531.750
22.96000 531.426
22.97000 530.432
22.98000 530.202
22.99000 533.048
23.00000 536.219
23.01000 538.582
23.02000 533.603
23.03000 529.393
23.04000 528.031
23.05000 532.128
23.06000 536.359
23.07000 535.939
23.08000 529.421
23.09000 522.880
23.10000 521.681
23.11000 525.100
23.12000 528.499
23.13000 530.769
23.14000 532.376
23.15000 533.802
23.16000 531.315
23.17000 527.241
23.18000 523.432
23.19000 519.442
23.20000 515.773
23.21000 513.248
23.22000 518.536
23.23000 525.299
23.24000 530.285
23.25000 527.308
23.26000 523.370
23.27000 520.353
23.28000 522.489
23.29000 524.460
23.30000 523.864
23.31000 517.821
23.32000 511.601
23.33000 508.816
23.34000 511.042
23.35000 513.310
23.36000 516.819
23.37000 521.530
23.38000 526.169
23.39000 524.213
23.40000 517.969
23.41000 511.877
23.42000 509.896
23.43000 509.758
23.44000 509.628
23.45000 509.682
23.46000 509.783
23.47000 510.462
23.48000 515.615
23.49000 521.712
23.50000 526.547
23.51000 525.060
23.52000 522.703
23.53000 520.851
23.54000 525.328
23.55000 529.329
23.56000 528.143
23.57000 514.791
23.58000 500.935
23.59000 494.802
23.60000 501.184
23.61000 507.738
23.62000 511.159
23.63000 518.934
23.64000 524.143
23.65000 521.417
23.66000 512.952
23.67000 504.717
23.68000 504.522
23.69000 508.315
23.70000 511.936
23.71000 517.535
23.72000 523.367
23.73000 527.938
23.74000 521.334
23.75000 512.100
23.76000 504.624
23.77000 507.022
23.78000 510.955
23.79000 514.122
23.80000 514.835
23.81000 515.224
23.82000 513.672
23.83000 507.088
23.84000 500.247
23.85000 498.753
23.86000 506.864
23.87000 515.168
23.88000 519.739
23.89000 520.851
23.90000 521.596
23.91000 517.301
23.92000 508.943
23.93000 500.843
23.94000 504.961
23.95000 515.785
23.96000 526.209
23.97000 531.198
23.98000 533.943
23.99000 535.777
24.00000 528.299
24.01000 518.385
24.02000 508.838
24.03000 501.608
24.04000 494.785
24.05000 489.170
24.06000 499.501
24.07000 509.446
24.08000 516.584
24.09000 515.667
24.10000 514.249
24.11000 513.170
24.12000 512.767
24.13000 512.382
24.14000 512.160
24.15000 499.152
24.16000 489.983
24.17000 481.723
24.18000 474.281
24.19000 467.063
24.20000 475.118
24.21000 492.461
24.22000 509.296
24.23000 509.241
24.24000 502.453
24.25000 496.729
24.26000 503.633
24.27000 514.206
24.28000 521.747
24.29000 507.627
24.30000 489.250
24.31000 473.811
24.32000 484.395
24.33000 495.956
24.34000 503.490
24.35000 498.232
24.36000 492.027
24.37000 491.101
24.38000 501.784
24.39000 512.881
24.40000 519.593
24.41000 502.590
24.42000 490.299
24.43000 485.121
24.44000 487.147
24.45000 489.174
24.46000 491.212
24.47000 493.258
24.48000 495.258
24.49000 496.961
24.50000 498.460
24.51000 499.627
24.52000 496.157
24.53000 491.194
24.54000 487.661
24.55000 495.758
24.56000 506.407
24.57000 515.527
24.58000 508.469
24.59000 500.550
24.60000 496.456
24.61000 505.827
24.62000 516.371
24.63000 520.726
24.64000 510.035
24.65000 498.668
24.66000 491.499
24.67000 499.666
24.68000 505.757
24.69000 508.545
24.70000 507.580
24.71000 506.607
24.72000 504.955
24.73000 502.792
24.74000 500.665
24.75000 498.893
24.76000 497.356
24.77000 495.673
24.78000 491.557
24.79000 486.575
24.80000 482.552
24.81000 487.464
24.82000 494.561
24.83000 500.748
24.84000 496.419
24.85000 491.259
24.86000 487.866
24.87000 491.382
24.88000 495.596
24.89000 498.749
24.90000 499.051
24.91000 499.196
24.92000 499.291
24.93000 486.673
24.94000 477.183
24.95000 474.180
24.96000 479.420
24.97000 484.677
24.98000 483.829
24.99000 477.861
25.00000 471.963
25.01000 473.415
25.02000 478.913
25.03000 484.411
25.04000 489.919
25.05000 495.431
25.06000 500.318
25.07000 498.479
25.08000 494.811
25.09000 491.560
25.10000 486.055
25.11000 480.933
25.12000 476.978
25.13000 478.095
25.14000 479.802
25.15000 481.786
25.16000 484.596
25.17000 487.460
25.18000 489.408
25.19000 489.400
25.20000 489.350
25.21000 486.177
25.22000 478.586
25.23000 470.963
25.24000 469.381
25.25000 473.473
25.26000 477.533
25.27000 478.901
25.28000 478.576
25.29000 478.308
25.30000 479.497
25.31000 481.322
25.32000 483.056
25.33000 483.658
25.34000 483.920
25.35000 484.155
25.36000 483.104
25.37000 481.951
25.38000 480.715
25.39000 479.077
25.40000 477.385
25.41000 476.402
25.42000 477.755
25.43000 479.291
25.44000 480.370
25.45000 479.699
25.46000 479.139
25.47000 482.430
25.48000 491.778
25.49000 501.199
25.50000 499.120
25.51000 484.898
25.52000 470.736
25.53000 465.673
25.54000 466.976
25.55000 468.454
25.56000 475.640
25.57000 485.576
25.58000 495.030
25.59000 497.322
25.60000 497.223
25.61000 497.132
25.62000 494.304
25.63000 491.240
25.64000 488.208
25.65000 485.353
25.66000 482.525
25.67000 479.956
25.68000 478.339
25.69000 476.809
25.70000 475.699
25.71000 479.860
25.72000 483.254
25.73000 484.468
25.74000 481.882
25.75000 479.227
25.76000 476.583
25.77000 473.953
25.78000 471.329
25.79000 469.885
25.80000 469.365
25.81000 468.865
25.82000 469.264
25.83000 470.141
25.84000 471.198
25.85000 475.466
25.86000 480.919
25.87000 485.962
25.88000 476.353
25.89000 464.381
25.90000 454.845
25.91000 460.175
25.92000 468.025
25.93000 474.002
25.94000 472.373
25.95000 469.936
25.96000 468.116
25.97000 467.276
25.98000 466.667
25.99000 468.100
26.00000 473.479
26.01000 478.958
26.02000 478.803
26.03000 471.208
26.04000 463.583
26.05000 464.158
26.06000 471.877
26.07000 479.372
26.08000 473.187
26.09000 458.925
26.10000 445.331
26.11000 446.377
26.12000 453.402
26.13000 459.975
26.14000 459.609
26.15000 457.497
26.16000 456.192
26.17000 460.448
26.18000 465.763
26.19000 469.434
26.20000 465.673
26.21000 461.007
26.22000 457.425
26.23000 462.598
26.24000 467.175
26.25000 470.279
26.26000 470.233
26.27000 470.082
26.28000 468.888
26.29000 466.158
26.30000 463.415
26.31000 462.848
26.32000 464.411
26.33000 465.944
26.34000 464.681
26.35000 461.586
26.36000 458.547
26.37000 457.059
26.38000 456.271
26.39000 455.526
26.40000 457.065
26.41000 459.137
26.42000 461.030
26.43000 461.524
26.44000 461.722
26.45000 461.764
26.46000 461.026
26.47000 460.181
26.48000 459.514
26.49000 465.065
26.50000 469.926
26.51000 470.764
26.52000 462.098
26.53000 453.031
26.54000 450.930
26.55000 460.201
26.56000 469.633
26.57000 474.576
26.58000 474.881
26.59000 475.082
26.60000 474.675
26.61000 473.826
26.62000 472.957
26.63000 471.395
26.64000 469.485
26.65000 467.662
26.66000 471.204
26.67000 476.223
26.68000 481.181
26.69000 485.597
26.70000 489.884
26.71000 492.275
26.72000 483.935
26.73000 473.911
26.74000 465.830
26.75000 459.205
26.76000 453.939
26.77000 451.988
26.78000 458.697
26.79000 465.857
26.80000 468.023
26.81000 461.154
26.82000 454.099
26.83000 450.202
26.84000 456.595
26.85000 461.023
26.86000 465.394
26.87000 469.718
26.88000 473.848
26.89000 468.529
26.90000 457.987
26.91000 447.828
26.92000 446.358
26.93000 448.103
26.94000 450.078
26.95000 454.424
26.96000 459.396
26.97000 462.546
26.98000 454.089
26.99000 443.582
27.00000 434.922
27.01000 448.347
27.02000 461.427
27.03000 470.656
27.04000 468.760
27.05000 466.163
27.06000 463.511
27.07000 460.750
27.08000 457.987
27.09000 456.384
27.10000 462.685
27.11000 467.138
27.12000 467.472
27.13000 464.064
27.14000 460.651
27.15000 456.911
27.16000 452.970
27.17000 449.143
27.18000 447.276
27.19000 446.292
27.20000 445.496
27.21000 446.961
27.22000 449.088
27.23000 450.492
27.24000 446.687
27.25000 441.851
27.26000 437.782
27.27000 439.733
27.28000 442.001
27.29000 445.032
27.30000 450.504
27.31000 456.160
27.32000 459.604
27.33000 458.150
27.34000 456.518
27.35000 455.528
27.36000 444.037
27.37000 435.759
27.38000 436.518
27.39000 446.507
27.40000 456.437
27.41000 459.687
27.42000 458.394
27.43000 457.130
27.44000 456.836
27.45000 456.989
27.46000 457.067
27.47000 456.085
27.48000 454.758
27.49000 453.348
27.50000 451.260
27.51000 449.021
27.52000 447.101
27.53000 453.755
27.54000 460.428
27.55000 465.832
27.56000 466.737
27.57000 467.246
27.58000 466.677
27.59000 463.468
27.60000 460.138
27.61000 458.031
27.62000 453.201
27.63000 449.667
27.64000 448.122
27.65000 448.855
27.66000 449.605
27.67000 453.410
27.68000 459.526
27.69000 465.542
27.70000 463.017
27.71000 456.292
27.72000 450.099
27.73000 452.908
27.74000 458.948
27.75000 464.309
27.76000 463.271
27.77000 460.656
27.78000 458.374
27.79000 451.689
27.80000 445.351
27.81000 442.488
27.82000 453.304
27.83000 465.516
27.84000 473.743
27.85000 471.178
27.86000 468.010
27.87000 465.927
27.88000 452.232
27.89000 441.952
27.90000 440.507
27.91000 450.374
27.92000 460.272
27.93000 464.118
27.94000 462.850
27.95000 461.596
27.96000 458.521
27.97000 454.501
27.98000 450.661
27.99000 450.541
28.00000 451.898
28.01000 452.982
28.02000 451.084
28.03000 448.371
28.04000 445.963
28.05000 443.599
28.06000 441.557
28.07000 439.693
28.08000 438.609
28.09000 437.616
28.10000 437.124
28.11000 438.128
28.12000 439.232
28.13000 439.985
28.14000 448.491
28.15000 455.025
28.16000 457.387
28.17000 453.797
28.18000 450.162
28.19000 445.964
28.20000 441.232
28.21000 436.535
28.22000 437.224
28.23000 441.269
28.24000 445.221
28.25000 446.748
28.26000 447.213
28.27000 447.522
28.28000 445.863
28.29000 443.606
28.30000 441.572
28.31000 448.686
28.32000 456.582
28.33000 462.720
28.34000 460.261
28.35000 456.651
28.36000 452.105
28.37000 444.451
28.38000 436.550
28.39000 430.983
28.40000 429.659
28.41000 428.783
28.42000 430.231
28.43000 435.361
28.44000 440.538
28.45000 441.541
28.46000 438.101
28.47000 434.674
28.48000 430.587
28.49000 426.081
28.50000 421.828
28.51000 425.943
28.52000 434.119
28.53000 441.830
28.54000 442.534
28.55000 440.881
28.56000 439.371
28.57000 434.999
28.58000 430.531
28.59000 426.570
28.60000 425.385
28.61000 424.622
28.62000 425.729
28.63000 433.720
28.64000 442.350
28.65000 448.624
28.66000 452.266
28.67000 454.969
28.68000 452.246
28.69000 439.990
28.70000 427.557
28.71000 421.641
28.72000 423.500
28.73000 425.369
28.74000 428.278
28.75000 431.987
28.76000 435.643
28.77000 436.975
28.78000 437.059
28.79000 437.254
28.80000 439.465
28.81000 442.425
28.82000 445.164
28.83000 443.236
28.84000 440.429
28.85000 437.290
28.86000 432.112
28.87000 426.585
28.88000 423.032
28.89000 427.550
28.90000 432.933
28.91000 436.963
28.92000 433.830
28.93000 431.051
28.94000 431.320
28.95000 437.519
28.96000 443.872
28.97000 446.529
28.98000 444.269
28.99000 441.985
29.00000 441.066
29.01000 441.348
29.02000 441.588
29.03000 439.174
29.04000 435.181
29.05000 431.384
29.06000 431.962
29.07000 434.339
29.08000 436.566
29.09000 435.733
29.10000 434.184
29.11000 433.070
29.12000 434.976
29.13000 437.461
29.14000 438.287
29.15000 431.556
29.16000 423.896
29.17000 418.005
29.18000 430.104
29.19000 440.694
29.20000 446.134
29.21000 440.491
29.22000 434.473
29.23000 433.069
29.24000 438.497
29.25000 443.989
29.26000 443.201
29.27000 436.213
29.28000 429.283
29.29000 428.098
29.30000 430.704
29.31000 433.132
29.32000 430.589
29.33000 425.784
29.34000 421.235
29.35000 424.519
29.36000 429.811
29.37000 434.192
29.38000 431.386
29.39000 427.038
29.40000 424.085
29.41000 428.231
29.42000 433.372
29.43000 437.426
29.44000 434.300
29.45000 431.309
29.46000 428.698
29.47000 426.991
29.48000 425.322
29.49000 426.420
29.50000 432.067
29.51000 437.780
29.52000 440.786
29.53000 433.661
29.54000 428.820
29.55000 423.298
29.56000 417.277
29.57000 411.480
29.58000 413.863
29.59000 420.360
29.60000 426.571
29.61000 432.152
29.62000 437.139
29.63000 441.422
29.64000 439.328
29.65000 435.711
29.66000 432.196
29.67000 429.267
29.68000 426.430
29.69000 424.139
29.70000 434.291
29.71000 443.534
29.72000 448.846
29.73000 443.817
29.74000 438.241
29.75000 437.539
29.76000 445.719
29.77000 454.086
29.78000 458.725
29.79000 449.738
29.80000 443.527
29.81000 445.811
29.82000 455.051
29.83000 464.200
29.84000 468.789
29.85000 470.840
29.86000 472.817
29.87000 471.954
29.88000 470.111
29.89000 468.566
29.90000 470.115
29.91000 472.488
29.92000 475.039
29.93000 478.737
29.94000 482.639
29.95000 485.861
29.96000 478.907
29.97000 472.233
29.98000 464.296
29.99000 452.683
30.00000 440.834
30.01000 435.945
30.02000 445.093
30.03000 454.641
30.04000 460.198
30.05000 463.724
30.06000 466.190
30.07000 465.485
30.08000 461.873
30.09000 458.237
30.10000 452.837
30.11000 446.348
30.12000 440.042
30.13000 437.953
30.14000 437.676
30.15000 437.463
30.16000 438.021
30.17000 438.806
30.18000 439.568
30.19000 440.157
30.20000 440.711
30.21000 441.178
30.22000 441.038
30.23000 440.856
30.24000 440.113
30.25000 437.560
30.26000 434.870
30.27000 433.224
30.28000 433.906
30.29000 434.674
30.30000 435.142
30.31000 438.096
30.32000 440.225
30.33000 438.192
30.34000 431.870
30.35000 425.601
30.36000 425.474
30.37000 429.556
30.38000 433.550
30.39000 430.160
30.40000 423.566
30.41000 417.674
30.42000 421.851
30.43000 429.316
30.44000 436.025
30.45000 436.472
30.46000 435.521
30.47000 434.705
30.48000 434.684
30.49000 434.766
30.50000 436.150
30.51000 442.192
30.52000 448.647
30.53000 454.135
30.54000 457.235
30.55000 460.224
30.56000 462.121
30.57000 454.702
30.58000 449.204
30.59000 445.907
30.60000 445.152
30.61000 444.404
30.62000 444.450
30.63000 445.102
30.64000 445.743
30.65000 449.724
30.66000 455.267
30.67000 460.674
30.68000 463.750
30.69000 465.984
30.70000 467.768
30.71000 465.277
30.72000 461.725
30.73000 458.620
30.74000 465.481
30.75000 472.767
30.76000 478.725
30.77000 479.418
30.78000 479.567
30.79000 479.839
30.80000 480.444
30.81000 481.068
30.82000 481.480
30.83000 497.245
30.84000 509.131
30.85000 518.347
30.86000 524.116
30.87000 529.873
30.88000 536.603
30.89000 544.162
30.90000 551.638
30.91000 567.305
30.92000 587.228
30.93000 607.691
30.94000 639.487
30.95000 675.813
30.96000 712.424
30.97000 752.175
30.98000 792.791
30.99000 828.873
31.00000 891.849
31.01000 950.795
31.02000 1017.465
31.03000 1118.238
31.04000 1223.052
31.05000 1336.829
31.06000 1477.661
31.07000 1620.335
31.08000 1717.813
31.09000 1934.361
31.10000 2099.164
31.11000 2282.722
31.12000 2493.238
31.13000 2703.966
31.14000 2920.773
31.15000 3143.386
31.16000 3364.411
31.17000 3558.805
31.18000 3733.300
31.19000 3905.886
31.20000 4028.573
31.21000 4129.206
31.22000 4229.780
31.23000 4329.585
31.24000 4429.155
31.25000 4518.959
31.26000 4522.137
31.27000 4509.121
31.28000 4484.318
31.29000 4401.423
31.30000 4310.683
31.31000 4213.697
31.32000 4095.832
31.33000 3976.286
31.34000 3891.846
31.35000 3641.147
31.36000 3445.756
31.37000 3244.614
31.38000 3034.291
31.39000 2823.849
31.40000 2616.687
31.41000 2413.046
31.42000 2210.228
31.43000 2055.063
31.44000 1935.003
31.45000 1814.903
31.46000 1693.456
31.47000 1571.351
31.48000 1450.255
31.49000 1344.543
31.50000 1244.042
31.51000 1152.124
31.52000 1081.020
31.53000 1022.106
31.54000 964.301
31.55000 912.625
31.56000 861.886
31.57000 817.640
31.58000 797.467
31.59000 779.554
31.60000 766.503
31.61000 735.711
31.62000 711.315
31.63000 689.101
31.64000 670.749
31.65000 652.471
31.66000 631.986
31.67000 608.847
31.68000 585.745
31.69000 569.174
31.70000 557.839
31.71000 546.656
31.72000 542.401
31.73000 541.893
31.74000 540.792
31.75000 528.788
31.76000 512.698
31.77000 497.792
31.78000 499.420
31.79000 504.719
31.80000 508.390
31.81000 501.953
31.82000 493.773
31.83000 485.888
31.84000 479.223
31.85000 472.690
31.86000 467.790
31.87000 470.657
31.88000 473.264
31.89000 473.438
31.90000 468.845
31.91000 464.127
31.92000 459.460
31.93000 454.862
31.94000 450.266
31.95000 437.915
31.96000 418.709
31.97000 399.770
31.98000 398.052
31.99000 406.656
32.00000 415.261
32.01000 423.919
32.02000 432.599
32.03000 440.735
32.04000 436.419
32.05000 429.246
32.06000 422.474
32.07000 418.517
32.08000 415.104
32.09000 411.535
32.10000 407.248
32.11000 402.871
32.12000 399.499
32.13000 410.195
32.14000 419.472
32.15000 424.333
32.16000 419.619
32.17000 414.576
32.18000 410.502
32.19000 407.874
32.20000 405.260
32.21000 409.525
32.22000 420.640
32.23000 431.614
32.24000 428.326
32.25000 415.552
32.26000 403.129
32.27000 400.738
32.28000 402.941
32.29000 405.029
32.30000 402.964
32.31000 399.851
32.32000 396.979
32.33000 396.037
32.34000 395.512
32.35000 395.677
32.36000 399.382
32.37000 403.588
32.38000 406.911
32.39000 406.877
32.40000 406.620
32.41000 406.889
32.42000 408.416
32.43000 409.997
32.44000 412.256
32.45000 415.636
32.46000 419.032
32.47000 420.826
32.48000 413.837
32.49000 409.111
32.50000 408.885
32.51000 411.986
32.52000 414.925
32.53000 411.769
32.54000 405.526
32.55000 399.555
32.56000 396.132
32.57000 393.777
32.58000 391.201
32.59000 386.594
32.60000 381.499
32.61000 376.835
32.62000 374.650
32.63000 372.862
32.64000 371.416
32.65000 379.998
32.66000 387.789
32.67000 395.279
32.68000 401.977
32.69000 408.631
32.70000 411.652
32.71000 408.004
32.72000 404.212
32.73000 402.102
32.74000 396.038
32.75000 391.843
32.76000 390.065
32.77000 390.283
32.78000 390.527
32.79000 392.172
32.80000 394.601
32.81000 396.945
32.82000 401.122
32.83000 405.722
32.84000 410.167
32.85000 412.970
32.86000 415.334
32.87000 419.108
32.88000 432.017
32.89000 446.567
32.90000 458.596
32.91000 446.339
32.92000 433.950
32.93000 424.936
32.94000 425.816
32.95000 427.335
32.96000 427.891
32.97000 426.488
32.98000 425.028
32.99000 424.175
33.00000 427.972
33.01000 430.663
33.02000 429.683
33.03000 425.310
33.04000 420.925
33.05000 415.515
33.06000 409.468
33.07000 403.589
33.08000 401.902
33.09000 402.009
33.10000 402.011
33.11000 400.720
33.12000 399.045
33.13000 396.508
33.14000 387.652
33.15000 377.523
33.16000 368.978
33.17000 359.289
33.18000 351.072
33.19000 347.523
33.20000 359.134
33.21000 371.909
33.22000 379.211
33.23000 374.218
33.24000 368.762
33.25000 365.432
33.26000 359.764
33.27000 355.692
33.28000 356.163
33.29000 361.352
33.30000 366.490
33.31000 365.212
33.32000 359.503
33.33000 353.916
33.34000 356.998
33.35000 363.912
33.36000 370.477
33.37000 371.986
33.38000 371.831
33.39000 370.562
33.40000 359.969
33.41000 347.280
33.42000 336.370
33.43000 340.714
33.44000 346.297
33.45000 351.043
33.46000 352.773
33.47000 354.233
33.48000 354.913
33.49000 353.658
33.50000 352.311
33.51000 351.454
33.52000 346.902
33.53000 343.549
33.54000 342.890
33.55000 345.368
33.56000 347.850
33.57000 350.088
33.58000 352.140
33.59000 354.160
33.60000 353.488
33.61000 351.466
33.62000 349.567
33.63000 349.818
33.64000 350.852
33.65000 351.595
33.66000 349.546
33.67000 346.798
33.68000 344.394
33.69000 351.837
33.70000 359.623
33.71000 365.250
33.72000 362.241
33.73000 358.333
33.74000 354.781
33.75000 352.207
33.76000 349.688
33.77000 348.024
33.78000 355.784
33.79000 361.678
33.80000 362.530
33.81000 356.824
33.82000 351.096
33.83000 349.625
33.84000 351.809
33.85000 353.970
33.86000 354.871
33.87000 355.036
33.88000 355.086
33.89000 352.704
33.90000 349.344
33.91000 346.149
33.92000 344.806
33.93000 343.977
33.94000 343.240
33.95000 350.579
33.96000 358.261
33.97000 363.219
33.98000 356.055
33.99000 347.440
34.00000 340.715
34.01000 339.734
34.02000 339.148
34.03000 338.747
34.04000 349.096
34.05000 357.105
34.06000 357.200
34.07000 345.833
34.08000 334.373
34.09000 329.312
34.10000 330.413
34.11000 331.507
34.12000 335.274
34.13000 340.681
34.14000 345.828
34.15000 344.044
34.16000 339.176
34.17000 335.024
34.18000 340.218
34.19000 348.290
34.20000 355.578
34.21000 343.382
34.22000 329.076
34.23000 318.491
34.24000 326.394
34.25000 336.817
34.26000 346.547
34.27000 353.945
34.28000 361.152
34.29000 366.255
34.30000 357.865
34.31000 351.070
34.32000 345.025
34.33000 340.187
34.34000 335.364
34.35000 333.277
34.36000 334.150
34.37000 335.021
34.38000 336.760
34.39000 339.101
34.40000 341.293
34.41000 338.361
34.42000 332.906
34.43000 328.110
34.44000 333.511
34.45000 342.391
34.46000 350.521
34.47000 345.915
34.48000 339.171
34.49000 333.440
34.50000 333.350
34.51000 334.131
34.52000 334.591
34.53000 333.852
34.54000 332.999
34.55000 332.376
34.56000 334.290
34.57000 335.864
34.58000 336.260
34.59000 334.554
34.60000 332.806
34.61000 335.651
34.62000 344.061
34.63000 352.469
34.64000 353.481
34.65000 348.600
34.66000 343.773
34.67000 341.457
34.68000 340.509
34.69000 339.666
34.70000 340.806
34.71000 342.695
34.72000 344.446
34.73000 345.763
34.74000 346.847
34.75000 346.676
34.76000 338.639
34.77000 329.235
34.78000 322.106
34.79000 324.425
34.80000 327.779
34.81000 330.299
34.82000 326.911
34.83000 323.978
34.84000 322.072
34.85000 322.191
34.86000 322.364
34.87000 325.656
34.88000 333.166
34.89000 340.695
34.90000 342.278
34.91000 338.546
34.92000 334.865
34.93000 334.551
34.94000 336.270
34.95000 337.742
34.96000 333.541
34.97000 326.973
34.98000 320.812
34.99000 326.998
35.00000 335.877
35.01000 342.294
35.02000 331.282
35.03000 316.871
35.04000 306.059
35.05000 311.903
35.06000 319.835
35.07000 325.958
35.08000 321.898
35.09000 318.089
35.10000 317.663
35.11000 324.625
35.12000 331.846
35.13000 333.217
35.14000 325.791
35.15000 318.277
35.16000 314.512
35.17000 318.937
35.18000 321.897
35.19000 325.701
35.20000 330.071
35.21000 334.322
35.22000 335.134
35.23000 334.359
35.24000 333.624
35.25000 333.516
35.26000 333.602
35.27000 333.414
35.28000 331.025
35.29000 328.157
35.30000 325.693
35.31000 325.314
35.32000 325.234
35.33000 325.170
35.34000 322.011
35.35000 319.259
35.36000 316.131
35.37000 312.096
35.38000 308.021
35.39000 307.509
35.40000 312.943
35.41000 318.469
35.42000 321.399
35.43000 325.193
35.44000 327.749
35.45000 325.627
35.46000 320.018
35.47000 314.453
35.48000 310.565
35.49000 307.533
35.50000 304.631
35.51000 308.882
35.52000 315.200
35.53000 320.777
35.54000 319.505
35.55000 316.571
35.56000 314.496
35.57000 317.408
35.58000 321.122
35.59000 324.132
35.60000 321.370
35.61000 318.650
35.62000 316.259
35.63000 314.746
35.64000 313.281
35.65000 312.404
35.66000 312.616
35.67000 312.851
35.68000 312.983
35.69000 319.600
35.70000 324.187
35.71000 324.610
35.72000 321.569
35.73000 318.552
35.74000 316.804
35.75000 315.773
35.76000 314.777
35.77000 317.058
35.78000 320.414
35.79000 323.496
35.80000 323.664
35.81000 323.045
35.82000 322.333
35.83000 321.010
35.84000 319.575
35.85000 318.387
35.86000 314.940
35.87000 311.881
35.88000 311.162
35.89000 317.351
35.90000 323.993
35.91000 325.486
35.92000 316.444
35.93000 307.088
35.94000 301.607
35.95000 308.010
35.96000 312.577
35.97000 314.544
35.98000 314.089
35.99000 313.642
36.00000 313.862
36.01000 314.501
36.02000 315.122
36.03000 313.460
36.04000 310.939
36.05000 308.273
36.06000 303.809
36.07000 298.807
36.08000 294.691
36.09000 297.144
36.10000 300.929
36.11000 304.127
36.12000 308.495
36.13000 312.275
36.14000 314.585
36.15000 312.086
36.16000 309.214
36.17000 309.541
36.18000 317.111
36.19000 324.957
36.20000 329.762
36.21000 320.877
36.22000 314.401
36.23000 312.208
36.24000 314.501
36.25000 316.796
36.26000 319.158
36.27000 321.568
36.28000 323.928
36.29000 327.214
36.30000 330.797
36.31000 333.989
36.32000 331.427
36.33000 326.958
36.34000 323.211
36.35000 325.556
36.36000 329.281
36.37000 332.488
36.38000 333.912
36.39000 334.893
36.40000 336.911
36.41000 342.689
36.42000 348.808
36.43000 352.670
36.44000 350.881
36.45000 348.823
36.46000 347.510
36.47000 333.505
36.48000 323.155
36.49000 319.228
36.50000 322.843
36.51000 326.460
36.52000 327.449
36.53000 326.401
36.54000 325.370
36.55000 325.801
36.56000 326.971
36.57000 328.145
36.58000 329.377
36.59000 330.630
36.60000 331.428
36.61000 327.809
36.62000 323.077
36.63000 318.930
36.64000 319.738
36.65000 321.145
36.66000 323.729
36.67000 331.055
36.68000 338.881
36.69000 343.619
36.70000 339.814
36.71000 335.511
36.72000 332.659
36.73000 333.686
36.74000 334.515
36.75000 335.724
36.76000 337.432
36.77000 339.140
36.78000 339.741
36.79000 339.385
36.80000 339.033
36.81000 338.340
36.82000 337.469
36.83000 336.609
36.84000 336.016
36.85000 335.532
36.86000 335.059
36.87000 334.717
36.88000 334.413
36.89000 334.141
36.90000 333.879
36.91000 333.654
36.92000 333.289
36.93000 332.301
36.94000 331.238
36.95000 329.584
36.96000 326.119
36.97000 322.528
36.98000 320.063
36.99000 332.230
37.00000 341.710
37.01000 344.134
37.02000 336.262
37.03000 328.302
37.04000 325.705
37.05000 328.317
37.06000 330.913
37.07000 329.383
37.08000 325.235
37.09000 321.150
37.10000 318.792
37.11000 317.209
37.12000 315.882
37.13000 317.936
37.14000 321.040
37.15000 323.845
37.16000 328.332
37.17000 332.591
37.18000 336.186
37.19000 336.452
37.20000 336.259
37.21000 334.995
37.22000 330.094
37.23000 324.894
37.24000 321.204
37.25000 322.856
37.26000 324.282
37.27000 326.785
37.28000 331.033
37.29000 335.306
37.30000 333.010
37.31000 323.546
37.32000 314.114
37.33000 312.544
37.34000 316.623
37.35000 320.481
37.36000 316.603
37.37000 308.887
37.38000 301.693
37.39000 302.667
37.40000 306.448
37.41000 309.912
37.42000 312.629
37.43000 314.891
37.44000 317.264
37.45000 320.256
37.46000 323.344
37.47000 325.405
37.48000 323.596
37.49000 321.416
37.50000 319.822
37.51000 315.395
37.52000 311.867
37.53000 309.456
37.54000 309.050
37.55000 308.685
37.56000 309.257
37.57000 310.974
37.58000 312.690
37.59000 314.379
37.60000 316.038
37.61000 317.683
37.62000 318.668
37.63000 319.291
37.64000 319.634
37.65000 314.706
37.66000 307.774
37.67000 301.340
37.68000 308.300
37.69000 317.732
37.70000 325.536
37.71000 323.066
37.72000 318.794
37.73000 314.954
37.74000 312.921
37.75000 311.089
37.76000 309.708
37.77000 319.170
37.78000 327.103
37.79000 331.370
37.80000 328.349
37.81000 325.128
37.82000 323.694
37.83000 324.697
37.84000 325.714
37.85000 323.026
37.86000 317.004
37.87000 311.064
37.88000 310.792
37.89000 313.967
37.90000 317.158
37.91000 320.719
37.92000 324.435
37.93000 327.924
37.94000 325.130
37.95000 320.919
37.96000 317.620
37.97000 320.833
37.98000 325.327
37.99000 328.230
38.00000 323.715
38.01000 318.261
38.02000 314.044
38.03000 320.217
38.04000 325.726
38.05000 330.930
38.06000 335.464
38.07000 339.974
38.08000 342.716
38.09000 342.780
38.10000 342.815
38.11000 342.833
38.12000 327.730
38.13000 317.769
38.14000 321.872
38.15000 335.471
38.16000 348.817
38.17000 354.693
38.18000 357.097
38.19000 359.377
38.20000 359.368
38.21000 358.680
38.22000 358.753
38.23000 365.012
38.24000 372.629
38.25000 379.103
38.26000 379.617
38.27000 379.274
38.28000 379.002
38.29000 392.249
38.30000 403.851
38.31000 412.960
38.32000 416.006
38.33000 418.779
38.34000 422.190
38.35000 426.673
38.36000 431.173
38.37000 433.569
38.38000 448.554
38.39000 458.748
38.40000 465.439
38.41000 469.497
38.42000 473.601
38.43000 479.480
38.44000 486.273
38.45000 492.779
38.46000 495.444
38.47000 496.652
38.48000 498.387
38.49000 505.028
38.50000 512.868
38.51000 518.462
38.52000 510.909
38.53000 501.220
38.54000 493.358
38.55000 499.218
38.56000 505.124
38.57000 509.380
38.58000 509.199
38.59000 508.772
38.60000 508.443
38.61000 508.296
38.62000 508.152
38.63000 508.072
38.64000 499.133
38.65000 492.910
38.66000 484.300
38.67000 473.688
38.68000 463.187
38.69000 458.577
38.70000 457.322
38.71000 456.110
38.72000 451.517
38.73000 445.932
38.74000 440.431
38.75000 435.827
38.76000 431.468
38.77000 426.201
38.78000 414.946
38.79000 402.596
38.80000 392.357
38.81000 390.817
38.82000 390.380
38.83000 386.691
38.84000 373.331
38.85000 359.329
38.86000 351.354
38.87000 355.802
38.88000 360.625
38.89000 363.460
38.90000 357.720
38.91000 353.629
38.92000 351.205
38.93000 350.347
38.94000 349.473
38.95000 347.316
38.96000 344.349
38.97000 341.461
38.98000 335.194
38.99000 327.824
39.00000 320.617
39.01000 315.461
39.02000 310.924
39.03000 307.306
39.04000 310.557
39.05000 315.214
39.06000 319.153
39.07000 317.587
39.08000 315.664
39.09000 314.470
39.10000 315.675
39.11000 317.069
39.12000 316.975
39.13000 313.492
39.14000 309.877
39.15000 307.657
39.16000 304.932
39.17000 302.974
39.18000 299.687
39.19000 294.997
39.20000 290.330
39.21000 288.884
39.22000 289.696
39.23000 290.492
39.24000 287.655
39.25000 283.245
39.26000 279.230
39.27000 281.106
39.28000 284.948
39.29000 288.950
39.30000 294.316
39.31000 299.994
39.32000 304.888
39.33000 302.390
39.34000 299.331
39.35000 295.702
39.36000 289.996
39.37000 284.099
39.38000 281.069
39.39000 285.264
39.40000 289.810
39.41000 292.718
39.42000 294.800
39.43000 296.306
39.44000 294.789
39.45000 289.695
39.46000 284.621
39.47000 286.513
39.48000 293.846
39.49000 301.070
39.50000 300.557
39.51000 296.057
39.52000 291.580
39.53000 287.509
39.54000 283.589
39.55000 280.291
39.56000 283.087
39.57000 287.430
39.58000 291.240
39.59000 292.611
39.60000 293.433
39.61000 292.549
39.62000 284.742
39.63000 276.199
39.64000 271.359
39.65000 276.845
39.66000 282.941
39.67000 286.991
39.68000 283.045
39.69000 279.977
39.70000 277.445
39.71000 275.621
39.72000 273.804
39.73000 275.911
39.74000 281.441
39.75000 286.915
39.76000 285.882
39.77000 281.111
39.78000 276.509
39.79000 275.589
39.80000 276.174
39.81000 276.860
39.82000 278.696
39.83000 280.856
39.84000 282.782
39.85000 282.694
39.86000 282.285
39.87000 281.203
39.88000 277.084
39.89000 272.595
39.90000 271.122
39.91000 278.956
39.92000 287.447
39.93000 293.291
39.94000 281.674
39.95000 272.520
39.96000 266.687
39.97000 265.736
39.98000 264.828
39.99000 268.007
40.00000 275.188
40.01000 282.323
40.02000 280.536
40.03000 273.015
40.04000 265.774
40.05000 266.267
40.06000 270.251
40.07000 273.857
40.08000 272.405
40.09000 269.371
40.10000 266.627
40.11000 265.229
40.12000 264.251
40.13000 264.017
40.14000 267.538
40.15000 271.580
40.16000 273.855
40.17000 270.087
40.18000 265.816
40.19000 262.779
40.20000 263.939
40.21000 264.958
40.22000 267.191
40.23000 271.407
40.24000 275.651
40.25000 274.984
40.26000 268.913
40.27000 262.860
40.28000 262.336
40.29000 265.812
40.30000 269.348
40.31000 275.031
40.32000 281.786
40.33000 287.922
40.34000 284.239
40.35000 277.157
40.36000 270.662
40.37000 269.084
40.38000 268.718
40.39000 268.657
40.40000 270.323
40.41000 272.260
40.42000 273.928
40.43000 274.578
40.44000 275.129
40.45000 275.533
40.46000 269.681
40.47000 264.908
40.48000 262.996
40.49000 266.257
40.50000 269.625
40.51000 270.888
40.52000 269.558
40.53000 268.224
40.54000 269.846
40.55000 273.856
40.56000 277.731
40.57000 275.065
40.58000 268.783
40.59000 262.750
40.60000 261.494
40.61000 262.067
40.62000 262.599
40.63000 263.275
40.64000 263.918
40.65000 264.340
40.66000 263.349
40.67000 262.109
40.68000 261.461
40.69000 263.306
40.70000 265.431
40.71000 267.033
40.72000 267.683
40.73000 268.144
40.74000 268.228
40.75000 267.554
40.76000 266.860
40.77000 264.700
40.78000 260.527
40.79000 256.343
40.80000 255.958
40.81000 259.025
40.82000 262.107
40.83000 266.301
40.84000 271.177
40.85000 275.860
40.86000 275.982
40.87000 274.173
40.88000 272.473
40.89000 268.860
40.90000 265.053
40.91000 261.698
40.92000 261.608
40.93000 262.165
40.94000 262.171
40.95000 259.588
40.96000 256.674
40.97000 254.417
40.98000 256.187
40.99000 257.833
41.00000 258.956
41.01000 258.921
41.02000 258.844
41.03000 257.692
41.04000 254.898
41.05000 252.087
41.06000 250.666
41.07000 263.196
41.08000 271.519
41.09000 273.113
41.10000 270.127
41.11000 267.175
41.12000 265.201
41.13000 263.687
41.14000 262.249
41.15000 258.793
41.16000 254.999
41.17000 251.143
41.18000 246.773
41.19000 242.289
41.20000 240.188
41.21000 250.614
41.22000 262.858
41.23000 272.581
41.24000 265.708
41.25000 258.998
41.26000 255.806
41.27000 261.231
41.28000 267.049
41.29000 270.011
41.30000 268.135
41.31000 266.179
41.32000 265.134
41.33000 262.460
41.34000 260.639
41.35000 259.802
41.36000 259.710
41.37000 259.586
41.38000 258.154
41.39000 256.046
41.40000 254.026
41.41000 253.310
41.42000 253.080
41.43000 253.110
41.44000 255.599
41.45000 258.693
41.46000 260.647
41.47000 255.867
41.48000 249.983
41.49000 245.201
41.50000 251.303
41.51000 257.190
41.52000 262.390
41.53000 265.730
41.54000 268.967
41.55000 269.023
41.56000 263.110
41.57000 257.059
41.58000 253.655
41.59000 253.434
41.60000 253.292
41.61000 255.136
41.62000 258.659
41.63000 262.037
41.64000 257.402
41.65000 248.172
41.66000 239.251
41.67000 240.982
41.68000 246.603
41.69000 251.874
41.70000 253.336
41.71000 253.755
41.72000 253.752
41.73000 250.943
41.74000 247.617
41.75000 244.855
41.76000 247.280
41.77000 249.789
41.78000 251.327
41.79000 249.958
41.80000 248.392
41.81000 248.257
41.82000 251.093
41.83000 254.021
41.84000 255.748
41.85000 250.722
41.86000 247.139
41.87000 245.146
41.88000 244.660
41.89000 244.189
41.90000 244.895
41.91000 246.350
41.92000 247.766
41.93000 248.219
41.94000 248.248
41.95000 248.056
41.96000 245.062
41.97000 241.218
41.98000 238.561
41.99000 244.874
42.00000 253.035
42.01000 259.949
42.02000 250.397
42.03000 240.549
42.04000 232.797
42.05000 231.999
42.06000 231.755
42.07000 234.539
42.08000 244.278
42.09000 254.292
42.10000 260.462
42.11000 252.428
42.12000 246.535
42.13000 241.677
42.14000 237.920
42.15000 234.220
42.16000 238.401
42.17000 248.150
42.18000 257.705
42.19000 262.455
42.20000 264.781
42.21000 266.562
42.22000 260.128
42.23000 250.931
42.24000 242.133
42.25000 236.769
42.26000 232.195
42.27000 228.247
42.28000 230.879
42.29000 233.958
42.30000 237.825
42.31000 244.589
42.32000 251.622
42.33000 257.840
42.34000 261.988
42.35000 266.035
42.36000 268.632
42.37000 255.254
42.38000 245.284
42.39000 243.589
42.40000 251.765
42.41000 259.935
42.42000 261.184
42.43000 256.983
42.44000 252.843
42.45000 250.811
42.46000 249.938
42.47000 249.104
42.48000 248.956
42.49000 249.065
42.50000 249.092
42.51000 248.307
42.52000 247.315
42.53000 246.444
42.54000 238.650
42.55000 230.934
42.56000 224.302
42.57000 222.102
42.58000 220.377
42.59000 222.543
42.60000 235.629
42.61000 249.370
42.62000 258.524
42.63000 249.320
42.64000 242.157
42.65000 238.132
42.66000 238.282
42.67000 238.453
42.68000 237.966
42.69000 236.900
42.70000 235.845
42.71000 235.785
42.72000 236.305
42.73000 236.830
42.74000 237.458
42.75000 238.128
42.76000 238.715
42.77000 238.340
42.78000 237.692
42.79000 237.113
42.80000 241.156
42.81000 245.447
42.82000 250.239
42.83000 257.313
42.84000 264.668
42.85000 266.871
42.86000 253.064
42.87000 238.112
42.88000 227.796
42.89000 227.100
42.90000 226.822
42.91000 229.854
42.92000 237.790
42.93000 245.771
42.94000 251.243
42.95000 254.237
42.96000 257.213
42.97000 257.142
42.98000 255.089
42.99000 253.036
43.00000 251.004
43.01000 248.981
43.02000 247.161
43.03000 248.078
43.04000 249.857
43.05000 251.469
43.06000 245.627
43.07000 239.071
43.08000 234.370
43.09000 239.114
43.10000 245.180
43.11000 249.054
43.12000 245.382
43.13000 241.075
43.14000 238.004
43.15000 236.883
43.16000 236.091
43.17000 237.841
43.18000 243.772
43.19000 249.764
43.20000 251.961
43.21000 249.948
43.22000 247.938
43.23000 249.627
43.24000 253.996
43.25000 258.098
43.26000 252.472
43.27000 241.951
43.28000 232.329
43.29000 237.171
43.30000 247.055
43.31000 256.129
43.32000 253.045
43.33000 247.702
43.34000 242.424
43.35000 237.521
43.36000 232.677
43.37000 230.487
43.38000 238.435
43.39000 247.376
43.40000 253.946
43.41000 252.007
43.42000 250.160
43.43000 248.417
43.44000 246.864
43.45000 245.316
43.46000 242.092
43.47000 236.788
43.48000 231.485
43.49000 231.841
43.50000 236.812
43.51000 241.767
43.52000 245.956
43.53000 249.716
43.54000 252.983
43.55000 246.627
43.56000 236.561
43.57000 227.203
43.58000 227.745
43.59000 230.608
43.60000 233.341
43.61000 235.235
43.62000 236.979
43.63000 237.687
43.64000 233.992
43.65000 229.800
43.66000 226.631
43.67000 235.601
43.68000 243.242
43.69000 245.525
43.70000 236.999
43.71000 228.164
43.72000 225.548
43.73000 231.535
43.74000 237.576
43.75000 241.440
43.76000 243.306
43.77000 245.165
43.78000 246.504
43.79000 247.521
43.80000 248.440
43.81000 247.007
43.82000 244.571
43.83000 242.281
43.84000 242.799
43.85000 244.028
43.86000 245.125
43.87000 245.259
43.88000 245.200
43.89000 245.750
43.90000 249.184
43.91000 252.989
43.92000 255.943
43.93000 254.414
43.94000 252.928
43.95000 252.442
43.96000 254.188
43.97000 256.016
43.98000 255.048
43.99000 249.779
44.00000 244.463
44.01000 241.765
44.02000 240.859
44.03000 240.270
44.04000 241.705
44.05000 244.527
44.06000 247.301
44.07000 248.579
44.08000 249.153
44.09000 249.697
44.10000 248.640
44.11000 247.180
44.12000 246.102
44.13000 248.193
44.14000 250.990
44.15000 254.237
44.16000 259.864
44.17000 265.840
44.18000 270.594
44.19000 267.462
44.20000 264.372
44.21000 262.955
44.22000 265.661
44.23000 268.559
44.24000 270.858
44.25000 272.135
44.26000 273.396
44.27000 274.071
44.28000 279.115
44.29000 282.548
44.30000 282.822
44.31000 280.685
44.32000 278.568
44.33000 277.267
44.34000 276.391
44.35000 275.551
44.36000 280.269
44.37000 286.552
44.38000 293.415
44.39000 305.782
44.40000 319.516
44.41000 331.913
44.42000 336.355
44.43000 339.482
44.44000 342.028
44.45000 347.539
44.46000 352.291
44.47000 358.874
44.48000 370.454
44.49000 382.318
44.50000 397.400
44.51000 418.565
44.52000 439.874
44.53000 451.901
44.54000 466.236
44.55000 476.211
44.56000 490.190
44.57000 507.581
44.58000 524.937
44.59000 540.251
44.60000 554.385
44.61000 568.054
44.62000 589.193
44.63000 611.967
44.64000 634.548
44.65000 655.000
44.66000 674.866
44.67000 695.389
44.68000 720.320
44.69000 746.070
44.70000 767.485
44.71000 786.355
44.72000 801.723
44.73000 818.146
44.74000 837.756
44.75000 857.583
44.76000 869.666
44.77000 865.554
44.78000 860.933
44.79000 858.199
44.80000 864.302
44.81000 868.665
44.82000 876.714
44.83000 888.283
44.84000 899.666
44.85000 895.263
44.86000 880.746
44.87000 866.603
44.88000 855.222
44.89000 845.531
44.90000 836.369
44.91000 833.999
44.92000 833.708
44.93000 831.113
44.94000 810.972
44.95000 787.185
44.96000 767.004
44.97000 752.830
44.98000 741.624
44.99000 729.390
45.00000 713.716
45.01000 697.766
45.02000 681.364
45.03000 663.917
45.04000 646.428
45.05000 635.621
45.06000 624.198
45.07000 615.986
45.08000 603.887
45.09000 587.614
45.10000 571.355
45.11000 557.357
45.12000 544.969
45.13000 532.822
45.14000 518.324
45.15000 503.258
45.16000 488.481
45.17000 478.129
45.18000 469.275
45.19000 460.827
45.20000 455.920
45.21000 451.833
45.22000 448.301
45.23000 433.648
45.24000 419.757
45.25000 407.965
45.26000 403.961
45.27000 400.688
45.28000 395.354
45.29000 384.753
45.30000 373.888
45.31000 366.898
45.32000 370.113
45.33000 372.603
45.34000 369.823
45.35000 360.708
45.36000 351.595
45.37000 347.503
45.38000 347.395
45.39000 347.288
45.40000 345.126
45.41000 341.948
45.42000 338.464
45.43000 329.384
45.44000 318.207
45.45000 307.995
45.46000 307.451
45.47000 309.400
45.48000 311.113
45.49000 308.066
45.50000 304.739
45.51000 301.123
45.52000 296.316
45.53000 291.380
45.54000 286.991
45.55000 284.148
45.56000 281.399
45.57000 279.562
45.58000 270.931
45.59000 264.403
45.60000 262.123
45.61000 265.540
45.62000 268.986
45.63000 270.359
45.64000 269.893
45.65000 269.432
45.66000 266.150
45.67000 261.279
45.68000 256.452
45.69000 252.596
45.70000 249.142
45.71000 245.979
45.72000 246.199
45.73000 247.387
45.74000 248.449
45.75000 247.489
45.76000 246.312
45.77000 245.293
45.78000 245.000
45.79000 244.798
45.80000 243.958
45.81000 241.126
45.82000 238.149
45.83000 236.090
45.84000 240.319
45.85000 243.662
45.86000 243.171
45.87000 236.956
45.88000 230.686
45.89000 227.885
45.90000 228.540
45.91000 229.191
45.92000 230.178
45.93000 231.372
45.94000 232.559
45.95000 233.547
45.96000 234.443
45.97000 235.114
45.98000 232.702
45.99000 229.313
46.00000 226.240
46.01000 223.950
46.02000 222.079
46.03000 220.922
46.04000 223.425
46.05000 226.444
46.06000 227.349
46.07000 220.918
46.08000 213.863
46.09000 208.822
46.10000 214.269
46.11000 218.774
46.12000 220.150
46.13000 216.344
46.14000 212.459
46.15000 214.345
46.16000 222.685
46.17000 231.005
46.18000 231.762
46.19000 226.961
46.20000 222.243
46.21000 220.602
46.22000 220.522
46.23000 220.289
46.24000 217.569
46.25000 213.976
46.26000 210.674
46.27000 213.095
46.28000 216.487
46.29000 219.504
46.30000 220.365
46.31000 220.882
46.32000 220.788
46.33000 218.341
46.34000 215.662
46.35000 213.689
46.36000 208.736
46.37000 204.778
46.38000 205.045
46.39000 213.067
46.40000 221.257
46.41000 223.451
46.42000 218.145
46.43000 212.822
46.44000 213.755
46.45000 219.832
46.46000 225.718
46.47000 221.815
46.48000 212.419
46.49000 203.541
46.50000 204.861
46.51000 210.143
46.52000 215.058
46.53000 215.261
46.54000 214.305
46.55000 212.956
46.56000 209.061
46.57000 204.707
46.58000 202.524
46.59000 209.636
46.60000 217.806
46.61000 223.994
46.62000 219.728
46.63000 215.848
46.64000 211.659
46.65000 206.841
46.66000 202.005
46.67000 198.958
46.68000 198.405
46.69000 197.869
46.70000 199.215
46.71000 202.297
46.72000 205.341
46.73000 205.579
46.74000 204.072
46.75000 202.553
46.76000 200.722
46.77000 198.758
46.78000 196.910
46.79000 203.727
46.80000 212.310
46.81000 219.915
46.82000 220.338
46.83000 219.316
46.84000 217.991
46.85000 215.218
46.86000 212.257
46.87000 209.954
46.88000 208.239
46.89000 206.910
46.90000 204.282
46.91000 198.734
46.92000 193.076
46.93000 191.355
46.94000 195.735
46.95000 200.184
46.96000 202.451
46.97000 201.111
46.98000 200.215
46.99000 199.749
47.00000 199.579
47.01000 199.417
47.02000 199.493
47.03000 199.682
47.04000 199.862
47.05000 198.082
47.06000 195.841
47.07000 193.993
47.08000 195.429
47.09000 197.604
47.10000 199.611
47.11000 200.716
47.12000 201.689
47.13000 202.464
47.14000 201.372
47.15000 200.355
47.16000 199.574
47.17000 199.380
47.18000 199.213
47.19000 199.293
47.20000 199.797
47.21000 200.308
47.22000 200.583
47.23000 200.678
47.24000 200.740
47.25000 200.093
47.26000 198.902
47.27000 197.730
47.28000 197.338
47.29000 197.354
47.30000 197.370
47.31000 193.327
47.32000 188.167
47.33000 183.718
47.34000 186.093
47.35000 190.176
47.36000 193.489
47.37000 192.176
47.38000 190.092
47.39000 188.393
47.40000 198.038
47.41000 206.889
47.42000 211.836
47.43000 206.054
47.44000 199.655
47.45000 196.413
47.46000 199.183
47.47000 202.098
47.48000 203.749
47.49000 200.067
47.50000 197.491
47.51000 196.075
47.52000 195.655
47.53000 195.225
47.54000 194.271
47.55000 193.011
47.56000 191.792
47.57000 193.168
47.58000 195.455
47.59000 197.068
47.60000 191.179
47.61000 183.206
47.62000 176.993
47.63000 182.700
47.64000 190.639
47.65000 197.252
47.66000 197.784
47.67000 197.622
47.68000 196.289
47.69000 191.396
47.70000 186.258
47.71000 182.807
47.72000 182.911
47.73000 183.129
47.74000 183.259
47.75000 193.088
47.76000 200.099
47.77000 200.487
47.78000 194.496
47.79000 188.517
47.80000 183.656
47.81000 179.516
47.82000 175.482
47.83000 176.815
47.84000 180.369
47.85000 183.688
47.86000 183.961
47.87000 183.295
47.88000 183.540
47.89000 190.784
47.90000 199.495
47.91000 206.895
47.92000 202.593
47.93000 197.644
47.94000 194.246
47.95000 196.073
47.96000 198.325
47.97000 200.109
47.98000 200.802
47.99000 201.450
48.00000 201.852
48.01000 196.210
48.02000 192.094
48.03000 189.568
48.04000 188.764
48.05000 187.991
48.06000 192.011
48.07000 199.468
48.08000 206.783
48.09000 204.787
48.10000 198.448
48.11000 192.390
48.12000 190.698
48.13000 190.495
48.14000 190.171
48.15000 188.790
48.16000 187.163
48.17000 185.755
48.18000 183.486
48.19000 181.445
48.20000 180.044
48.21000 181.035
48.22000 182.254
48.23000 184.991
48.24000 191.639
48.25000 198.486
48.26000 202.903
48.27000 196.017
48.28000 190.824
48.29000 186.831
48.30000 184.293
48.31000 181.761
48.32000 180.340
48.33000 179.810
48.34000 179.286
48.35000 184.197
48.36000 191.850
48.37000 198.995
48.38000 196.689
48.39000 190.814
48.40000 185.604
48.41000 187.105
48.42000 190.349
48.43000 193.205
48.44000 191.651
48.45000 189.652
48.46000 188.908
48.47000 193.377
48.48000 198.417
48.49000 200.577
48.50000 194.535
48.51000 187.988
48.52000 183.605
48.53000 185.699
48.54000 187.381
48.55000 188.803
48.56000 189.872
48.57000 190.939
48.58000 191.606
48.59000 191.915
48.60000 192.221
48.61000 189.996
48.62000 186.317
48.63000 182.900
48.64000 185.487
48.65000 190.580
48.66000 195.284
48.67000 195.411
48.68000 194.219
48.69000 193.153
48.70000 190.516
48.71000 187.950
48.72000 185.783
48.73000 185.465
48.74000 185.379
48.75000 186.123
48.76000 189.487
48.77000 193.043
48.78000 195.508
48.79000 193.786
48.80000 192.379
48.81000 188.842
48.82000 182.102
48.83000 175.330
48.84000 175.238
48.85000 181.855
48.86000 188.434
48.87000 193.263
48.88000 196.871
48.89000 200.422
48.90000 202.322
48.91000 203.461
48.92000 203.935
48.93000 195.216
48.94000 183.557
48.95000 172.978
48.96000 173.401
48.97000 175.891
48.98000 178.294
48.99000 180.247
49.00000 182.137
49.01000 183.655
49.02000 183.878
49.03000 183.989
49.04000 184.068
49.05000 182.483
49.06000 181.216
49.07000 180.961
49.08000 182.394
49.09000 183.853
49.10000 186.154
49.11000 189.403
49.12000 192.643
49.13000 193.883
49.14000 193.632
49.15000 193.400
49.16000 193.870
49.17000 194.698
49.18000 195.402
49.19000 194.054
49.20000 191.979
49.21000 190.071
49.22000 185.629
49.23000 181.110
49.24000 177.339
49.25000 177.908
49.26000 179.177
49.27000 180.059
49.28000 179.438
49.29000 178.667
49.30000 178.098
49.31000 183.454
49.32000 187.854
49.33000 188.720
49.34000 183.051
49.35000 177.238
49.36000 176.201
49.37000 181.185
49.38000 186.184
49.39000 189.354
49.40000 190.999
49.41000 192.732
49.42000 199.070
49.43000 208.009
49.44000 216.236
49.45000 210.180
49.46000 198.534
49.47000 187.690
49.48000 190.189
49.49000 195.704
49.50000 199.642
49.51000 193.274
49.52000 185.039
49.53000 179.122
49.54000 183.210
49.55000 188.450
49.56000 192.426
49.57000 191.014
49.58000 189.628
49.59000 188.786
49.60000 189.059
49.61000 189.366
49.62000 189.605
49.63000 189.749
49.64000 189.893
49.65000 189.443
49.66000 188.442
49.67000 187.472
49.68000 188.925
49.69000 191.895
49.70000 194.619
49.71000 191.186
49.72000 185.089
49.73000 179.348
49.74000 175.856
49.75000 173.277
49.76000 171.503
49.77000 175.697
49.78000 181.102
49.79000 186.283
49.80000 190.389
49.81000 194.354
49.82000 197.443
49.83000 189.862
49.84000 183.163
49.85000 178.489
49.86000 178.401
49.87000 178.488
49.88000 178.055
49.89000 176.813
49.90000 175.560
49.91000 174.920
49.92000 189.589
49.93000 199.407
49.94000 204.306
49.95000 205.780
49.96000 207.007
49.97000 200.361
49.98000 189.950
49.99000 180.045
50.00000 182.915
50.01000 189.489
50.02000 195.465
50.03000 196.398
50.04000 196.188
50.05000 195.698
50.06000 193.704
50.07000 191.486
50.08000 189.715
50.09000 188.479
50.10000 187.520
50.11000 188.887
50.12000 196.074
50.13000 203.540
50.14000 208.469
50.15000 209.004
50.16000 209.461
50.17000 209.709
50.18000 211.914
50.19000 213.415
50.20000 212.226
50.21000 208.951
50.22000 205.789
50.23000 207.407
50.24000 211.556
50.25000 215.539
50.26000 219.920
50.27000 224.156
50.28000 228.557
50.29000 234.572
50.30000 240.994
50.31000 246.957
50.32000 250.139
50.33000 252.854
50.34000 255.071
50.35000 254.320
50.36000 253.450
50.37000 254.959
50.38000 263.053
50.39000 271.531
50.40000 279.446
50.41000 286.280
50.42000 293.088
50.43000 296.957
50.44000 286.347
50.45000 278.917
50.46000 276.302
50.47000 277.856
50.48000 279.437
50.49000 282.594
50.50000 286.674
50.51000 290.624
50.52000 289.980
50.53000 287.609
50.54000 285.439
50.55000 285.509
50.56000 286.207
50.57000 285.639
50.58000 276.412
50.59000 265.552
50.60000 256.493
50.61000 255.467
50.62000 255.421
50.63000 255.211
50.64000 254.501
50.65000 253.757
50.66000 253.402
50.67000 253.877
50.68000 254.378
50.69000 254.676
50.70000 254.749
50.71000 254.798
50.72000 249.832
50.73000 239.993
50.74000 230.166
50.75000 221.441
50.76000 213.432
50.77000 205.623
50.78000 208.525
50.79000 215.883
50.80000 222.300
50.81000 216.295
50.82000 206.436
50.83000 198.049
50.84000 201.091
50.85000 206.547
50.86000 211.188
50.87000 214.515
50.88000 217.158
50.89000 217.309
50.90000 209.006
50.91000 200.006
50.92000 193.914
50.93000 194.641
50.94000 195.651
50.95000 196.279
50.96000 198.146
50.97000 199.503
50.98000 199.357
50.99000 197.572
51.00000 195.776
51.01000 192.531
51.02000 188.237
51.03000 184.024
51.04000 186.361
51.05000 191.747
51.06000 196.637
51.07000 193.782
51.08000 188.264
51.09000 183.454
51.10000 184.922
51.11000 187.869
51.12000 190.422
51.13000 183.717
51.14000 176.786
51.15000 171.433
51.16000 172.024
51.17000 173.185
51.18000 175.374
51.19000 180.231
51.20000 185.225
51.21000 188.455
51.22000 180.390
51.23000 174.325
51.24000 174.227
51.25000 181.420
51.26000 188.611
51.27000 189.002
51.28000 183.913
51.29000 178.892
51.30000 176.262
51.31000 174.980
51.32000 173.631
51.33000 171.029
51.34000 167.950
51.35000 165.403
51.36000 168.302
51.37000 172.625
51.38000 176.436
51.39000 178.867
51.40000 180.755
51.41000 182.547
51.42000 183.941
51.43000 185.291
51.44000 184.945
51.45000 179.731
51.46000 174.214
51.47000 170.511
51.48000 173.321
51.49000 175.541
51.50000 176.043
51.51000 174.202
51.52000 172.350
51.53000 173.300
51.54000 176.778
51.55000 180.224
51.56000 179.027
51.57000 175.086
51.58000 171.342
51.59000 172.207
51.60000 175.010
51.61000 177.481
51.62000 176.009
51.63000 173.392
51.64000 171.049
51.65000 172.596
51.66000 174.614
51.67000 176.084
51.68000 175.003
51.69000 173.599
51.70000 173.086
51.71000 175.404
51.72000 177.932
51.73000 179.688
51.74000 177.656
51.75000 176.023
51.76000 173.268
51.77000 168.813
51.78000 164.341
51.79000 165.315
51.80000 171.804
51.81000 178.258
51.82000 179.748
51.83000 177.909
51.84000 176.167
51.85000 177.295
51.86000 179.757
51.87000 181.952
51.88000 180.422
51.89000 177.694
51.90000 175.215
51.91000 174.414
51.92000 174.033
51.93000 173.063
51.94000 169.027
51.95000 164.549
51.96000 161.322
51.97000 162.502
51.98000 164.065
51.99000 165.187
52.00000 164.787
52.01000 164.430
52.02000 164.849
52.03000 166.576
52.04000 168.324
52.05000 171.488
52.06000 176.261
52.07000 181.022
52.08000 181.102
52.09000 177.688
52.10000 174.319
52.11000 172.691
52.12000 171.957
52.13000 171.250
52.14000 170.981
52.15000 170.869
52.16000 170.765
52.17000 166.432
52.18000 161.631
52.19000 158.223
52.20000 162.962
52.21000 169.025
52.22000 173.924
52.23000 174.277
52.24000 174.171
52.25000 174.092
52.26000 178.458
52.27000 182.034
52.28000 181.330
52.29000 172.649
52.30000 163.788
52.31000 160.775
52.32000 165.195
52.33000 169.636
52.34000 169.073
52.35000 164.327
52.36000 159.654
52.37000 158.845
52.38000 160.236
52.39000 161.654
52.40000 163.615
52.41000 165.790
52.42000 167.817
52.43000 167.898
52.44000 167.493
52.45000 167.221
52.46000 167.824
52.47000 168.586
52.48000 169.218
52.49000 169.279
52.50000 169.273
52.51000 169.269
52.52000 173.431
52.53000 176.922
52.54000 178.669
52.55000 176.821
52.56000 174.865
52.57000 171.493
52.58000 166.118
52.59000 160.729
52.60000 160.555
52.61000 165.279
52.62000 169.965
52.63000 171.659
52.64000 171.465
52.65000 171.220
52.66000 169.693
52.67000 167.606
52.68000 165.639
52.69000 165.067
52.70000 164.929
52.71000 164.664
52.72000 163.445
52.73000 162.031
52.74000 161.940
52.75000 168.268
52.76000 175.447
52.77000 181.049
52.78000 176.754
52.79000 172.708
52.80000 168.786
52.81000 165.148
52.82000 161.520
52.83000 159.531
52.84000 160.119
52.85000 160.738
52.86000 161.056
52.87000 166.798
52.88000 170.642
52.89000 171.946
52.90000 171.469
52.91000 170.975
52.92000 169.920
52.93000 168.596
52.94000 167.334
52.95000 171.895
52.96000 177.919
52.97000 183.064
52.98000 180.723
52.99000 176.673
53.00000 172.954
53.01000 171.035
53.02000 169.388
53.03000 168.070
53.04000 171.188
53.05000 174.038
53.06000 175.779
53.07000 174.729
53.08000 173.543
53.09000 173.080
53.10000 173.878
53.11000 174.699
53.12000 175.144
53.13000 175.820
53.14000 176.274
53.15000 174.215
53.16000 170.194
53.17000 166.230
53.18000 164.783
53.19000 164.677
53.20000 164.575
53.21000 163.096
53.22000 161.235
53.23000 159.827
53.24000 162.869
53.25000 167.041
53.26000 170.836
53.27000 172.324
53.28000 173.420
53.29000 174.317
53.30000 175.275
53.31000 176.065
53.32000 175.279
53.33000 170.103
53.34000 164.667
53.35000 163.389
53.36000 170.141
53.37000 177.096
53.38000 181.063
53.39000 174.176
53.40000 169.340
53.41000 166.568
53.42000 165.598
53.43000 164.645
53.44000 164.686
53.45000 165.314
53.46000 165.922
53.47000 167.383
53.48000 169.095
53.49000 170.460
53.50000 167.886
53.51000 164.200
53.52000 161.317
53.53000 163.965
53.54000 167.667
53.55000 170.758
53.56000 170.053
53.57000 169.084
53.58000 168.132
53.59000 167.234
53.60000 166.339
53.61000 166.941
53.62000 170.742
53.63000 174.650
53.64000 176.984
53.65000 171.297
53.66000 167.212
53.67000 165.337
53.68000 165.627
53.69000 165.901
53.70000 164.622
53.71000 162.327
53.72000 160.087
53.73000 158.986
53.74000 158.426
53.75000 158.278
53.76000 163.645
53.77000 170.736
53.78000 176.267
53.79000 169.588
53.80000 160.311
53.81000 152.408
53.82000 151.789
53.83000 152.118
53.84000 153.674
53.85000 159.421
53.86000 165.516
53.87000 167.806
53.88000 161.102
53.89000 154.019
53.90000 149.603
53.91000 149.118
53.92000 148.809
53.93000 148.828
53.94000 149.211
53.95000 149.609
53.96000 152.766
53.97000 157.931
53.98000 163.003
53.99000 165.048
54.00000 165.564
54.01000 165.887
54.02000 163.150
54.03000 159.355
54.04000 156.107
54.05000 157.764
54.06000 160.585
54.07000 163.032
54.08000 162.087
54.09000 160.829
54.10000 160.067
54.11000 161.189
54.12000 162.493
54.13000 165.128
54.14000 171.239
54.15000 177.532
54.16000 181.615
54.17000 168.210
54.18000 158.131
54.19000 153.836
54.20000 156.663
54.21000 159.498
54.22000 157.682
54.23000 152.087
54.24000 146.566
54.25000 146.619
54.26000 149.670
54.27000 152.873
54.28000 158.980
54.29000 166.199
54.30000 172.534
54.31000 169.741
54.32000 164.541
54.33000 159.952
54.34000 155.534
54.35000 151.749
54.36000 149.617
54.37000 154.453
54.38000 160.068
54.39000 163.946
54.40000 162.808
54.41000 161.353
54.42000 160.374
54.43000 162.964
54.44000 164.964
54.45000 166.728
54.46000 168.168
54.47000 169.607
54.48000 170.526
54.49000 170.974
54.50000 171.418
54.51000 169.720
54.52000 166.766
54.53000 163.944
54.54000 164.240
54.55000 165.858
54.56000 167.197
54.57000 165.193
54.58000 162.209
54.59000 159.536
54.60000 160.472
54.61000 161.915
54.62000 163.228
54.63000 163.925
54.64000 164.544
54.65000 164.421
54.66000 161.925
54.67000 159.251
54.68000 157.389
54.69000 158.882
54.70000 160.100
54.71000 162.217
54.72000 165.705
54.73000 169.209
54.74000 170.645
54.75000 169.969
54.76000 169.297
54.77000 170.982
54.78000 174.231
54.79000 177.413
54.80000 178.565
54.81000 178.766
54.82000 178.697
54.83000 174.794
54.84000 169.648
54.85000 164.968
54.86000 163.393
54.87000 162.607
54.88000 163.143
54.89000 170.623
54.90000 179.111
54.91000 184.706
54.92000 180.038
54.93000 174.467
54.94000 170.460
54.95000 175.395
54.96000 179.485
54.97000 181.361
54.98000 179.487
54.99000 177.552
55.00000 176.722
55.01000 177.159
55.02000 177.596
55.03000 177.889
55.04000 178.070
55.05000 178.261
55.06000 178.877
55.07000 179.713
55.08000 180.524
55.09000 180.917
55.10000 181.159
55.11000 181.382
55.12000 176.660
55.13000 171.344
55.14000 167.622
55.15000 173.311
55.16000 180.543
55.17000 186.786
55.18000 189.132
55.19000 191.081
55.20000 192.524
55.21000 195.609
55.22000 198.075
55.23000 202.175
55.24000 209.343
55.25000 216.581
55.26000 223.493
55.27000 229.988
55.28000 236.475
55.29000 241.612
55.30000 245.597
55.31000 249.607
55.32000 255.002
55.33000 261.189
55.34000 267.434
55.35000 274.844
55.36000 282.717
55.37000 290.061
55.38000 304.780
55.39000 319.941
55.40000 335.461
55.41000 353.374
55.42000 371.728
55.43000 390.756
55.44000 412.737
55.45000 435.065
55.46000 452.075
55.47000 475.374
55.48000 494.050
55.49000 514.277
55.50000 537.725
55.51000 561.273
55.52000 580.944
55.53000 595.082
55.54000 609.177
55.55000 623.254
55.56000 637.311
55.57000 651.373
55.58000 665.798
55.59000 680.454
55.60000 694.900
55.61000 703.936
55.62000 710.599
55.63000 716.883
55.64000 721.297
55.65000 724.820
55.66000 727.082
55.67000 719.820
55.68000 710.596
55.69000 701.971
55.70000 696.282
55.71000 690.986
55.72000 686.845
55.73000 667.637
55.74000 651.350
55.75000 636.481
55.76000 624.871
55.77000 613.389
55.78000 601.067
55.79000 587.416
55.80000 573.747
55.81000 566.697
55.82000 536.664
55.83000 516.447
55.84000 498.917
55.85000 483.286
55.86000 467.643
55.87000 451.590
55.88000 435.339
55.89000 419.857
55.90000 402.780
55.91000 386.458
55.92000 370.986
55.93000 362.829
55.94000 356.356
55.95000 348.939
55.96000 336.357
55.97000 322.991
55.98000 312.286
55.99000 299.441
56.00000 288.889
56.01000 279.830
56.02000 274.564
56.03000 269.485
56.04000 264.571
56.05000 259.947
56.06000 255.328
56.07000 252.813
56.08000 237.636
56.09000 227.225
56.10000 222.929
56.11000 223.448
56.12000 223.925
56.13000 222.545
56.14000 220.168
56.15000 217.882
56.16000 214.801
56.17000 211.637
56.18000 209.184
56.19000 213.783
56.20000 220.186
56.21000 224.482
56.22000 215.809
56.23000 204.919
56.24000 195.998
56.25000 193.906
56.26000 192.792
56.27000 191.236
56.28000 188.440
56.29000 185.570
56.30000 185.529
56.31000 190.993
56.32000 196.599
56.33000 199.808
56.34000 191.642
56.35000 185.901
56.36000 181.140
56.37000 177.240
56.38000 173.465
56.39000 177.457
56.40000 186.072
56.41000 194.421
56.42000 191.304
56.43000 183.887
56.44000 177.297
56.45000 180.214
56.46000 185.833
56.47000 190.008
56.48000 184.132
56.49000 176.329
56.50000 169.800
56.51000 170.551
56.52000 171.919
56.53000 173.004
56.54000 173.210
56.55000 173.353
56.56000 172.970
56.57000 171.458
56.58000 169.907
56.59000 168.978
56.60000 171.111
56.61000 172.647
56.62000 173.637
56.63000 174.088
56.64000 174.484
56.65000 169.579
56.66000 161.173
56.67000 152.969
56.68000 153.035
56.69000 156.696
56.70000 160.128
56.71000 160.468
56.72000 159.834
56.73000 159.274
56.74000 159.304
56.75000 159.460
56.76000 159.593
56.77000 157.501
56.78000 155.479
56.79000 153.853
56.80000 153.595
56.81000 153.453
56.82000 153.549
56.83000 154.212
56.84000 154.900
56.85000 155.330
56.86000 153.028
56.87000 151.338
56.88000 153.563
56.89000 160.134
56.90000 166.654
56.91000 163.882
56.92000 154.286
56.93000 144.863
56.94000 146.234
56.95000 152.801
56.96000 159.154
56.97000 162.066
56.98000 163.778
56.99000 164.788
57.00000 159.444
57.01000 152.581
57.02000 146.620
57.03000 145.112
57.04000 144.428
57.05000 144.173
57.06000 145.560
57.07000 147.109
57.08000 149.037
57.09000 151.965
57.10000 154.946
57.11000 156.885
57.12000 152.960
57.13000 149.993
57.14000 148.532
57.15000 148.943
57.16000 149.357
57.17000 148.950
57.18000 147.870
57.19000 146.804
57.20000 148.528
57.21000 151.720
57.22000 154.557
57.23000 150.469
57.24000 143.710
57.25000 137.729
57.26000 139.863
57.27000 144.155
57.28000 147.945
57.29000 146.344
57.30000 144.132
57.31000 142.775
57.32000 145.055
57.33000 147.746
57.34000 149.198
57.35000 147.042
57.36000 144.655
57.37000 143.044
57.38000 150.267
57.39000 155.829
57.40000 158.404
57.41000 156.843
57.42000 155.255
57.43000 150.905
57.44000 144.024
57.45000 137.200
57.46000 136.671
57.47000 139.966
57.48000 143.166
57.49000 144.076
57.50000 144.010
57.51000 143.811
57.52000 141.992
57.53000 139.696
57.54000 137.636
57.55000 141.905
57.56000 146.743
57.57000 150.267
57.58000 147.567
57.59000 144.064
57.60000 142.513
57.61000 147.256
57.62000 152.477
57.63000 156.122
57.64000 158.402
57.65000 160.086
57.66000 159.030
57.67000 153.758
57.68000 148.440
57.69000 147.381
57.70000 150.708
57.71000 154.019
57.72000 154.358
57.73000 152.678
57.74000 150.973
57.75000 148.487
57.76000 145.632
57.77000 142.964
57.78000 142.978
57.79000 143.868
57.80000 144.678
57.81000 143.198
57.82000 141.437
57.83000 140.175
57.84000 141.559
57.85000 143.330
57.86000 145.014
57.87000 146.386
57.88000 147.731
57.89000 148.700
57.90000 152.184
57.91000 154.942
57.92000 155.269
57.93000 151.444
57.94000 147.550
57.95000 144.954
57.96000 143.860
57.97000 142.770
57.98000 144.355
57.99000 147.957
58.00000 151.507
58.01000 152.899
58.02000 153.165
58.03000 153.189
58.04000 149.049
58.05000 143.403
58.06000 138.196
58.07000 142.232
58.08000 147.904
58.09000 152.003
58.10000 146.746
58.11000 139.943
58.12000 135.010
58.13000 137.499
58.14000 140.755
58.15000 143.172
58.16000 141.331
58.17000 139.712
58.18000 138.568
58.19000 138.318
58.20000 138.089
58.21000 138.869
58.22000 140.949
58.23000 143.032
58.24000 144.338
58.25000 144.979
58.26000 145.610
58.27000 145.682
58.28000 145.431
58.29000 145.298
58.30000 147.640
58.31000 150.973
58.32000 154.083
58.33000 152.409
58.34000 149.694
58.35000 147.236
58.36000 146.505
58.37000 146.095
58.38000 145.886
58.39000 146.568
58.40000 147.355
58.41000 147.956
58.42000 141.574
58.43000 136.169
58.44000 135.003
58.45000 142.701
58.46000 150.679
58.47000 153.556
58.48000 149.102
58.49000 144.590
58.50000 142.281
58.51000 142.077
58.52000 141.881
58.53000 142.445
58.54000 143.497
58.55000 144.407
58.56000 141.592
58.57000 137.131
58.58000 132.920
58.59000 135.913
58.60000 140.678
58.61000 144.757
58.62000 143.615
58.63000 141.386
58.64000 139.418
58.65000 138.731
58.66000 138.217
58.67000 137.815
58.68000 137.533
58.69000 137.315
58.70000 137.672
58.71000 139.357
58.72000 141.095
58.73000 141.253
58.74000 138.888
58.75000 136.491
58.76000 135.249
58.77000 127.554
58.78000 122.418
58.79000 125.379
58.80000 134.107
58.81000 142.629
58.82000 144.224
58.83000 142.433
58.84000 140.726
58.85000 137.196
58.86000 133.349
58.87000 130.014
58.88000 131.122
58.89000 133.261
58.90000 135.766
58.91000 140.290
58.92000 145.122
58.93000 148.999
58.94000 147.243
58.95000 145.392
58.96000 142.912
58.97000 138.823
58.98000 134.654
58.99000 132.151
59.00000 132.599
59.01000 133.103
59.02000 133.378
59.03000 133.938
59.04000 134.327
59.05000 136.174
59.06000 139.177
59.07000 142.106
59.08000 141.681
59.09000 139.440
59.10000 137.284
59.11000 135.637
59.12000 134.271
59.13000 133.375
59.14000 137.181
59.15000 142.200
59.16000 145.895
59.17000 141.362
59.18000 135.410
59.19000 130.528
59.20000 131.701
59.21000 133.203
59.22000 134.543
59.23000 135.422
59.24000 136.274
59.25000 137.756
59.26000 140.475
59.27000 143.227
59.28000 144.807
59.29000 141.439
59.30000 139.066
59.31000 135.608
59.32000 131.187
59.33000 126.823
59.34000 126.114
59.35000 127.597
59.36000 129.035
59.37000 131.957
59.38000 135.309
59.39000 138.592
59.40000 141.078
59.41000 143.335
59.42000 145.244
59.43000 144.700
59.44000 143.682
59.45000 142.829
59.46000 139.269
59.47000 136.029
59.48000 134.132
59.49000 136.444
59.50000 139.060
59.51000 140.254
59.52000 138.367
59.53000 136.373
59.54000 135.175
59.55000 137.598
59.56000 139.346
59.57000 139.536
59.58000 138.176
59.59000 136.825
59.60000 136.421
59.61000 136.646
59.62000 136.867
59.63000 136.981
59.64000 137.042
59.65000 137.150
59.66000 137.884
59.67000 138.817
59.68000 139.641
59.69000 139.607
59.70000 139.388
59.71000 139.200
59.72000 138.159
59.73000 137.181
59.74000 136.708
59.75000 137.986
59.76000 139.413
59.77000 139.910
59.78000 138.177
59.79000 136.348
59.80000 135.200
59.81000 136.879
59.82000 138.122
59.83000 137.585
59.84000 135.055
59.85000 132.549
59.86000 134.489
59.87000 139.720
59.88000 144.860
59.89000 145.427
59.90000 143.736
59.91000 141.884
59.92000 137.400
59.93000 131.992
59.94000 127.309
59.95000 129.245
59.96000 132.775
59.97000 135.845
59.98000 141.095
59.99000 145.872
60.00000 148.640
60.01000 143.671
60.02000 137.937
60.03000 133.579
60.04000 132.868
60.05000 132.353
60.06000 132.017
60.07000 138.841
60.08000 143.963
60.09000 146.076
60.10000 144.426
60.11000 142.763
60.12000 140.470
60.13000 137.658
60.14000 134.881
60.15000 136.482
60.16000 140.435
60.17000 144.052
60.18000 141.016
60.19000 135.395
60.20000 130.383
60.21000 131.787
60.22000 134.909
60.23000 137.670
60.24000 138.052
60.25000 138.013
60.26000 138.255
60.27000 139.699
60.28000 141.281
60.29000 141.970
60.30000 140.044
60.31000 137.949
60.32000 136.532
60.33000 142.022
60.34000 146.261
60.35000 148.353
60.36000 147.450
60.37000 146.525
60.38000 142.190
60.39000 134.702
60.40000 127.276
60.41000 126.765
60.42000 130.486
60.43000 134.082
60.44000 134.595
60.45000 133.784
60.46000 132.901
60.47000 131.133
60.48000 129.102
60.49000 127.277
60.50000 129.012
60.51000 131.156
60.52000 133.089
60.53000 134.005
60.54000 134.790
60.55000 135.603
60.56000 136.508
60.57000 137.421
60.58000 138.059
60.59000 137.911
60.60000 137.777
60.61000 138.488
60.62000 140.511
60.63000 142.549
60.64000 143.152
60.65000 142.264
60.66000 141.380
60.67000 140.426
60.68000 139.436
60.69000 138.382
60.70000 135.364
60.71000 131.413
60.72000 127.939
60.73000 131.401
60.74000 137.147
60.75000 142.381
60.76000 141.379
60.77000 139.251
60.78000 137.677
60.79000 139.073
60.80000 140.908
60.81000 141.946
60.82000 140.118
60.83000 138.032
60.84000 136.525
60.85000 133.600
60.86000 131.305
60.87000 130.108
60.88000 130.798
60.89000 131.521
60.90000 132.930
60.91000 135.139
60.92000 137.344
60.93000 139.181
60.94000 140.726
60.95000 142.340
60.96000 146.835
60.97000 152.843
60.98000 158.388
60.99000 155.853
61.00000 150.377
61.01000 145.322
61.02000 140.904
61.03000 137.086
61.04000 134.012
61.05000 135.402
61.06000 137.537
61.07000 138.895
61.08000 137.149
61.09000 135.079
61.10000 133.540
61.11000 136.271
61.12000 138.586
61.13000 140.246
61.14000 140.658
61.15000 141.040
61.16000 142.426
61.17000 145.119
61.18000 147.815
61.19000 148.611
61.20000 147.776
61.21000 146.898
61.22000 143.520
61.23000 138.687
61.24000 134.063
61.25000 133.888
61.26000 135.504
61.27000 137.014
61.28000 141.293
61.29000 145.873
61.30000 149.963
61.31000 150.736
61.32000 150.887
61.33000 151.072
61.34000 151.404
61.35000 151.754
61.36000 152.021
61.37000 152.087
61.38000 152.129
61.39000 151.802
61.40000 150.698
61.41000 149.570
61.42000 148.292
61.43000 146.796
61.44000 145.298
61.45000 144.490
61.46000 144.347
61.47000 144.243
61.48000 147.586
61.49000 153.154
61.50000 158.788
61.51000 166.176
61.52000 174.344
61.53000 182.060
61.54000 194.442
61.55000 207.128
61.56000 220.075
61.57000 235.039
61.58000 250.425
61.59000 265.878
61.60000 281.664
61.61000 297.495
61.62000 309.916
61.63000 314.558
61.64000 317.765
61.65000 322.685
61.66000 331.599
61.67000 340.676
61.68000 345.242
61.69000 342.550
61.70000 339.761
61.71000 338.311
61.72000 349.646
61.73000 357.246
61.74000 355.791
61.75000 347.838
61.76000 339.853
61.77000 330.763
61.78000 321.131
61.79000 311.941
61.80000 294.297
61.81000 275.243
61.82000 256.175
61.83000 236.981
61.84000 217.758
61.85000 200.252
61.86000 192.308
61.87000 185.840
61.88000 180.642
61.89000 170.959
61.90000 162.766
61.91000 156.285
61.92000 154.220
61.93000 152.377
61.94000 151.913
61.95000 153.905
61.96000 155.946
61.97000 157.065
61.98000 159.246
61.99000 160.734
62.00000 157.628
62.01000 150.847
62.02000 144.176
62.03000 142.632
62.04000 143.881
62.05000 145.083
62.06000 146.058
62.07000 146.893
62.08000 147.699
62.09000 148.219
62.10000 148.663
62.11000 149.046
62.12000 149.039
62.13000 148.965
62.14000 148.904
62.15000 148.670
62.16000 148.462
62.17000 148.553
62.18000 149.492
62.19000 150.483
62.20000 150.034
62.21000 146.740
62.22000 143.369
62.23000 141.427
62.24000 142.205
62.25000 142.758
62.26000 141.551
62.27000 138.769
62.28000 136.017
62.29000 135.282
62.30000 135.765
62.31000 136.233
62.32000 138.014
62.33000 140.221
62.34000 142.318
62.35000 143.108
62.36000 143.521
62.37000 143.919
62.38000 144.205
62.39000 144.468
62.40000 144.690
62.41000 144.234
62.42000 143.784
62.43000 144.391
62.44000 148.334
62.45000 152.521
62.46000 154.231
62.47000 150.531
62.48000 146.640
62.49000 144.294
62.50000 147.086
62.51000 149.110
62.52000 149.885
62.53000 149.407
62.54000 148.939
62.55000 149.442
62.56000 150.597
62.57000 151.725
62.58000 151.411
62.59000 150.473
62.60000 149.305
62.61000 144.961
62.62000 139.601
62.63000 134.984
62.64000 136.353
62.65000 139.026
62.66000 141.312
62.67000 147.458
62.68000 153.104
62.69000 156.745
62.70000 153.379
62.71000 149.411
62.72000 145.635
62.73000 142.327
62.74000 139.039
62.75000 136.971
62.76000 147.859
62.77000 155.880
62.78000 156.965
62.79000 150.227
62.80000 143.514
62.81000 143.042
62.82000 147.223
62.83000 151.333
62.84000 153.285
62.85000 154.107
62.86000 154.759
62.87000 152.612
62.88000 149.474
62.89000 146.765
62.90000 148.008
62.91000 150.211
62.92000 152.129
62.93000 149.852
62.94000 147.329
62.95000 145.194
62.96000 144.562
62.97000 144.080
62.98000 144.473
62.99000 147.202
63.00000 150.059
63.01000 151.927
63.02000 155.352
63.03000 157.893
63.04000 158.091
63.05000 155.335
63.06000 152.578
63.07000 153.934
63.08000 158.713
63.09000 163.434
63.10000 163.075
63.11000 159.926
63.12000 156.831
63.13000 154.830
63.14000 153.258
63.15000 151.684
63.16000 150.098
63.17000 148.509
63.18000 147.101
63.19000 153.966
63.20000 161.201
63.21000 165.875
63.22000 159.498
63.23000 151.850
63.24000 146.093
63.25000 145.927
63.26000 146.127
63.27000 146.263
63.28000 143.809
63.29000 141.922
63.30000 141.272
63.31000 142.362
63.32000 143.464
63.33000 145.236
63.34000 147.633
63.35000 150.011
63.36000 152.945
63.37000 156.172
63.38000 159.276
63.39000 159.335
63.40000 158.076
63.41000 156.545
63.42000 151.620
63.43000 145.679
63.44000 140.337
63.45000 146.045
63.46000 153.008
63.47000 158.684
63.48000 158.165
63.49000 156.832
63.50000 155.458
63.51000 153.946
63.52000 152.424
63.53000 151.357
63.54000 146.086
63.55000 141.976
63.56000 140.111
63.57000 141.754
63.58000 143.438
63.59000 145.400
63.60000 147.652
63.61000 149.893
63.62000 154.462
63.63000 160.584
63.64000 166.480
63.65000 165.213
63.66000 160.518
63.67000 155.966
63.68000 153.500
63.69000 151.726
63.70000 150.109
63.71000 149.933
63.72000 150.067
63.73000 150.264
63.74000 150.803
63.75000 151.393
63.76000 152.284
63.77000 154.266
63.78000 156.347
63.79000 157.854
63.80000 161.820
63.81000 164.956
63.82000 165.537
63.83000 161.694
63.84000 157.773
63.85000 156.270
63.86000 157.608
63.87000 158.948
63.88000 159.758
63.89000 160.155
63.90000 160.559
63.91000 161.236
63.92000 162.060
63.93000 162.700
63.94000 160.120
63.95000 156.359
63.96000 152.883
63.97000 153.192
63.98000 154.325
63.99000 155.712
64.00000 158.640
64.01000 161.827
64.02000 163.938
64.03000 161.718
64.04000 159.041
64.05000 157.046
64.06000 161.309
64.07000 164.913
64.08000 168.171
64.09000 170.765
64.10000 173.343
64.11000 172.966
64.12000 168.714
64.13000 164.448
64.14000 164.287
64.15000 167.675
64.16000 171.039
64.17000 172.942
64.18000 173.988
64.19000 174.817
64.20000 170.947
64.21000 165.172
64.22000 159.771
64.23000 162.783
64.24000 167.656
64.25000 171.625
64.26000 169.413
64.27000 166.034
64.28000 164.391
64.29000 170.532
64.30000 177.614
64.31000 183.040
64.32000 172.736
64.33000 163.733
64.34000 158.453
64.35000 161.073
64.36000 163.951
64.37000 163.517
64.38000 158.252
64.39000 152.945
64.40000 153.286
64.41000 159.113
64.42000 164.906
64.43000 167.692
64.44000 168.521
64.45000 169.332
64.46000 169.665
64.47000 169.783
64.48000 169.895
64.49000 168.368
64.50000 166.498
64.51000 164.564
64.52000 162.133
64.53000 159.596
64.54000 158.405
64.55000 163.955
64.56000 170.432
64.57000 175.523
64.58000 182.360
64.59000 187.948
64.60000 190.261
64.61000 184.887
64.62000 179.195
64.63000 175.812
64.64000 176.172
64.65000 176.584
64.66000 176.799
64.67000 177.863
64.68000 178.581
64.69000 179.084
64.70000 179.433
64.71000 179.896
64.72000 184.362
64.73000 190.813
64.74000 196.971
64.75000 198.888
64.76000 199.314
64.77000 199.540
64.78000 197.991
64.79000 196.025
64.80000 194.601
64.81000 196.218
64.82000 198.309
64.83000 199.993
64.84000 206.499
64.85000 212.153
64.86000 216.293
64.87000 216.503
64.88000 216.512
64.89000 217.704
64.90000 221.024
64.91000 224.387
64.92000 226.239
64.93000 242.758
64.94000 254.143
64.95000 258.833
64.96000 258.125
64.97000 257.624
64.98000 266.949
64.99000 281.669
65.00000 295.846
65.01000 303.551
65.02000 308.474
65.03000 313.913
65.04000 324.613
65.05000 336.692
65.06000 348.777
65.07000 360.901
65.08000 373.033
65.09000 383.016
65.10000 403.542
65.11000 421.378
65.12000 432.823
65.13000 425.928
65.14000 417.891
65.15000 414.834
65.16000 421.680
65.17000 428.797
65.18000 432.913
65.19000 451.189
65.20000 464.049
65.21000 464.532
65.22000 453.855
65.23000 443.344
65.24000 444.244
65.25000 452.085
65.26000 459.697
65.27000 453.637
65.28000 442.433
65.29000 432.185
65.30000 433.298
65.31000 437.713
65.32000 440.980
65.33000 436.041
65.34000 429.489
65.35000 423.984
65.36000 423.950
65.37000 424.499
65.38000 422.831
65.39000 414.122
65.40000 404.891
65.41000 394.632
65.42000 382.110
65.43000 369.507
65.44000 361.883
65.45000 364.773
65.46000 366.910
65.47000 365.743
65.48000 361.228
65.49000 356.699
65.50000 350.598
65.51000 343.434
65.52000 336.432
65.53000 340.038
65.54000 348.218
65.55000 355.508
65.56000 350.347
65.57000 341.176
65.58000 332.668
65.59000 329.559
65.60000 327.636
65.61000 325.988
65.62000 341.478
65.63000 356.632
65.64000 371.241
65.65000 383.931
65.66000 396.454
65.67000 413.518
65.68000 441.628
65.69000 470.235
65.70000 488.280
65.71000 554.747
65.72000 603.436
65.73000 660.213
65.74000 726.188
65.75000 792.266
65.76000 877.646
65.77000 977.531
65.78000 1075.748
65.79000 1152.135
65.80000 1215.159
65.81000 1276.703
65.82000 1313.463
65.83000 1341.391
65.84000 1367.830
65.85000 1380.382
65.86000 1389.536
65.87000 1397.517
65.88000 1411.128
65.89000 1423.545
65.90000 1430.012
65.91000 1413.217
65.92000 1394.072
65.93000 1369.023
65.94000 1328.098
65.95000 1286.297
65.96000 1258.883
65.97000 1161.597
65.98000 1088.890
65.99000 1002.463
66.00000 898.600
66.01000 794.725
66.02000 716.839
66.03000 660.751
66.04000 605.321
66.05000 554.054
66.06000 506.353
66.07000 459.512
66.08000 430.159
66.09000 407.698
66.10000 386.027
66.11000 372.874
66.12000 362.035
66.13000 352.427
66.14000 343.781
66.15000 336.448
66.16000 331.300
66.17000 335.656
66.18000 341.116
66.19000 344.586
66.20000 342.139
66.21000 339.298
66.22000 337.366
66.23000 341.480
66.24000 344.687
66.25000 351.015
66.26000 361.760
66.27000 372.537
66.28000 385.099
66.29000 399.339
66.30000 413.470
66.31000 430.198
66.32000 448.254
66.33000 466.160
66.34000 480.267
66.35000 492.720
66.36000 505.074
66.37000 516.197
66.38000 526.947
66.39000 536.624
66.40000 533.763
66.41000 529.007
66.42000 525.625
66.43000 528.912
66.44000 533.083
66.45000 536.569
66.46000 537.794
66.47000 538.843
66.48000 539.580
66.49000 542.131
66.50000 544.118
66.51000 536.280
66.52000 512.987
66.53000 489.505
66.54000 465.577
66.55000 441.179
66.56000 416.888
66.57000 397.788
66.58000 382.491
66.59000 367.483
66.60000 361.865
66.61000 360.770
66.62000 359.488
66.63000 355.414
66.64000 350.408
66.65000 345.838
66.66000 348.002
66.67000 351.287
66.68000 353.523
66.69000 350.064
66.70000 345.747
66.71000 342.306
66.72000 342.062
66.73000 342.111
66.74000 342.147
66.75000 341.753
66.76000 341.434
66.77000 342.418
66.78000 345.676
66.79000 348.976
66.80000 351.688
66.81000 353.705
66.82000 355.716
66.83000 357.617
66.84000 359.423
66.85000 361.273
66.86000 365.010
66.87000 369.754
66.88000 374.294
66.89000 375.191
66.90000 374.742
66.91000 374.327
66.92000 372.076
66.93000 369.636
66.94000 366.675
66.95000 360.538
66.96000 353.863
66.97000 348.918
66.98000 350.996
66.99000 353.821
67.00000 355.931
67.01000 373.076
67.02000 387.134
67.03000 395.329
67.04000 392.199
67.05000 388.783
67.06000 384.267
67.07000 378.295
67.08000 372.321
67.09000 373.936
67.10000 382.164
67.11000 390.354
67.12000 396.191
67.13000 400.640
67.14000 404.861
67.15000 404.106
67.16000 401.317
67.17000 398.707
67.18000 399.844
67.19000 401.837
67.20000 403.899
67.21000 406.440
67.22000 409.072
67.23000 412.058
67.24000 416.639
67.25000 421.415
67.26000 425.081
67.27000 421.801
67.28000 418.820
67.29000 419.169
67.30000 426.632
67.31000 434.333
67.32000 438.212
67.33000 436.471
67.34000 434.681
67.35000 434.099
67.36000 434.700
67.37000 435.333
67.38000 438.923
67.39000 444.452
67.40000 449.845
67.41000 451.518
67.42000 451.510
67.43000 451.503
67.44000 458.055
67.45000 465.965
67.46000 472.438
67.47000 467.652
67.48000 460.469
67.49000 455.540
67.50000 461.991
67.51000 470.021
67.52000 476.344
67.53000 473.008
67.54000 469.691
67.55000 468.668
67.56000 473.068
67.57000 477.697
67.58000 478.681
67.59000 473.711
67.60000 468.657
67.61000 466.008
67.62000 477.748
67.63000 485.703
67.64000 493.273
67.65000 500.561
67.66000 507.630
67.67000 506.815
67.68000 502.061
67.69000 497.519
67.70000 505.735
67.71000 517.478
67.72000 528.531
67.73000 533.401
67.74000 536.805
67.75000 538.836
67.76000 533.104
67.77000 526.153
67.78000 520.549
67.79000 520.703
67.80000 521.282
67.81000 523.682
67.82000 530.839
67.83000 538.244
67.84000 541.836
67.85000 538.528
67.86000 535.077
67.87000 533.171
67.88000 539.330
67.89000 543.599
67.90000 550.391
67.91000 559.233
67.92000 568.041
67.93000 575.241
67.94000 581.551
67.95000 587.632
67.96000 586.928
67.97000 583.826
67.98000 580.880
67.99000 579.540
68.00000 578.623
68.01000 579.617
68.02000 592.778
68.03000 608.091
68.04000 620.712
68.05000 619.699
68.06000 617.611
68.07000 615.124
68.08000 611.485
68.09000 607.772
68.10000 607.808
68.11000 615.353
68.12000 623.108
68.13000 627.606
68.14000 635.499
68.15000 641.053
68.16000 648.522
68.17000 657.733
68.18000 666.934
68.19000 675.538
68.20000 683.774
68.21000 691.773
68.22000 693.287
68.23000 692.117
68.24000 691.294
68.25000 694.639
68.26000 699.205
68.27000 703.660
68.28000 707.316
68.29000 710.813
68.30000 713.755
68.31000 723.638
68.32000 732.619
68.33000 742.307
68.34000 754.256
68.35000 766.375
68.36000 775.868
68.37000 779.542
68.38000 783.004
68.39000 785.105
68.40000 789.258
68.41000 792.236
68.42000 799.383
68.43000 810.789
68.44000 822.159
68.45000 829.474
68.46000 834.027
68.47000 838.481
68.48000 855.840
68.49000 878.282
68.50000 899.818
68.51000 908.525
68.52000 913.070
68.53000 919.556
68.54000 941.981
68.55000 967.935
68.56000 990.191
68.57000 1020.418
68.58000 1046.929
68.59000 1074.152
68.60000 1103.897
68.61000 1133.864
68.62000 1175.426
68.63000 1245.392
68.64000 1316.655
68.65000 1361.737
68.66000 1443.156
68.67000 1502.612
68.68000 1571.001
68.69000 1649.632
68.70000 1728.294
68.71000 1810.911
68.72000 1896.524
68.73000 1980.740
68.74000 2046.721
68.75000 2101.437
68.76000 2157.353
68.77000 2233.606
68.78000 2317.159
68.79000 2402.647
68.80000 2506.355
68.81000 2614.555
68.82000 2709.006
68.83000 2832.521
68.84000 2942.282
68.85000 3069.984
68.86000 3268.351
68.87000 3473.933
68.88000 3739.118
68.89000 4165.765
68.90000 4601.447
68.91000 4887.931
68.92000 6407.766
68.93000 7547.700
68.94000 9442.257
68.95000 12303.469
68.96000 15170.664
68.97000 19419.465
68.98000 24836.373
68.99000 30191.482
69.00000 37020.348
69.01000 44511.070
69.02000 51957.332
69.03000 58485.656
69.04000 64649.609
69.05000 70609.586
69.06000 74348.063
69.07000 77478.141
69.08000 80255.820
69.09000 81669.648
69.10000 82676.992
69.11000 83614.773
69.12000 84247.703
69.13000 84844.859
69.14000 85490.313
69.15000 86280.547
69.16000 87080.523
69.17000 87625.789
69.18000 88346.797
69.19000 88889.703
69.20000 88751.320
69.21000 87640.891
69.22000 86522.789
69.23000 83720.078
69.24000 79321.281
69.25000 74954.922
69.26000 70045.063
69.27000 64876.102
69.28000 59754.605
69.29000 55855.188
69.30000 52492.145
69.31000 49232.875
69.32000 47294.926
69.33000 45758.266
69.34000 44373.703
69.35000 43183.980
69.36000 42175.438
69.37000 41076.164
69.38000 39533.066
69.39000 37930.559
69.40000 36104.270
69.41000 33535.137
69.42000 30906.916
69.43000 29054.570
69.44000 24490.076
69.45000 20946.994
69.46000 17607.973
69.47000 14592.401
69.48000 11580.904
69.49000 9213.372
69.50000 7531.774
69.51000 5857.438
69.52000 4776.108
69.53000 4120.594
69.54000 3472.501
69.55000 3070.025
69.56000 2786.768
69.57000 2509.347
69.58000 2319.945
69.59000 2160.146
69.60000 2014.129
69.61000 1892.253
69.62000 1788.942
69.63000 1693.574
69.64000 1641.706
69.65000 1596.438
69.66000 1549.599
69.67000 1496.978
69.68000 1443.820
69.69000 1405.169
69.70000 1345.730
69.71000 1299.212
69.72000 1259.836
69.73000 1233.013
69.74000 1206.424
69.75000 1175.760
69.76000 1140.234
69.77000 1104.768
69.78000 1076.206
69.79000 1053.194
69.80000 1030.351
69.81000 1014.945
69.82000 1003.534
69.83000 991.887
69.84000 975.958
69.85000 958.435
69.86000 942.215
69.87000 923.729
69.88000 906.591
69.89000 889.929
69.90000 876.197
69.91000 862.967
69.92000 850.287
69.93000 839.854
69.94000 829.662
69.95000 822.034
69.96000 820.512
69.97000 819.610
69.98000 811.356
69.99000 788.796
70.00000 765.866
