20.00000 583.609
20.01000 581.770
20.02000 579.668
20.03000 577.610
20.04000 575.727
20.05000 573.863
20.06000 572.476
20.07000 567.945
20.08000 564.280
20.09000 563.826
20.10000 569.482
20.11000 575.285
20.12000 577.356
20.13000 574.574
20.14000 571.773
20.15000 569.410
20.16000 567.427
20.17000 565.514
20.18000 567.656
20.19000 572.157
20.20000 576.180
20.21000 570.053
20.22000 559.840
20.23000 550.299
20.24000 561.247
20.25000 576.345
20.26000 587.154
20.27000 568.924
20.28000 545.258
20.29000 528.342
20.30000 541.459
20.31000 558.167
20.32000 570.944
20.33000 565.422
20.34000 560.072
20.35000 559.886
20.36000 570.576
20.37000 581.614
20.38000 587.496
20.39000 585.911
20.40000 584.265
20.41000 581.626
20.42000 578.033
20.43000 574.511
20.44000 577.260
20.45000 584.057
20.46000 590.621
20.47000 590.988
20.48000 588.597
20.49000 586.339
20.50000 576.109
20.51000 564.466
20.52000 554.443
20.53000 556.870
20.54000 561.903
20.55000 566.406
20.56000 568.272
20.57000 569.779
20.58000 570.961
20.59000 554.895
20.60000 540.926
20.61000 534.608
20.62000 546.110
20.63000 558.340
20.64000 563.854
20.65000 558.567
20.66000 553.135
20.67000 550.312
20.68000 539.913
20.69000 532.910
20.70000 529.308
20.71000 528.145
20.72000 527.309
20.73000 537.725
20.74000 553.679
20.75000 568.899
20.76000 574.871
20.77000 577.486
20.78000 579.883
20.79000 580.368
20.80000 580.406
20.81000 580.207
20.82000 578.688
20.83000 576.965
20.84000 575.581
20.85000 569.448
20.86000 564.112
20.87000 559.160
20.88000 555.200
20.89000 551.291
20.90000 551.341
20.91000 558.452
20.92000 565.702
20.93000 569.677
20.94000 580.808
20.95000 588.442
20.96000 585.082
20.97000 572.931
20.98000 561.021
20.99000 560.275
21.00000 565.611
21.01000 570.747
21.02000 566.085
21.03000 558.241
21.04000 551.626
21.05000 557.431
21.06000 566.463
21.07000 574.436
21.08000 575.781
21.09000 575.974
21.10000 576.132
21.11000 568.858
21.12000 562.215
21.13000 556.866
21.14000 555.206
21.15000 553.773
21.16000 553.206
21.17000 554.349
21.18000 555.537
21.19000 556.221
21.20000 563.368
21.21000 568.394
21.22000 570.710
21.23000 570.603
21.24000 570.414
21.25000 564.753
21.26000 555.788
21.27000 547.091
21.28000 552.032
21.29000 562.113
21.30000 571.849
21.31000 577.530
21.32000 582.040
21.33000 585.459
21.34000 581.146
21.35000 575.326
21.36000 570.444
21.37000 571.078
21.38000 572.181
21.39000 572.372
21.40000 569.690
21.41000 566.796
21.42000 564.774
21.43000 564.655
21.44000 564.602
21.45000 564.570
21.46000 560.541
21.47000 557.645
21.48000 559.010
21.49000 564.652
21.50000 570.259
21.51000 572.203
21.52000 571.693
21.53000 571.194
21.54000 574.495
21.55000 579.336
21.56000 583.741
21.57000 582.125
21.58000 578.585
21.59000 575.103
21.60000 572.082
21.61000 569.161
21.62000 566.663
21.63000 579.367
21.64000 591.904
21.65000 603.537
21.66000 612.004
21.67000 620.200
21.68000 625.883
21.69000 625.504
21.70000 624.856
21.71000 624.449
21.72000 633.987
21.73000 640.997
21.74000 649.008
21.75000 658.148
21.76000 667.300
21.77000 678.824
21.78000 692.116
21.79000 705.179
21.80000 720.696
21.81000 736.905
21.82000 752.424
21.83000 756.571
21.84000 756.695
21.85000 758.169
21.86000 772.084
21.87000 789.019
21.88000 803.765
21.89000 818.841
21.90000 831.763
21.91000 842.186
21.92000 842.920
21.93000 842.686
21.94000 842.890
21.95000 844.266
21.96000 845.705
21.97000 846.647
21.98000 859.460
21.99000 869.064
22.00000 873.392
22.01000 871.066
22.02000 868.724
22.03000 868.437
22.04000 869.860
22.05000 871.265
22.06000 872.937
22.07000 874.713
22.08000 875.753
22.09000 862.048
22.10000 842.575
22.11000 824.351
22.12000 819.440
22.13000 818.120
22.14000 816.950
22.15000 812.091
22.16000 807.311
22.17000 799.522
22.18000 778.754
22.19000 756.494
22.20000 735.999
22.21000 720.719
22.22000 705.781
22.23000 695.651
22.24000 680.987
22.25000 669.952
22.26000 661.424
22.27000 656.418
22.28000 651.439
22.29000 653.173
22.30000 661.161
22.31000 669.087
22.32000 660.479
22.33000 641.847
22.34000 623.546
22.35000 613.459
22.36000 606.926
22.37000 600.753
22.38000 599.071
22.39000 598.731
22.40000 598.425
22.41000 590.669
22.42000 582.552
22.43000 576.191
22.44000 578.285
22.45000 581.489
22.46000 582.387
22.47000 575.743
22.48000 568.513
22.49000 563.442
22.50000 548.602
22.51000 537.088
22.52000 532.744
22.53000 539.590
22.54000 546.567
22.55000 551.476
22.56000 554.218
22.57000 556.947
22.58000 552.821
22.59000 544.021
22.60000 535.295
22.61000 528.888
22.62000 523.590
22.63000 518.634
22.64000 518.707
22.65000 520.445
22.66000 522.031
22.67000 532.379
22.68000 543.314
22.69000 552.301
22.70000 550.801
22.71000 547.738
22.72000 543.427
22.73000 534.586
22.74000 525.334
22.75000 518.636
22.76000 529.094
22.77000 537.753
22.78000 543.917
22.79000 545.763
22.80000 547.532
22.81000 542.814
22.82000 530.481
22.83000 518.163
22.84000 513.450
22.85000 514.623
22.86000 515.761
22.87000 515.401
22.88000 514.248
22.89000 513.557
22.90000 520.995
22.91000 531.415
22.92000 541.041
22.93000 538.164
22.94000 532.753
22.95000 526.861
22.96000 518.055
22.97000 508.761
22.98000 502.297
22.99000 507.235
23.00000 513.372
23.01000 517.947
23.02000 519.615
23.03000 520.781
23.04000 519.939
23.05000 515.246
23.06000 510.457
23.07000 514.472
23.08000 530.028
23.09000 545.623
23.10000 547.647
23.11000 537.940
23.12000 528.247
23.13000 519.320
23.14000 510.842
23.15000 502.925
23.16000 507.106
23.17000 516.191
23.18000 524.686
23.19000 526.756
23.20000 527.003
23.21000 526.723
23.22000 522.847
23.23000 518.293
23.24000 514.670
23.25000 515.229
23.26000 516.293
23.27000 517.107
23.28000 506.067
23.29000 496.696
23.30000 493.233
23.31000 502.301
23.32000 511.778
23.33000 519.927
23.34000 526.140
23.35000 532.335
23.36000 529.648
23.37000 518.338
23.38000 507.137
23.39000 505.817
23.40000 510.923
23.41000 515.896
23.42000 517.261
23.43000 517.009
23.44000 516.771
23.45000 509.218
23.46000 500.195
23.47000 492.445
23.48000 494.563
23.49000 498.763
23.50000 502.791
23.51000 505.950
23.52000 508.990
23.53000 511.379
23.54000 504.466
23.55000 498.320
23.56000 495.127
23.57000 498.863
23.58000 502.886
23.59000 506.441
23.60000 509.236
23.61000 512.021
23.62000 513.475
23.63000 504.846
23.64000 499.025
23.65000 496.144
23.66000 495.388
23.67000 494.734
23.68000 497.657
23.69000 502.353
23.70000 506.836
23.71000 502.225
23.72000 495.039
23.73000 488.888
23.74000 491.906
23.75000 497.082
23.76000 500.938
23.77000 497.383
23.78000 492.675
23.79000 488.886
23.80000 496.969
23.81000 504.450
23.82000 508.123
23.83000 501.916
23.84000 495.201
23.85000 491.510
23.86000 493.249
23.87000 495.097
23.88000 496.115
23.89000 504.032
23.90000 509.472
23.91000 506.345
23.92000 496.312
23.93000 486.486
23.94000 486.449
23.95000 491.785
23.96000 496.924
23.97000 504.578
23.98000 512.661
23.99000 519.913
24.00000 518.666
24.01000 515.194
24.02000 512.092
24.03000 511.325
24.04000 510.966
24.05000 510.671
24.06000 511.347
24.07000 511.991
24.08000 512.178
24.09000 511.053
24.10000 509.846
24.11000 506.356
24.12000 498.324
24.13000 490.168
24.14000 485.453
24.15000 492.233
24.16000 497.030
24.17000 499.032
24.18000 498.516
24.19000 498.037
24.20000 500.133
24.21000 503.796
24.22000 507.351
24.23000 506.610
24.24000 504.192
24.25000 501.776
24.26000 499.372
24.27000 496.971
24.28000 495.037
24.29000 496.438
24.30000 498.494
24.31000 500.221
24.32000 504.960
24.33000 509.226
24.34000 511.782
24.35000 508.910
24.36000 505.636
24.37000 503.373
24.38000 503.332
24.39000 503.371
24.40000 503.394
24.41000 486.844
24.42000 474.929
24.43000 473.655
24.44000 483.161
24.45000 492.605
24.46000 495.378
24.47000 493.648
24.48000 491.957
24.49000 493.205
24.50000 495.710
24.51000 497.415
24.52000 487.924
24.53000 474.828
24.54000 463.537
24.55000 466.911
24.56000 473.505
24.57000 479.152
24.58000 490.729
24.59000 501.219
24.60000 508.392
24.61000 503.890
24.62000 498.372
24.63000 492.450
24.64000 485.541
24.65000 478.589
24.66000 474.204
24.67000 491.178
24.68000 503.715
24.69000 503.501
24.70000 488.791
24.71000 474.145
24.72000 475.308
24.73000 488.349
24.74000 501.172
24.75000 502.640
24.76000 498.413
24.77000 494.183
24.78000 489.916
24.79000 485.635
24.80000 481.875
24.81000 482.971
24.82000 485.255
24.83000 487.246
24.84000 491.393
24.85000 495.238
24.86000 496.251
24.87000 486.200
24.88000 475.032
24.89000 467.854
24.90000 471.404
24.91000 475.546
24.92000 478.262
24.93000 484.758
24.94000 489.597
24.95000 490.498
24.96000 486.396
24.97000 482.281
24.98000 480.785
24.99000 481.487
25.00000 482.180
25.01000 478.478
25.02000 472.425
25.03000 466.676
25.04000 467.089
25.05000 469.931
25.06000 473.148
25.07000 480.405
25.08000 488.761
25.09000 496.168
25.10000 497.695
25.11000 498.087
25.12000 497.041
25.13000 489.746
25.14000 481.724
25.15000 475.587
25.16000 475.055
25.17000 474.894
25.18000 474.786
25.19000 482.357
25.20000 488.182
25.21000 490.015
25.22000 486.197
25.23000 482.338
25.24000 480.923
25.25000 481.803
25.26000 482.676
25.27000 484.169
25.28000 486.020
25.29000 487.872
25.30000 489.726
25.31000 491.580
25.32000 492.974
25.33000 488.580
25.34000 482.443
25.35000 476.919
25.36000 481.040
25.37000 486.381
25.38000 491.756
25.39000 497.292
25.40000 502.850
25.41000 506.194
25.42000 502.244
25.43000 497.721
25.44000 494.540
25.45000 486.799
25.46000 480.799
25.47000 474.860
25.48000 469.016
25.49000 463.173
25.50000 465.382
25.51000 476.091
25.52000 486.756
25.53000 487.256
25.54000 480.700
25.55000 474.299
25.56000 472.948
25.57000 474.028
25.58000 474.958
25.59000 473.635
25.60000 471.560
25.61000 469.667
25.62000 468.903
25.63000 468.453
25.64000 467.736
25.65000 465.561
25.66000 463.167
25.67000 463.080
25.68000 471.418
25.69000 480.530
25.70000 487.141
25.71000 485.374
25.72000 483.704
25.73000 482.506
25.74000 482.130
25.75000 481.770
25.76000 479.802
25.77000 475.932
25.78000 472.068
25.79000 470.099
25.80000 469.614
25.81000 469.154
25.82000 469.823
25.83000 471.093
25.84000 472.495
25.85000 476.254
25.86000 480.884
25.87000 485.165
25.88000 474.733
25.89000 462.007
25.90000 452.088
25.91000 459.301
25.92000 469.416
25.93000 477.646
25.94000 478.218
25.95000 477.976
25.96000 477.795
25.97000 473.314
25.98000 469.622
25.99000 464.530
26.00000 456.729
26.01000 448.861
26.02000 446.662
26.03000 451.955
26.04000 457.279
26.05000 462.471
26.06000 467.540
26.07000 472.437
26.08000 466.767
26.09000 454.859
26.10000 443.493
26.11000 444.031
26.12000 449.431
26.13000 454.484
26.14000 456.878
26.15000 458.373
26.16000 460.772
26.17000 469.399
26.18000 479.211
26.19000 486.023
26.20000 479.268
26.21000 470.859
26.22000 464.406
26.23000 470.264
26.24000 475.581
26.25000 478.782
26.26000 477.460
26.27000 475.988
26.28000 476.099
26.29000 478.539
26.30000 480.999
26.31000 476.252
26.32000 464.448
26.33000 452.744
26.34000 450.419
26.35000 454.238
26.36000 457.962
26.37000 459.060
26.38000 458.973
26.39000 458.891
26.40000 456.391
26.41000 453.398
26.42000 450.904
26.43000 452.311
26.44000 454.548
26.45000 456.980
26.46000 460.394
26.47000 463.944
26.48000 466.740
26.49000 464.342
26.50000 462.074
26.51000 459.213
26.52000 454.948
26.53000 450.625
26.54000 448.460
26.55000 449.819
26.56000 451.229
26.57000 451.967
26.58000 448.335
26.59000 445.893
26.60000 446.700
26.61000 449.875
26.62000 453.000
26.63000 454.397
26.64000 454.930
26.65000 455.439
26.66000 460.486
26.67000 466.638
26.68000 471.476
26.69000 464.564
26.70000 454.863
26.71000 446.530
26.72000 445.931
26.73000 446.547
26.74000 447.043
26.75000 454.088
26.76000 460.324
26.77000 466.388
26.78000 472.004
26.79000 477.596
26.80000 478.901
26.81000 472.451
26.82000 465.841
26.83000 462.190
26.84000 459.474
26.85000 457.606
26.86000 456.960
26.87000 457.307
26.88000 457.587
26.89000 454.626
26.90000 449.874
26.91000 445.294
26.92000 447.898
26.93000 452.930
26.94000 457.068
26.95000 451.981
26.96000 444.461
26.97000 437.457
26.98000 433.746
26.99000 430.616
27.00000 428.037
27.01000 434.664
27.02000 440.965
27.03000 446.747
27.04000 451.030
27.05000 455.219
27.06000 458.813
27.07000 461.218
27.08000 463.590
27.09000 464.965
27.10000 457.952
27.11000 452.997
27.12000 451.716
27.13000 453.775
27.14000 455.759
27.15000 452.494
27.16000 446.012
27.17000 439.717
27.18000 443.339
27.19000 450.764
27.20000 457.579
27.21000 457.066
27.22000 454.408
27.23000 452.073
27.24000 452.070
27.25000 452.529
27.26000 452.914
27.27000 448.566
27.28000 444.435
27.29000 442.714
27.30000 448.699
27.31000 455.262
27.32000 459.450
27.33000 458.377
27.34000 457.112
27.35000 456.345
27.36000 447.354
27.37000 440.877
27.38000 439.142
27.39000 442.251
27.40000 445.351
27.41000 447.539
27.42000 449.105
27.43000 450.637
27.44000 453.538
27.45000 456.935
27.46000 459.749
27.47000 454.310
27.48000 446.195
27.49000 439.606
27.50000 445.543
27.51000 454.251
27.52000 461.718
27.53000 457.402
27.54000 452.312
27.55000 448.816
27.56000 450.978
27.57000 453.637
27.58000 455.800
27.59000 456.750
27.60000 457.644
27.61000 458.209
27.62000 446.566
27.63000 437.980
27.64000 437.916
27.65000 447.615
27.66000 457.282
27.67000 457.445
27.68000 450.414
27.69000 443.498
27.70000 436.201
27.71000 428.948
27.72000 422.449
27.73000 428.743
27.74000 439.626
27.75000 449.858
27.76000 453.963
27.77000 456.557
27.78000 458.821
27.79000 455.279
27.80000 451.435
27.81000 447.693
27.82000 444.354
27.83000 441.058
27.84000 439.396
27.85000 442.163
27.86000 445.177
27.87000 447.159
27.88000 448.156
27.89000 448.873
27.90000 448.079
27.91000 445.349
27.92000 442.622
27.93000 445.619
27.94000 453.455
27.95000 461.201
27.96000 459.179
27.97000 451.739
27.98000 444.744
27.99000 446.937
28.00000 452.777
28.01000 457.888
28.02000 455.060
28.03000 450.059
28.04000 445.621
28.05000 442.292
28.06000 439.586
28.07000 438.386
28.08000 443.789
28.09000 449.967
28.10000 454.658
28.11000 454.896
28.12000 454.834
28.13000 454.792
28.14000 449.871
28.15000 446.081
28.16000 443.495
28.17000 442.628
28.18000 441.774
28.19000 444.350
28.20000 450.174
28.21000 455.956
28.22000 455.923
28.23000 452.253
28.24000 448.611
28.25000 445.670
28.26000 443.037
28.27000 440.419
28.28000 437.995
28.29000 435.629
28.30000 433.498
28.31000 436.327
28.32000 439.706
28.33000 441.454
28.34000 435.223
28.35000 427.924
28.36000 423.913
28.37000 430.810
28.38000 438.575
28.39000 444.047
28.40000 440.515
28.41000 437.567
28.42000 436.302
28.43000 437.705
28.44000 439.141
28.45000 439.877
28.46000 439.868
28.47000 439.859
28.48000 436.893
28.49000 431.888
28.50000 427.011
28.51000 426.363
28.52000 427.766
28.53000 429.296
28.54000 432.728
28.55000 436.799
28.56000 440.519
28.57000 437.435
28.58000 433.307
28.59000 429.029
28.60000 423.936
28.61000 418.720
28.62000 416.090
28.63000 422.981
28.64000 430.756
28.65000 436.409
28.66000 438.898
28.67000 440.693
28.68000 440.175
28.69000 435.592
28.70000 430.933
28.71000 430.032
28.72000 433.614
28.73000 437.197
28.74000 434.656
28.75000 427.332
28.76000 420.072
28.77000 415.702
28.78000 412.884
28.79000 410.466
28.80000 415.304
28.81000 422.841
28.82000 429.817
28.83000 428.737
28.84000 425.912
28.85000 423.350
28.86000 422.401
28.87000 421.728
28.88000 419.876
28.89000 413.199
28.90000 406.004
28.91000 400.619
28.92000 416.101
28.93000 429.155
28.94000 437.801
28.95000 437.871
28.96000 437.720
28.97000 434.279
28.98000 426.456
28.99000 418.617
29.00000 414.647
29.01000 414.082
29.02000 413.541
29.03000 414.436
29.04000 416.186
29.05000 418.034
29.06000 422.084
29.07000 427.040
29.08000 431.681
29.09000 436.457
29.10000 440.835
29.11000 444.479
29.12000 443.017
29.13000 440.575
29.14000 437.707
29.15000 432.899
29.16000 427.852
29.17000 423.971
29.18000 415.900
29.19000 409.279
29.20000 407.654
29.21000 416.782
29.22000 426.274
29.23000 432.253
29.24000 433.028
29.25000 433.754
29.26000 431.005
29.27000 424.824
29.28000 418.709
29.29000 418.989
29.30000 423.492
29.31000 427.874
29.32000 428.892
29.33000 428.379
29.34000 427.894
29.35000 423.690
29.36000 418.745
29.37000 414.866
29.38000 419.411
29.39000 425.763
29.40000 429.686
29.41000 421.251
29.42000 411.086
29.43000 403.070
29.44000 410.620
29.45000 417.726
29.46000 420.774
29.47000 414.161
29.48000 407.134
29.49000 402.494
29.50000 401.780
29.51000 401.122
29.52000 400.776
29.53000 419.335
29.54000 431.895
29.55000 438.268
29.56000 440.101
29.57000 441.805
29.58000 438.799
29.59000 433.424
29.60000 428.286
29.61000 422.587
29.62000 417.104
29.63000 413.236
29.64000 423.979
29.65000 438.214
29.66000 449.056
29.67000 440.536
29.68000 428.950
29.69000 419.594
29.70000 412.596
29.71000 407.094
29.72000 406.677
29.73000 419.635
29.74000 433.301
29.75000 440.797
29.76000 437.049
29.77000 433.064
29.78000 430.854
29.79000 431.536
29.80000 432.015
29.81000 433.399
29.82000 435.523
29.83000 437.747
29.84000 444.905
29.85000 454.812
29.86000 464.364
29.87000 464.088
29.88000 460.265
29.89000 456.934
29.90000 458.747
29.91000 461.926
29.92000 464.141
29.93000 460.160
29.94000 455.074
29.95000 450.877
29.96000 460.229
29.97000 469.193
29.98000 473.654
29.99000 465.010
30.00000 455.529
30.01000 451.694
30.02000 459.246
30.03000 467.122
30.04000 471.706
30.05000 464.842
30.06000 459.970
30.07000 458.555
30.08000 460.307
30.09000 462.043
30.10000 462.639
30.11000 462.529
30.12000 462.423
30.13000 459.203
30.14000 454.881
30.15000 450.937
30.16000 451.578
30.17000 453.571
30.18000 455.111
30.19000 453.361
30.20000 450.953
30.21000 448.925
30.22000 439.796
30.23000 431.414
30.24000 426.812
30.25000 434.393
30.26000 442.900
30.27000 448.052
30.28000 445.725
30.29000 443.120
30.30000 441.535
30.31000 437.614
30.32000 434.795
30.33000 438.851
30.34000 449.987
30.35000 461.030
30.36000 461.037
30.37000 453.480
30.38000 446.087
30.39000 439.902
30.40000 434.513
30.41000 429.630
30.42000 432.001
30.43000 436.742
30.44000 441.250
30.45000 443.839
30.46000 446.000
30.47000 447.855
30.48000 441.711
30.49000 435.526
30.50000 431.799
30.51000 436.851
30.52000 442.684
30.53000 445.320
30.54000 440.070
30.55000 434.455
30.56000 430.893
30.57000 431.272
30.58000 431.595
30.59000 432.559
30.60000 434.262
30.61000 435.966
30.62000 437.602
30.63000 439.187
30.64000 440.745
30.65000 441.802
30.66000 442.571
30.67000 443.527
30.68000 447.693
30.69000 453.018
30.70000 457.548
30.71000 454.518
30.72000 449.612
30.73000 445.324
30.74000 453.991
30.75000 463.246
30.76000 471.251
30.77000 474.298
30.78000 476.833
30.79000 479.631
30.80000 483.146
30.81000 486.701
30.82000 489.044
30.83000 494.410
30.84000 498.418
30.85000 500.750
30.86000 500.920
30.87000 501.087
30.88000 504.126
30.89000 509.614
30.90000 515.041
30.91000 525.270
30.92000 537.969
30.93000 550.699
30.94000 564.063
30.95000 577.682
30.96000 591.850
30.97000 612.063
30.98000 633.944
30.99000 653.382
31.00000 679.382
31.01000 702.988
31.02000 727.804
31.03000 757.968
31.04000 788.765
31.05000 827.317
31.06000 889.276
31.07000 952.827
31.08000 996.246
31.09000 1112.514
31.10000 1201.209
31.11000 1296.194
31.12000 1400.217
31.13000 1504.315
31.14000 1633.009
31.15000 1785.192
31.16000 1936.290
31.17000 2099.935
31.18000 2268.870
31.19000 2438.417
31.20000 2623.988
31.21000 2816.640
31.22000 3008.802
31.23000 3194.664
31.24000 3378.599
31.25000 3544.494
31.26000 3733.079
31.27000 3902.813
31.28000 4068.311
31.29000 4212.926
31.30000 4354.722
31.31000 4479.514
31.32000 4547.468
31.33000 4610.850
31.34000 4655.620
31.35000 4696.784
31.36000 4727.924
31.37000 4720.785
31.38000 4652.536
31.39000 4583.494
31.40000 4518.216
31.41000 4456.980
31.42000 4395.993
31.43000 4274.375
31.44000 4111.184
31.45000 3947.441
31.46000 3765.080
31.47000 3573.618
31.48000 3383.200
31.49000 3208.705
31.50000 3039.602
31.51000 2884.942
31.52000 2697.660
31.53000 2524.467
31.54000 2355.053
31.55000 2206.510
31.56000 2061.159
31.57000 1918.699
31.58000 1786.960
31.59000 1656.228
31.60000 1560.977
31.61000 1449.956
31.62000 1363.851
31.63000 1281.892
31.64000 1207.270
31.65000 1132.789
31.66000 1065.680
31.67000 1007.435
31.68000 949.313
31.69000 898.003
31.70000 852.311
31.71000 806.864
31.72000 772.516
31.73000 744.172
31.74000 715.714
31.75000 685.168
31.76000 653.840
31.77000 624.818
31.78000 617.038
31.79000 614.968
31.80000 611.310
31.81000 597.795
31.82000 582.581
31.83000 568.241
31.84000 557.502
31.85000 547.154
31.86000 539.394
31.87000 525.831
31.88000 514.964
31.89000 504.376
31.90000 494.337
31.91000 484.312
31.92000 479.003
31.93000 480.021
31.94000 481.071
31.95000 479.569
31.96000 475.809
31.97000 471.997
31.98000 464.882
31.99000 455.787
32.00000 447.107
32.01000 447.804
32.02000 452.386
32.03000 456.680
32.04000 447.992
32.05000 436.699
32.06000 426.283
32.07000 422.016
32.08000 418.938
32.09000 416.513
32.10000 417.087
32.11000 418.032
32.12000 418.761
32.13000 411.736
32.14000 405.729
32.15000 401.934
32.16000 402.937
32.17000 404.104
32.18000 404.449
32.19000 403.567
32.20000 402.672
32.21000 402.977
32.22000 404.475
32.23000 405.951
32.24000 405.170
32.25000 402.888
32.26000 400.727
32.27000 402.016
32.28000 404.886
32.29000 407.605
32.30000 409.743
32.31000 411.541
32.32000 413.708
32.33000 418.813
32.34000 424.553
32.35000 428.730
32.36000 424.891
32.37000 419.919
32.38000 415.991
32.39000 412.942
32.40000 410.554
32.41000 408.650
32.42000 407.906
32.43000 407.212
32.44000 406.718
32.45000 406.553
32.46000 406.393
32.47000 406.309
32.48000 403.074
32.49000 400.891
32.50000 401.737
32.51000 404.822
32.52000 407.956
32.53000 412.863
32.54000 418.670
32.55000 424.225
32.56000 422.450
32.57000 418.402
32.58000 414.099
32.59000 407.469
32.60000 400.278
32.61000 394.329
32.62000 395.533
32.63000 397.879
32.64000 399.776
32.65000 398.935
32.66000 398.030
32.67000 399.623
32.68000 407.838
32.69000 416.408
32.70000 421.680
32.71000 420.898
32.72000 419.986
32.73000 419.479
32.74000 402.865
32.75000 391.363
32.76000 388.601
32.77000 393.052
32.78000 397.539
32.79000 403.838
32.80000 411.153
32.81000 418.210
32.82000 421.988
32.83000 424.346
32.84000 426.791
32.85000 430.160
32.86000 433.776
32.87000 438.124
32.88000 447.222
32.89000 457.173
32.90000 465.400
32.91000 459.815
32.92000 453.912
32.93000 449.891
32.94000 451.386
32.95000 453.238
32.96000 454.141
32.97000 453.117
32.98000 452.037
32.99000 451.406
33.00000 454.778
33.01000 457.168
33.02000 457.115
33.03000 454.806
33.04000 452.386
33.05000 441.676
33.06000 425.811
33.07000 410.386
33.08000 406.566
33.09000 407.671
33.10000 408.636
33.11000 407.869
33.12000 406.588
33.13000 404.924
33.14000 400.450
33.15000 395.411
33.16000 391.160
33.17000 379.628
33.18000 369.202
33.19000 362.848
33.20000 369.712
33.21000 377.590
33.22000 382.237
33.23000 379.624
33.24000 376.739
33.25000 374.977
33.26000 370.869
33.27000 367.912
33.28000 363.875
33.29000 358.716
33.30000 353.569
33.31000 349.935
33.32000 347.345
33.33000 344.810
33.34000 347.315
33.35000 352.018
33.36000 356.372
33.37000 355.660
33.38000 353.282
33.39000 351.717
33.40000 356.962
33.41000 363.737
33.42000 369.563
33.43000 368.969
33.44000 367.663
33.45000 364.712
33.46000 355.835
33.47000 346.424
33.48000 341.462
33.49000 347.552
33.50000 354.163
33.51000 358.368
33.52000 356.624
33.53000 355.283
33.54000 355.844
33.55000 358.619
33.56000 361.386
33.57000 361.314
33.58000 359.059
33.59000 356.838
33.60000 361.571
33.61000 369.698
33.62000 377.150
33.63000 372.852
33.64000 364.277
33.65000 356.400
33.66000 355.218
33.67000 355.710
33.68000 356.141
33.69000 353.312
33.70000 350.422
33.71000 348.900
33.72000 352.853
33.73000 357.376
33.74000 359.491
33.75000 354.990
33.76000 350.109
33.77000 346.883
33.78000 346.560
33.79000 346.373
33.80000 343.281
33.81000 336.410
33.82000 329.536
33.83000 331.816
33.84000 341.959
33.85000 351.992
33.86000 354.389
33.87000 352.388
33.88000 350.436
33.89000 349.527
33.90000 349.037
33.91000 348.201
33.92000 343.511
33.93000 337.750
33.94000 332.626
33.95000 338.889
33.96000 346.177
33.97000 352.397
33.98000 353.870
33.99000 354.776
34.00000 353.651
34.01000 346.356
34.02000 338.635
34.03000 333.347
34.04000 337.534
34.05000 340.897
34.06000 342.535
34.07000 341.677
34.08000 340.797
34.09000 336.900
34.10000 330.096
34.11000 323.338
34.12000 323.688
34.13000 328.548
34.14000 333.459
34.15000 339.748
34.16000 346.650
34.17000 353.056
34.18000 352.997
34.19000 350.946
34.20000 349.094
34.21000 346.702
34.22000 344.502
34.23000 343.038
34.24000 345.239
34.25000 347.938
34.26000 349.863
34.27000 349.176
34.28000 348.277
34.29000 347.641
34.30000 345.102
34.31000 343.114
34.32000 338.882
34.33000 331.041
34.34000 323.152
34.35000 322.298
34.36000 329.058
34.37000 335.796
34.38000 338.628
34.39000 338.659
34.40000 338.652
34.41000 337.335
34.42000 335.375
34.43000 333.319
34.44000 329.805
34.45000 325.793
34.46000 322.120
34.47000 327.128
34.48000 333.388
34.49000 339.480
34.50000 344.637
34.51000 349.649
34.52000 352.538
34.53000 347.490
34.54000 341.689
34.55000 337.454
34.56000 337.094
34.57000 336.968
34.58000 334.678
34.59000 328.529
34.60000 322.305
34.61000 318.884
34.62000 318.859
34.63000 318.841
34.64000 323.133
34.65000 330.835
34.66000 338.350
34.67000 337.128
34.68000 331.146
34.69000 325.503
34.70000 326.159
34.71000 329.193
34.72000 332.005
34.73000 334.384
34.74000 336.424
34.75000 337.237
34.76000 330.370
34.77000 322.168
34.78000 316.797
34.79000 323.188
34.80000 330.867
34.81000 336.638
34.82000 333.827
34.83000 331.217
34.84000 330.528
34.85000 333.629
34.86000 336.832
34.87000 337.824
34.88000 335.826
34.89000 333.813
34.90000 333.389
34.91000 334.384
34.92000 335.338
34.93000 333.544
34.94000 330.090
34.95000 326.859
34.96000 328.746
34.97000 332.768
34.98000 336.541
34.99000 334.136
35.00000 330.323
35.01000 326.857
35.02000 325.854
35.03000 325.331
35.04000 325.642
35.05000 329.806
35.06000 334.454
35.07000 338.042
35.08000 335.650
35.09000 333.408
35.10000 331.004
35.11000 328.247
35.12000 325.479
35.13000 322.724
35.14000 319.990
35.15000 317.256
35.16000 315.886
35.17000 318.681
35.18000 320.536
35.19000 321.376
35.20000 321.534
35.21000 321.573
35.22000 318.134
35.23000 313.090
35.24000 308.308
35.25000 311.507
35.26000 316.806
35.27000 321.355
35.28000 319.871
35.29000 317.072
35.30000 314.282
35.31000 311.533
35.32000 308.790
35.33000 306.619
35.34000 319.346
35.35000 330.603
35.36000 336.721
35.37000 330.434
35.38000 323.598
35.39000 318.952
35.40000 317.961
35.41000 317.027
35.42000 316.531
35.43000 312.280
35.44000 309.397
35.45000 308.327
35.46000 308.608
35.47000 308.859
35.48000 307.945
35.49000 306.437
35.50000 304.993
35.51000 308.709
35.52000 313.873
35.53000 319.005
35.54000 323.844
35.55000 328.612
35.56000 332.377
35.57000 330.328
35.58000 327.341
35.59000 324.922
35.60000 317.094
35.61000 310.278
35.62000 305.829
35.63000 307.699
35.64000 309.912
35.65000 310.546
35.66000 308.260
35.67000 305.910
35.68000 304.597
35.69000 304.312
35.70000 304.128
35.71000 309.369
35.72000 319.123
35.73000 328.725
35.74000 330.460
35.75000 327.748
35.76000 325.129
35.77000 319.984
35.78000 314.206
35.79000 309.368
35.80000 314.544
35.81000 322.422
35.82000 328.178
35.83000 320.053
35.84000 309.412
35.85000 300.603
35.86000 308.038
35.87000 315.716
35.88000 319.672
35.89000 312.634
35.90000 304.875
35.91000 301.317
35.92000 306.353
35.93000 311.644
35.94000 314.744
35.95000 309.218
35.96000 305.285
35.97000 306.691
35.98000 313.071
35.99000 319.347
36.00000 317.671
36.01000 311.012
36.02000 304.535
36.03000 303.573
36.04000 304.927
36.05000 306.515
36.06000 311.006
36.07000 316.366
36.08000 321.346
36.09000 323.517
36.10000 325.118
36.11000 326.471
36.12000 318.867
36.13000 311.524
36.14000 306.646
36.15000 309.831
36.16000 313.641
36.17000 316.002
36.18000 315.081
36.19000 314.034
36.20000 313.393
36.21000 315.490
36.22000 317.015
36.23000 315.194
36.24000 309.869
36.25000 304.586
36.26000 304.658
36.27000 308.457
36.28000 312.176
36.29000 317.211
36.30000 322.654
36.31000 327.648
36.32000 326.053
36.33000 322.274
36.34000 318.911
36.35000 319.064
36.36000 320.013
36.37000 320.830
36.38000 314.584
36.39000 308.400
36.40000 303.552
36.41000 303.543
36.42000 303.974
36.43000 305.980
36.44000 311.926
36.45000 318.060
36.46000 321.973
36.47000 313.318
36.48000 306.860
36.49000 306.050
36.50000 311.869
36.51000 317.673
36.52000 316.837
36.53000 310.854
36.54000 304.963
36.55000 301.082
36.56000 298.351
36.57000 295.927
36.58000 298.924
36.59000 303.909
36.60000 307.803
36.61000 301.110
36.62000 291.747
36.63000 283.545
36.64000 293.892
36.65000 305.444
36.66000 315.375
36.67000 318.773
36.68000 321.485
36.69000 322.219
36.70000 317.482
36.71000 312.426
36.72000 309.076
36.73000 319.308
36.74000 327.112
36.75000 328.457
36.76000 321.335
36.77000 314.175
36.78000 306.794
36.79000 299.222
36.80000 291.730
36.81000 294.350
36.82000 302.707
36.83000 310.848
36.84000 314.326
36.85000 315.914
36.86000 317.540
36.87000 319.603
36.88000 321.788
36.89000 323.734
36.90000 320.783
36.91000 317.416
36.92000 314.654
36.93000 314.603
36.94000 314.880
36.95000 315.415
36.96000 316.738
36.97000 318.117
36.98000 319.063
36.99000 321.660
37.00000 323.648
37.01000 322.642
37.02000 317.268
37.03000 311.858
37.04000 311.529
37.05000 316.137
37.06000 320.713
37.07000 320.232
37.08000 316.517
37.09000 312.856
37.10000 310.665
37.11000 309.134
37.12000 307.737
37.13000 308.117
37.14000 309.047
37.15000 309.888
37.16000 307.799
37.17000 305.416
37.18000 303.292
37.19000 302.457
37.20000 301.801
37.21000 301.610
37.22000 302.997
37.23000 304.515
37.24000 305.592
37.25000 305.242
37.26000 304.930
37.27000 303.323
37.28000 299.615
37.29000 295.878
37.30000 297.097
37.31000 303.724
37.32000 310.329
37.33000 309.835
37.34000 304.258
37.35000 298.645
37.36000 291.777
37.37000 284.288
37.38000 277.819
37.39000 287.329
37.40000 302.331
37.41000 316.078
37.42000 313.161
37.43000 307.070
37.44000 301.686
37.45000 300.270
37.46000 299.471
37.47000 300.026
37.48000 305.678
37.49000 311.818
37.50000 316.312
37.51000 309.860
37.52000 304.447
37.53000 301.139
37.54000 301.612
37.55000 302.161
37.56000 300.566
37.57000 296.352
37.58000 292.139
37.59000 293.017
37.60000 297.978
37.61000 302.871
37.62000 304.523
37.63000 304.398
37.64000 304.251
37.65000 303.706
37.66000 303.011
37.67000 302.366
37.68000 309.375
37.69000 317.496
37.70000 323.481
37.71000 315.968
37.72000 306.090
37.73000 298.435
37.74000 300.085
37.75000 302.764
37.76000 304.781
37.77000 309.553
37.78000 313.422
37.79000 314.257
37.80000 309.061
37.81000 303.701
37.82000 303.048
37.83000 308.812
37.84000 314.610
37.85000 313.883
37.86000 307.278
37.87000 300.765
37.88000 300.470
37.89000 303.958
37.90000 307.390
37.91000 309.535
37.92000 311.137
37.93000 312.642
37.94000 312.028
37.95000 310.907
37.96000 310.675
37.97000 316.795
37.98000 324.164
37.99000 328.834
38.00000 320.921
38.01000 311.416
38.02000 304.065
38.03000 309.810
38.04000 315.139
38.05000 321.032
38.06000 328.165
38.07000 335.343
38.08000 337.952
38.09000 333.641
38.10000 329.258
38.11000 327.052
38.12000 328.044
38.13000 328.682
38.14000 326.650
38.15000 322.816
38.16000 319.221
38.17000 322.710
38.18000 329.492
38.19000 335.925
38.20000 332.771
38.21000 327.015
38.22000 323.595
38.23000 339.165
38.24000 358.904
38.25000 375.278
38.26000 374.104
38.27000 370.406
38.28000 367.474
38.29000 370.556
38.30000 373.455
38.31000 377.143
38.32000 382.749
38.33000 388.441
38.34000 395.837
38.35000 406.099
38.36000 416.407
38.37000 421.893
38.38000 428.237
38.39000 432.584
38.40000 442.544
38.41000 456.721
38.42000 470.814
38.43000 481.658
38.44000 490.831
38.45000 499.616
38.46000 513.182
38.47000 527.421
38.48000 541.447
38.49000 553.476
38.50000 565.018
38.51000 576.463
38.52000 587.345
38.53000 598.135
38.54000 606.890
38.55000 622.292
38.56000 635.396
38.57000 650.339
38.58000 670.230
38.59000 690.393
38.60000 699.303
38.61000 687.250
38.62000 674.724
38.63000 667.703
38.64000 675.877
38.65000 681.577
38.66000 686.119
38.67000 689.690
38.68000 693.072
38.69000 686.352
38.70000 673.881
38.71000 661.835
38.72000 647.663
38.73000 633.514
38.74000 619.560
38.75000 607.711
38.76000 596.434
38.77000 585.273
38.78000 574.883
38.79000 564.633
38.80000 556.134
38.81000 544.434
38.82000 534.462
38.83000 523.463
38.84000 509.409
38.85000 495.152
38.86000 483.075
38.87000 475.492
38.88000 468.046
38.89000 463.669
38.90000 446.184
38.91000 433.789
38.92000 422.049
38.93000 410.924
38.94000 399.866
38.95000 394.219
38.96000 391.987
38.97000 389.815
38.98000 383.840
38.99000 376.573
39.00000 369.686
39.01000 367.582
39.02000 366.920
39.03000 365.159
39.04000 355.184
39.05000 343.529
39.06000 333.668
39.07000 331.963
39.08000 331.441
39.09000 329.593
39.10000 323.378
39.11000 316.819
39.12000 310.473
39.13000 304.614
39.14000 298.774
39.15000 295.186
39.16000 306.838
39.17000 315.323
39.18000 319.593
39.19000 319.414
39.20000 319.192
39.21000 313.571
39.22000 304.163
39.23000 294.947
39.24000 294.239
39.25000 297.498
39.26000 300.227
39.27000 295.048
39.28000 287.229
39.29000 280.147
39.30000 279.346
39.31000 279.978
39.32000 280.522
39.33000 287.563
39.34000 294.360
39.35000 298.810
39.36000 294.684
39.37000 289.771
39.38000 287.870
39.39000 293.560
39.40000 299.619
39.41000 303.495
39.42000 291.724
39.43000 282.945
39.44000 277.286
39.45000 275.319
39.46000 273.371
39.47000 274.812
39.48000 278.900
39.49000 282.928
39.50000 285.786
39.51000 287.954
39.52000 289.843
39.53000 286.740
39.54000 281.793
39.55000 277.475
39.56000 279.333
39.57000 282.759
39.58000 285.765
39.59000 282.106
39.60000 277.994
39.61000 275.741
39.62000 281.037
39.63000 287.135
39.64000 291.879
39.65000 292.846
39.66000 293.591
39.67000 294.086
39.68000 281.986
39.69000 272.804
39.70000 268.934
39.71000 272.080
39.72000 275.256
39.73000 276.174
39.74000 275.121
39.75000 274.078
39.76000 274.561
39.77000 275.915
39.78000 277.402
39.79000 281.785
39.80000 287.351
39.81000 292.429
39.82000 291.959
39.83000 289.924
39.84000 288.110
39.85000 282.651
39.86000 277.301
39.87000 273.107
39.88000 274.136
39.89000 275.801
39.90000 276.805
39.91000 275.764
39.92000 274.579
39.93000 273.764
39.94000 275.098
39.95000 276.152
39.96000 276.273
39.97000 275.022
39.98000 273.759
39.99000 271.663
40.00000 268.752
40.01000 265.860
40.02000 267.615
40.03000 272.346
40.04000 276.897
40.05000 276.509
40.06000 273.891
40.07000 271.190
40.08000 267.376
40.09000 263.214
40.10000 259.449
40.11000 261.701
40.12000 264.811
40.13000 267.620
40.14000 268.907
40.15000 269.983
40.16000 269.779
40.17000 265.200
40.18000 260.257
40.19000 256.742
40.20000 265.376
40.21000 272.341
40.22000 276.827
40.23000 277.266
40.24000 277.647
40.25000 277.430
40.26000 276.556
40.27000 275.684
40.28000 277.366
40.29000 280.879
40.30000 284.275
40.31000 283.480
40.32000 280.593
40.33000 277.611
40.34000 273.129
40.35000 268.128
40.36000 263.542
40.37000 261.974
40.38000 261.215
40.39000 261.095
40.40000 264.591
40.41000 268.655
40.42000 271.641
40.43000 270.541
40.44000 269.044
40.45000 267.947
40.46000 281.231
40.47000 292.071
40.48000 293.713
40.49000 278.711
40.50000 263.367
40.51000 257.135
40.52000 262.125
40.53000 267.138
40.54000 273.483
40.55000 280.884
40.56000 288.099
40.57000 286.292
40.58000 279.496
40.59000 273.025
40.60000 272.794
40.61000 274.952
40.62000 276.956
40.63000 268.841
40.64000 259.116
40.65000 250.951
40.66000 252.728
40.67000 256.263
40.68000 259.306
40.69000 260.275
40.70000 261.012
40.71000 261.568
40.72000 264.456
40.73000 266.833
40.74000 268.370
40.75000 268.223
40.76000 268.029
40.77000 264.823
40.78000 257.481
40.79000 250.115
40.80000 248.630
40.81000 252.486
40.82000 256.305
40.83000 257.543
40.84000 257.200
40.85000 256.889
40.86000 257.364
40.87000 258.170
40.88000 258.927
40.89000 261.278
40.90000 263.848
40.91000 266.363
40.92000 268.479
40.93000 270.517
40.94000 271.424
40.95000 267.014
40.96000 261.925
40.97000 257.982
40.98000 262.965
40.99000 267.454
41.00000 268.843
41.01000 263.363
41.02000 257.634
41.03000 255.514
41.04000 258.903
41.05000 262.351
41.06000 264.094
41.07000 258.146
41.08000 254.192
41.09000 252.984
41.10000 253.645
41.11000 254.400
41.12000 258.003
41.13000 262.940
41.14000 267.626
41.15000 269.356
41.16000 270.067
41.17000 271.058
41.18000 274.348
41.19000 278.148
41.20000 280.037
41.21000 271.888
41.22000 262.281
41.23000 254.652
41.24000 252.390
41.25000 250.950
41.26000 250.505
41.27000 252.500
41.28000 254.606
41.29000 254.427
41.30000 250.377
41.31000 246.264
41.32000 244.066
41.33000 249.946
41.34000 253.955
41.35000 256.530
41.36000 258.020
41.37000 259.423
41.38000 257.352
41.39000 253.481
41.40000 249.772
41.41000 245.854
41.42000 242.126
41.43000 239.345
41.44000 245.467
41.45000 253.783
41.46000 261.194
41.47000 263.266
41.48000 264.463
41.49000 265.436
41.50000 257.802
41.51000 250.856
41.52000 245.981
41.53000 246.716
41.54000 247.764
41.55000 248.364
41.56000 248.124
41.57000 247.864
41.58000 247.718
41.59000 240.925
41.60000 236.202
41.61000 237.350
41.62000 243.458
41.63000 249.467
41.64000 249.957
41.65000 247.282
41.66000 244.697
41.67000 243.769
41.68000 243.514
41.69000 243.099
41.70000 240.937
41.71000 238.297
41.72000 236.329
41.73000 238.837
41.74000 242.169
41.75000 244.936
41.76000 248.373
41.77000 251.280
41.78000 253.078
41.79000 251.556
41.80000 249.810
41.81000 248.286
41.82000 247.222
41.83000 246.172
41.84000 245.553
41.85000 246.748
41.86000 247.601
41.87000 245.263
41.88000 239.904
41.89000 234.646
41.90000 237.659
41.91000 245.934
41.92000 253.991
41.93000 255.122
41.94000 253.305
41.95000 251.436
41.96000 248.903
41.97000 246.170
41.98000 243.889
41.99000 245.029
42.00000 246.873
42.01000 248.435
42.02000 246.106
42.03000 243.718
42.04000 241.622
42.05000 240.492
42.06000 239.440
42.07000 237.807
42.08000 234.840
42.09000 231.820
42.10000 229.959
42.11000 238.398
42.12000 244.547
42.13000 248.693
42.14000 250.706
42.15000 252.698
42.16000 251.640
42.17000 248.429
42.18000 245.282
42.19000 244.032
42.20000 243.717
42.21000 243.677
42.22000 247.789
42.23000 253.297
42.24000 258.184
42.25000 257.727
42.26000 256.041
42.27000 254.585
42.28000 249.051
42.29000 243.830
42.30000 239.005
42.31000 235.635
42.32000 232.401
42.33000 231.805
42.34000 237.905
42.35000 244.335
42.36000 248.460
42.37000 243.882
42.38000 240.426
42.39000 236.137
42.40000 230.854
42.41000 225.589
42.42000 226.051
42.43000 231.022
42.44000 235.922
42.45000 235.877
42.46000 233.256
42.47000 230.708
42.48000 229.491
42.49000 228.768
42.50000 228.207
42.51000 229.242
42.52000 230.685
42.53000 231.953
42.54000 232.998
42.55000 233.863
42.56000 234.600
42.57000 234.814
42.58000 234.971
42.59000 237.104
42.60000 244.786
42.61000 252.799
42.62000 258.138
42.63000 243.986
42.64000 233.139
42.65000 229.122
42.66000 234.197
42.67000 239.316
42.68000 242.459
42.69000 243.863
42.70000 245.253
42.71000 244.175
42.72000 241.683
42.73000 239.305
42.74000 239.469
42.75000 240.679
42.76000 242.152
42.77000 246.654
42.78000 252.017
42.79000 256.802
42.80000 250.805
42.81000 243.785
42.82000 238.025
42.83000 238.008
42.84000 238.698
42.85000 240.087
42.86000 243.653
42.87000 247.374
42.88000 249.941
42.89000 243.982
42.90000 239.288
42.91000 234.278
42.92000 228.801
42.93000 223.320
42.94000 225.262
42.95000 234.535
42.96000 243.750
42.97000 248.184
42.98000 249.443
42.99000 250.609
43.00000 249.167
43.01000 246.538
43.02000 243.898
43.03000 241.122
43.04000 238.303
43.05000 235.749
43.06000 237.229
43.07000 239.296
43.08000 241.037
43.09000 241.122
43.10000 240.974
43.11000 241.445
43.12000 244.043
43.13000 246.820
43.14000 248.800
43.15000 242.393
43.16000 237.236
43.17000 234.703
43.18000 236.488
43.19000 238.336
43.20000 240.341
43.21000 242.520
43.22000 244.691
43.23000 242.229
43.24000 236.412
43.25000 230.680
43.26000 228.033
43.27000 226.939
43.28000 226.090
43.29000 229.179
43.30000 233.641
43.31000 237.738
43.32000 236.699
43.33000 234.679
43.34000 233.566
43.35000 237.633
43.36000 242.521
43.37000 245.769
43.38000 242.750
43.39000 239.117
43.40000 236.448
43.41000 239.964
43.42000 242.935
43.43000 244.487
43.44000 243.450
43.45000 242.358
43.46000 239.621
43.47000 234.842
43.48000 230.063
43.49000 225.776
43.50000 221.905
43.51000 218.182
43.52000 221.820
43.53000 229.557
43.54000 237.017
43.55000 239.089
43.56000 239.082
43.57000 239.075
43.58000 238.420
43.59000 237.673
43.60000 237.117
43.61000 237.790
43.62000 238.682
43.63000 238.983
43.64000 236.772
43.65000 234.278
43.66000 232.393
43.67000 231.891
43.68000 231.567
43.69000 234.301
43.70000 243.202
43.71000 252.280
43.72000 254.085
43.73000 245.827
43.74000 237.507
43.75000 234.238
43.76000 235.599
43.77000 236.918
43.78000 235.273
43.79000 231.797
43.80000 228.619
43.81000 232.641
43.82000 239.732
43.83000 246.400
43.84000 241.060
43.85000 232.950
43.86000 225.951
43.87000 227.042
43.88000 229.748
43.89000 231.717
43.90000 230.196
43.91000 228.225
43.92000 226.695
43.93000 230.663
43.94000 234.149
43.95000 237.187
43.96000 239.225
43.97000 241.227
43.98000 239.865
43.99000 233.333
44.00000 226.743
44.01000 223.399
44.02000 227.988
44.03000 231.058
44.04000 233.628
44.05000 235.855
44.06000 238.167
44.07000 243.095
44.08000 249.256
44.09000 255.109
44.10000 249.576
44.11000 241.029
44.12000 233.544
44.13000 234.864
44.14000 238.148
44.15000 241.801
44.16000 247.412
44.17000 253.310
44.18000 258.002
44.19000 256.017
44.20000 253.939
44.21000 250.683
44.22000 244.522
44.23000 238.227
44.24000 235.739
44.25000 239.746
44.26000 243.862
44.27000 246.070
44.28000 253.171
44.29000 257.989
44.30000 255.318
44.31000 246.931
44.32000 238.749
44.33000 238.931
44.34000 243.475
44.35000 247.832
44.36000 255.246
44.37000 263.203
44.38000 270.162
44.39000 267.638
44.40000 262.759
44.41000 258.587
44.42000 258.617
44.43000 259.342
44.44000 259.932
44.45000 258.205
44.46000 256.600
44.47000 257.383
44.48000 264.678
44.49000 272.343
44.50000 278.926
44.51000 283.463
44.52000 287.952
44.53000 290.485
44.54000 286.607
44.55000 283.899
44.56000 284.889
44.57000 289.028
44.58000 293.187
44.59000 298.473
44.60000 304.411
44.61000 310.154
44.62000 317.145
44.63000 324.216
44.64000 331.250
44.65000 337.862
44.66000 344.358
44.67000 351.063
44.68000 359.164
44.69000 367.525
44.70000 374.478
44.71000 383.755
44.72000 391.661
44.73000 398.633
44.74000 402.788
44.75000 406.750
44.76000 413.358
44.77000 425.497
44.78000 437.809
44.79000 445.094
44.80000 456.565
44.81000 464.695
44.82000 465.986
44.83000 460.744
44.84000 455.694
44.85000 466.955
44.86000 488.667
44.87000 509.818
44.88000 512.553
44.89000 507.399
44.90000 502.548
44.91000 501.592
44.92000 501.828
44.93000 502.401
44.94000 505.539
44.95000 509.211
44.96000 512.326
44.97000 516.653
44.98000 520.418
44.99000 521.389
45.00000 513.015
45.01000 503.889
45.02000 498.667
45.03000 502.471
45.04000 506.638
45.05000 509.213
45.06000 489.582
45.07000 475.272
45.08000 464.304
45.09000 456.924
45.10000 449.612
45.11000 451.919
45.12000 461.075
45.13000 470.053
45.14000 460.730
45.15000 443.141
45.16000 426.433
45.17000 423.170
45.18000 424.461
45.19000 424.403
45.20000 412.615
45.21000 398.108
45.22000 385.571
45.23000 377.881
45.24000 371.979
45.25000 365.486
45.26000 356.804
45.27000 347.917
45.28000 341.874
45.29000 343.108
45.30000 344.705
45.31000 345.732
45.32000 339.023
45.33000 334.019
45.34000 328.993
45.35000 323.940
45.36000 318.884
45.37000 312.883
45.38000 306.132
45.39000 299.476
45.40000 298.511
45.41000 300.565
45.42000 302.430
45.43000 300.812
45.44000 297.889
45.45000 294.827
45.46000 290.374
45.47000 285.563
45.48000 281.332
45.49000 283.448
45.50000 286.210
45.51000 287.671
45.52000 283.768
45.53000 279.284
45.54000 277.304
45.55000 282.411
45.56000 287.946
45.57000 291.644
45.58000 281.577
45.59000 273.849
45.60000 266.690
45.61000 260.294
45.62000 253.902
45.63000 247.579
45.64000 241.316
45.65000 235.113
45.66000 237.571
45.67000 245.061
45.68000 252.102
45.69000 248.963
45.70000 241.607
45.71000 235.216
45.72000 240.045
45.73000 248.087
45.74000 255.270
45.75000 252.995
45.76000 249.419
45.77000 246.472
45.78000 246.416
45.79000 246.719
45.80000 246.900
45.81000 246.699
45.82000 246.470
45.83000 246.312
45.84000 249.526
45.85000 252.031
45.86000 252.357
45.87000 249.429
45.88000 246.471
45.89000 242.571
45.90000 237.732
45.91000 232.921
45.92000 228.857
45.93000 225.336
45.94000 221.931
45.95000 221.811
45.96000 223.196
45.97000 224.362
45.98000 222.536
45.99000 219.761
46.00000 217.245
46.01000 214.110
46.02000 211.227
46.03000 209.363
46.04000 212.724
46.05000 216.824
46.06000 219.365
46.07000 216.496
46.08000 213.167
46.09000 210.789
46.10000 215.859
46.11000 219.975
46.12000 221.893
46.13000 220.168
46.14000 218.388
46.15000 217.560
46.16000 217.799
46.17000 218.038
46.18000 216.828
46.19000 214.564
46.20000 212.345
46.21000 211.777
46.22000 212.047
46.23000 212.553
46.24000 216.920
46.25000 222.643
46.26000 227.901
46.27000 224.238
46.28000 219.050
46.29000 215.218
46.30000 219.198
46.31000 224.425
46.32000 227.591
46.33000 222.819
46.34000 217.262
46.35000 213.170
46.36000 208.539
46.37000 204.933
46.38000 202.414
46.39000 201.890
46.40000 201.410
46.41000 202.358
46.42000 205.092
46.43000 207.828
46.44000 213.791
46.45000 222.391
46.46000 230.782
46.47000 228.518
46.48000 220.277
46.49000 212.437
46.50000 212.531
46.51000 215.706
46.52000 218.661
46.53000 217.075
46.54000 214.544
46.55000 212.398
46.56000 212.746
46.57000 213.543
46.58000 213.870
46.59000 212.182
46.60000 210.265
46.61000 208.813
46.62000 209.695
46.63000 210.506
46.64000 211.351
46.65000 212.265
46.66000 213.182
46.67000 212.863
46.68000 210.822
46.69000 208.770
46.70000 205.698
46.71000 201.684
46.72000 197.720
46.73000 197.427
46.74000 199.418
46.75000 201.330
46.76000 201.325
46.77000 200.496
46.78000 199.716
46.79000 201.784
46.80000 204.447
46.81000 206.963
46.82000 208.402
46.83000 209.623
46.84000 209.898
46.85000 205.655
46.86000 200.824
46.87000 197.067
46.88000 200.088
46.89000 202.906
46.90000 203.845
46.91000 200.560
46.92000 197.117
46.93000 196.406
46.94000 199.932
46.95000 203.506
46.96000 205.327
46.97000 203.765
46.98000 202.736
46.99000 204.080
47.00000 207.064
47.01000 209.994
47.02000 211.265
47.03000 211.749
47.04000 212.208
47.05000 206.128
47.06000 198.518
47.07000 191.877
47.08000 193.348
47.09000 196.643
47.10000 198.568
47.11000 193.176
47.12000 186.704
47.13000 181.546
47.14000 181.991
47.15000 182.756
47.16000 184.462
47.17000 188.505
47.18000 192.659
47.19000 196.204
47.20000 198.705
47.21000 201.188
47.22000 202.525
47.23000 199.078
47.24000 196.733
47.25000 198.257
47.26000 202.755
47.27000 207.068
47.28000 203.663
47.29000 196.203
47.30000 189.044
47.31000 192.920
47.32000 200.297
47.33000 207.340
47.34000 211.166
47.35000 214.188
47.36000 215.412
47.37000 205.849
47.38000 194.487
47.39000 185.223
47.40000 185.269
47.41000 186.099
47.42000 186.912
47.43000 187.679
47.44000 188.443
47.45000 189.446
47.46000 190.904
47.47000 192.373
47.48000 193.206
47.49000 192.291
47.50000 191.651
47.51000 191.305
47.52000 191.212
47.53000 191.104
47.54000 190.147
47.55000 188.695
47.56000 187.291
47.57000 188.709
47.58000 191.122
47.59000 193.317
47.60000 193.093
47.61000 192.196
47.62000 191.515
47.63000 192.294
47.64000 193.345
47.65000 194.221
47.66000 191.522
47.67000 188.932
47.68000 185.698
47.69000 180.507
47.70000 175.180
47.71000 173.193
47.72000 178.240
47.73000 183.513
47.74000 186.642
47.75000 189.808
47.76000 192.048
47.77000 192.793
47.78000 192.098
47.79000 191.406
47.80000 190.931
47.81000 190.597
47.82000 190.271
47.83000 189.479
47.84000 188.525
47.85000 187.608
47.86000 187.184
47.87000 186.910
47.88000 186.427
47.89000 184.330
47.90000 181.894
47.91000 179.825
47.92000 183.017
47.93000 186.298
47.94000 188.815
47.95000 188.757
47.96000 188.490
47.97000 188.492
47.98000 189.118
47.99000 189.770
48.00000 190.174
48.01000 189.364
48.02000 188.770
48.03000 189.876
48.04000 192.824
48.05000 195.763
48.06000 197.419
48.07000 198.153
48.08000 198.873
48.09000 192.893
48.10000 183.954
48.11000 175.786
48.12000 179.531
48.13000 187.342
48.14000 194.111
48.15000 191.741
48.16000 187.235
48.17000 183.337
48.18000 182.360
48.19000 181.913
48.20000 182.730
48.21000 188.274
48.22000 194.267
48.23000 196.998
48.24000 191.329
48.25000 185.234
48.26000 181.302
48.27000 183.263
48.28000 184.781
48.29000 187.091
48.30000 190.364
48.31000 193.632
48.32000 195.012
48.33000 194.882
48.34000 194.754
48.35000 193.317
48.36000 191.226
48.37000 189.183
48.38000 188.037
48.39000 187.230
48.40000 186.754
48.41000 189.633
48.42000 193.385
48.43000 196.688
48.44000 200.102
48.45000 203.058
48.46000 203.939
48.47000 196.200
48.48000 187.516
48.49000 182.471
48.50000 187.790
48.51000 193.746
48.52000 197.734
48.53000 197.836
48.54000 197.834
48.55000 196.412
48.56000 193.068
48.57000 189.714
48.58000 187.158
48.59000 185.314
48.60000 183.488
48.61000 186.616
48.62000 192.613
48.63000 198.153
48.64000 193.193
48.65000 183.851
48.66000 175.283
48.67000 175.805
48.68000 178.949
48.69000 181.760
48.70000 185.848
48.71000 189.630
48.72000 192.502
48.73000 191.163
48.74000 189.296
48.75000 188.051
48.76000 188.771
48.77000 189.634
48.78000 190.232
48.79000 185.923
48.80000 182.549
48.81000 182.184
48.82000 186.344
48.83000 190.549
48.84000 192.692
48.85000 192.765
48.86000 192.836
48.87000 190.629
48.88000 186.942
48.89000 183.339
48.90000 182.136
48.91000 182.042
48.92000 181.904
48.93000 181.158
48.94000 180.218
48.95000 179.365
48.96000 182.563
48.97000 186.165
48.98000 189.302
48.99000 190.037
49.00000 190.430
49.01000 190.206
49.02000 187.826
49.03000 185.261
49.04000 183.424
49.05000 191.704
49.06000 198.371
49.07000 199.594
49.08000 191.731
49.09000 183.728
49.10000 181.194
49.11000 184.828
49.12000 188.458
49.13000 188.649
49.14000 186.294
49.15000 183.891
49.16000 179.627
49.17000 174.414
49.18000 169.521
49.19000 169.894
49.20000 172.129
49.21000 174.186
49.22000 176.248
49.23000 178.091
49.24000 179.801
49.25000 180.728
49.26000 181.530
49.27000 182.312
49.28000 183.019
49.29000 183.719
49.30000 184.235
49.31000 182.598
49.32000 181.238
49.33000 181.087
49.34000 183.168
49.35000 185.299
49.36000 187.362
49.37000 189.339
49.38000 191.314
49.39000 192.166
49.40000 192.085
49.41000 191.961
49.42000 189.568
49.43000 185.894
49.44000 182.396
49.45000 182.431
49.46000 183.848
49.47000 185.168
49.48000 183.487
49.49000 181.234
49.50000 179.078
49.51000 177.552
49.52000 176.141
49.53000 174.654
49.54000 172.842
49.55000 170.994
49.56000 169.591
49.57000 173.299
49.58000 176.475
49.59000 179.227
49.60000 181.111
49.61000 182.969
49.62000 184.200
49.63000 184.551
49.64000 184.896
49.65000 186.961
49.66000 190.626
49.67000 194.230
49.68000 193.088
49.69000 188.971
49.70000 185.025
49.71000 185.330
49.72000 187.473
49.73000 189.492
49.74000 187.432
49.75000 184.432
49.76000 182.044
49.77000 184.193
49.78000 187.264
49.79000 189.690
49.80000 189.014
49.81000 187.929
49.82000 187.084
49.83000 182.981
49.84000 179.511
49.85000 178.164
49.86000 181.621
49.87000 185.263
49.88000 186.897
49.89000 185.397
49.90000 183.860
49.91000 183.073
49.92000 180.952
49.93000 179.542
49.94000 179.992
49.95000 181.736
49.96000 183.369
49.97000 181.454
49.98000 177.840
49.99000 174.402
50.00000 178.625
50.01000 184.882
50.02000 190.470
50.03000 190.398
50.04000 189.044
50.05000 187.718
50.06000 186.542
50.07000 185.389
50.08000 184.468
50.09000 184.134
50.10000 183.907
50.11000 186.220
50.12000 194.889
50.13000 203.863
50.14000 205.886
50.15000 195.872
50.16000 185.644
50.17000 180.117
50.18000 196.421
50.19000 207.576
50.20000 211.746
50.21000 210.502
50.22000 209.279
50.23000 208.930
50.24000 209.044
50.25000 209.154
50.26000 208.139
50.27000 206.804
50.28000 205.816
50.29000 208.197
50.30000 211.427
50.31000 214.959
50.32000 220.318
50.33000 225.985
50.34000 230.612
50.35000 229.010
50.36000 227.163
50.37000 226.474
50.38000 228.993
50.39000 231.698
50.40000 235.216
50.41000 240.293
50.42000 245.409
50.43000 248.316
50.44000 256.288
50.45000 261.854
50.46000 265.232
50.47000 266.715
50.48000 268.226
50.49000 271.474
50.50000 275.740
50.51000 279.870
50.52000 279.725
50.53000 277.950
50.54000 276.398
50.55000 277.368
50.56000 279.044
50.57000 280.186
50.58000 277.675
50.59000 274.475
50.60000 271.805
50.61000 272.452
50.62000 273.320
50.63000 275.048
50.64000 279.406
50.65000 283.948
50.66000 287.083
50.67000 287.232
50.68000 287.284
50.69000 287.315
50.70000 273.146
50.71000 263.023
50.72000 262.752
50.73000 272.049
50.74000 281.265
50.75000 283.153
50.76000 280.274
50.77000 277.466
50.78000 274.150
50.79000 270.765
50.80000 267.434
50.81000 264.809
50.82000 262.403
50.83000 259.059
50.84000 248.447
50.85000 236.301
50.86000 225.967
50.87000 226.998
50.88000 229.177
50.89000 231.732
50.90000 235.568
50.91000 239.508
50.92000 238.905
50.93000 227.642
50.94000 215.936
50.95000 208.659
50.96000 214.197
50.97000 218.312
50.98000 218.786
50.99000 215.286
51.00000 211.802
51.01000 210.896
51.02000 211.855
51.03000 212.796
51.04000 207.383
51.05000 199.127
51.06000 191.575
51.07000 195.057
51.08000 202.332
51.09000 208.665
51.10000 206.641
51.11000 202.651
51.12000 199.193
51.13000 193.303
51.14000 187.969
51.15000 184.882
51.16000 190.252
51.17000 196.434
51.18000 198.986
51.19000 192.121
51.20000 184.772
51.21000 180.018
51.22000 183.804
51.23000 186.698
51.24000 186.814
51.25000 183.533
51.26000 180.245
51.27000 177.517
51.28000 175.239
51.29000 172.991
51.30000 177.363
51.31000 185.148
51.32000 192.497
51.33000 191.605
51.34000 187.580
51.35000 183.550
51.36000 179.475
51.37000 175.388
51.38000 171.786
51.39000 173.239
51.40000 175.255
51.41000 176.501
51.42000 174.527
51.43000 172.197
51.44000 171.426
51.45000 175.134
51.46000 179.120
51.47000 181.796
51.48000 182.427
51.49000 182.853
51.50000 181.917
51.51000 179.122
51.52000 176.319
51.53000 176.944
51.54000 180.661
51.55000 184.345
51.56000 187.349
51.57000 189.890
51.58000 192.179
51.59000 188.582
51.60000 182.512
51.61000 176.830
51.62000 175.765
51.63000 176.041
51.64000 176.289
51.65000 177.258
51.66000 178.229
51.67000 178.427
51.68000 175.025
51.69000 171.167
51.70000 168.683
51.71000 170.560
51.72000 172.760
51.73000 174.290
51.74000 175.866
51.75000 177.055
51.76000 176.031
51.77000 171.654
51.78000 167.242
51.79000 166.050
51.80000 168.120
51.81000 170.179
51.82000 170.058
51.83000 168.484
51.84000 167.033
51.85000 169.206
51.86000 173.062
51.87000 176.628
51.88000 176.127
51.89000 174.316
51.90000 172.672
51.91000 169.479
51.92000 166.358
51.93000 164.442
51.94000 168.813
51.95000 174.088
51.96000 176.931
51.97000 171.212
51.98000 164.748
51.99000 160.109
52.00000 161.996
52.01000 163.663
52.02000 164.464
52.03000 163.806
52.04000 163.124
52.05000 163.920
52.06000 166.394
52.07000 168.863
52.08000 170.637
52.09000 171.880
52.10000 173.106
52.11000 173.655
52.12000 173.857
52.13000 173.809
52.14000 169.590
52.15000 163.885
52.16000 158.633
52.17000 160.003
52.18000 162.676
52.19000 164.914
52.20000 164.609
52.21000 163.891
52.22000 164.221
52.23000 168.646
52.24000 173.486
52.25000 177.064
52.26000 170.501
52.27000 164.976
52.28000 163.333
52.29000 168.918
52.30000 174.668
52.31000 174.153
52.32000 165.677
52.33000 157.182
52.34000 154.852
52.35000 157.685
52.36000 160.504
52.37000 162.612
52.38000 164.314
52.39000 165.743
52.40000 161.613
52.41000 155.294
52.42000 149.404
52.43000 152.347
52.44000 157.183
52.45000 161.938
52.46000 166.155
52.47000 170.275
52.48000 172.503
52.49000 166.507
52.50000 159.556
52.51000 154.270
52.52000 155.834
52.53000 157.421
52.54000 158.264
52.55000 157.571
52.56000 156.831
52.57000 158.032
52.58000 161.980
52.59000 165.948
52.60000 168.143
52.61000 168.672
52.62000 169.186
52.63000 168.471
52.64000 166.982
52.65000 165.436
52.66000 162.453
52.67000 158.843
52.68000 155.441
52.69000 158.721
52.70000 163.569
52.71000 168.234
52.72000 171.535
52.73000 174.557
52.74000 175.550
52.75000 166.695
52.76000 156.533
52.77000 148.604
52.78000 154.482
52.79000 160.034
52.80000 164.517
52.81000 166.559
52.82000 168.506
52.83000 167.558
52.84000 162.053
52.85000 156.493
52.86000 153.637
52.87000 166.376
52.88000 174.885
52.89000 175.027
52.90000 169.302
52.91000 163.826
52.92000 166.415
52.93000 172.890
52.94000 179.055
52.95000 174.674
52.96000 167.357
52.97000 160.848
52.98000 161.231
52.99000 163.186
53.00000 164.682
53.01000 163.682
53.02000 162.305
53.03000 161.205
53.04000 158.003
53.05000 155.259
53.06000 154.365
53.07000 158.133
53.08000 162.128
53.09000 164.073
53.10000 162.444
53.11000 160.749
53.12000 159.829
53.13000 160.518
53.14000 160.993
53.15000 161.739
53.16000 162.699
53.17000 163.638
53.18000 163.706
53.19000 163.309
53.20000 162.928
53.21000 169.434
53.22000 177.907
53.23000 185.067
53.24000 179.364
53.25000 170.394
53.26000 163.044
53.27000 165.591
53.28000 169.816
53.29000 173.272
53.30000 175.146
53.31000 176.544
53.32000 177.115
53.33000 175.382
53.34000 173.513
53.35000 171.827
53.36000 170.496
53.37000 169.173
53.38000 168.419
53.39000 162.698
53.40000 158.696
53.41000 159.295
53.42000 163.909
53.43000 168.469
53.44000 169.733
53.45000 169.051
53.46000 168.389
53.47000 165.704
53.48000 162.381
53.49000 159.349
53.50000 159.631
53.51000 160.848
53.52000 162.163
53.53000 164.151
53.54000 166.268
53.55000 168.036
53.56000 167.732
53.57000 167.271
53.58000 167.517
53.59000 169.947
53.60000 172.531
53.61000 173.903
53.62000 172.687
53.63000 171.385
53.64000 170.607
53.65000 161.278
53.66000 154.608
53.67000 152.935
53.68000 156.157
53.69000 159.351
53.70000 159.875
53.71000 158.650
53.72000 157.456
53.73000 157.269
53.74000 157.527
53.75000 158.056
53.76000 162.221
53.77000 167.523
53.78000 171.778
53.79000 167.845
53.80000 162.169
53.81000 157.333
53.82000 163.893
53.83000 170.738
53.84000 175.878
53.85000 175.186
53.86000 174.009
53.87000 171.635
53.88000 166.435
53.89000 161.115
53.90000 157.799
53.91000 159.537
53.92000 160.842
53.93000 161.380
53.94000 161.073
53.95000 160.754
53.96000 158.651
53.97000 155.248
53.98000 151.907
53.99000 155.116
54.00000 161.369
54.01000 167.243
54.02000 167.124
54.03000 164.929
54.04000 163.203
54.05000 165.671
54.06000 169.133
54.07000 172.137
54.08000 165.693
54.09000 158.942
54.10000 154.082
54.11000 156.394
54.12000 159.402
54.13000 162.616
54.14000 166.365
54.15000 170.142
54.16000 172.592
54.17000 169.257
54.18000 166.728
54.19000 164.824
54.20000 163.690
54.21000 162.559
54.22000 161.353
54.23000 160.087
54.24000 158.838
54.25000 159.486
54.26000 161.138
54.27000 162.686
54.28000 162.244
54.29000 161.040
54.30000 160.076
54.31000 161.582
54.32000 163.741
54.33000 165.645
54.34000 163.471
54.35000 160.974
54.36000 159.513
54.37000 162.419
54.38000 165.813
54.39000 168.157
54.40000 167.467
54.41000 166.586
54.42000 165.993
54.43000 159.729
54.44000 154.954
54.45000 153.550
54.46000 156.774
54.47000 160.025
54.48000 161.788
54.49000 162.198
54.50000 162.603
54.51000 162.885
54.52000 163.087
54.53000 163.269
54.54000 162.960
54.55000 162.445
54.56000 162.097
54.57000 163.766
54.58000 166.026
54.59000 168.051
54.60000 168.901
54.61000 169.440
54.62000 169.646
54.63000 168.290
54.64000 166.734
54.65000 164.903
54.66000 162.193
54.67000 159.416
54.68000 157.482
54.69000 160.758
54.70000 163.372
54.71000 165.968
54.72000 168.534
54.73000 171.101
54.74000 170.763
54.75000 167.458
54.76000 164.171
54.77000 163.763
54.78000 165.295
54.79000 166.871
54.80000 169.770
54.81000 173.288
54.82000 176.555
54.83000 176.258
54.84000 174.804
54.85000 173.482
54.86000 172.107
54.87000 170.881
54.88000 169.315
54.89000 165.961
54.90000 162.348
54.91000 159.236
54.92000 157.899
54.93000 156.719
54.94000 155.870
54.95000 153.693
54.96000 151.981
54.97000 153.136
54.98000 159.152
54.99000 165.247
55.00000 168.362
55.01000 168.061
55.02000 167.758
55.03000 168.883
55.04000 171.076
55.05000 173.255
55.06000 174.890
55.07000 176.243
55.08000 177.448
55.09000 176.146
55.10000 173.945
55.11000 171.916
55.12000 174.569
55.13000 177.976
55.14000 180.594
55.15000 178.558
55.16000 175.758
55.17000 173.512
55.18000 173.445
55.19000 173.601
55.20000 173.716
55.21000 180.854
55.22000 186.701
55.23000 190.457
55.24000 190.293
55.25000 190.037
55.26000 190.849
55.27000 193.028
55.28000 195.210
55.29000 199.532
55.30000 205.649
55.31000 211.632
55.32000 210.295
55.33000 204.759
55.34000 199.429
55.35000 198.357
55.36000 198.974
55.37000 199.551
55.38000 205.812
55.39000 212.892
55.40000 219.732
55.41000 224.970
55.42000 229.913
55.43000 235.093
55.44000 241.318
55.45000 247.666
55.46000 252.502
55.47000 253.999
55.48000 255.001
55.49000 259.313
55.50000 270.498
55.51000 281.896
55.52000 290.694
55.53000 295.783
55.54000 300.845
55.55000 309.043
55.56000 320.211
55.57000 331.394
55.58000 343.840
55.59000 357.090
55.60000 370.326
55.61000 383.228
55.62000 395.983
55.63000 408.014
55.64000 421.377
55.65000 433.992
55.66000 445.887
55.67000 452.348
55.68000 457.688
55.69000 464.139
55.70000 476.025
55.71000 488.638
55.72000 498.499
55.73000 504.128
55.74000 508.352
55.75000 516.360
55.76000 533.058
55.77000 550.099
55.78000 555.106
55.79000 541.039
55.80000 526.732
55.81000 519.352
55.82000 536.983
55.83000 548.779
55.84000 548.864
55.85000 540.671
55.86000 532.690
55.87000 531.707
55.88000 534.120
55.89000 536.419
55.90000 528.787
55.91000 518.621
55.92000 508.922
55.93000 503.245
55.94000 498.494
55.95000 492.423
55.96000 479.131
55.97000 464.744
55.98000 453.221
55.99000 445.939
56.00000 440.367
56.01000 434.224
56.02000 426.629
56.03000 418.964
56.04000 411.799
56.05000 405.514
56.06000 399.246
56.07000 395.833
56.08000 367.980
56.09000 348.858
56.10000 336.516
56.11000 329.512
56.12000 322.562
56.13000 318.055
56.14000 314.858
56.15000 311.785
56.16000 303.124
56.17000 293.061
56.18000 283.248
56.19000 275.912
56.20000 269.210
56.21000 263.297
56.22000 262.235
56.23000 262.003
56.24000 261.813
56.25000 253.770
56.26000 246.484
56.27000 239.964
56.28000 235.594
56.29000 231.353
56.30000 228.638
56.31000 228.894
56.32000 229.227
56.33000 229.417
56.34000 222.286
56.35000 217.283
56.36000 214.360
56.37000 213.267
56.38000 212.197
56.39000 212.506
56.40000 213.635
56.41000 214.729
56.42000 210.200
56.43000 203.721
56.44000 197.811
56.45000 198.441
56.46000 200.931
56.47000 202.501
56.48000 197.680
56.49000 191.632
56.50000 186.572
56.51000 183.550
56.52000 181.248
56.53000 179.992
56.54000 181.989
56.55000 184.218
56.56000 185.932
56.57000 186.535
56.58000 187.100
56.59000 187.439
56.60000 173.109
56.61000 162.837
56.62000 158.987
56.63000 161.480
56.64000 163.991
56.65000 168.150
56.66000 173.397
56.67000 178.519
56.68000 177.233
56.69000 173.215
56.70000 169.091
56.71000 163.526
56.72000 157.507
56.73000 152.352
56.74000 154.023
56.75000 157.157
56.76000 159.831
56.77000 162.536
56.78000 164.817
56.79000 166.859
56.80000 168.076
56.81000 169.224
56.82000 169.045
56.83000 165.705
56.84000 162.230
56.85000 160.057
56.86000 158.596
56.87000 157.549
56.88000 156.850
56.89000 156.535
56.90000 156.208
56.91000 153.661
56.92000 149.484
56.93000 145.382
56.94000 148.205
56.95000 154.294
56.96000 159.930
56.97000 158.303
56.98000 154.142
56.99000 150.282
57.00000 149.141
57.01000 148.650
57.02000 148.224
57.03000 152.545
57.04000 156.871
57.05000 159.575
57.06000 156.088
57.07000 151.994
57.08000 147.503
57.09000 141.969
57.10000 136.380
57.11000 132.744
57.12000 142.505
57.13000 149.867
57.14000 152.384
57.15000 148.887
57.16000 145.386
57.17000 147.397
57.18000 153.921
57.19000 160.362
57.20000 158.801
57.21000 152.939
57.22000 147.246
57.23000 144.823
57.24000 143.661
57.25000 142.672
57.26000 143.489
57.27000 144.786
57.28000 145.931
57.29000 146.326
57.30000 146.552
57.31000 146.785
57.32000 147.054
57.33000 147.327
57.34000 147.739
57.35000 148.554
57.36000 149.395
57.37000 149.962
57.38000 150.102
57.39000 150.197
57.40000 149.852
57.41000 148.899
57.42000 147.943
57.43000 149.548
57.44000 153.500
57.45000 157.419
57.46000 158.284
57.47000 157.280
57.48000 156.130
57.49000 151.434
57.50000 145.225
57.51000 139.585
57.52000 140.865
57.53000 144.187
57.54000 147.167
57.55000 147.966
57.56000 148.283
57.57000 148.114
57.58000 145.638
57.59000 142.864
57.60000 142.235
57.61000 148.518
57.62000 155.326
57.63000 160.080
57.64000 148.700
57.65000 139.655
57.66000 137.465
57.67000 145.819
57.68000 154.290
57.69000 156.981
57.70000 153.718
57.71000 150.470
57.72000 151.495
57.73000 155.401
57.74000 159.115
57.75000 156.928
57.76000 151.960
57.77000 147.292
57.78000 146.947
57.79000 148.014
57.80000 148.985
57.81000 146.729
57.82000 144.095
57.83000 141.983
57.84000 142.639
57.85000 143.700
57.86000 143.877
57.87000 140.900
57.88000 137.642
57.89000 135.294
57.90000 138.354
57.91000 140.890
57.92000 142.669
57.93000 143.155
57.94000 143.619
57.95000 142.452
57.96000 139.400
57.97000 136.354
57.98000 137.416
57.99000 141.587
58.00000 145.727
58.01000 148.596
58.02000 150.803
58.03000 152.719
58.04000 149.650
58.05000 144.778
58.06000 140.284
58.07000 139.155
58.08000 138.892
58.09000 138.189
58.10000 134.870
58.11000 131.118
58.12000 128.807
58.13000 132.213
58.14000 136.208
58.15000 139.174
58.16000 134.059
58.17000 129.728
58.18000 127.512
58.19000 129.295
58.20000 131.172
58.21000 133.778
58.22000 137.325
58.23000 140.873
58.24000 142.709
58.25000 143.086
58.26000 143.436
58.27000 142.300
58.28000 140.306
58.29000 138.477
58.30000 140.122
58.31000 143.157
58.32000 145.989
58.33000 142.881
58.34000 138.577
58.35000 134.973
58.36000 136.073
58.37000 138.047
58.38000 140.021
58.39000 141.994
58.40000 143.966
58.41000 145.472
58.42000 141.247
58.43000 137.610
58.44000 136.023
58.45000 138.722
58.46000 141.556
58.47000 141.949
58.48000 138.831
58.49000 135.686
58.50000 136.633
58.51000 141.487
58.52000 146.285
58.53000 146.370
58.54000 143.436
58.55000 140.603
58.56000 140.434
58.57000 141.443
58.58000 142.394
58.59000 143.242
58.60000 143.990
58.61000 144.431
58.62000 142.531
58.63000 140.145
58.64000 138.389
58.65000 139.743
58.66000 141.518
58.67000 142.907
58.68000 144.885
58.69000 146.504
58.70000 146.859
58.71000 144.291
58.72000 141.607
58.73000 139.166
58.74000 137.115
58.75000 135.069
58.76000 134.009
58.77000 143.897
58.78000 150.535
58.79000 152.261
58.80000 150.488
58.81000 148.614
58.82000 143.350
58.83000 136.429
58.84000 129.831
58.85000 136.279
58.86000 146.358
58.87000 155.026
58.88000 151.420
58.89000 144.969
58.90000 139.453
58.91000 139.101
58.92000 139.540
58.93000 139.892
58.94000 136.140
58.95000 132.790
58.96000 131.338
58.97000 134.742
58.98000 138.388
58.99000 139.447
59.00000 135.928
59.01000 132.321
59.02000 130.350
59.03000 135.601
59.04000 139.212
59.05000 140.698
59.06000 140.498
59.07000 140.286
59.08000 139.549
59.09000 138.527
59.10000 137.544
59.11000 141.011
59.12000 145.825
59.13000 150.164
59.14000 149.748
59.15000 148.106
59.16000 146.215
59.17000 142.785
59.18000 139.089
59.19000 136.057
59.20000 137.734
59.21000 139.529
59.22000 140.165
59.23000 137.521
59.24000 134.679
59.25000 132.334
59.26000 130.963
59.27000 129.618
59.28000 128.846
59.29000 129.723
59.30000 130.343
59.31000 132.739
59.32000 136.708
59.33000 140.609
59.34000 140.013
59.35000 136.723
59.36000 133.533
59.37000 133.680
59.38000 135.130
59.39000 136.561
59.40000 137.772
59.41000 138.919
59.42000 139.653
59.43000 137.486
59.44000 134.759
59.45000 132.474
59.46000 132.688
59.47000 133.125
59.48000 134.029
59.49000 136.400
59.50000 138.877
59.51000 139.898
59.52000 137.762
59.53000 135.518
59.54000 134.168
59.55000 134.733
59.56000 135.147
59.57000 135.398
59.58000 135.486
59.59000 135.541
59.60000 132.288
59.61000 126.835
59.62000 121.510
59.63000 122.929
59.64000 127.246
59.65000 131.205
59.66000 130.296
59.67000 127.842
59.68000 126.168
59.69000 130.720
59.70000 136.620
59.71000 141.658
59.72000 142.118
59.73000 141.960
59.74000 140.881
59.75000 136.602
59.76000 132.051
59.77000 128.933
59.78000 129.249
59.79000 129.715
59.80000 130.008
59.81000 132.352
59.82000 134.069
59.83000 134.588
59.84000 133.768
59.85000 132.952
59.86000 133.088
59.87000 133.929
59.88000 134.754
59.89000 135.422
59.90000 135.990
59.91000 136.256
59.92000 131.612
59.93000 125.244
59.94000 119.799
59.95000 122.782
59.96000 127.795
59.97000 132.155
59.98000 133.838
59.99000 134.909
60.00000 134.993
60.01000 131.280
60.02000 127.191
60.03000 125.328
60.04000 129.367
60.05000 133.724
60.06000 136.565
60.07000 134.608
60.08000 133.096
60.09000 133.140
60.10000 135.130
60.11000 137.123
60.12000 137.170
60.13000 135.613
60.14000 134.074
60.15000 134.938
60.16000 137.094
60.17000 139.057
60.18000 137.219
60.19000 133.904
60.20000 130.968
60.21000 132.013
60.22000 134.125
60.23000 135.992
60.24000 139.048
60.25000 141.874
60.26000 143.523
60.27000 140.131
60.28000 136.165
60.29000 131.990
60.30000 127.204
60.31000 122.379
60.32000 119.114
60.33000 125.324
60.34000 130.156
60.35000 131.349
60.36000 127.468
60.37000 123.557
60.38000 127.027
60.39000 137.319
60.40000 147.528
60.41000 147.855
60.42000 142.142
60.43000 136.627
60.44000 135.993
60.45000 137.455
60.46000 138.591
60.47000 135.723
60.48000 131.665
60.49000 128.020
60.50000 130.553
60.51000 133.858
60.52000 136.285
60.53000 134.520
60.54000 132.209
60.55000 130.036
60.56000 128.308
60.57000 126.614
60.58000 125.428
60.59000 131.123
60.60000 135.624
60.61000 139.263
60.62000 141.566
60.63000 143.854
60.64000 142.532
60.65000 137.459
60.66000 132.411
60.67000 131.141
60.68000 132.466
60.69000 133.805
60.70000 135.560
60.71000 137.514
60.72000 139.281
60.73000 138.329
60.74000 136.482
60.75000 134.800
60.76000 136.207
60.77000 138.068
60.78000 139.214
60.79000 136.537
60.80000 133.296
60.81000 131.319
60.82000 133.893
60.83000 136.875
60.84000 139.030
60.85000 130.000
60.86000 122.671
60.87000 119.493
60.88000 123.452
60.89000 127.534
60.90000 131.792
60.91000 136.254
60.92000 140.706
60.93000 140.754
60.94000 137.434
60.95000 134.251
60.96000 136.772
60.97000 142.291
60.98000 147.400
60.99000 145.383
61.00000 140.772
61.01000 136.516
61.02000 134.683
61.03000 133.582
61.04000 133.204
61.05000 137.159
61.06000 141.837
61.07000 145.184
61.08000 143.209
61.09000 140.681
61.10000 138.799
61.11000 140.931
61.12000 142.769
61.13000 144.398
61.14000 145.631
61.15000 146.853
61.16000 147.219
61.17000 146.470
61.18000 145.716
61.19000 144.271
61.20000 142.234
61.21000 140.219
61.22000 139.423
61.23000 139.337
61.24000 139.244
61.25000 139.000
61.26000 138.694
61.27000 138.409
61.28000 137.705
61.29000 136.960
61.30000 136.497
61.31000 137.948
61.32000 139.756
61.33000 141.005
61.34000 139.761
61.35000 138.220
61.36000 137.041
61.37000 144.538
61.38000 150.924
61.39000 154.544
61.40000 152.336
61.41000 149.942
61.42000 147.479
61.43000 144.915
61.44000 142.351
61.45000 144.530
61.46000 151.275
61.47000 157.972
61.48000 160.355
61.49000 159.954
61.50000 159.787
61.51000 165.880
61.52000 174.760
61.53000 183.148
61.54000 199.709
61.55000 217.222
61.56000 234.919
61.57000 254.040
61.58000 273.458
61.59000 291.900
61.60000 305.485
61.61000 318.408
61.62000 328.547
61.63000 336.580
61.64000 342.867
61.65000 349.162
61.66000 355.477
61.67000 361.792
61.68000 368.920
61.69000 377.356
61.70000 385.808
61.71000 390.203
61.72000 391.663
61.73000 392.594
61.74000 385.397
61.75000 372.368
61.76000 359.211
61.77000 341.625
61.78000 321.858
61.79000 303.001
61.80000 281.218
61.81000 260.074
61.82000 239.562
61.83000 224.599
61.84000 210.932
61.85000 197.881
61.86000 188.254
61.87000 179.155
61.88000 171.844
61.89000 171.820
61.90000 172.361
61.91000 171.533
61.92000 167.179
61.93000 162.646
61.94000 159.896
61.95000 160.324
61.96000 160.815
61.97000 161.084
61.98000 154.276
61.99000 149.586
62.00000 146.645
62.01000 145.102
62.02000 143.567
62.03000 142.372
62.04000 141.363
62.05000 140.391
62.06000 138.332
62.07000 136.014
62.08000 134.338
62.09000 139.148
62.10000 145.643
62.11000 151.546
62.12000 153.739
62.13000 155.288
62.14000 156.560
62.15000 153.386
62.16000 150.378
62.17000 148.913
62.18000 151.847
62.19000 155.051
62.20000 154.107
62.21000 144.974
62.22000 135.621
62.23000 130.231
62.24000 145.704
62.25000 156.611
62.26000 161.595
62.27000 161.281
62.28000 160.906
62.29000 156.481
62.30000 149.610
62.31000 142.944
62.32000 140.824
62.33000 140.611
62.34000 140.394
62.35000 140.118
62.36000 139.824
62.37000 139.878
62.38000 142.389
62.39000 145.378
62.40000 147.887
62.41000 147.342
62.42000 146.570
62.43000 145.896
62.44000 145.529
62.45000 145.186
62.46000 147.496
62.47000 155.602
62.48000 163.911
62.49000 168.922
62.50000 161.376
62.51000 155.915
62.52000 151.386
62.53000 147.791
62.54000 144.219
62.55000 142.998
62.56000 143.354
62.57000 143.701
62.58000 143.539
62.59000 143.161
62.60000 142.957
62.61000 145.174
62.62000 148.166
62.63000 150.885
62.64000 151.406
62.65000 151.448
62.66000 151.484
62.67000 150.446
62.68000 149.440
62.69000 148.196
62.70000 146.114
62.71000 143.960
62.72000 142.849
62.73000 144.259
62.74000 145.780
62.75000 146.737
62.76000 143.484
62.77000 141.083
62.78000 141.235
62.79000 144.265
62.80000 147.290
62.81000 148.908
62.82000 149.478
62.83000 150.037
62.84000 151.158
62.85000 152.519
62.86000 153.838
62.87000 154.489
62.88000 154.904
62.89000 155.043
62.90000 152.643
62.91000 149.626
62.92000 147.000
62.93000 149.746
62.94000 152.831
62.95000 155.477
62.96000 156.418
62.97000 157.188
62.98000 157.209
62.99000 155.230
63.00000 153.141
63.01000 151.776
63.02000 152.556
63.03000 153.165
63.04000 153.134
63.05000 152.296
63.06000 151.456
63.07000 150.424
63.08000 149.231
63.09000 148.054
63.10000 146.653
63.11000 145.164
63.12000 143.931
63.13000 147.805
63.14000 153.677
63.15000 158.841
63.16000 156.447
63.17000 152.015
63.18000 148.090
63.19000 149.319
63.20000 151.190
63.21000 152.498
63.22000 151.378
63.23000 149.979
63.24000 148.949
63.25000 149.011
63.26000 149.145
63.27000 149.235
63.28000 151.855
63.29000 153.864
63.30000 154.861
63.31000 154.435
63.32000 153.999
63.33000 152.030
63.34000 148.634
63.35000 145.265
63.36000 148.375
63.37000 155.419
63.38000 162.126
63.39000 160.402
63.40000 155.031
63.41000 150.178
63.42000 151.769
63.43000 155.288
63.44000 158.452
63.45000 160.142
63.46000 161.360
63.47000 161.444
63.48000 156.069
63.49000 149.977
63.50000 145.397
63.51000 145.764
63.52000 146.515
63.53000 147.042
63.54000 153.907
63.55000 159.286
63.56000 162.006
63.57000 160.572
63.58000 159.090
63.59000 157.449
63.60000 155.643
63.61000 153.845
63.62000 154.155
63.63000 155.913
63.64000 157.629
63.65000 158.026
63.66000 157.793
63.67000 157.569
63.68000 157.480
63.69000 157.435
63.70000 157.394
63.71000 157.859
63.72000 158.374
63.73000 158.565
63.74000 157.010
63.75000 155.195
63.76000 153.723
63.77000 153.492
63.78000 153.374
63.79000 153.289
63.80000 151.930
63.81000 150.840
63.82000 151.535
63.83000 155.321
63.84000 159.163
63.85000 158.570
63.86000 152.772
63.87000 146.979
63.88000 146.895
63.89000 151.212
63.90000 155.482
63.91000 157.693
63.92000 158.815
63.93000 159.818
63.94000 158.725
63.95000 156.864
63.96000 155.145
63.97000 155.408
63.98000 156.094
63.99000 156.832
64.00000 157.894
64.01000 159.009
64.02000 160.179
64.03000 161.566
64.04000 162.976
64.05000 164.028
64.06000 167.275
64.07000 169.903
64.08000 169.431
64.09000 163.014
64.10000 156.450
64.11000 153.178
64.12000 154.223
64.13000 155.286
64.14000 153.495
64.15000 149.240
64.16000 145.107
64.17000 148.288
64.18000 155.757
64.19000 163.012
64.20000 165.645
64.21000 166.403
64.22000 167.112
64.23000 167.582
64.24000 167.948
64.25000 168.324
64.26000 168.761
64.27000 169.209
64.28000 169.670
64.29000 170.185
64.30000 170.706
64.31000 171.106
64.32000 167.484
64.33000 164.403
64.34000 163.273
64.35000 166.285
64.36000 169.431
64.37000 171.068
64.38000 170.501
64.39000 169.915
64.40000 171.217
64.41000 174.352
64.42000 177.488
64.43000 180.798
64.44000 184.220
64.45000 187.463
64.46000 185.870
64.47000 182.110
64.48000 178.554
64.49000 178.354
64.50000 179.127
64.51000 180.078
64.52000 182.419
64.53000 185.053
64.54000 186.939
64.55000 185.081
64.56000 182.707
64.57000 180.841
64.58000 185.101
64.59000 188.914
64.60000 189.895
64.61000 184.229
64.62000 178.287
64.63000 175.293
64.64000 177.074
64.65000 178.922
64.66000 179.887
64.67000 187.542
64.68000 192.698
64.69000 194.112
64.70000 192.820
64.71000 191.541
64.72000 190.682
64.73000 190.033
64.74000 189.414
64.75000 187.677
64.76000 185.707
64.77000 184.199
64.78000 186.785
64.79000 190.336
64.80000 193.448
64.81000 194.097
64.82000 194.361
64.83000 194.574
64.84000 197.819
64.85000 200.688
64.86000 201.863
64.87000 198.642
64.88000 195.195
64.89000 192.472
64.90000 191.050
64.91000 189.654
64.92000 188.885
64.93000 197.347
64.94000 203.184
64.95000 206.426
64.96000 207.577
64.97000 208.747
64.98000 210.883
64.99000 213.548
65.00000 216.116
65.01000 222.003
65.02000 228.718
65.03000 234.792
65.04000 234.322
65.05000 232.138
65.06000 231.354
65.07000 239.408
65.08000 249.011
65.09000 256.914
65.10000 262.534
65.11000 266.948
65.12000 269.989
65.13000 269.091
65.14000 267.947
65.15000 268.920
65.16000 274.102
65.17000 279.400
65.18000 282.464
65.19000 303.197
65.20000 317.796
65.21000 324.242
65.22000 323.336
65.23000 322.579
65.24000 331.950
65.25000 347.483
65.26000 362.561
65.27000 370.972
65.28000 376.293
65.29000 381.741
65.30000 388.690
65.31000 396.075
65.32000 404.042
65.33000 416.161
65.34000 429.097
65.35000 439.964
65.36000 433.007
65.37000 425.330
65.38000 422.345
65.39000 434.262
65.40000 447.284
65.41000 459.177
65.42000 468.586
65.43000 477.907
65.44000 483.545
65.45000 479.448
65.46000 476.456
65.47000 476.831
65.48000 480.617
65.49000 484.426
65.50000 490.817
65.51000 498.952
65.52000 506.904
65.53000 505.198
65.54000 499.262
65.55000 494.058
65.56000 499.100
65.57000 507.442
65.58000 515.315
65.59000 519.369
65.60000 522.585
65.61000 525.339
65.62000 533.374
65.63000 540.797
65.64000 546.788
65.65000 547.739
65.66000 548.251
65.67000 559.862
65.68000 598.472
65.69000 638.296
65.70000 663.417
65.71000 745.132
65.72000 804.957
65.73000 866.884
65.74000 931.202
65.75000 995.593
65.76000 1074.351
65.77000 1163.907
65.78000 1251.967
65.79000 1330.879
65.80000 1402.655
65.81000 1472.474
65.82000 1509.553
65.83000 1534.967
65.84000 1559.560
65.85000 1576.502
65.86000 1591.574
65.87000 1604.714
65.88000 1594.206
65.89000 1581.937
65.90000 1571.259
65.91000 1566.799
65.92000 1562.967
65.93000 1543.031
65.94000 1479.784
65.95000 1414.146
65.96000 1371.101
65.97000 1258.620
65.98000 1174.745
65.99000 1084.996
66.00000 987.782
66.01000 890.562
66.02000 804.401
66.03000 727.516
66.04000 651.532
66.05000 593.763
66.06000 547.527
66.07000 501.908
66.08000 468.857
66.09000 440.760
66.10000 414.045
66.11000 402.219
66.12000 394.440
66.13000 387.545
66.14000 374.940
66.15000 363.123
66.16000 353.432
66.17000 352.981
66.18000 353.604
66.19000 354.088
66.20000 354.156
66.21000 354.197
66.22000 354.224
66.23000 366.267
66.24000 375.530
66.25000 384.382
66.26000 392.653
66.27000 400.922
66.28000 415.744
66.29000 436.724
66.30000 457.544
66.31000 476.760
66.32000 494.654
66.33000 512.444
66.34000 527.608
66.35000 541.628
66.36000 555.387
66.37000 565.860
66.38000 575.341
66.39000 583.875
66.40000 586.529
66.41000 587.800
66.42000 588.191
66.43000 584.312
66.44000 579.867
66.45000 576.392
66.46000 576.119
66.47000 576.097
66.48000 576.081
66.49000 568.891
66.50000 563.231
66.51000 552.403
66.52000 533.442
66.53000 514.382
66.54000 493.278
66.55000 470.016
66.56000 446.856
66.57000 433.119
66.58000 426.067
66.59000 418.951
66.60000 409.737
66.61000 399.513
66.62000 389.632
66.63000 384.854
66.64000 381.781
66.65000 378.976
66.66000 375.510
66.67000 372.300
66.68000 369.353
66.69000 367.832
66.70000 366.526
66.71000 364.856
66.72000 361.857
66.73000 358.736
66.74000 356.472
66.75000 364.338
66.76000 370.762
66.77000 373.766
66.78000 370.802
66.79000 367.730
66.80000 368.313
66.81000 373.224
66.82000 378.132
66.83000 378.666
66.84000 375.799
66.85000 373.002
66.86000 373.260
66.87000 375.147
66.88000 376.803
66.89000 374.342
66.90000 370.360
66.91000 366.677
66.92000 371.387
66.93000 377.532
66.94000 383.585
66.95000 389.075
66.96000 394.470
66.97000 398.626
66.98000 397.758
66.99000 396.355
67.00000 395.307
67.01000 389.861
67.02000 385.413
67.03000 382.897
67.04000 384.113
67.05000 385.424
67.06000 388.542
67.07000 394.048
67.08000 399.562
67.09000 404.711
67.10000 409.534
67.11000 414.350
67.12000 418.741
67.13000 422.880
67.14000 426.765
67.15000 425.064
67.16000 421.081
67.17000 417.354
67.18000 424.217
67.19000 433.170
67.20000 441.000
67.21000 441.089
67.22000 439.705
67.23000 438.256
67.24000 436.507
67.25000 434.723
67.26000 433.353
67.27000 432.228
67.28000 431.353
67.29000 432.617
67.30000 438.454
67.31000 444.443
67.32000 448.188
67.33000 448.635
67.34000 449.052
67.35000 448.257
67.36000 446.275
67.37000 444.344
67.38000 447.174
67.39000 453.125
67.40000 459.288
67.41000 471.287
67.42000 485.922
67.43000 499.767
67.44000 495.882
67.45000 487.213
67.46000 479.851
67.47000 482.720
67.48000 487.766
67.49000 493.084
67.50000 499.770
67.51000 506.646
67.52000 512.059
67.53000 524.952
67.54000 535.781
67.55000 540.249
67.56000 529.687
67.57000 518.489
67.58000 514.516
67.59000 522.340
67.60000 530.331
67.61000 534.520
67.62000 525.658
67.63000 519.718
67.64000 524.863
67.65000 538.085
67.66000 550.902
67.67000 549.179
67.68000 540.193
67.69000 531.608
67.70000 527.523
67.71000 525.174
67.72000 524.052
67.73000 533.925
67.74000 546.406
67.75000 556.834
67.76000 555.636
67.77000 552.611
67.78000 550.172
67.79000 571.858
67.80000 591.368
67.81000 604.000
67.82000 598.656
67.83000 592.374
67.84000 589.200
67.85000 591.648
67.86000 594.213
67.87000 595.630
67.88000 590.168
67.89000 586.399
67.90000 586.600
67.91000 590.027
67.92000 593.486
67.93000 598.512
67.94000 604.405
67.95000 610.084
67.96000 618.248
67.97000 626.814
67.98000 633.985
67.99000 626.762
68.00000 615.740
68.01000 608.274
68.02000 623.466
68.03000 642.665
68.04000 658.489
68.05000 648.511
68.06000 637.926
68.07000 634.345
68.08000 651.011
68.09000 668.954
68.10000 680.446
68.11000 679.017
68.12000 677.226
68.13000 676.187
68.14000 687.741
68.15000 695.902
68.16000 702.632
68.17000 708.060
68.18000 713.460
68.19000 716.926
68.20000 719.208
68.21000 721.423
68.22000 720.827
68.23000 719.131
68.24000 717.980
68.25000 723.387
68.26000 730.714
68.27000 738.345
68.28000 748.171
68.29000 758.431
68.30000 767.063
68.31000 782.641
68.32000 796.371
68.33000 806.498
68.34000 805.094
68.35000 802.825
68.36000 804.221
68.37000 813.735
68.38000 823.544
68.39000 829.497
68.40000 842.344
68.41000 851.562
68.42000 860.118
68.43000 867.998
68.44000 875.875
68.45000 883.438
68.46000 890.787
68.47000 897.974
68.48000 916.290
68.49000 938.850
68.50000 961.408
68.51000 983.933
68.52000 1006.447
68.53000 1028.612
68.54000 1047.918
68.55000 1066.591
68.56000 1082.604
68.57000 1106.507
68.58000 1127.667
68.59000 1159.151
68.60000 1227.255
68.61000 1298.582
68.62000 1363.039
68.63000 1410.667
68.64000 1457.526
68.65000 1487.171
68.66000 1586.920
68.67000 1660.065
68.68000 1740.938
68.69000 1830.671
68.70000 1920.488
68.71000 2026.237
68.72000 2144.052
68.73000 2259.944
68.74000 2333.697
68.75000 2383.952
68.76000 2436.750
68.77000 2532.646
68.78000 2644.010
68.79000 2754.921
68.80000 2861.558
68.81000 2967.141
68.82000 3059.308
68.83000 3280.990
68.84000 3488.835
68.85000 3702.539
68.86000 3939.321
68.87000 4178.460
68.88000 4511.256
68.89000 5097.768
68.90000 5698.478
68.91000 6093.476
68.92000 8018.797
68.93000 9462.315
68.94000 11785.691
68.95000 15236.146
68.96000 18693.270
68.97000 23581.959
68.98000 29681.000
68.99000 35710.461
69.00000 43047.172
69.01000 50940.371
69.02000 58800.367
69.03000 65974.797
69.04000 72877.078
69.05000 79545.703
69.06000 83669.469
69.07000 87096.266
69.08000 90137.266
69.09000 91734.234
69.10000 92887.469
69.11000 93958.508
69.12000 94669.266
69.13000 95337.742
69.14000 96100.953
69.15000 97148.086
69.16000 98214.313
69.17000 98941.063
69.18000 98868.789
69.19000 98796.352
69.20000 97866.688
69.21000 95713.969
69.22000 93551.766
69.23000 90242.578
69.24000 85846.672
69.25000 81483.180
69.26000 76675.117
69.27000 71668.164
69.28000 66693.367
69.29000 62546.316
69.30000 58762.570
69.31000 55101.273
69.32000 52999.156
69.33000 51370.574
69.34000 49903.184
69.35000 48484.230
69.36000 47248.086
69.37000 45885.586
69.38000 43905.039
69.39000 41841.762
69.40000 39500.027
69.41000 36233.965
69.42000 32894.379
69.43000 30540.668
69.44000 25863.955
69.45000 22247.443
69.46000 18817.646
69.47000 15683.812
69.48000 12553.703
69.49000 10080.532
69.50000 8307.113
69.51000 6541.348
69.52000 5346.489
69.53000 4563.127
69.54000 3789.081
69.55000 3323.334
69.56000 3007.231
69.57000 2698.339
69.58000 2498.183
69.59000 2334.597
69.60000 2185.120
69.61000 2057.842
69.62000 1949.337
69.63000 1846.983
69.64000 1778.310
69.65000 1714.747
69.66000 1653.545
69.67000 1601.032
69.68000 1549.328
69.69000 1511.734
69.70000 1447.291
69.71000 1396.695
69.72000 1349.398
69.73000 1307.900
69.74000 1266.511
69.75000 1229.780
69.76000 1198.606
69.77000 1167.504
69.78000 1142.644
69.79000 1122.800
69.80000 1103.046
69.81000 1087.281
69.82000 1073.659
69.83000 1059.540
69.84000 1036.400
69.85000 1009.903
69.86000 985.376
69.87000 974.245
69.88000 967.321
69.89000 959.512
69.90000 946.256
69.91000 932.069
69.92000 918.626
69.93000 908.225
69.94000 898.152
69.95000 890.612
69.96000 884.999
69.97000 880.710
69.98000 868.582
69.99000 841.198
70.00000 813.421
