20.00000 587.214
20.01000 580.510
20.02000 572.848
20.03000 566.017
20.04000 562.509
20.05000 559.347
20.06000 556.995
20.07000 554.802
20.08000 553.104
20.09000 554.812
20.10000 563.005
20.11000 571.353
20.12000 577.402
20.13000 580.461
20.14000 583.505
20.15000 581.280
20.16000 574.545
20.17000 567.862
20.18000 564.177
20.19000 562.237
20.20000 560.597
20.21000 565.315
20.22000 572.592
20.23000 579.391
20.24000 579.233
20.25000 577.335
20.26000 575.495
20.27000 574.043
20.28000 572.664
20.29000 571.219
20.30000 569.480
20.31000 567.707
20.32000 566.351
20.33000 575.450
20.34000 583.195
20.35000 586.375
20.36000 579.942
20.37000 573.202
20.38000 567.553
20.39000 563.486
20.40000 559.432
20.41000 558.954
20.42000 561.919
20.43000 564.874
20.44000 566.967
20.45000 568.504
20.46000 569.940
20.47000 568.689
20.48000 566.241
20.49000 563.929
20.50000 559.144
20.51000 554.054
20.52000 550.234
20.53000 556.173
20.54000 564.157
20.55000 570.750
20.56000 570.436
20.57000 569.180
20.58000 568.195
20.59000 563.876
20.60000 560.206
20.61000 558.184
20.62000 560.000
20.63000 561.973
20.64000 560.554
20.65000 553.680
20.66000 546.733
20.67000 543.121
20.68000 557.624
20.69000 567.414
20.70000 575.644
20.71000 582.754
20.72000 589.478
20.73000 582.919
20.74000 569.822
20.75000 557.328
20.76000 551.962
20.77000 549.238
20.78000 547.385
20.79000 553.173
20.80000 560.745
20.81000 566.552
20.82000 562.534
20.83000 556.999
20.84000 552.552
20.85000 553.765
20.86000 555.183
20.87000 556.528
20.88000 557.685
20.89000 558.832
20.90000 558.586
20.91000 555.857
20.92000 553.079
20.93000 551.555
20.94000 563.267
20.95000 571.339
20.96000 577.509
20.97000 582.158
20.98000 586.721
20.99000 587.278
21.00000 585.652
21.01000 584.087
21.02000 576.442
21.03000 567.116
21.04000 558.291
21.05000 554.532
21.06000 552.090
21.07000 550.800
21.08000 556.722
21.09000 563.898
21.10000 569.794
21.11000 567.887
21.12000 565.618
21.13000 565.156
21.14000 569.838
21.15000 574.837
21.16000 576.788
21.17000 572.724
21.18000 568.498
21.19000 566.064
21.20000 565.875
21.21000 565.753
21.22000 567.029
21.23000 569.557
21.24000 571.992
21.25000 568.297
21.26000 560.901
21.27000 553.726
21.28000 555.219
21.29000 560.065
21.30000 564.357
21.31000 562.144
21.32000 558.054
21.33000 554.662
21.34000 556.212
21.35000 558.724
21.36000 560.832
21.37000 565.955
21.38000 570.534
21.39000 573.326
21.40000 570.483
21.41000 567.229
21.42000 565.960
21.43000 569.026
21.44000 572.245
21.45000 574.185
21.46000 578.318
21.47000 581.275
21.48000 583.431
21.49000 584.784
21.50000 586.130
21.51000 586.782
21.52000 586.971
21.53000 587.155
21.54000 582.650
21.55000 576.265
21.56000 570.396
21.57000 571.672
21.58000 575.231
21.59000 580.019
21.60000 594.705
21.61000 611.547
21.62000 625.951
21.63000 628.345
21.64000 628.921
21.65000 629.096
21.66000 627.872
21.67000 626.528
21.68000 628.482
21.69000 638.402
21.70000 648.674
21.71000 655.134
21.72000 657.466
21.73000 659.107
21.74000 664.632
21.75000 674.538
21.76000 684.451
21.77000 694.928
21.78000 705.827
21.79000 716.539
21.80000 730.292
21.81000 745.086
21.82000 759.624
21.83000 769.937
21.84000 778.755
21.85000 788.247
21.86000 803.953
21.87000 821.167
21.88000 836.156
21.89000 849.253
21.90000 860.178
21.91000 870.556
21.92000 878.812
21.93000 886.855
21.94000 895.684
21.95000 906.613
21.96000 917.655
21.97000 924.877
21.98000 929.565
21.99000 932.968
22.00000 927.087
22.01000 909.501
22.02000 891.891
22.03000 881.031
22.04000 875.785
22.05000 870.603
22.06000 866.031
22.07000 861.911
22.08000 857.730
22.09000 852.315
22.10000 846.418
22.11000 839.941
22.12000 827.273
22.13000 812.937
22.14000 800.244
22.15000 777.016
22.16000 755.275
22.17000 736.033
22.18000 727.572
22.19000 720.351
22.20000 711.573
22.21000 698.196
22.22000 684.517
22.23000 675.240
22.24000 671.273
22.25000 668.431
22.26000 664.057
22.27000 657.530
22.28000 650.988
22.29000 643.683
22.30000 635.667
22.31000 627.715
22.32000 619.655
22.33000 611.671
22.34000 603.976
22.35000 603.482
22.36000 606.102
22.37000 607.832
22.38000 598.479
22.39000 585.810
22.40000 574.420
22.41000 580.030
22.42000 587.964
22.43000 592.777
22.44000 582.572
22.45000 570.394
22.46000 561.234
22.47000 561.942
22.48000 563.417
22.49000 564.452
22.50000 570.681
22.51000 575.546
22.52000 574.750
22.53000 565.116
22.54000 555.378
22.55000 552.382
22.56000 556.445
22.57000 560.491
22.58000 561.322
22.59000 559.931
22.60000 558.582
22.61000 558.577
22.62000 559.215
22.63000 559.401
22.64000 552.942
22.65000 544.282
22.66000 536.384
22.67000 538.502
22.68000 542.390
22.69000 545.613
22.70000 545.253
22.71000 544.358
22.72000 544.600
22.73000 548.965
22.74000 553.706
22.75000 557.137
22.76000 554.214
22.77000 551.737
22.78000 545.763
22.79000 533.736
22.80000 521.602
22.81000 517.712
22.82000 523.501
22.83000 529.292
22.84000 530.899
22.85000 529.273
22.86000 527.641
22.87000 525.777
22.88000 523.790
22.89000 521.736
22.90000 518.512
22.91000 514.858
22.92000 511.482
22.93000 516.006
22.94000 521.854
22.95000 525.574
22.96000 516.425
22.97000 505.112
22.98000 497.757
22.99000 506.338
23.00000 516.597
23.01000 524.244
23.02000 518.060
23.03000 512.618
23.04000 510.898
23.05000 516.317
23.06000 521.913
23.07000 525.581
23.08000 526.722
23.09000 527.852
23.10000 522.138
23.11000 510.519
23.12000 499.039
23.13000 495.787
23.14000 497.359
23.15000 499.225
23.16000 507.450
23.17000 518.251
23.18000 528.352
23.19000 527.288
23.20000 523.485
23.21000 520.070
23.22000 519.301
23.23000 519.032
23.24000 518.866
23.25000 519.159
23.26000 519.507
23.27000 519.774
23.28000 511.241
23.29000 504.018
23.30000 499.787
23.31000 501.904
23.32000 504.228
23.33000 508.796
23.34000 516.640
23.35000 524.512
23.36000 526.791
23.37000 523.640
23.38000 520.493
23.39000 517.716
23.40000 515.180
23.41000 512.719
23.42000 512.320
23.43000 512.846
23.44000 513.342
23.45000 508.346
23.46000 502.190
23.47000 497.318
23.48000 502.399
23.49000 509.580
23.50000 515.065
23.51000 512.051
23.52000 507.869
23.53000 504.582
23.54000 497.894
23.55000 492.317
23.56000 488.675
23.57000 489.576
23.58000 490.664
23.59000 496.280
23.60000 509.230
23.61000 522.281
23.62000 529.093
23.63000 518.747
23.64000 511.807
23.65000 514.780
23.66000 524.920
23.67000 534.781
23.68000 534.855
23.69000 530.075
23.70000 525.513
23.71000 520.826
23.72000 516.433
23.73000 512.137
23.74000 508.704
23.75000 505.473
23.76000 502.529
23.77000 501.201
23.78000 500.124
23.79000 499.257
23.80000 509.690
23.81000 519.033
23.82000 523.233
23.83000 514.093
23.84000 504.267
23.85000 500.187
23.86000 506.428
23.87000 512.875
23.88000 516.424
23.89000 509.195
23.90000 504.210
23.91000 503.564
23.92000 506.414
23.93000 509.198
23.94000 508.855
23.95000 506.796
23.96000 504.812
23.97000 505.424
23.98000 506.925
23.99000 508.104
24.00000 506.009
24.01000 503.057
24.02000 500.451
24.03000 500.033
24.04000 499.999
24.05000 499.971
24.06000 508.473
24.07000 516.238
24.08000 520.586
24.09000 515.128
24.10000 509.060
24.11000 503.054
24.12000 497.171
24.13000 491.292
24.14000 487.893
24.15000 500.972
24.16000 510.199
24.17000 508.928
24.18000 498.191
24.19000 487.577
24.20000 485.259
24.21000 487.987
24.22000 490.635
24.23000 494.537
24.24000 498.741
24.25000 502.206
24.26000 496.893
24.27000 489.030
24.28000 482.129
24.29000 482.102
24.30000 483.425
24.31000 484.537
24.32000 501.143
24.33000 516.611
24.34000 524.660
24.35000 509.147
24.36000 491.889
24.37000 480.275
24.38000 481.072
24.39000 482.312
24.40000 483.061
24.41000 490.935
24.42000 496.598
24.43000 502.460
24.44000 508.522
24.45000 514.486
24.46000 509.696
24.47000 497.647
24.48000 485.870
24.49000 484.808
24.50000 488.563
24.51000 492.453
24.52000 498.251
24.53000 504.662
24.54000 510.516
24.55000 511.836
24.56000 512.162
24.57000 512.441
24.58000 509.678
24.59000 506.977
24.60000 502.675
24.61000 492.736
24.62000 482.307
24.63000 479.538
24.64000 495.393
24.65000 512.086
24.66000 522.614
24.67000 500.263
24.68000 483.700
24.69000 477.582
24.70000 483.337
24.71000 489.094
24.72000 493.065
24.73000 495.692
24.74000 498.275
24.75000 491.525
24.76000 480.356
24.77000 470.112
24.78000 475.315
24.79000 486.022
24.80000 495.680
24.81000 495.578
24.82000 493.089
24.83000 490.920
24.84000 491.485
24.85000 492.349
24.86000 493.575
24.87000 496.221
24.88000 499.011
24.89000 503.076
24.90000 510.570
24.91000 518.253
24.92000 523.291
24.93000 505.025
24.94000 491.206
24.95000 483.724
24.96000 484.293
24.97000 484.886
24.98000 483.415
24.99000 480.214
25.00000 477.049
25.01000 475.453
25.02000 474.766
25.03000 474.342
25.04000 479.286
25.05000 486.344
25.06000 492.620
25.07000 490.465
25.08000 486.019
25.09000 482.078
25.10000 485.133
25.11000 488.884
25.12000 492.663
25.13000 496.562
25.14000 500.475
25.15000 501.357
25.16000 493.225
25.17000 484.495
25.18000 478.561
25.19000 477.316
25.20000 476.493
25.21000 477.456
25.22000 480.949
25.23000 484.460
25.24000 484.814
25.25000 482.203
25.26000 479.612
25.27000 485.162
25.28000 495.667
25.29000 505.664
25.30000 502.822
25.31000 494.386
25.32000 486.147
25.33000 480.382
25.34000 475.362
25.35000 470.843
25.36000 472.334
25.37000 474.718
25.38000 477.781
25.39000 484.139
25.40000 490.934
25.41000 494.657
25.42000 488.260
25.43000 481.068
25.44000 476.011
25.45000 470.362
25.46000 466.065
25.47000 464.864
25.48000 468.532
25.49000 472.260
25.50000 472.601
25.51000 469.366
25.52000 466.145
25.53000 464.860
25.54000 464.932
25.55000 465.140
25.56000 469.761
25.57000 476.509
25.58000 482.434
25.59000 476.129
25.60000 465.741
25.61000 456.259
25.62000 469.889
25.63000 486.666
25.64000 499.689
25.65000 492.333
25.66000 481.913
25.67000 473.583
25.68000 472.884
25.69000 472.886
25.70000 472.888
25.71000 465.067
25.72000 458.764
25.73000 456.769
25.74000 462.289
25.75000 467.946
25.76000 471.808
25.77000 473.547
25.78000 475.279
25.79000 474.240
25.80000 471.054
25.81000 467.906
25.82000 466.427
25.83000 465.837
25.84000 465.405
25.85000 467.784
25.86000 471.201
25.87000 474.362
25.88000 475.052
25.89000 475.108
25.90000 474.618
25.91000 470.797
25.92000 466.411
25.93000 462.036
25.94000 457.702
25.95000 453.373
25.96000 450.140
25.97000 471.053
25.98000 488.465
25.99000 495.955
26.00000 484.282
26.01000 472.127
26.02000 465.893
26.03000 467.481
26.04000 469.106
26.05000 472.253
26.06000 476.721
26.07000 481.145
26.08000 482.833
26.09000 482.905
26.10000 482.504
26.11000 471.737
26.12000 456.738
26.13000 442.702
26.14000 445.123
26.15000 451.542
26.16000 457.576
26.17000 460.965
26.18000 463.851
26.19000 467.342
26.20000 473.566
26.21000 480.124
26.22000 485.158
26.23000 476.294
26.24000 468.512
26.25000 462.129
26.26000 458.732
26.27000 455.434
26.28000 455.788
26.29000 461.512
26.30000 467.283
26.31000 469.019
26.32000 466.805
26.33000 464.561
26.34000 459.559
26.35000 452.750
26.36000 446.150
26.37000 445.305
26.38000 447.059
26.39000 448.719
26.40000 449.686
26.41000 450.377
26.42000 451.214
26.43000 453.199
26.44000 455.429
26.45000 457.405
26.46000 458.103
26.47000 458.624
26.48000 459.034
26.49000 459.939
26.50000 460.698
26.51000 462.893
26.52000 468.484
26.53000 474.217
26.54000 480.146
26.55000 486.395
26.56000 492.649
26.57000 495.925
26.58000 478.157
26.59000 466.146
26.60000 459.319
26.61000 456.269
26.62000 453.377
26.63000 456.174
26.64000 461.811
26.65000 467.196
26.66000 464.742
26.67000 459.938
26.68000 455.185
26.69000 450.894
26.70000 446.712
26.71000 444.204
26.72000 451.168
26.73000 459.619
26.74000 466.432
26.75000 474.928
26.76000 481.960
26.77000 484.522
26.78000 475.407
26.79000 465.682
26.80000 458.593
26.81000 456.272
26.82000 454.050
26.83000 452.822
26.84000 464.687
26.85000 472.869
26.86000 471.471
26.87000 462.290
26.88000 453.234
26.89000 450.257
26.90000 450.642
26.91000 451.012
26.92000 455.402
26.93000 460.974
26.94000 465.623
26.95000 460.756
26.96000 453.379
26.97000 447.771
26.98000 453.431
26.99000 461.082
27.00000 467.388
27.01000 461.905
27.02000 456.308
27.03000 452.203
27.04000 452.405
27.05000 452.880
27.06000 450.516
27.07000 442.467
27.08000 434.259
27.09000 429.498
27.10000 456.297
27.11000 475.227
27.12000 476.104
27.13000 460.572
27.14000 445.249
27.15000 444.644
27.16000 453.057
27.17000 461.228
27.18000 458.299
27.19000 451.057
27.20000 444.405
27.21000 444.838
27.22000 447.345
27.23000 449.602
27.24000 450.060
27.25000 450.161
27.26000 450.246
27.27000 461.981
27.28000 473.007
27.29000 479.239
27.30000 470.133
27.31000 459.878
27.32000 451.543
27.33000 447.461
27.34000 443.533
27.35000 441.151
27.36000 444.790
27.37000 447.433
27.38000 452.480
27.39000 459.982
27.40000 467.425
27.41000 468.171
27.42000 464.361
27.43000 460.636
27.44000 464.055
27.45000 470.540
27.46000 475.804
27.47000 463.760
27.48000 446.104
27.49000 431.078
27.50000 437.633
27.51000 448.963
27.52000 458.679
27.53000 450.225
27.54000 440.857
27.55000 433.858
27.56000 435.260
27.57000 437.401
27.58000 439.215
27.59000 440.226
27.60000 441.201
27.61000 441.817
27.62000 434.037
27.63000 428.298
27.64000 428.236
27.65000 434.680
27.66000 441.132
27.67000 447.695
27.68000 454.341
27.69000 460.878
27.70000 457.489
27.71000 449.234
27.72000 441.103
27.73000 435.086
27.74000 429.828
27.75000 425.392
27.76000 428.695
27.77000 433.905
27.78000 438.453
27.79000 439.238
27.80000 439.383
27.81000 439.525
27.82000 439.657
27.83000 439.789
27.84000 439.731
27.85000 439.161
27.86000 438.563
27.87000 438.169
27.88000 448.369
27.89000 456.059
27.90000 457.848
27.91000 452.080
27.92000 446.288
27.93000 442.678
27.94000 440.911
27.95000 439.164
27.96000 446.911
27.97000 459.786
27.98000 471.752
27.99000 464.941
28.00000 450.679
28.01000 437.542
28.02000 436.644
28.03000 439.096
28.04000 441.272
28.05000 432.954
28.06000 424.071
28.07000 418.712
28.08000 428.788
28.09000 440.675
28.10000 449.010
28.11000 446.705
28.12000 443.684
28.13000 441.626
28.14000 445.136
28.15000 447.888
28.16000 449.487
28.17000 449.444
28.18000 449.389
28.19000 447.314
28.20000 443.326
28.21000 439.368
28.22000 440.200
28.23000 444.012
28.24000 447.607
28.25000 445.597
28.26000 441.126
28.27000 436.711
28.28000 432.991
28.29000 429.482
28.30000 426.320
28.31000 427.447
28.32000 429.210
28.33000 431.656
28.34000 437.439
28.35000 443.668
28.36000 447.031
28.37000 440.883
28.38000 433.979
28.39000 429.114
28.40000 437.519
28.41000 444.291
28.42000 445.126
28.43000 436.552
28.44000 427.860
28.45000 427.241
28.46000 435.217
28.47000 443.161
28.48000 445.104
28.49000 442.830
28.50000 440.517
28.51000 436.901
28.52000 432.653
28.53000 428.312
28.54000 422.584
28.55000 416.388
28.56000 410.727
28.57000 419.714
28.58000 430.688
28.59000 439.417
28.60000 435.850
28.61000 430.419
28.62000 426.568
28.63000 428.535
28.64000 431.042
28.65000 432.865
28.66000 435.883
28.67000 438.251
28.68000 436.514
28.69000 427.564
28.70000 418.480
28.71000 414.500
28.72000 416.609
28.73000 418.725
28.74000 422.937
28.75000 428.769
28.76000 434.609
28.77000 440.761
28.78000 447.081
28.79000 452.705
28.80000 445.693
28.81000 433.982
28.82000 423.143
28.83000 427.177
28.84000 434.224
28.85000 440.108
28.86000 438.834
28.87000 436.337
28.88000 433.679
28.89000 430.365
28.90000 426.980
28.91000 424.447
28.92000 430.397
28.93000 435.435
28.94000 438.748
28.95000 438.704
28.96000 438.573
28.97000 437.274
28.98000 434.421
28.99000 431.561
29.00000 429.569
29.01000 428.342
29.02000 427.118
29.03000 426.124
29.04000 425.265
29.05000 424.430
29.06000 424.136
29.07000 424.064
29.08000 423.996
29.09000 434.277
29.10000 446.301
29.11000 455.588
29.12000 445.840
29.13000 432.441
29.14000 421.837
29.15000 423.960
29.16000 427.650
29.17000 430.488
29.18000 435.982
29.19000 440.479
29.20000 441.552
29.21000 435.257
29.22000 428.712
29.23000 424.240
29.24000 422.839
29.25000 421.467
29.26000 416.260
29.27000 407.267
29.28000 398.369
29.29000 398.642
29.30000 404.968
29.31000 411.175
29.32000 414.011
29.33000 415.315
29.34000 416.549
29.35000 421.291
29.36000 426.670
29.37000 430.896
29.38000 426.012
29.39000 419.173
29.40000 413.549
29.41000 414.105
29.42000 415.527
29.43000 416.648
29.44000 426.752
29.45000 435.463
29.46000 437.329
29.47000 422.908
29.48000 407.789
29.49000 401.713
29.50000 410.508
29.51000 419.520
29.52000 424.262
29.53000 429.916
29.54000 433.722
29.55000 432.416
29.56000 427.356
29.57000 422.489
29.58000 424.676
29.59000 430.411
29.60000 435.894
29.61000 435.851
29.62000 434.019
29.63000 431.805
29.64000 426.131
29.65000 419.631
29.66000 414.147
29.67000 414.459
29.68000 415.688
29.69000 416.681
29.70000 418.757
29.71000 420.530
29.72000 424.392
29.73000 433.751
29.74000 443.400
29.75000 448.215
29.76000 444.221
29.77000 440.040
29.78000 437.723
29.79000 443.152
29.80000 446.915
29.81000 449.955
29.82000 452.403
29.83000 454.995
29.84000 464.757
29.85000 478.512
29.86000 491.776
29.87000 488.618
29.88000 479.693
29.89000 471.059
29.90000 465.457
29.91000 460.660
29.92000 456.879
29.93000 459.624
29.94000 463.533
29.95000 466.759
29.96000 463.870
29.97000 460.923
29.98000 460.368
29.99000 466.778
30.00000 473.632
30.01000 477.097
30.02000 473.729
30.03000 470.165
30.04000 468.091
30.05000 465.930
30.06000 464.412
30.07000 465.789
30.08000 469.816
30.09000 473.813
30.10000 475.549
30.11000 475.890
30.12000 476.222
30.13000 471.976
30.14000 466.087
30.15000 460.799
30.16000 462.811
30.17000 466.976
30.18000 470.784
30.19000 472.000
30.20000 472.699
30.21000 473.288
30.22000 455.656
30.23000 438.979
30.24000 427.590
30.25000 433.245
30.26000 440.194
30.27000 444.922
30.28000 444.698
30.29000 444.291
30.30000 444.043
30.31000 440.704
30.32000 438.294
30.33000 438.726
30.34000 442.084
30.35000 445.428
30.36000 447.141
30.37000 447.736
30.38000 448.319
30.39000 447.402
30.40000 445.844
30.41000 444.205
30.42000 441.411
30.43000 438.240
30.44000 435.523
30.45000 436.573
30.46000 438.464
30.47000 440.088
30.48000 446.732
30.49000 452.971
30.50000 456.971
30.51000 452.969
30.52000 448.256
30.53000 445.662
30.54000 448.298
30.55000 451.177
30.56000 453.003
30.57000 454.691
30.58000 455.915
30.59000 461.515
30.60000 472.170
30.61000 482.807
30.62000 487.901
30.63000 488.765
30.64000 489.615
30.65000 479.931
30.66000 465.231
30.67000 451.255
30.68000 449.701
30.69000 452.637
30.70000 455.402
30.71000 456.540
30.72000 457.275
30.73000 457.918
30.74000 471.252
30.75000 484.467
30.76000 495.109
30.77000 495.544
30.78000 494.925
30.79000 494.334
30.80000 493.818
30.81000 493.305
30.82000 492.967
30.83000 495.768
30.84000 497.887
30.85000 502.286
30.86000 509.628
30.87000 516.981
30.88000 523.737
30.89000 529.984
30.90000 536.162
30.91000 550.884
30.92000 570.082
30.93000 589.266
30.94000 608.146
30.95000 626.904
30.96000 645.699
30.97000 664.898
30.98000 684.208
30.99000 701.363
31.00000 746.356
31.01000 789.860
31.02000 837.502
31.03000 903.420
31.04000 971.504
31.05000 1045.016
31.06000 1134.916
31.07000 1225.931
31.08000 1288.114
31.09000 1465.642
31.10000 1601.165
31.11000 1744.463
31.12000 1898.935
31.13000 2053.499
31.14000 2231.177
31.15000 2430.931
31.16000 2629.260
31.17000 2833.786
31.18000 3038.945
31.19000 3243.867
31.20000 3442.635
31.21000 3638.683
31.22000 3834.562
31.23000 4028.269
31.24000 4221.313
31.25000 4395.422
31.26000 4542.298
31.27000 4666.298
31.28000 4783.250
31.29000 4865.464
31.30000 4942.987
31.31000 5006.623
31.32000 5023.833
31.33000 5037.309
31.34000 5046.828
31.35000 4937.468
31.36000 4850.820
31.37000 4758.498
31.38000 4657.119
31.39000 4555.623
31.40000 4415.774
31.41000 4234.749
31.42000 4054.441
31.43000 3848.273
31.44000 3625.866
31.45000 3404.179
31.46000 3206.730
31.47000 3021.127
31.48000 2836.407
31.49000 2665.144
31.50000 2498.439
31.51000 2345.971
31.52000 2179.206
31.53000 2028.023
31.54000 1881.203
31.55000 1758.466
31.56000 1639.412
31.57000 1527.773
31.58000 1443.625
31.59000 1362.059
31.60000 1302.630
31.61000 1199.724
31.62000 1118.802
31.63000 1048.062
31.64000 995.341
31.65000 942.965
31.66000 892.921
31.67000 845.682
31.68000 798.535
31.69000 764.333
31.70000 740.515
31.71000 716.578
31.72000 687.291
31.73000 655.110
31.74000 624.142
31.75000 615.484
31.76000 615.185
31.77000 614.908
31.78000 596.731
31.79000 576.226
31.80000 556.867
31.81000 544.624
31.82000 533.608
31.83000 523.433
31.84000 516.724
31.85000 510.391
31.86000 505.642
31.87000 497.610
31.88000 491.182
31.89000 482.864
31.90000 470.844
31.91000 458.726
31.92000 451.132
31.93000 449.606
31.94000 448.113
31.95000 447.021
31.96000 446.285
31.97000 445.562
31.98000 445.622
31.99000 446.152
32.00000 446.337
32.01000 438.706
32.02000 427.838
32.03000 417.651
32.04000 426.121
32.05000 438.693
32.06000 448.693
32.07000 440.645
32.08000 429.106
32.09000 419.870
32.10000 421.205
32.11000 423.853
32.12000 425.893
32.13000 426.392
32.14000 426.699
32.15000 426.197
32.16000 423.939
32.17000 421.621
32.18000 420.848
32.19000 422.382
32.20000 423.937
32.21000 423.323
32.22000 420.550
32.23000 417.768
32.24000 414.143
32.25000 409.957
32.26000 405.817
32.27000 402.979
32.28000 400.737
32.29000 398.613
32.30000 396.366
32.31000 394.262
32.32000 392.751
32.33000 395.975
32.34000 400.222
32.35000 404.042
32.36000 405.670
32.37000 406.989
32.38000 408.031
32.39000 409.829
32.40000 411.325
32.41000 410.577
32.42000 404.448
32.43000 398.084
32.44000 393.847
32.45000 393.131
32.46000 392.467
32.47000 392.117
32.48000 396.267
32.49000 399.080
32.50000 400.475
32.51000 400.820
32.52000 401.201
32.53000 402.931
32.54000 405.345
32.55000 407.653
32.56000 401.317
32.57000 392.592
32.58000 385.783
32.59000 396.472
32.60000 411.375
32.61000 423.848
32.62000 422.331
32.63000 418.580
32.64000 415.546
32.65000 418.400
32.66000 421.196
32.67000 420.257
32.68000 409.417
32.69000 398.046
32.70000 391.658
32.71000 394.419
32.72000 397.377
32.73000 399.024
32.74000 400.310
32.75000 401.200
32.76000 402.355
32.77000 403.730
32.78000 405.035
32.79000 402.824
32.80000 398.640
32.81000 394.602
32.82000 399.753
32.83000 407.958
32.84000 416.392
32.85000 427.228
32.86000 438.708
32.87000 448.606
32.88000 448.251
32.89000 446.054
32.90000 444.238
32.91000 440.859
32.92000 437.926
32.93000 434.172
32.94000 428.013
32.95000 421.698
32.96000 418.477
32.97000 421.540
32.98000 424.786
32.99000 426.682
33.00000 428.919
33.01000 430.494
33.02000 429.678
33.03000 426.655
33.04000 423.554
33.05000 414.685
33.06000 402.229
33.07000 390.120
33.08000 392.988
33.09000 401.831
33.10000 409.782
33.11000 406.763
33.12000 400.485
33.13000 394.544
33.14000 391.084
33.15000 388.122
33.16000 385.623
33.17000 375.553
33.18000 366.316
33.19000 360.793
33.20000 367.325
33.21000 374.783
33.22000 378.956
33.23000 375.751
33.24000 372.269
33.25000 370.143
33.26000 370.063
33.27000 370.022
33.28000 368.523
33.29000 365.510
33.30000 362.503
33.31000 360.395
33.32000 358.908
33.33000 357.452
33.34000 354.417
33.35000 350.782
33.36000 347.420
33.37000 348.018
33.38000 349.919
33.39000 351.487
33.40000 350.270
33.41000 348.427
33.42000 346.843
33.43000 348.925
33.44000 351.145
33.45000 353.868
33.46000 358.400
33.47000 363.096
33.48000 367.351
33.49000 370.511
33.50000 373.619
33.51000 375.596
33.52000 368.496
33.53000 363.224
33.54000 358.353
33.55000 353.950
33.56000 349.567
33.57000 349.764
33.58000 353.482
33.59000 357.143
33.60000 355.290
33.61000 350.687
33.62000 346.137
33.63000 342.498
33.64000 339.192
33.65000 336.583
33.66000 340.679
33.67000 346.452
33.68000 351.504
33.69000 350.455
33.70000 348.685
33.71000 348.797
33.72000 356.434
33.73000 364.854
33.74000 369.171
33.75000 362.211
33.76000 354.604
33.77000 349.575
33.78000 353.047
33.79000 355.761
33.80000 357.451
33.81000 357.811
33.82000 358.162
33.83000 356.963
33.84000 354.432
33.85000 351.928
33.86000 348.865
33.87000 345.554
33.88000 342.376
33.89000 342.023
33.90000 342.807
33.91000 343.758
33.92000 346.571
33.93000 349.902
33.94000 352.864
33.95000 354.875
33.96000 356.467
33.97000 355.892
33.98000 345.677
33.99000 334.310
34.00000 326.830
34.01000 331.172
34.02000 336.329
34.03000 339.860
34.04000 344.150
34.05000 347.381
34.06000 348.632
34.07000 347.017
34.08000 345.379
34.09000 344.391
34.10000 344.030
34.11000 343.671
34.12000 345.896
34.13000 349.729
34.14000 353.383
34.15000 352.256
34.16000 349.001
34.17000 345.820
34.18000 343.607
34.19000 341.692
34.20000 339.962
34.21000 340.786
34.22000 341.979
34.23000 341.769
34.24000 334.585
34.25000 326.450
34.26000 321.851
34.27000 329.161
34.28000 337.440
34.29000 343.301
34.30000 338.283
34.31000 334.132
34.32000 332.703
34.33000 335.652
34.34000 338.659
34.35000 338.288
34.36000 334.259
34.37000 330.245
34.38000 329.688
34.39000 331.594
34.40000 333.529
34.41000 336.465
34.42000 339.892
34.43000 343.181
34.44000 344.325
34.45000 344.737
34.46000 345.113
34.47000 340.931
34.48000 336.262
34.49000 332.257
34.50000 331.939
34.51000 332.191
34.52000 333.670
34.53000 339.730
34.54000 346.225
34.55000 350.968
34.56000 336.505
34.57000 324.605
34.58000 320.082
34.59000 328.710
34.60000 337.596
34.61000 341.411
34.62000 339.082
34.63000 336.743
34.64000 336.471
34.65000 337.845
34.66000 339.131
34.67000 336.274
34.68000 331.161
34.69000 326.283
34.70000 325.791
34.71000 326.956
34.72000 328.036
34.73000 326.311
34.74000 324.102
34.75000 322.518
34.76000 324.853
34.77000 327.870
34.78000 330.805
34.79000 333.405
34.80000 335.969
34.81000 337.895
34.82000 339.231
34.83000 340.247
34.84000 341.342
34.85000 342.594
34.86000 343.849
34.87000 345.590
34.88000 347.988
34.89000 350.388
34.90000 343.897
34.91000 329.470
34.92000 315.238
34.93000 313.898
34.94000 320.342
34.95000 326.478
34.96000 325.534
34.97000 321.635
34.98000 317.978
34.99000 322.615
35.00000 329.019
35.01000 334.034
35.02000 329.219
35.03000 322.487
35.04000 316.669
35.05000 315.080
35.06000 314.023
35.07000 313.206
35.08000 317.938
35.09000 322.011
35.10000 322.415
35.11000 314.805
35.12000 306.915
35.13000 303.417
35.14000 306.525
35.15000 309.698
35.16000 311.288
35.17000 313.531
35.18000 315.069
35.19000 320.908
35.20000 329.629
35.21000 338.010
35.22000 336.533
35.23000 330.507
35.24000 324.794
35.25000 327.516
35.26000 332.508
35.27000 336.732
35.28000 334.764
35.29000 331.448
35.30000 329.101
35.31000 331.765
35.32000 335.143
35.33000 337.817
35.34000 338.633
35.35000 339.160
35.36000 336.233
35.37000 324.968
35.38000 313.334
35.39000 311.896
35.40000 327.477
35.41000 343.322
35.42000 351.723
35.43000 338.303
35.44000 329.187
35.45000 324.440
35.46000 322.949
35.47000 321.408
35.48000 317.905
35.49000 313.402
35.50000 309.091
35.51000 311.956
35.52000 316.990
35.53000 322.001
35.54000 326.796
35.55000 331.537
35.56000 334.681
35.57000 328.551
35.58000 320.927
35.59000 314.751
35.60000 315.995
35.61000 317.612
35.62000 318.180
35.63000 315.948
35.64000 313.564
35.65000 312.523
35.66000 313.966
35.67000 315.464
35.68000 316.301
35.69000 316.548
35.70000 316.713
35.71000 315.209
35.72000 312.316
35.73000 309.459
35.74000 308.493
35.75000 308.595
35.76000 308.695
35.77000 309.665
35.78000 310.899
35.79000 311.598
35.80000 306.592
35.81000 300.046
35.82000 295.170
35.83000 301.216
35.84000 309.241
35.85000 315.884
35.86000 319.366
35.87000 321.940
35.88000 323.326
35.89000 321.206
35.90000 318.856
35.91000 317.180
35.92000 316.882
35.93000 316.626
35.94000 316.476
35.95000 314.973
35.96000 313.908
35.97000 312.045
35.98000 309.441
35.99000 306.833
36.00000 304.033
36.01000 301.112
36.02000 298.271
36.03000 300.248
36.04000 304.113
36.05000 307.537
36.06000 305.466
36.07000 301.752
36.08000 298.548
36.09000 299.119
36.10000 300.458
36.11000 301.588
36.12000 303.472
36.13000 305.130
36.14000 306.580
36.15000 307.351
36.16000 308.069
36.17000 308.959
36.18000 310.240
36.19000 311.536
36.20000 312.329
36.21000 316.937
36.22000 320.267
36.23000 318.749
36.24000 312.151
36.25000 305.570
36.26000 301.221
36.27000 298.424
36.28000 295.686
36.29000 301.007
36.30000 309.824
36.31000 318.013
36.32000 316.971
36.33000 312.868
36.34000 309.076
36.35000 307.899
36.36000 307.315
36.37000 306.813
36.38000 301.197
36.39000 295.795
36.40000 291.917
36.41000 293.568
36.42000 295.721
36.43000 298.602
36.44000 303.306
36.45000 308.096
36.46000 311.152
36.47000 307.019
36.48000 303.919
36.49000 301.347
36.50000 299.392
36.51000 297.459
36.52000 300.724
36.53000 308.018
36.54000 315.201
36.55000 312.903
36.56000 305.808
36.57000 299.193
36.58000 301.028
36.59000 305.962
36.60000 310.543
36.61000 311.700
36.62000 311.994
36.63000 312.252
36.64000 311.917
36.65000 311.543
36.66000 311.068
36.67000 310.181
36.68000 309.251
36.69000 308.545
36.70000 308.460
36.71000 308.412
36.72000 308.380
36.73000 309.281
36.74000 309.964
36.75000 313.067
36.76000 319.343
36.77000 325.628
36.78000 327.116
36.79000 324.452
36.80000 321.815
36.81000 317.641
36.82000 312.678
36.83000 308.077
36.84000 311.272
36.85000 317.628
36.86000 323.837
36.87000 328.384
36.88000 332.464
36.89000 336.098
36.90000 330.055
36.91000 323.218
36.92000 317.441
36.93000 316.425
36.94000 315.982
36.95000 314.733
36.96000 311.010
36.97000 307.115
36.98000 304.440
36.99000 310.534
37.00000 315.317
37.01000 318.038
37.02000 317.748
37.03000 317.433
37.04000 314.301
37.05000 308.433
37.06000 302.605
37.07000 303.480
37.08000 308.637
37.09000 313.768
37.10000 318.221
37.11000 322.371
37.12000 326.047
37.13000 323.494
37.14000 319.007
37.15000 314.952
37.16000 312.239
37.17000 310.103
37.18000 308.535
37.19000 309.817
37.20000 311.491
37.21000 313.415
37.22000 316.187
37.23000 319.028
37.24000 321.044
37.25000 318.269
37.26000 316.008
37.27000 313.337
37.28000 310.002
37.29000 306.659
37.30000 307.292
37.31000 312.264
37.32000 317.220
37.33000 321.177
37.34000 324.383
37.35000 327.455
37.36000 325.813
37.37000 321.833
37.38000 317.971
37.39000 315.943
37.40000 314.544
37.41000 313.263
37.42000 315.669
37.43000 318.585
37.44000 320.376
37.45000 315.857
37.46000 310.355
37.47000 306.218
37.48000 307.219
37.49000 308.713
37.50000 309.806
37.51000 305.683
37.52000 302.294
37.53000 301.800
37.54000 306.506
37.55000 311.316
37.56000 312.380
37.57000 308.868
37.58000 305.350
37.59000 303.977
37.60000 304.332
37.61000 304.651
37.62000 303.240
37.63000 300.881
37.64000 298.734
37.65000 300.610
37.66000 304.015
37.67000 307.175
37.68000 305.077
37.69000 301.945
37.70000 300.121
37.71000 306.562
37.72000 314.450
37.73000 319.752
37.74000 314.232
37.75000 307.514
37.76000 302.455
37.77000 308.051
37.78000 312.950
37.79000 316.860
37.80000 318.804
37.81000 320.695
37.82000 317.857
37.83000 308.574
37.84000 299.258
37.85000 299.041
37.86000 307.020
37.87000 314.929
37.88000 317.949
37.89000 317.997
37.90000 318.086
37.91000 319.125
37.92000 320.563
37.93000 321.913
37.94000 321.921
37.95000 321.573
37.96000 321.194
37.97000 320.587
37.98000 319.936
37.99000 318.833
38.00000 315.624
38.01000 312.148
38.02000 309.460
38.03000 319.977
38.04000 329.100
38.05000 334.610
38.06000 332.178
38.07000 329.462
38.08000 330.405
38.09000 336.894
38.10000 343.440
38.11000 346.734
38.12000 346.108
38.13000 345.729
38.14000 349.543
38.15000 356.187
38.16000 362.465
38.17000 357.895
38.18000 348.284
38.19000 339.165
38.20000 344.028
38.21000 352.663
38.22000 360.181
38.23000 358.612
38.24000 355.048
38.25000 353.866
38.26000 365.112
38.27000 378.145
38.28000 388.478
38.29000 392.147
38.30000 394.633
38.31000 397.262
38.32000 400.241
38.33000 403.237
38.34000 410.925
38.35000 426.504
38.36000 442.209
38.37000 450.568
38.38000 453.752
38.39000 455.931
38.40000 461.210
38.41000 468.817
38.42000 476.652
38.43000 493.360
38.44000 514.629
38.45000 535.000
38.46000 537.421
38.47000 533.714
38.48000 531.491
38.49000 543.076
38.50000 558.039
38.51000 573.353
38.52000 590.719
38.53000 608.420
38.54000 622.782
38.55000 625.486
38.56000 626.730
38.57000 628.668
38.58000 632.473
38.59000 636.380
38.60000 636.573
38.61000 629.844
38.62000 622.960
38.63000 619.101
38.64000 621.442
38.65000 623.080
38.66000 624.630
38.67000 626.106
38.68000 627.413
38.69000 619.640
38.70000 606.698
38.71000 594.196
38.72000 583.604
38.73000 574.330
38.74000 565.021
38.75000 555.335
38.76000 545.547
38.77000 535.261
38.78000 521.690
38.79000 507.519
38.80000 495.769
38.81000 484.679
38.82000 475.582
38.83000 467.243
38.84000 461.162
38.85000 455.230
38.86000 447.243
38.87000 435.020
38.88000 422.668
38.89000 415.409
38.90000 413.137
38.91000 411.560
38.92000 403.960
38.93000 390.704
38.94000 377.472
38.95000 366.111
38.96000 355.932
38.97000 346.025
38.98000 338.954
38.99000 333.396
39.00000 328.692
39.01000 334.737
39.02000 344.023
39.03000 351.892
39.04000 349.173
39.05000 344.288
39.06000 340.155
39.07000 332.481
39.08000 325.664
39.09000 319.175
39.10000 313.766
39.11000 308.441
39.12000 306.243
39.13000 311.173
39.14000 316.380
39.15000 319.578
39.16000 321.822
39.17000 323.422
39.18000 321.545
39.19000 315.995
39.20000 310.466
39.21000 307.936
39.22000 307.509
39.23000 307.091
39.24000 305.952
39.25000 304.524
39.26000 302.956
39.27000 299.327
39.28000 295.008
39.29000 291.802
39.30000 298.080
39.31000 306.523
39.32000 313.801
39.33000 307.078
39.34000 299.594
39.35000 293.398
39.36000 291.904
39.37000 290.843
39.38000 290.799
39.39000 293.318
39.40000 295.962
39.41000 297.653
39.42000 292.356
39.43000 288.407
39.44000 286.027
39.45000 285.505
39.46000 284.989
39.47000 285.088
39.48000 285.667
39.49000 286.238
39.50000 288.879
39.51000 292.513
39.52000 295.653
39.53000 289.978
39.54000 281.047
39.55000 273.390
39.56000 278.220
39.57000 286.222
39.58000 293.242
39.59000 286.540
39.60000 278.787
39.61000 272.725
39.62000 273.522
39.63000 275.048
39.64000 276.517
39.65000 277.824
39.66000 279.122
39.67000 279.984
39.68000 270.796
39.69000 263.814
39.70000 259.751
39.71000 259.544
39.72000 259.360
39.73000 263.907
39.74000 272.584
39.75000 281.173
39.76000 284.242
39.77000 284.055
39.78000 283.750
39.79000 280.861
39.80000 276.917
39.81000 273.057
39.82000 270.143
39.83000 267.495
39.84000 265.136
39.85000 269.673
39.86000 274.759
39.87000 279.497
39.88000 282.658
39.89000 285.626
39.90000 287.106
39.91000 283.994
39.92000 280.558
39.93000 278.193
39.94000 282.879
39.95000 286.572
39.96000 287.988
39.97000 286.057
39.98000 284.096
39.99000 281.012
40.00000 276.828
40.01000 272.671
40.02000 271.269
40.03000 271.666
40.04000 272.067
40.05000 272.555
40.06000 273.083
40.07000 273.626
40.08000 274.374
40.09000 275.185
40.10000 275.920
40.11000 270.142
40.12000 263.834
40.13000 259.389
40.14000 264.343
40.15000 270.601
40.16000 276.133
40.17000 279.178
40.18000 282.016
40.19000 284.035
40.20000 279.854
40.21000 276.470
40.22000 274.153
40.23000 273.577
40.24000 273.025
40.25000 272.888
40.26000 273.208
40.27000 273.528
40.28000 271.654
40.29000 268.212
40.30000 264.909
40.31000 266.569
40.32000 270.709
40.33000 274.383
40.34000 270.660
40.35000 264.378
40.36000 258.615
40.37000 261.405
40.38000 265.699
40.39000 268.661
40.40000 264.083
40.41000 258.322
40.42000 254.649
40.43000 258.898
40.44000 263.916
40.45000 267.594
40.46000 268.971
40.47000 269.942
40.48000 269.869
40.49000 267.907
40.50000 265.906
40.51000 264.304
40.52000 263.195
40.53000 262.088
40.54000 262.677
40.55000 264.636
40.56000 266.468
40.57000 262.132
40.58000 254.386
40.59000 247.124
40.60000 249.139
40.61000 254.707
40.62000 259.879
40.63000 256.798
40.64000 252.056
40.65000 248.470
40.66000 252.255
40.67000 257.342
40.68000 261.304
40.69000 260.520
40.70000 259.205
40.71000 258.214
40.72000 264.494
40.73000 269.773
40.74000 272.214
40.75000 268.972
40.76000 265.571
40.77000 261.797
40.78000 257.510
40.79000 253.221
40.80000 257.224
40.81000 268.754
40.82000 280.125
40.83000 280.263
40.84000 273.518
40.85000 266.785
40.86000 260.335
40.87000 254.003
40.88000 248.055
40.89000 250.086
40.90000 254.071
40.91000 258.451
40.92000 265.677
40.93000 273.466
40.94000 278.698
40.95000 271.914
40.96000 263.595
40.97000 257.149
40.98000 265.153
40.99000 272.370
41.00000 277.188
41.01000 276.688
41.02000 275.994
41.03000 273.960
41.04000 269.878
41.05000 265.774
41.06000 263.700
41.07000 250.356
41.08000 241.509
41.09000 241.840
41.10000 248.415
41.11000 254.830
41.12000 256.432
41.13000 255.780
41.14000 255.162
41.15000 251.964
41.16000 248.241
41.17000 244.775
41.18000 243.421
41.19000 242.535
41.20000 242.402
41.21000 246.234
41.22000 250.641
41.23000 254.142
41.24000 259.222
41.25000 263.423
41.26000 264.721
41.27000 258.907
41.28000 252.768
41.29000 250.449
41.30000 254.601
41.31000 258.859
41.32000 261.134
41.33000 263.490
41.34000 265.087
41.35000 264.855
41.36000 263.237
41.37000 261.694
41.38000 263.096
41.39000 266.024
41.40000 268.830
41.41000 267.749
41.42000 265.439
41.43000 263.297
41.44000 262.739
41.45000 262.571
41.46000 261.432
41.47000 254.559
41.48000 246.747
41.49000 240.397
41.50000 245.193
41.51000 250.035
41.52000 252.807
41.53000 249.976
41.54000 246.832
41.55000 245.537
41.56000 247.711
41.57000 249.965
41.58000 251.233
41.59000 243.712
41.60000 238.481
41.61000 239.558
41.62000 245.968
41.63000 252.304
41.64000 254.579
41.65000 254.525
41.66000 254.473
41.67000 256.384
41.68000 258.921
41.69000 261.277
41.70000 261.658
41.71000 261.498
41.72000 261.204
41.73000 260.011
41.74000 258.654
41.75000 257.526
41.76000 254.338
41.77000 251.502
41.78000 249.003
41.79000 247.518
41.80000 246.100
41.81000 244.584
41.82000 242.866
41.83000 241.141
41.84000 240.124
41.85000 246.633
41.86000 251.268
41.87000 251.325
41.88000 247.046
41.89000 242.821
41.90000 243.041
41.91000 246.086
41.92000 249.052
41.93000 248.673
41.94000 246.913
41.95000 245.482
41.96000 248.235
41.97000 252.257
41.98000 255.191
41.99000 249.911
42.00000 242.938
42.01000 237.031
42.02000 239.916
42.03000 243.318
42.04000 246.119
42.05000 246.923
42.06000 247.567
42.07000 247.263
42.08000 244.778
42.09000 242.206
42.10000 240.622
42.11000 251.477
42.12000 259.378
42.13000 260.155
42.14000 253.346
42.15000 246.548
42.16000 241.571
42.17000 237.880
42.18000 234.263
42.19000 236.182
42.20000 240.612
42.21000 244.841
42.22000 246.031
42.23000 246.200
42.24000 246.330
42.25000 246.119
42.26000 245.829
42.27000 245.579
42.28000 240.985
42.29000 236.527
42.30000 233.537
42.31000 235.953
42.32000 238.871
42.33000 243.628
42.34000 253.054
42.35000 262.711
42.36000 268.906
42.37000 258.072
42.38000 249.943
42.39000 243.677
42.40000 239.635
42.41000 235.600
42.42000 232.558
42.43000 230.299
42.44000 228.072
42.45000 230.114
42.46000 234.322
42.47000 238.459
42.48000 241.314
42.49000 243.691
42.50000 245.970
42.51000 247.274
42.52000 248.328
42.53000 249.254
42.54000 244.671
42.55000 239.923
42.56000 236.354
42.57000 237.608
42.58000 239.379
42.59000 242.030
42.60000 247.151
42.61000 252.419
42.62000 255.929
42.63000 245.645
42.64000 237.769
42.65000 233.958
42.66000 235.559
42.67000 237.188
42.68000 239.502
42.69000 242.421
42.70000 245.311
42.71000 250.447
42.72000 256.784
42.73000 262.596
42.74000 256.729
42.75000 246.058
42.76000 236.086
42.77000 234.163
42.78000 234.527
42.79000 234.851
42.80000 234.355
42.81000 233.786
42.82000 233.860
42.83000 236.862
42.84000 240.224
42.85000 243.015
42.86000 244.034
42.87000 244.926
42.88000 245.541
42.89000 236.284
42.90000 229.078
42.91000 228.548
42.92000 237.908
42.93000 247.359
42.94000 248.469
42.95000 241.341
42.96000 234.257
42.97000 234.554
42.98000 239.651
42.99000 244.615
43.00000 245.857
43.01000 245.405
43.02000 245.210
43.03000 248.491
43.04000 252.866
43.05000 256.828
43.06000 251.167
43.07000 244.361
43.08000 239.063
43.09000 241.445
43.10000 244.902
43.11000 247.187
43.12000 245.435
43.13000 243.343
43.14000 241.852
43.15000 237.230
43.16000 233.603
43.17000 230.993
43.18000 230.055
43.19000 229.141
43.20000 230.598
43.21000 234.685
43.22000 238.760
43.23000 239.490
43.24000 237.779
43.25000 236.085
43.26000 235.041
43.27000 234.323
43.28000 233.684
43.29000 234.303
43.30000 235.361
43.31000 236.332
43.32000 232.423
43.33000 227.896
43.34000 225.109
43.35000 232.242
43.36000 240.948
43.37000 246.699
43.38000 241.163
43.39000 234.521
43.40000 229.641
43.41000 231.059
43.42000 232.414
43.43000 233.741
43.44000 235.019
43.45000 236.295
43.46000 237.953
43.47000 240.085
43.48000 242.216
43.49000 238.766
43.50000 230.776
43.51000 222.932
43.52000 222.399
43.53000 225.937
43.54000 229.428
43.55000 231.991
43.56000 234.198
43.57000 236.249
43.58000 232.429
43.59000 227.572
43.60000 224.127
43.61000 229.760
43.62000 237.012
43.63000 241.404
43.64000 233.646
43.65000 224.518
43.66000 217.618
43.67000 220.775
43.68000 223.755
43.69000 227.248
43.70000 231.779
43.71000 236.339
43.72000 236.461
43.73000 230.443
43.74000 224.388
43.75000 225.303
43.76000 232.603
43.77000 239.805
43.78000 239.916
43.79000 235.650
43.80000 231.487
43.81000 229.832
43.82000 229.246
43.83000 228.695
43.84000 226.547
43.85000 224.154
43.86000 222.935
43.87000 230.253
43.88000 239.275
43.89000 245.900
43.90000 241.168
43.91000 234.971
43.92000 230.161
43.93000 230.824
43.94000 231.682
43.95000 232.820
43.96000 234.583
43.97000 236.368
43.98000 237.282
43.99000 236.854
44.00000 236.413
44.01000 236.188
44.02000 244.815
44.03000 250.530
44.04000 248.698
44.05000 241.692
44.06000 234.909
44.07000 234.966
44.08000 238.249
44.09000 241.368
44.10000 242.056
44.11000 241.959
44.12000 241.910
44.13000 242.267
44.14000 242.714
44.15000 243.299
44.16000 244.617
44.17000 246.041
44.18000 247.175
44.19000 250.336
44.20000 253.030
44.21000 254.085
44.22000 251.098
44.23000 247.923
44.24000 246.099
44.25000 246.580
44.26000 247.100
44.27000 247.379
44.28000 245.970
44.29000 245.032
44.30000 249.876
44.31000 259.131
44.32000 268.174
44.33000 268.632
44.34000 264.610
44.35000 260.753
44.36000 260.889
44.37000 262.364
44.38000 264.137
44.39000 268.737
44.40000 274.040
44.41000 279.337
44.42000 284.598
44.43000 289.854
44.44000 294.132
44.45000 284.882
44.46000 276.187
44.47000 273.393
44.48000 286.700
44.49000 300.920
44.50000 308.483
44.51000 303.466
44.52000 298.152
44.53000 295.152
44.54000 308.103
44.55000 317.143
44.56000 323.240
44.57000 326.831
44.58000 330.484
44.59000 337.679
44.60000 346.921
44.61000 355.857
44.62000 366.494
44.63000 377.176
44.64000 387.339
44.65000 391.787
44.66000 394.659
44.67000 397.951
44.68000 404.058
44.69000 410.689
44.70000 416.203
44.71000 431.374
44.72000 444.877
44.73000 455.603
44.74000 457.946
44.75000 459.719
44.76000 463.056
44.77000 469.666
44.78000 476.378
44.79000 480.350
44.80000 497.927
44.81000 510.426
44.82000 518.047
44.83000 521.008
44.84000 523.975
44.85000 527.413
44.86000 531.151
44.87000 534.794
44.88000 535.776
44.89000 535.593
44.90000 535.473
44.91000 536.177
44.92000 537.133
44.93000 536.970
44.94000 528.287
44.95000 517.833
44.96000 508.963
44.97000 511.394
44.98000 514.712
44.99000 514.578
45.00000 502.899
45.01000 490.292
45.02000 482.476
45.03000 485.738
45.04000 489.446
45.05000 491.738
45.06000 477.054
45.07000 466.347
45.08000 458.670
45.09000 454.246
45.10000 449.793
45.11000 441.005
45.12000 429.131
45.13000 417.489
45.14000 416.578
45.15000 420.753
45.16000 424.258
45.17000 417.538
45.18000 407.354
45.19000 398.024
45.20000 396.120
45.21000 395.938
45.22000 395.780
45.23000 389.143
45.24000 382.664
45.25000 375.798
45.26000 367.500
45.27000 359.067
45.28000 348.881
45.29000 334.207
45.30000 319.310
45.31000 309.726
45.32000 322.168
45.33000 331.556
45.34000 336.823
45.35000 337.134
45.36000 337.419
45.37000 332.587
45.38000 323.694
45.39000 314.927
45.40000 309.337
45.41000 305.577
45.42000 301.642
45.43000 294.510
45.44000 286.180
45.45000 278.636
45.46000 278.958
45.47000 281.309
45.48000 283.376
45.49000 278.320
45.50000 272.913
45.51000 269.236
45.52000 272.683
45.53000 276.902
45.54000 278.458
45.55000 272.479
45.56000 266.044
45.57000 261.745
45.58000 254.889
45.59000 249.759
45.60000 248.260
45.61000 251.635
45.62000 255.033
45.63000 256.771
45.64000 257.035
45.65000 257.297
45.66000 258.159
45.67000 259.355
45.68000 260.549
45.69000 261.714
45.70000 262.866
45.71000 263.311
45.72000 255.530
45.73000 245.394
45.74000 236.339
45.75000 237.234
45.76000 239.691
45.77000 241.956
45.78000 243.348
45.79000 244.632
45.80000 245.251
45.81000 243.793
45.82000 242.183
45.83000 241.071
45.84000 240.450
45.85000 239.997
45.86000 237.896
45.87000 233.336
45.88000 228.752
45.89000 225.009
45.90000 222.102
45.91000 219.213
45.92000 221.149
45.93000 226.226
45.94000 231.152
45.95000 231.787
45.96000 230.457
45.97000 229.233
45.98000 229.463
45.99000 230.153
46.00000 230.778
46.01000 229.458
46.02000 227.922
46.03000 225.585
46.04000 219.134
46.05000 212.102
46.06000 206.569
46.07000 206.232
46.08000 206.338
46.09000 206.413
46.10000 207.724
46.11000 208.765
46.12000 211.230
46.13000 216.056
46.14000 220.918
46.15000 219.058
46.16000 209.679
46.17000 200.323
46.18000 197.686
46.19000 200.004
46.20000 202.278
46.21000 202.963
46.22000 202.843
46.23000 202.907
46.24000 205.975
46.25000 210.098
46.26000 213.887
46.27000 214.116
46.28000 213.554
46.29000 213.253
46.30000 214.451
46.31000 215.888
46.32000 216.557
46.33000 214.268
46.34000 211.687
46.35000 209.787
46.36000 210.890
46.37000 211.869
46.38000 213.339
46.39000 215.712
46.40000 218.105
46.41000 220.071
46.42000 221.503
46.43000 222.932
46.44000 218.729
46.45000 209.905
46.46000 201.200
46.47000 198.582
46.48000 199.378
46.49000 200.249
46.50000 202.617
46.51000 205.565
46.52000 208.309
46.53000 210.031
46.54000 211.340
46.55000 211.864
46.56000 207.290
46.57000 201.800
46.58000 198.528
46.59000 204.752
46.60000 212.059
46.61000 217.593
46.62000 213.814
46.63000 210.375
46.64000 207.129
46.65000 204.273
46.66000 201.428
46.67000 202.153
46.68000 207.855
46.69000 213.589
46.70000 214.324
46.71000 210.441
46.72000 206.604
46.73000 206.167
46.74000 207.846
46.75000 209.374
46.76000 207.194
46.77000 203.422
46.78000 199.872
46.79000 202.751
46.80000 207.128
46.81000 210.741
46.82000 208.740
46.83000 205.609
46.84000 202.757
46.85000 201.231
46.86000 199.879
46.87000 198.827
46.88000 201.083
46.89000 203.080
46.90000 203.928
46.91000 202.193
46.92000 200.361
46.93000 199.740
46.94000 200.996
46.95000 202.273
46.96000 202.924
46.97000 199.793
46.98000 197.710
46.99000 197.765
47.00000 199.298
47.01000 200.788
47.02000 200.928
47.03000 200.426
47.04000 199.950
47.05000 198.159
47.06000 196.105
47.07000 193.879
47.08000 190.225
47.09000 186.250
47.10000 184.301
47.11000 193.175
47.12000 203.648
47.13000 211.993
47.14000 211.935
47.15000 211.278
47.16000 208.579
47.17000 200.802
47.18000 192.787
47.19000 188.793
47.20000 191.712
47.21000 194.750
47.22000 196.386
47.23000 197.536
47.24000 198.320
47.25000 198.858
47.26000 199.206
47.27000 199.513
47.28000 198.119
47.29000 195.832
47.30000 193.637
47.31000 190.454
47.32000 187.142
47.33000 184.935
47.34000 193.343
47.35000 204.407
47.36000 212.862
47.37000 205.661
47.38000 195.850
47.39000 187.851
47.40000 181.081
47.41000 175.651
47.42000 173.344
47.43000 179.620
47.44000 186.389
47.45000 192.628
47.46000 197.860
47.47000 203.068
47.48000 206.018
47.49000 204.836
47.50000 204.006
47.51000 206.614
47.52000 212.174
47.53000 217.610
47.54000 215.817
47.55000 209.816
47.56000 204.010
47.57000 200.647
47.58000 198.399
47.59000 196.108
47.60000 193.333
47.61000 190.424
47.62000 187.508
47.63000 184.545
47.64000 181.572
47.65000 179.097
47.66000 184.376
47.67000 189.518
47.68000 194.595
47.69000 199.477
47.70000 204.345
47.71000 205.851
47.72000 200.273
47.73000 194.468
47.74000 191.023
47.75000 183.041
47.76000 177.366
47.77000 177.375
47.78000 182.858
47.79000 188.314
47.80000 191.430
47.81000 193.035
47.82000 194.599
47.83000 192.468
47.84000 188.866
47.85000 185.549
47.86000 185.961
47.87000 187.522
47.88000 189.087
47.89000 190.677
47.90000 192.273
47.91000 193.628
47.92000 190.100
47.93000 186.581
47.94000 185.041
47.95000 190.171
47.96000 195.842
47.97000 199.888
47.98000 200.148
47.99000 200.252
48.00000 200.317
48.01000 197.388
48.02000 195.252
48.03000 195.565
48.04000 198.528
48.05000 201.457
48.06000 199.222
48.07000 193.281
48.08000 187.453
48.09000 186.500
48.10000 187.894
48.11000 189.355
48.12000 191.867
48.13000 194.736
48.14000 197.114
48.15000 195.176
48.16000 192.230
48.17000 189.681
48.18000 189.707
48.19000 190.067
48.20000 190.174
48.21000 189.340
48.22000 188.416
48.23000 188.844
48.24000 192.756
48.25000 196.844
48.26000 199.482
48.27000 186.601
48.28000 176.967
48.29000 176.681
48.30000 187.723
48.31000 198.763
48.32000 200.542
48.33000 194.915
48.34000 189.366
48.35000 183.615
48.36000 177.918
48.37000 172.491
48.38000 172.097
48.39000 173.604
48.40000 175.633
48.41000 182.946
48.42000 191.632
48.43000 199.279
48.44000 195.328
48.45000 190.189
48.46000 186.711
48.47000 190.123
48.48000 194.291
48.49000 196.255
48.50000 191.942
48.51000 187.244
48.52000 184.097
48.53000 185.885
48.54000 187.309
48.55000 186.175
48.56000 181.582
48.57000 176.974
48.58000 178.115
48.59000 184.396
48.60000 190.619
48.61000 192.466
48.62000 191.685
48.63000 191.043
48.64000 193.575
48.65000 197.432
48.66000 200.925
48.67000 200.132
48.68000 198.104
48.69000 196.291
48.70000 194.015
48.71000 191.952
48.72000 190.034
48.73000 188.791
48.74000 187.632
48.75000 185.518
48.76000 180.392
48.77000 175.046
48.78000 171.339
48.79000 181.959
48.80000 190.333
48.81000 194.780
48.82000 193.321
48.83000 191.803
48.84000 189.950
48.85000 187.761
48.86000 185.584
48.87000 186.494
48.88000 189.434
48.89000 192.277
48.90000 192.301
48.91000 191.024
48.92000 189.743
48.93000 188.407
48.94000 187.054
48.95000 185.826
48.96000 182.334
48.97000 178.816
48.98000 175.993
48.99000 176.764
49.00000 178.048
49.01000 179.281
49.02000 180.336
49.03000 181.376
49.04000 182.120
49.05000 184.183
49.06000 185.804
49.07000 185.973
49.08000 183.720
49.09000 181.428
49.10000 182.170
49.11000 186.334
49.12000 190.488
49.13000 191.092
49.14000 189.063
49.15000 187.022
49.16000 184.481
49.17000 181.686
49.18000 178.997
49.19000 178.063
49.20000 177.749
49.21000 177.461
49.22000 183.461
49.23000 190.186
49.24000 195.677
49.25000 194.005
49.26000 191.177
49.27000 188.498
49.28000 186.389
49.29000 184.338
49.30000 182.824
49.31000 188.298
49.32000 192.834
49.33000 192.370
49.34000 182.659
49.35000 172.744
49.36000 169.881
49.37000 175.910
49.38000 181.961
49.39000 184.266
49.40000 183.456
49.41000 182.637
49.42000 181.389
49.43000 179.899
49.44000 178.588
49.45000 180.891
49.46000 184.606
49.47000 188.066
49.48000 183.341
49.49000 177.072
49.50000 172.285
49.51000 177.197
49.52000 183.865
49.53000 188.944
49.54000 187.162
49.55000 184.589
49.56000 182.638
49.57000 182.408
49.58000 182.316
49.59000 182.262
49.60000 182.285
49.61000 182.310
49.62000 183.242
49.63000 185.449
49.64000 187.665
49.65000 185.831
49.66000 180.227
49.67000 174.679
49.68000 173.429
49.69000 174.873
49.70000 176.310
49.71000 177.597
49.72000 178.818
49.73000 179.967
49.74000 182.549
49.75000 185.302
49.76000 187.591
49.77000 186.444
49.78000 184.600
49.79000 183.324
49.80000 184.783
49.81000 186.602
49.82000 188.018
49.83000 194.046
49.84000 199.132
49.85000 201.619
49.86000 198.219
49.87000 194.593
49.88000 190.895
49.89000 187.082
49.90000 183.267
49.91000 181.316
49.92000 178.818
49.93000 177.170
49.94000 179.385
49.95000 184.290
49.96000 189.110
49.97000 191.238
49.98000 192.077
49.99000 192.875
50.00000 190.711
50.01000 187.800
50.02000 185.221
50.03000 185.447
50.04000 186.309
50.05000 187.643
50.06000 191.521
50.07000 195.777
50.08000 199.175
50.09000 198.235
50.10000 197.158
50.11000 195.718
50.12000 193.374
50.13000 190.987
50.14000 189.895
50.15000 191.048
50.16000 192.240
50.17000 192.885
50.18000 194.267
50.19000 195.226
50.20000 199.289
50.21000 205.759
50.22000 212.108
50.23000 213.342
50.24000 211.869
50.25000 210.454
50.26000 212.992
50.27000 216.721
50.28000 220.142
50.29000 220.568
50.30000 220.239
50.31000 220.226
50.32000 222.126
50.33000 224.348
50.34000 226.163
50.35000 230.022
50.36000 233.356
50.37000 237.568
50.38000 244.211
50.39000 250.994
50.40000 256.572
50.41000 259.836
50.42000 263.044
50.43000 264.867
50.44000 279.101
50.45000 289.044
50.46000 290.228
50.47000 283.826
50.48000 277.560
50.49000 279.391
50.50000 285.968
50.51000 292.336
50.52000 295.538
50.53000 297.352
50.54000 298.928
50.55000 297.832
50.56000 295.988
50.57000 293.170
50.58000 283.697
50.59000 272.968
50.60000 264.019
50.61000 269.778
50.62000 276.026
50.63000 281.715
50.64000 285.691
50.65000 289.548
50.66000 290.699
50.67000 286.110
50.68000 281.333
50.69000 278.489
50.70000 272.347
50.71000 267.976
50.72000 265.654
50.73000 265.325
50.74000 264.982
50.75000 263.506
50.76000 261.291
50.77000 259.131
50.78000 251.842
50.79000 242.686
50.80000 233.910
50.81000 230.148
50.82000 227.942
50.83000 225.698
50.84000 223.161
50.85000 220.563
50.86000 218.352
50.87000 216.714
50.88000 215.404
50.89000 213.960
50.90000 212.063
50.91000 210.128
50.92000 208.172
50.93000 206.166
50.94000 204.158
50.95000 202.909
50.96000 209.915
50.97000 215.042
50.98000 213.870
50.99000 205.822
51.00000 197.811
51.01000 196.027
51.02000 198.745
51.03000 201.413
51.04000 200.739
51.05000 198.491
51.06000 196.245
51.07000 194.038
51.08000 191.846
51.09000 190.161
51.10000 192.975
51.11000 196.850
51.12000 200.207
51.13000 201.855
51.14000 203.031
51.15000 202.872
51.16000 197.688
51.17000 192.022
51.18000 188.137
51.19000 188.871
51.20000 189.843
51.21000 190.472
51.22000 187.512
51.23000 185.295
51.24000 183.653
51.25000 182.714
51.26000 181.782
51.27000 182.416
51.28000 184.311
51.29000 186.181
51.30000 185.724
51.31000 184.037
51.32000 182.206
51.33000 177.636
51.34000 172.026
51.35000 167.142
51.36000 169.683
51.37000 174.169
51.38000 178.122
51.39000 184.908
51.40000 191.183
51.41000 195.297
51.42000 190.365
51.43000 184.432
51.44000 179.702
51.45000 178.422
51.46000 177.357
51.47000 176.643
51.48000 175.511
51.49000 174.663
51.50000 173.275
51.51000 171.151
51.52000 169.024
51.53000 169.418
51.54000 172.084
51.55000 174.726
51.56000 172.304
51.57000 166.908
51.58000 161.842
51.59000 164.463
51.60000 170.315
51.61000 175.850
51.62000 177.610
51.63000 178.275
51.64000 178.869
51.65000 178.982
51.66000 178.998
51.67000 178.388
51.68000 174.853
51.69000 170.948
51.70000 167.528
51.71000 165.652
51.72000 163.890
51.73000 162.665
51.74000 167.143
51.75000 170.671
51.76000 172.311
51.77000 171.091
51.78000 169.842
51.79000 169.565
51.80000 170.273
51.81000 170.977
51.82000 173.554
51.83000 177.348
51.84000 181.068
51.85000 182.615
51.86000 183.150
51.87000 183.247
51.88000 177.196
51.89000 169.166
51.90000 161.871
51.91000 165.257
51.92000 170.322
51.93000 174.806
51.94000 176.267
51.95000 177.294
51.96000 176.957
51.97000 171.821
51.98000 166.267
51.99000 162.281
52.00000 158.359
52.01000 155.361
52.02000 155.040
52.03000 159.217
52.04000 163.467
52.05000 164.788
52.06000 162.780
52.07000 160.774
52.08000 161.382
52.09000 163.938
52.10000 166.458
52.11000 167.573
52.12000 167.966
52.13000 168.330
52.14000 168.211
52.15000 167.921
52.16000 167.654
52.17000 172.477
52.18000 177.904
52.19000 182.051
52.20000 178.703
52.21000 174.137
52.22000 170.161
52.23000 168.493
52.24000 167.058
52.25000 165.997
52.26000 161.446
52.27000 157.767
52.28000 156.783
52.29000 160.821
52.30000 164.973
52.31000 166.180
52.32000 163.647
52.33000 161.103
52.34000 162.013
52.35000 165.809
52.36000 169.584
52.37000 172.254
52.38000 174.296
52.39000 176.130
52.40000 173.746
52.41000 169.699
52.42000 165.928
52.43000 165.804
52.44000 166.589
52.45000 167.845
52.46000 172.214
52.47000 177.151
52.48000 180.583
52.49000 177.467
52.50000 173.590
52.51000 170.643
52.52000 171.038
52.53000 171.524
52.54000 170.751
52.55000 167.382
52.56000 163.934
52.57000 162.956
52.58000 165.475
52.59000 168.018
52.60000 170.286
52.61000 172.293
52.62000 174.281
52.63000 174.697
52.64000 174.120
52.65000 173.564
52.66000 173.529
52.67000 173.722
52.68000 173.904
52.69000 169.927
52.70000 165.138
52.71000 160.968
52.72000 161.421
52.73000 162.821
52.74000 164.341
52.75000 166.445
52.76000 168.625
52.77000 170.327
52.78000 170.588
52.79000 170.705
52.80000 169.911
52.81000 167.038
52.82000 164.084
52.83000 163.372
52.84000 166.187
52.85000 169.045
52.86000 170.513
52.87000 169.682
52.88000 169.117
52.89000 167.731
52.90000 165.768
52.91000 163.812
52.92000 162.076
52.93000 160.447
52.94000 158.896
52.95000 163.573
52.96000 169.830
52.97000 175.024
52.98000 171.165
52.99000 165.238
53.00000 160.611
53.01000 163.046
53.02000 166.543
53.03000 169.339
53.04000 170.810
53.05000 171.901
53.06000 173.047
53.07000 174.333
53.08000 175.626
53.09000 173.377
53.10000 164.948
53.11000 156.407
53.12000 151.774
53.13000 157.047
53.14000 160.670
53.15000 163.476
53.16000 165.645
53.17000 167.751
53.18000 167.176
53.19000 165.170
53.20000 163.244
53.21000 167.450
53.22000 173.510
53.23000 178.670
53.24000 175.019
53.25000 169.129
53.26000 164.440
53.27000 167.085
53.28000 170.973
53.29000 174.152
53.30000 172.464
53.31000 170.657
53.32000 168.912
53.33000 167.337
53.34000 165.773
53.35000 164.461
53.36000 163.638
53.37000 162.826
53.38000 162.364
53.39000 176.164
53.40000 185.826
53.41000 186.984
53.42000 180.719
53.43000 174.512
53.44000 171.898
53.45000 171.404
53.46000 170.927
53.47000 172.181
53.48000 174.036
53.49000 175.596
53.50000 173.788
53.51000 171.029
53.52000 168.620
53.53000 168.616
53.54000 169.069
53.55000 169.447
53.56000 171.014
53.57000 172.436
53.58000 171.961
53.59000 165.635
53.60000 158.897
53.61000 154.351
53.62000 154.489
53.63000 154.783
53.64000 154.959
53.65000 161.223
53.66000 165.705
53.67000 167.228
53.68000 165.852
53.69000 164.507
53.70000 166.101
53.71000 169.621
53.72000 173.055
53.73000 170.289
53.74000 164.970
53.75000 160.064
53.76000 160.656
53.77000 162.968
53.78000 165.004
53.79000 164.874
53.80000 164.283
53.81000 163.780
53.82000 160.792
53.83000 157.990
53.84000 155.364
53.85000 153.341
53.86000 151.367
53.87000 150.951
53.88000 154.213
53.89000 157.630
53.90000 159.761
53.91000 157.640
53.92000 156.068
53.93000 155.787
53.94000 156.926
53.95000 158.071
53.96000 160.210
53.97000 163.072
53.98000 165.882
53.99000 169.646
54.00000 173.736
54.01000 177.424
54.02000 174.712
54.03000 169.785
54.04000 165.233
54.05000 164.037
54.06000 163.636
54.07000 163.288
54.08000 158.781
54.09000 154.386
54.10000 151.190
54.11000 152.537
54.12000 154.326
54.13000 156.836
54.14000 161.233
54.15000 165.729
54.16000 168.645
54.17000 169.634
54.18000 170.329
54.19000 169.643
54.20000 167.257
54.21000 164.870
54.22000 163.648
54.23000 163.374
54.24000 163.103
54.25000 161.425
54.26000 159.034
54.27000 156.744
54.28000 156.404
54.29000 156.809
54.30000 157.142
54.31000 156.725
54.32000 156.112
54.33000 155.570
54.34000 158.701
54.35000 161.961
54.36000 164.374
54.37000 163.216
54.38000 161.659
54.39000 161.134
54.40000 163.592
54.41000 166.238
54.42000 168.019
54.43000 167.071
54.44000 166.309
54.45000 164.248
54.46000 160.403
54.47000 156.549
54.48000 154.895
54.49000 155.242
54.50000 155.586
54.51000 160.034
54.52000 166.864
54.53000 173.288
54.54000 170.084
54.55000 162.803
54.56000 156.068
54.57000 155.895
54.58000 157.643
54.59000 159.210
54.60000 158.043
54.61000 156.550
54.62000 155.448
54.63000 156.182
54.64000 157.150
54.65000 158.140
54.66000 159.200
54.67000 160.264
54.68000 161.005
54.69000 156.663
54.70000 153.248
54.71000 151.221
54.72000 151.312
54.73000 151.425
54.74000 155.062
54.75000 162.296
54.76000 169.493
54.77000 169.157
54.78000 163.764
54.79000 158.596
54.80000 160.235
54.81000 165.061
54.82000 169.630
54.83000 170.574
54.84000 170.341
54.85000 170.130
54.86000 167.941
54.87000 165.618
54.88000 163.637
54.89000 163.457
54.90000 163.537
54.91000 164.530
54.92000 168.755
54.93000 173.266
54.94000 176.510
54.95000 175.037
54.96000 173.745
54.97000 172.519
54.98000 171.404
54.99000 170.292
55.00000 168.426
55.01000 165.697
55.02000 162.974
55.03000 165.491
55.04000 171.932
55.05000 178.251
55.06000 179.684
55.07000 178.587
55.08000 177.592
55.09000 178.324
55.10000 179.676
55.11000 180.922
55.12000 180.149
55.13000 179.012
55.14000 178.382
55.15000 180.750
55.16000 183.608
55.17000 185.093
55.18000 181.167
55.19000 176.688
55.20000 173.369
55.21000 177.244
55.22000 180.565
55.23000 183.682
55.24000 186.415
55.25000 189.140
55.26000 190.615
55.27000 190.489
55.28000 190.358
55.29000 193.628
55.30000 199.758
55.31000 205.871
55.32000 211.027
55.33000 215.635
55.34000 220.441
55.35000 229.327
55.36000 239.834
55.37000 249.633
55.38000 254.815
55.39000 258.362
55.40000 261.460
55.41000 261.563
55.42000 261.114
55.43000 263.272
55.44000 276.855
55.45000 291.779
55.46000 303.148
55.47000 308.568
55.48000 312.519
55.49000 317.268
55.50000 323.671
55.51000 330.125
55.52000 340.705
55.53000 357.171
55.54000 373.680
55.55000 388.610
55.56000 402.039
55.57000 415.410
55.58000 423.918
55.59000 429.333
55.60000 434.910
55.61000 444.682
55.62000 456.294
55.63000 467.246
55.64000 481.492
55.65000 495.461
55.66000 508.930
55.67000 518.629
55.68000 527.550
55.69000 535.177
55.70000 536.476
55.71000 536.928
55.72000 537.281
55.73000 543.638
55.74000 549.094
55.75000 554.727
55.76000 560.768
55.77000 566.825
55.78000 567.050
55.79000 558.030
55.80000 548.893
55.81000 544.181
55.82000 539.987
55.83000 537.162
55.84000 534.334
55.85000 531.503
55.86000 528.391
55.87000 515.970
55.88000 499.032
55.89000 482.895
55.90000 472.915
55.91000 465.584
55.92000 458.934
55.93000 458.143
55.94000 458.700
55.95000 457.068
55.96000 443.443
55.97000 428.000
55.98000 415.630
55.99000 397.578
56.00000 382.545
56.01000 369.633
56.02000 362.101
56.03000 354.835
56.04000 347.122
56.05000 338.624
56.06000 330.111
56.07000 325.475
56.08000 317.118
56.09000 311.386
56.10000 308.036
56.11000 306.562
56.12000 304.941
56.13000 296.769
56.14000 285.081
56.15000 273.843
56.16000 264.217
56.17000 255.761
56.18000 247.801
56.19000 244.752
56.20000 242.960
56.21000 241.043
56.22000 238.354
56.23000 235.534
56.24000 233.224
56.25000 230.231
56.26000 227.717
56.27000 226.438
56.28000 228.626
56.29000 231.021
56.30000 229.713
56.31000 221.197
56.32000 212.496
56.33000 207.517
56.34000 206.117
56.35000 205.150
56.36000 203.332
56.37000 200.764
56.38000 198.200
56.39000 195.936
56.40000 193.850
56.41000 191.828
56.42000 187.615
56.43000 182.774
56.44000 178.263
56.45000 177.551
56.46000 177.917
56.47000 178.245
56.48000 178.299
56.49000 178.301
56.50000 178.303
56.51000 176.197
56.52000 174.231
56.53000 172.338
56.54000 170.669
56.55000 169.017
56.56000 168.685
56.57000 171.197
56.58000 173.805
56.59000 175.367
56.60000 177.724
56.61000 179.402
56.62000 178.530
56.63000 175.138
56.64000 171.757
56.65000 169.358
56.66000 167.607
56.67000 165.899
56.68000 164.360
56.69000 162.963
56.70000 161.738
56.71000 162.854
56.72000 164.707
56.73000 166.839
56.74000 171.173
56.75000 175.978
56.76000 180.078
56.77000 176.600
56.78000 172.779
56.79000 169.458
56.80000 167.853
56.81000 166.393
56.82000 165.967
56.83000 168.002
56.84000 170.144
56.85000 171.483
56.86000 159.584
56.87000 150.857
56.88000 146.756
56.89000 147.788
56.90000 148.828
56.91000 150.519
56.92000 152.689
56.93000 154.820
56.94000 154.473
56.95000 152.936
56.96000 151.551
56.97000 152.615
56.98000 154.533
56.99000 156.361
57.00000 157.376
57.01000 158.196
57.02000 158.909
57.03000 156.999
57.04000 155.018
57.05000 154.264
57.06000 158.205
57.07000 162.606
57.08000 164.059
57.09000 157.756
57.10000 151.042
57.11000 146.674
57.12000 146.641
57.13000 146.684
57.14000 146.930
57.15000 147.428
57.16000 147.931
57.17000 149.993
57.18000 153.330
57.19000 156.624
57.20000 155.393
57.21000 151.739
57.22000 148.454
57.23000 152.359
57.24000 159.037
57.25000 164.956
57.26000 162.969
57.27000 158.881
57.28000 155.269
57.29000 147.311
57.30000 139.771
57.31000 135.181
57.32000 143.130
57.33000 152.493
57.34000 158.177
57.35000 153.148
57.36000 147.435
57.37000 143.580
57.38000 148.339
57.39000 152.064
57.40000 153.314
57.41000 151.139
57.42000 148.942
57.43000 146.828
57.44000 144.792
57.45000 142.773
57.46000 144.752
57.47000 149.116
57.48000 153.316
57.49000 153.539
57.50000 152.067
57.51000 150.234
57.52000 144.018
57.53000 136.510
57.54000 129.773
57.55000 138.525
57.56000 148.882
57.57000 156.835
57.58000 153.398
57.59000 148.492
57.60000 144.952
57.61000 145.813
57.62000 147.009
57.63000 147.844
57.64000 141.525
57.65000 136.553
57.66000 135.559
57.67000 140.686
57.68000 145.881
57.69000 144.354
57.70000 135.901
57.71000 127.491
57.72000 126.777
57.73000 131.286
57.74000 135.751
57.75000 138.910
57.76000 141.452
57.77000 143.628
57.78000 140.562
57.79000 135.784
57.80000 131.435
57.81000 140.267
57.82000 150.686
57.83000 158.272
57.84000 150.838
57.85000 141.204
57.86000 134.536
57.87000 138.466
57.88000 143.338
57.89000 146.850
57.90000 146.366
57.91000 145.853
57.92000 144.459
57.93000 141.562
57.94000 138.640
57.95000 137.700
57.96000 139.052
57.97000 140.403
57.98000 141.794
57.99000 143.207
58.00000 144.583
58.01000 144.475
58.02000 143.591
58.03000 142.673
58.04000 141.142
58.05000 139.390
58.06000 137.774
58.07000 139.320
58.08000 141.409
58.09000 143.635
58.10000 146.680
58.11000 149.859
58.12000 151.650
58.13000 147.931
58.14000 143.643
58.15000 140.459
58.16000 144.336
58.17000 147.661
58.18000 148.422
58.19000 144.339
58.20000 140.140
58.21000 138.549
58.22000 140.322
58.23000 142.106
58.24000 143.281
58.25000 143.933
58.26000 144.584
58.27000 145.085
58.28000 145.501
58.29000 145.956
58.30000 147.250
58.31000 148.879
58.32000 150.399
58.33000 149.386
58.34000 147.834
58.35000 146.229
58.36000 144.269
58.37000 142.244
58.38000 140.494
58.39000 139.959
58.40000 139.567
58.41000 139.269
58.42000 138.520
58.43000 137.905
58.44000 137.941
58.45000 139.339
58.46000 140.779
58.47000 142.346
58.48000 144.097
58.49000 145.848
58.50000 143.789
58.51000 138.090
58.52000 132.454
58.53000 132.246
58.54000 135.516
58.55000 138.671
58.56000 138.813
58.57000 137.624
58.58000 136.501
58.59000 139.615
58.60000 143.659
58.61000 147.083
58.62000 145.786
58.63000 143.508
58.64000 141.824
58.65000 143.071
58.66000 144.713
58.67000 145.999
58.68000 143.090
58.69000 140.497
58.70000 138.549
58.71000 138.096
58.72000 137.703
58.73000 139.963
58.74000 146.461
58.75000 153.014
58.76000 156.408
58.77000 146.030
58.78000 139.063
58.79000 137.319
58.80000 139.294
58.81000 141.215
58.82000 141.293
58.83000 140.471
58.84000 139.688
58.85000 139.570
58.86000 139.670
58.87000 139.849
58.88000 140.721
58.89000 141.753
58.90000 142.847
58.91000 144.284
58.92000 145.773
58.93000 146.967
58.94000 138.520
58.95000 130.946
58.96000 126.490
58.97000 130.007
58.98000 133.922
58.99000 137.000
59.00000 138.597
59.01000 140.165
59.02000 141.022
59.03000 140.434
59.04000 140.020
59.05000 137.200
59.06000 132.472
59.07000 127.891
59.08000 129.973
59.09000 135.660
59.10000 141.130
59.11000 139.829
59.12000 136.230
59.13000 133.204
59.14000 135.911
59.15000 140.096
59.16000 143.472
59.17000 141.823
59.18000 139.308
59.19000 137.245
59.20000 137.775
59.21000 138.441
59.22000 138.805
59.23000 138.313
59.24000 137.769
59.25000 137.272
59.26000 136.866
59.27000 136.463
59.28000 136.232
59.29000 144.726
59.30000 150.692
59.31000 151.325
59.32000 147.226
59.33000 143.136
59.34000 139.584
59.35000 136.354
59.36000 133.221
59.37000 131.590
59.38000 130.633
59.39000 129.910
59.40000 131.893
59.41000 134.652
59.42000 137.310
59.43000 139.267
59.44000 141.089
59.45000 142.615
59.46000 141.109
59.47000 139.544
59.48000 138.379
59.49000 138.466
59.50000 138.643
59.51000 139.318
59.52000 141.075
59.53000 142.868
59.54000 143.947
59.55000 142.337
59.56000 141.175
59.57000 141.440
59.58000 143.128
59.59000 144.769
59.60000 141.631
59.61000 135.314
59.62000 129.145
59.63000 130.394
59.64000 134.842
59.65000 138.769
59.66000 135.563
59.67000 130.093
59.68000 125.587
59.69000 128.758
59.70000 133.589
59.71000 137.715
59.72000 142.882
59.73000 147.358
59.74000 149.599
59.75000 144.085
59.76000 137.910
59.77000 132.877
59.78000 130.580
59.79000 128.401
59.80000 127.036
59.81000 134.790
59.82000 140.492
59.83000 141.261
59.84000 136.512
59.85000 131.779
59.86000 130.762
59.87000 132.495
59.88000 134.198
59.89000 132.707
59.90000 129.705
59.91000 127.063
59.92000 130.300
59.93000 135.601
59.94000 139.794
59.95000 133.864
59.96000 125.495
59.97000 118.216
59.98000 123.470
59.99000 129.662
60.00000 134.145
60.01000 132.045
60.02000 129.294
60.03000 126.985
60.04000 125.849
60.05000 124.776
60.06000 124.076
60.07000 137.213
60.08000 147.073
60.09000 152.513
60.10000 152.425
60.11000 152.311
60.12000 148.434
60.13000 141.450
60.14000 134.553
60.15000 132.311
60.16000 132.672
60.17000 133.063
60.18000 134.042
60.19000 135.251
60.20000 136.495
60.21000 138.118
60.22000 139.841
60.23000 141.366
60.24000 138.082
60.25000 134.497
60.26000 131.470
60.27000 130.837
60.28000 130.476
60.29000 129.853
60.30000 128.464
60.31000 127.026
60.32000 126.053
60.33000 128.594
60.34000 130.564
60.35000 132.873
60.36000 135.654
60.37000 138.438
60.38000 139.457
60.39000 138.843
60.40000 138.234
60.41000 135.968
60.42000 132.730
60.43000 129.605
60.44000 129.243
60.45000 130.067
60.46000 130.836
60.47000 130.917
60.48000 130.795
60.49000 130.684
60.50000 135.541
60.51000 140.665
60.52000 144.669
60.53000 143.321
60.54000 141.276
60.55000 139.375
60.56000 137.941
60.57000 136.543
60.58000 135.564
60.59000 136.729
60.60000 137.671
60.61000 138.252
60.62000 138.273
60.63000 138.288
60.64000 136.724
60.65000 133.519
60.66000 130.329
60.67000 132.177
60.68000 137.445
60.69000 142.594
60.70000 143.997
60.71000 143.622
60.72000 143.175
60.73000 141.684
60.74000 139.849
60.75000 138.177
60.76000 133.408
60.77000 128.566
60.78000 125.493
60.79000 131.875
60.80000 139.653
60.81000 144.643
60.82000 139.596
60.83000 133.648
60.84000 129.350
60.85000 129.546
60.86000 129.858
60.87000 131.124
60.88000 134.031
60.89000 136.966
60.90000 142.637
60.91000 151.497
60.92000 160.340
60.93000 159.533
60.94000 151.351
60.95000 143.276
60.96000 139.630
60.97000 138.313
60.98000 136.846
60.99000 132.778
61.00000 127.762
61.01000 123.132
61.02000 129.717
61.03000 138.136
61.04000 145.204
61.05000 144.154
61.06000 141.750
61.07000 139.791
61.08000 139.607
61.09000 139.608
61.10000 139.608
61.11000 147.508
61.12000 154.007
61.13000 156.647
61.14000 151.940
61.15000 147.055
61.16000 144.724
61.17000 145.716
61.18000 146.722
61.19000 144.288
61.20000 138.910
61.21000 133.603
61.22000 132.438
61.23000 133.683
61.24000 134.880
61.25000 135.042
61.26000 134.788
61.27000 134.551
61.28000 135.351
61.29000 136.338
61.30000 137.380
61.31000 138.796
61.32000 140.282
61.33000 141.752
61.34000 143.151
61.35000 144.542
61.36000 145.606
61.37000 149.126
61.38000 152.036
61.39000 154.283
61.40000 155.134
61.41000 155.940
61.42000 155.529
61.43000 153.355
61.44000 151.166
61.45000 150.019
61.46000 149.877
61.47000 149.775
61.48000 153.258
61.49000 159.055
61.50000 165.036
61.51000 175.928
61.52000 189.007
61.53000 201.361
61.54000 216.645
61.55000 231.501
61.56000 245.761
61.57000 255.436
61.58000 264.151
61.59000 274.387
61.60000 292.190
61.61000 311.024
61.62000 325.801
61.63000 336.939
61.64000 345.609
61.65000 353.205
61.66000 358.300
61.67000 363.293
61.68000 366.439
61.69000 366.614
61.70000 366.750
61.71000 366.820
61.72000 370.624
61.73000 373.103
61.74000 361.761
61.75000 340.500
61.76000 319.535
61.77000 308.760
61.78000 303.001
61.79000 297.508
61.80000 278.717
61.81000 257.065
61.82000 236.170
61.83000 221.919
61.84000 209.221
61.85000 196.713
61.86000 185.266
61.87000 173.982
61.88000 164.914
61.89000 162.664
61.90000 161.365
61.91000 159.828
61.92000 157.678
61.93000 155.497
61.94000 155.247
61.95000 158.440
61.96000 161.701
61.97000 163.489
61.98000 155.504
61.99000 150.004
62.00000 147.576
62.01000 147.604
62.02000 147.596
62.03000 145.972
62.04000 143.466
62.05000 141.053
62.06000 145.746
62.07000 152.665
62.08000 158.870
62.09000 157.850
62.10000 154.952
62.11000 151.673
62.12000 146.011
62.13000 139.934
62.14000 134.941
62.15000 141.611
62.16000 148.140
62.17000 153.296
62.18000 154.542
62.19000 155.547
62.20000 155.337
62.21000 152.726
62.22000 150.051
62.23000 148.510
62.24000 143.201
62.25000 139.475
62.26000 142.147
62.27000 150.543
62.28000 158.818
62.29000 159.092
62.30000 154.535
62.31000 150.114
62.32000 148.317
62.33000 147.652
62.34000 147.165
62.35000 148.771
62.36000 150.980
62.37000 152.957
62.38000 153.283
62.39000 153.288
62.40000 153.292
62.41000 153.820
62.42000 154.314
62.43000 154.212
62.44000 152.232
62.45000 150.113
62.46000 148.003
62.47000 145.910
62.48000 143.818
62.49000 142.556
62.50000 137.270
62.51000 133.479
62.52000 135.862
62.53000 144.447
62.54000 152.966
62.55000 154.520
62.56000 151.406
62.57000 148.363
62.58000 150.067
62.59000 153.795
62.60000 157.356
62.61000 158.591
62.62000 159.083
62.63000 159.321
62.64000 157.510
62.65000 155.253
62.66000 153.322
62.67000 150.044
62.68000 147.118
62.69000 144.501
62.70000 142.964
62.71000 141.521
62.72000 141.772
62.73000 146.115
62.74000 150.640
62.75000 153.486
62.76000 152.496
62.77000 151.738
62.78000 150.217
62.79000 147.837
62.80000 145.471
62.81000 145.970
62.82000 148.604
62.83000 151.192
62.84000 150.297
62.85000 147.712
62.86000 145.187
62.87000 143.666
62.88000 142.499
62.89000 141.724
62.90000 144.555
62.91000 148.262
62.92000 151.490
62.93000 151.243
62.94000 150.554
62.95000 150.092
62.96000 150.516
62.97000 151.028
62.98000 151.730
62.99000 152.939
63.00000 154.177
63.01000 154.986
63.02000 155.847
63.03000 156.480
63.04000 156.650
63.05000 156.236
63.06000 155.820
63.07000 155.078
63.08000 154.065
63.09000 153.065
63.10000 152.465
63.11000 152.100
63.12000 151.789
63.13000 152.569
63.14000 153.774
63.15000 154.715
63.16000 152.825
63.17000 150.173
63.18000 147.824
63.19000 147.006
63.20000 146.538
63.21000 145.980
63.22000 145.032
63.23000 144.038
63.24000 144.016
63.25000 146.862
63.26000 149.897
63.27000 151.955
63.28000 147.911
63.29000 144.760
63.30000 144.704
63.31000 148.998
63.32000 153.321
63.33000 155.237
63.34000 154.908
63.35000 154.582
63.36000 155.331
63.37000 156.728
63.38000 157.968
63.39000 155.301
63.40000 150.943
63.41000 147.155
63.42000 150.471
63.43000 155.912
63.44000 160.804
63.45000 155.298
63.46000 148.628
63.47000 143.314
63.48000 144.533
63.49000 146.610
63.50000 149.228
63.51000 153.610
63.52000 158.130
63.53000 161.301
63.54000 158.699
63.55000 156.562
63.56000 155.137
63.57000 154.823
63.58000 154.522
63.59000 154.665
63.60000 155.271
63.61000 155.875
63.62000 157.766
63.63000 160.521
63.64000 163.190
63.65000 163.113
63.66000 161.723
63.67000 160.324
63.68000 158.801
63.69000 157.235
63.70000 155.807
63.71000 158.233
63.72000 161.157
63.73000 163.361
63.74000 161.687
63.75000 159.436
63.76000 158.096
63.77000 160.067
63.78000 162.339
63.79000 163.984
63.80000 161.619
63.81000 159.656
63.82000 157.269
63.83000 154.145
63.84000 151.009
63.85000 150.683
63.86000 153.660
63.87000 156.635
63.88000 159.264
63.89000 161.612
63.90000 163.891
63.91000 163.280
63.92000 161.138
63.93000 159.215
63.94000 161.146
63.95000 164.490
63.96000 167.580
63.97000 167.200
63.98000 166.074
63.99000 165.100
64.00000 165.044
64.01000 165.142
64.02000 165.450
64.03000 166.606
64.04000 167.850
64.05000 168.778
64.06000 165.739
64.07000 163.191
64.08000 160.857
64.09000 158.932
64.10000 157.018
64.11000 156.270
64.12000 157.053
64.13000 157.842
64.14000 159.218
64.15000 161.100
64.16000 163.018
64.17000 167.063
64.18000 172.354
64.19000 177.389
64.20000 176.903
64.21000 174.176
64.22000 171.627
64.23000 173.175
64.24000 175.624
64.25000 177.405
64.26000 174.631
64.27000 170.996
64.28000 168.164
64.29000 168.930
64.30000 170.130
64.31000 171.049
64.32000 169.268
64.33000 167.713
64.34000 165.832
64.35000 163.262
64.36000 160.669
64.37000 161.247
64.38000 166.453
64.39000 171.699
64.40000 171.798
64.41000 166.897
64.42000 162.034
64.43000 160.584
64.44000 161.353
64.45000 162.239
64.46000 166.250
64.47000 171.663
64.48000 176.780
64.49000 177.569
64.50000 177.060
64.51000 176.889
64.52000 179.351
64.53000 182.368
64.54000 183.528
64.55000 175.379
64.56000 165.951
64.57000 158.540
64.58000 170.467
64.59000 181.289
64.60000 188.400
64.61000 186.804
64.62000 184.846
64.63000 183.807
64.64000 184.257
64.65000 184.727
64.66000 184.973
64.67000 184.668
64.68000 184.464
64.69000 184.669
64.70000 185.168
64.71000 185.636
64.72000 185.006
64.73000 183.830
64.74000 182.708
64.75000 186.501
64.76000 191.593
64.77000 196.295
64.78000 197.531
64.79000 197.951
64.80000 198.223
64.81000 197.664
64.82000 196.974
64.83000 196.419
64.84000 198.813
64.85000 200.985
64.86000 203.243
64.87000 205.723
64.88000 208.215
64.89000 207.597
64.90000 201.393
64.91000 195.077
64.92000 191.599
64.93000 202.405
64.94000 209.867
64.95000 214.972
64.96000 218.177
64.97000 221.399
64.98000 225.421
64.99000 229.883
65.00000 234.180
65.01000 237.131
65.02000 239.421
65.03000 242.009
65.04000 247.639
65.05000 254.066
65.06000 260.148
65.07000 264.054
65.08000 267.579
65.09000 270.480
65.10000 287.137
65.11000 302.084
65.12000 315.012
65.13000 322.142
65.14000 328.911
65.15000 337.072
65.16000 348.001
65.17000 359.007
65.18000 365.370
65.19000 362.716
65.20000 360.825
65.21000 366.357
65.22000 378.586
65.23000 390.788
65.24000 401.197
65.25000 410.515
65.26000 419.561
65.27000 431.386
65.28000 443.715
65.29000 455.702
65.30000 463.620
65.31000 470.354
65.32000 475.996
65.33000 473.823
65.34000 470.115
65.35000 466.999
65.36000 471.359
65.37000 475.780
65.38000 480.537
65.39000 486.363
65.40000 492.267
65.41000 496.075
65.42000 495.269
65.43000 494.299
65.44000 493.712
65.45000 495.796
65.46000 497.301
65.47000 500.643
65.48000 505.846
65.49000 511.034
65.50000 514.647
65.51000 517.196
65.52000 519.687
65.53000 516.440
65.54000 510.772
65.55000 505.117
65.56000 499.631
65.57000 494.201
65.58000 488.579
65.59000 481.390
65.60000 473.858
65.61000 467.407
65.62000 485.924
65.63000 504.583
65.64000 521.763
65.65000 533.738
65.66000 545.259
65.67000 560.479
65.68000 584.695
65.69000 609.315
65.70000 624.845
65.71000 701.793
65.72000 758.222
65.73000 828.706
65.74000 915.171
65.75000 1001.636
65.76000 1084.942
65.77000 1165.874
65.78000 1245.453
65.79000 1310.346
65.80000 1365.806
65.81000 1420.120
65.82000 1455.265
65.83000 1483.579
65.84000 1510.914
65.85000 1529.125
65.86000 1545.104
65.87000 1559.036
65.88000 1572.600
65.89000 1584.144
65.90000 1587.060
65.91000 1556.244
65.92000 1522.021
65.93000 1483.169
65.94000 1431.870
65.95000 1379.885
65.96000 1345.793
65.97000 1186.921
65.98000 1068.008
65.99000 965.622
66.00000 884.240
66.01000 802.943
66.02000 727.353
66.03000 656.550
66.04000 586.577
66.05000 544.730
66.06000 519.528
66.07000 494.136
66.08000 464.849
66.09000 434.028
66.10000 404.826
66.11000 393.075
66.12000 386.067
66.13000 379.855
66.14000 369.913
66.15000 360.717
66.16000 353.470
66.17000 354.704
66.18000 356.923
66.19000 357.755
66.20000 354.455
66.21000 350.880
66.22000 348.450
66.23000 362.924
66.24000 374.112
66.25000 381.803
66.26000 384.546
66.27000 387.254
66.28000 400.709
66.29000 424.261
66.30000 447.634
66.31000 465.115
66.32000 478.645
66.33000 492.267
66.34000 508.238
66.35000 525.233
66.36000 541.630
66.37000 550.502
66.38000 557.105
66.39000 563.049
66.40000 574.214
66.41000 584.936
66.42000 594.793
66.43000 600.445
66.44000 605.541
66.45000 607.504
66.46000 599.144
66.47000 589.973
66.48000 583.524
66.49000 559.388
66.50000 540.581
66.51000 524.379
66.52000 512.274
66.53000 500.219
66.54000 482.704
66.55000 459.422
66.56000 436.242
66.57000 424.280
66.58000 420.230
66.59000 416.057
66.60000 407.870
66.61000 397.748
66.62000 388.261
66.63000 388.236
66.64000 391.369
66.65000 394.230
66.66000 383.979
66.67000 372.226
66.68000 362.544
66.69000 364.110
66.70000 367.367
66.71000 369.779
66.72000 369.105
66.73000 368.146
66.74000 367.451
66.75000 370.946
66.76000 373.788
66.77000 373.693
66.78000 368.477
66.79000 363.166
66.80000 362.375
66.81000 366.934
66.82000 371.493
66.83000 373.265
66.84000 372.863
66.85000 372.377
66.86000 368.276
66.87000 362.247
66.88000 357.014
66.89000 366.035
66.90000 380.322
66.91000 393.534
66.92000 391.394
66.93000 385.968
66.94000 381.656
66.95000 384.144
66.96000 387.784
66.97000 392.909
66.98000 404.060
66.99000 415.852
67.00000 424.660
67.01000 414.740
67.02000 406.144
67.03000 399.962
67.04000 398.443
67.05000 397.042
67.06000 396.518
67.07000 397.153
67.08000 397.793
67.09000 402.887
67.10000 411.853
67.11000 420.695
67.12000 421.855
67.13000 418.479
67.14000 415.193
67.15000 413.896
67.16000 413.413
67.17000 412.960
67.18000 414.983
67.19000 417.457
67.20000 420.047
67.21000 423.437
67.22000 426.979
67.23000 429.767
67.24000 429.147
67.25000 428.110
67.26000 427.315
67.27000 433.716
67.28000 439.178
67.29000 443.350
67.30000 444.764
67.31000 446.087
67.32000 447.556
67.33000 449.238
67.34000 450.923
67.35000 450.431
67.36000 447.807
67.37000 445.270
67.38000 450.994
67.39000 462.130
67.40000 472.809
67.41000 470.864
67.42000 463.217
67.43000 455.983
67.44000 456.060
67.45000 458.231
67.46000 460.936
67.47000 467.813
67.48000 475.579
67.49000 481.170
67.50000 475.781
67.51000 468.868
67.52000 463.424
67.53000 472.063
67.54000 479.924
67.55000 487.127
67.56000 492.775
67.57000 498.357
67.58000 502.013
67.59000 502.524
67.60000 502.990
67.61000 503.235
67.62000 507.522
67.63000 510.450
67.64000 517.147
67.65000 526.591
67.66000 535.826
67.67000 537.622
67.68000 535.702
67.69000 533.867
67.70000 530.902
67.71000 527.781
67.72000 525.865
67.73000 534.736
67.74000 546.166
67.75000 554.849
67.76000 547.983
67.77000 538.674
67.78000 531.169
67.79000 544.807
67.80000 557.549
67.81000 567.845
67.82000 571.750
67.83000 575.323
67.84000 576.775
67.85000 574.390
67.86000 571.925
67.87000 570.564
67.88000 566.271
67.89000 563.324
67.90000 567.914
67.91000 578.627
67.92000 589.183
67.93000 592.066
67.94000 590.706
67.95000 589.395
67.96000 595.988
67.97000 605.029
67.98000 613.815
67.99000 619.968
68.00000 625.427
68.01000 630.888
68.02000 636.360
68.03000 641.834
68.04000 646.346
68.05000 636.704
68.06000 627.466
68.07000 624.232
68.08000 638.352
68.09000 653.567
68.10000 662.499
68.11000 658.844
68.12000 654.836
68.13000 652.511
68.14000 665.226
68.15000 674.211
68.16000 680.064
68.17000 683.070
68.18000 686.113
68.19000 691.849
68.20000 699.235
68.21000 706.409
68.22000 707.309
68.23000 705.641
68.24000 704.686
68.25000 712.307
68.26000 722.438
68.27000 732.995
68.28000 746.618
68.29000 760.849
68.30000 772.822
68.31000 767.933
68.32000 762.060
68.33000 760.124
68.34000 770.792
68.35000 782.404
68.36000 795.809
68.37000 813.185
68.38000 830.705
68.39000 841.336
68.40000 840.927
68.41000 840.551
68.42000 853.776
68.43000 880.898
68.44000 907.881
68.45000 919.186
68.46000 919.823
68.47000 920.446
68.48000 926.454
68.49000 934.634
68.50000 944.000
68.51000 970.163
68.52000 1001.775
68.53000 1030.369
68.54000 1034.192
68.55000 1032.531
68.56000 1031.107
68.57000 1081.431
68.58000 1130.288
68.59000 1180.509
68.60000 1235.568
68.61000 1291.053
68.62000 1346.626
68.63000 1402.416
68.64000 1458.216
68.65000 1493.515
68.66000 1596.978
68.67000 1672.792
68.68000 1758.913
68.69000 1856.849
68.70000 1954.707
68.71000 2032.897
68.72000 2096.192
68.73000 2158.453
68.74000 2247.440
68.75000 2346.963
68.76000 2445.666
68.77000 2530.473
68.78000 2610.292
68.79000 2692.373
68.80000 2795.751
68.81000 2904.379
68.82000 2999.203
68.83000 3165.650
68.84000 3318.113
68.85000 3498.149
68.86000 3786.783
68.87000 4086.506
68.88000 4458.810
68.89000 5027.733
68.90000 5607.659
68.91000 5988.990
68.92000 8101.012
68.93000 9685.394
68.94000 12185.050
68.95000 15857.153
68.96000 19536.184
68.97000 24700.543
68.98000 31120.703
68.99000 37467.621
69.00000 44858.426
69.01000 52656.973
69.02000 60406.203
69.03000 67137.188
69.04000 73463.977
69.05000 79548.195
69.06000 82990.602
69.07000 85709.484
69.08000 88122.266
69.09000 89394.008
69.10000 90313.805
69.11000 91215.125
69.12000 92035.516
69.13000 92846.406
69.14000 93675.047
69.15000 94556.883
69.16000 95442.297
69.17000 96045.797
69.18000 95639.867
69.19000 95313.211
69.20000 94149.523
69.21000 91791.594
69.22000 89424.406
69.23000 85948.203
69.24000 81421.266
69.25000 76927.711
69.26000 72013.313
69.27000 66916.625
69.28000 61872.250
69.29000 58174.676
69.30000 55068.211
69.31000 52057.480
69.32000 50265.699
69.33000 48844.125
69.34000 47563.250
69.35000 46183.934
69.36000 44955.988
69.37000 43582.988
69.38000 41500.488
69.39000 39323.016
69.40000 36910.188
69.41000 33716.109
69.42000 30459.885
69.43000 28164.928
69.44000 23500.201
69.45000 19891.377
69.46000 16586.992
69.47000 13765.168
69.48000 10949.421
69.49000 8748.841
69.50000 7203.519
69.51000 5664.877
69.52000 4650.884
69.53000 4014.200
69.54000 3384.926
69.55000 3000.919
69.56000 2735.961
69.57000 2477.089
69.58000 2309.996
69.59000 2173.769
69.60000 2049.292
69.61000 1937.997
69.62000 1841.844
69.63000 1750.879
69.64000 1688.320
69.65000 1630.070
69.66000 1575.181
69.67000 1532.661
69.68000 1491.291
69.69000 1461.211
69.70000 1402.062
69.71000 1355.454
69.72000 1308.627
69.73000 1261.413
69.74000 1214.193
69.75000 1184.227
69.76000 1174.852
69.77000 1165.535
69.78000 1153.125
69.79000 1138.355
69.80000 1123.373
69.81000 1099.017
69.82000 1069.627
69.83000 1041.130
69.84000 1028.848
69.85000 1022.601
69.86000 1016.818
69.87000 985.100
69.88000 950.620
69.89000 919.263
69.90000 907.133
69.91000 898.292
69.92000 889.081
69.93000 878.358
69.94000 867.473
69.95000 859.325
69.96000 855.180
69.97000 852.133
69.98000 842.817
69.99000 821.302
70.00000 799.472
