20.00000 602.921
20.01000 610.705
20.02000 619.602
20.03000 626.040
20.04000 622.651
20.05000 618.239
20.06000 614.956
20.07000 606.534
20.08000 599.752
20.09000 592.797
20.10000 585.512
20.11000 578.219
20.12000 575.367
20.13000 578.292
20.14000 581.238
20.15000 589.872
20.16000 603.361
20.17000 616.618
20.18000 616.472
20.19000 608.527
20.20000 600.545
20.21000 591.782
20.22000 582.706
20.23000 574.226
20.24000 575.826
20.25000 579.818
20.26000 583.883
20.27000 588.441
20.28000 593.091
20.29000 597.374
20.30000 600.031
20.31000 602.492
20.32000 604.374
20.33000 606.266
20.34000 607.759
20.35000 605.377
20.36000 594.834
20.37000 584.029
20.38000 580.126
20.39000 586.215
20.40000 592.386
20.41000 592.676
20.42000 587.302
20.43000 582.024
20.44000 585.162
20.45000 593.731
20.46000 601.932
20.47000 600.352
20.48000 594.418
20.49000 588.813
20.50000 597.349
20.51000 609.182
20.52000 618.880
20.53000 612.173
20.54000 602.029
20.55000 593.424
20.56000 592.458
20.57000 592.532
20.58000 592.591
20.59000 616.307
20.60000 636.810
20.61000 646.986
20.62000 633.106
20.63000 618.244
20.64000 603.214
20.65000 587.912
20.66000 572.607
20.67000 564.650
20.68000 583.259
20.69000 595.767
20.70000 597.988
20.71000 592.830
20.72000 587.898
20.73000 590.734
20.74000 597.392
20.75000 603.745
20.76000 595.158
20.77000 582.458
20.78000 571.554
20.79000 576.414
20.80000 584.956
20.81000 594.231
20.82000 607.588
20.83000 621.574
20.84000 632.813
20.85000 630.762
20.86000 628.078
20.87000 621.304
20.88000 603.998
20.89000 586.158
20.90000 572.731
20.91000 567.170
20.92000 561.764
20.93000 558.799
20.94000 572.781
20.95000 582.421
20.96000 589.997
20.97000 595.924
20.98000 601.754
20.99000 603.077
21.00000 601.945
21.01000 600.855
21.02000 598.406
21.03000 595.627
21.04000 593.019
21.05000 592.144
21.06000 591.720
21.07000 591.713
21.08000 594.321
21.09000 597.382
21.10000 599.898
21.11000 602.706
21.12000 605.040
21.13000 606.696
21.14000 606.425
21.15000 606.035
21.16000 604.901
21.17000 602.301
21.18000 599.661
21.19000 598.140
21.20000 598.966
21.21000 599.553
21.22000 600.899
21.23000 602.925
21.24000 604.828
21.25000 598.570
21.26000 587.384
21.27000 576.532
21.28000 580.091
21.29000 589.166
21.30000 597.301
21.31000 594.384
21.32000 588.280
21.33000 583.863
21.34000 591.383
21.35000 601.231
21.36000 609.492
21.37000 599.661
21.38000 589.591
21.39000 581.306
21.40000 578.644
21.41000 576.395
21.42000 576.081
21.43000 579.993
21.44000 584.053
21.45000 586.502
21.46000 587.117
21.47000 587.541
21.48000 589.220
21.49000 592.156
21.50000 595.067
21.51000 595.265
21.52000 593.645
21.53000 592.062
21.54000 589.792
21.55000 587.314
21.56000 585.091
21.57000 586.392
21.58000 588.818
21.59000 590.808
21.60000 589.279
21.61000 586.984
21.62000 585.021
21.63000 573.793
21.64000 563.212
21.65000 556.142
21.66000 561.335
21.67000 567.583
21.68000 574.325
21.69000 582.259
21.70000 590.246
21.71000 595.269
21.72000 586.294
21.73000 579.645
21.74000 579.602
21.75000 587.007
21.76000 594.367
21.77000 591.893
21.78000 582.090
21.79000 572.454
21.80000 575.392
21.81000 584.436
21.82000 592.950
21.83000 592.743
21.84000 589.451
21.85000 586.963
21.86000 591.886
21.87000 598.607
21.88000 604.460
21.89000 594.511
21.90000 583.840
21.91000 576.819
21.92000 583.953
21.93000 592.503
21.94000 599.129
21.95000 600.619
21.96000 601.830
21.97000 602.622
21.98000 589.344
21.99000 579.362
22.00000 578.836
22.01000 590.227
22.02000 601.647
22.03000 607.675
22.04000 609.219
22.05000 610.744
22.06000 602.973
22.07000 590.276
22.08000 578.258
22.09000 579.839
22.10000 586.740
22.11000 593.411
22.12000 597.622
22.13000 601.170
22.14000 604.312
22.15000 599.253
22.16000 593.593
22.17000 589.120
22.18000 589.769
22.19000 591.008
22.20000 590.480
22.21000 584.734
22.22000 578.645
22.23000 574.517
22.24000 583.434
22.25000 590.372
22.26000 595.574
22.27000 598.338
22.28000 601.084
22.29000 600.316
22.30000 596.276
22.31000 592.268
22.32000 584.823
22.33000 575.393
22.34000 566.383
22.35000 567.822
22.36000 573.779
22.37000 579.789
22.38000 586.462
22.39000 593.333
22.40000 599.511
22.41000 592.024
22.42000 583.039
22.43000 575.230
22.44000 573.080
22.45000 571.674
22.46000 571.909
22.47000 577.515
22.48000 583.538
22.49000 587.762
22.50000 578.815
22.51000 571.663
22.52000 568.604
22.53000 571.933
22.54000 575.337
22.55000 580.672
22.56000 588.031
22.57000 595.355
22.58000 598.892
22.59000 599.785
22.60000 600.617
22.61000 599.533
22.62000 597.531
22.63000 595.404
22.64000 591.414
22.65000 586.808
22.66000 582.607
22.67000 580.184
22.68000 578.392
22.69000 578.018
22.70000 585.281
22.71000 593.681
22.72000 600.065
22.73000 599.134
22.74000 597.539
22.75000 596.385
22.76000 584.597
22.77000 575.157
22.78000 569.211
22.79000 569.313
22.80000 569.522
22.81000 573.464
22.82000 581.789
22.83000 590.102
22.84000 588.247
22.85000 578.566
22.86000 569.073
22.87000 567.529
22.88000 570.191
22.89000 572.858
22.90000 575.599
22.91000 578.366
22.92000 580.924
22.93000 583.245
22.94000 585.276
22.95000 587.715
22.96000 592.630
22.97000 597.962
22.98000 601.459
22.99000 597.566
23.00000 592.895
23.01000 589.413
23.02000 577.786
23.03000 568.362
23.04000 566.169
23.05000 577.841
23.06000 589.855
23.07000 594.942
23.08000 590.951
23.09000 586.922
23.10000 583.007
23.11000 579.198
23.12000 575.434
23.13000 574.315
23.14000 574.746
23.15000 575.263
23.16000 577.622
23.17000 580.729
23.18000 583.635
23.19000 574.763
23.20000 563.714
23.21000 555.208
23.22000 564.078
23.23000 576.227
23.24000 585.043
23.25000 578.916
23.26000 570.984
23.27000 564.908
23.28000 573.094
23.29000 580.344
23.30000 586.966
23.31000 592.261
23.32000 597.512
23.33000 600.516
23.34000 600.239
23.35000 599.935
23.36000 598.323
23.37000 595.441
23.38000 592.554
23.39000 589.183
23.40000 585.496
23.41000 581.866
23.42000 579.766
23.43000 578.354
23.44000 577.018
23.45000 583.123
23.46000 590.851
23.47000 596.795
23.48000 588.912
23.49000 578.108
23.50000 571.066
23.51000 582.855
23.52000 597.233
23.53000 608.534
23.54000 596.240
23.55000 584.845
23.56000 578.006
23.57000 581.851
23.58000 586.140
23.59000 590.277
23.60000 594.171
23.61000 598.060
23.62000 600.091
23.63000 594.857
23.64000 591.310
23.65000 587.150
23.66000 582.546
23.67000 578.251
23.68000 584.770
23.69000 596.650
23.70000 607.992
23.71000 601.219
23.72000 589.147
23.73000 577.627
23.74000 571.004
23.75000 565.535
23.76000 562.096
23.77000 570.058
23.78000 579.793
23.79000 587.629
23.80000 599.173
23.81000 608.827
23.82000 614.347
23.83000 609.146
23.84000 603.394
23.85000 596.742
23.86000 588.476
23.87000 580.177
23.88000 575.609
23.89000 578.063
23.90000 579.775
23.91000 585.290
23.92000 593.870
23.93000 602.309
23.94000 604.071
23.95000 602.171
23.96000 600.340
23.97000 596.669
23.98000 592.566
23.99000 588.829
24.00000 588.834
24.01000 589.819
24.02000 590.578
24.03000 589.910
24.04000 588.992
24.05000 588.236
24.06000 582.406
24.07000 577.150
24.08000 575.243
24.09000 582.941
24.10000 591.238
24.11000 597.510
24.12000 599.758
24.13000 601.895
24.14000 603.131
24.15000 596.214
24.16000 591.336
24.17000 589.919
24.18000 591.623
24.19000 593.285
24.20000 592.008
24.21000 588.945
24.22000 585.971
24.23000 579.797
24.24000 572.663
24.25000 566.792
24.26000 575.936
24.27000 589.441
24.28000 600.848
24.29000 597.268
24.30000 590.743
24.31000 585.261
24.32000 584.261
24.33000 583.900
24.34000 585.875
24.35000 595.265
24.36000 605.205
24.37000 607.643
24.38000 593.585
24.39000 578.938
24.40000 570.079
24.41000 593.514
24.42000 610.450
24.43000 612.616
24.44000 599.823
24.45000 587.156
24.46000 588.268
24.47000 598.682
24.48000 608.861
24.49000 610.310
24.50000 607.810
24.51000 605.184
24.52000 600.782
24.53000 595.809
24.54000 590.946
24.55000 586.973
24.56000 583.195
24.57000 579.960
24.58000 586.754
24.59000 593.705
24.60000 599.751
24.61000 602.611
24.62000 605.194
24.63000 605.270
24.64000 599.254
24.65000 592.965
24.66000 588.998
24.67000 589.738
24.68000 590.328
24.69000 594.656
24.70000 603.236
24.71000 611.781
24.72000 612.514
24.73000 607.378
24.74000 602.328
24.75000 593.205
24.76000 582.355
24.77000 572.446
24.78000 578.262
24.79000 589.680
24.80000 599.270
24.81000 591.829
24.82000 580.223
24.83000 570.104
24.84000 566.635
24.85000 564.593
24.86000 565.343
24.87000 577.001
24.88000 589.761
24.89000 598.799
24.90000 597.833
24.91000 596.315
24.92000 595.320
24.93000 592.005
24.94000 589.529
24.95000 587.804
24.96000 587.036
24.97000 586.271
24.98000 585.562
24.99000 584.901
25.00000 584.247
25.01000 584.224
25.02000 584.551
25.03000 584.814
25.04000 583.771
25.05000 582.213
25.06000 581.273
25.07000 586.989
25.08000 594.513
25.09000 601.183
25.10000 587.910
25.11000 573.266
25.12000 562.683
25.13000 569.757
25.14000 578.882
25.15000 586.133
25.16000 587.811
25.17000 589.119
25.18000 590.009
25.19000 585.158
25.20000 581.406
25.21000 580.669
25.22000 584.196
25.23000 587.753
25.24000 587.048
25.25000 582.340
25.26000 577.668
25.27000 576.643
25.28000 577.899
25.29000 579.155
25.30000 580.423
25.31000 581.696
25.32000 583.381
25.33000 590.238
25.34000 598.654
25.35000 606.229
25.36000 604.348
25.37000 601.004
25.38000 597.402
25.39000 592.544
25.40000 587.520
25.41000 584.451
25.42000 587.817
25.43000 591.690
25.44000 594.413
25.45000 584.567
25.46000 576.738
25.47000 573.814
25.48000 578.604
25.49000 583.488
25.50000 586.341
25.51000 587.049
25.52000 587.753
25.53000 586.231
25.54000 583.179
25.55000 580.423
25.56000 587.231
25.57000 598.646
25.58000 609.386
25.59000 610.066
25.60000 607.388
25.61000 604.943
25.62000 608.068
25.63000 611.970
25.64000 615.079
25.65000 613.885
25.66000 612.043
25.67000 609.544
25.68000 604.642
25.69000 599.520
25.70000 595.804
25.71000 595.181
25.72000 594.817
25.73000 595.131
25.74000 596.627
25.75000 598.145
25.76000 596.438
25.77000 590.914
25.78000 585.395
25.79000 587.703
25.80000 596.079
25.81000 604.312
25.82000 606.366
25.83000 605.126
25.84000 603.783
25.85000 600.581
25.86000 596.694
25.87000 593.100
25.88000 594.963
25.89000 597.881
25.90000 600.738
25.91000 603.224
25.92000 605.646
25.93000 605.653
25.94000 595.858
25.95000 585.021
25.96000 576.926
25.97000 598.631
25.98000 616.921
25.99000 621.533
26.00000 599.727
26.01000 577.256
26.02000 573.218
26.03000 593.529
26.04000 613.941
26.05000 619.712
26.06000 612.715
26.07000 605.795
26.08000 603.595
26.09000 604.182
26.10000 604.688
26.11000 603.409
26.12000 601.401
26.13000 599.521
26.14000 600.494
26.15000 602.109
26.16000 603.825
26.17000 606.239
26.18000 608.785
26.19000 610.250
26.20000 606.828
26.21000 602.809
26.22000 599.725
26.23000 592.327
26.24000 586.239
26.25000 581.549
26.26000 579.845
26.27000 578.241
26.28000 582.533
26.29000 595.494
26.30000 608.531
26.31000 608.805
26.32000 596.579
26.33000 584.544
26.34000 590.289
26.35000 607.684
26.36000 624.626
26.37000 629.108
26.38000 627.963
26.39000 626.880
26.40000 611.523
26.41000 593.303
26.42000 578.053
26.43000 586.047
26.44000 598.987
26.45000 609.739
26.46000 609.447
26.47000 607.622
26.48000 606.186
26.49000 603.000
26.50000 600.331
26.51000 599.499
26.52000 603.006
26.53000 606.696
26.54000 608.324
26.55000 606.589
26.56000 604.805
26.57000 603.871
26.58000 613.411
26.59000 619.847
26.60000 621.497
26.61000 619.662
26.62000 617.676
26.63000 610.320
26.64000 600.282
26.65000 590.694
26.66000 591.883
26.67000 596.456
26.68000 601.170
26.69000 607.147
26.70000 613.423
26.71000 617.979
26.72000 612.808
26.73000 606.109
26.74000 600.709
26.75000 591.884
26.76000 584.449
26.77000 581.218
26.78000 588.971
26.79000 597.297
26.80000 603.016
26.81000 604.018
26.82000 604.923
26.83000 605.423
26.84000 597.288
26.85000 591.669
26.86000 588.803
26.87000 588.175
26.88000 587.589
26.89000 589.127
26.90000 591.838
26.91000 594.450
26.92000 605.273
26.93000 618.398
26.94000 629.268
26.95000 616.865
26.96000 598.324
26.97000 582.719
26.98000 585.819
26.99000 592.225
27.00000 597.505
27.01000 608.010
27.02000 617.135
27.03000 622.096
27.04000 615.021
27.05000 607.188
27.06000 604.570
27.07000 612.396
27.08000 620.515
27.09000 625.224
27.10000 609.683
27.11000 598.694
27.12000 593.498
27.13000 593.568
27.14000 593.691
27.15000 597.638
27.16000 603.928
27.17000 610.037
27.18000 609.201
27.19000 605.616
27.20000 603.064
27.21000 612.930
27.22000 626.431
27.23000 637.402
27.24000 630.143
27.25000 619.273
27.26000 610.128
27.27000 613.068
27.28000 616.807
27.29000 619.936
27.30000 621.111
27.31000 622.140
27.32000 622.307
27.33000 620.566
27.34000 618.755
27.35000 617.656
27.36000 613.873
27.37000 611.153
27.38000 607.550
27.39000 603.045
27.40000 598.579
27.41000 598.502
27.42000 601.412
27.43000 604.257
27.44000 607.251
27.45000 610.189
27.46000 612.986
27.47000 613.791
27.48000 613.949
27.49000 614.508
27.50000 618.343
27.51000 622.904
27.52000 626.815
27.53000 622.660
27.54000 618.161
27.55000 614.002
27.56000 611.049
27.57000 608.203
27.58000 607.031
27.59000 609.959
27.60000 613.075
27.61000 615.046
27.62000 608.890
27.63000 604.331
27.64000 602.616
27.65000 604.161
27.66000 605.693
27.67000 603.553
27.68000 598.633
27.69000 593.793
27.70000 597.098
27.71000 604.378
27.72000 611.583
27.73000 617.509
27.74000 622.975
27.75000 627.709
27.76000 625.552
27.77000 621.697
27.78000 618.332
27.79000 612.412
27.80000 606.988
27.81000 602.652
27.82000 602.597
27.83000 602.980
27.84000 603.346
27.85000 603.666
27.86000 603.984
27.87000 604.193
27.88000 614.130
27.89000 621.610
27.90000 627.202
27.91000 630.375
27.92000 633.526
27.93000 629.264
27.94000 618.737
27.95000 608.330
27.96000 608.526
27.97000 614.653
27.98000 620.166
27.99000 613.033
28.00000 600.881
28.01000 590.403
28.02000 598.131
28.03000 610.844
28.04000 622.126
28.05000 623.464
28.06000 623.035
28.07000 621.620
28.08000 615.881
28.09000 609.634
28.10000 607.668
28.11000 618.528
28.12000 630.250
28.13000 638.239
28.14000 633.379
28.15000 629.451
28.16000 627.372
28.17000 627.929
28.18000 628.505
28.19000 625.229
28.20000 618.305
28.21000 611.431
28.22000 610.386
28.23000 613.002
28.24000 615.424
28.25000 612.829
28.26000 608.032
28.27000 603.679
28.28000 604.971
28.29000 607.975
28.30000 610.682
28.31000 602.729
28.32000 593.824
28.33000 588.284
28.34000 599.199
28.35000 612.315
28.36000 624.128
28.37000 631.612
28.38000 638.752
28.39000 643.784
28.40000 637.374
28.41000 632.170
28.42000 625.479
28.43000 616.432
28.44000 607.355
28.45000 606.135
28.46000 613.281
28.47000 620.398
28.48000 621.099
28.49000 617.303
28.50000 613.567
28.51000 611.809
28.52000 611.009
28.53000 610.606
28.54000 616.176
28.55000 623.754
28.56000 630.678
28.57000 631.276
28.58000 630.515
28.59000 630.666
28.60000 635.811
28.61000 641.713
28.62000 645.587
28.63000 641.994
28.64000 637.707
28.65000 634.591
28.66000 615.732
28.67000 600.628
28.68000 593.553
28.69000 600.586
28.70000 607.882
28.71000 612.763
28.72000 614.762
28.73000 616.752
28.74000 622.732
28.75000 631.806
28.76000 640.731
28.77000 643.003
28.78000 641.704
28.79000 640.106
28.80000 633.083
28.81000 624.041
28.82000 615.673
28.83000 615.452
28.84000 617.128
28.85000 619.580
28.86000 626.815
28.87000 634.867
28.88000 640.503
28.89000 636.262
28.90000 630.960
28.91000 626.992
28.92000 631.909
28.93000 636.160
28.94000 638.385
28.95000 636.670
28.96000 634.854
28.97000 631.831
28.98000 627.202
28.99000 622.568
29.00000 621.793
29.01000 624.408
29.02000 626.984
29.03000 627.067
29.04000 625.665
29.05000 624.497
29.06000 628.529
29.07000 634.699
29.08000 640.477
29.09000 632.762
29.10000 622.258
29.11000 614.531
29.12000 626.118
29.13000 641.411
29.14000 652.968
29.15000 647.506
29.16000 639.950
29.17000 634.139
29.18000 642.112
29.19000 649.200
29.20000 653.256
29.21000 650.790
29.22000 648.104
29.23000 645.264
29.24000 642.197
29.25000 639.128
29.26000 639.817
29.27000 644.216
29.28000 648.532
29.29000 644.770
29.30000 635.674
29.31000 626.621
29.32000 618.716
29.33000 611.335
29.34000 604.347
29.35000 610.696
29.36000 620.400
29.37000 630.051
29.38000 639.278
29.39000 648.413
29.40000 655.330
29.41000 650.955
29.42000 644.999
29.43000 640.302
29.44000 638.642
29.45000 637.515
29.46000 636.445
29.47000 635.512
29.48000 634.584
29.49000 632.498
29.50000 628.507
29.51000 624.488
29.52000 622.374
29.53000 626.237
29.54000 628.876
29.55000 634.342
29.56000 641.883
29.57000 649.357
29.58000 654.367
29.59000 658.138
29.60000 661.743
29.61000 655.817
29.62000 647.214
29.63000 639.883
29.64000 644.071
29.65000 651.011
29.66000 656.524
29.67000 653.890
29.68000 649.967
29.69000 646.799
29.70000 635.961
29.71000 626.542
29.72000 624.710
29.73000 642.845
29.74000 662.036
29.75000 671.117
29.76000 661.772
29.77000 652.039
29.78000 646.642
29.79000 664.336
29.80000 676.575
29.81000 678.364
29.82000 671.599
29.83000 664.782
29.84000 655.382
29.85000 644.543
29.86000 634.091
29.87000 629.949
29.88000 628.341
29.89000 627.105
29.90000 629.751
29.91000 633.428
29.92000 637.146
29.93000 641.131
29.94000 645.163
29.95000 648.491
29.96000 641.046
29.97000 633.912
29.98000 629.255
29.99000 631.804
30.00000 634.814
30.01000 635.424
30.02000 631.193
30.03000 626.823
30.04000 624.280
30.05000 637.619
30.06000 647.058
30.07000 649.122
30.08000 644.428
30.09000 639.731
30.10000 634.844
30.11000 629.839
30.12000 624.976
30.13000 639.932
30.14000 662.174
30.15000 682.337
30.16000 677.226
30.17000 664.664
30.18000 652.846
30.19000 646.444
30.20000 641.124
30.21000 636.642
30.22000 634.877
30.23000 633.696
30.24000 634.719
30.25000 642.844
30.26000 651.508
30.27000 655.519
30.28000 649.149
30.29000 642.396
30.30000 638.286
30.31000 658.896
30.32000 673.812
30.33000 679.008
30.34000 674.193
30.35000 669.415
30.36000 669.129
30.37000 671.922
30.38000 674.654
30.39000 672.772
30.40000 668.878
30.41000 664.977
30.42000 660.966
30.43000 656.920
30.44000 653.319
30.45000 653.416
30.46000 654.337
30.47000 655.128
30.48000 652.921
30.49000 650.683
30.50000 650.304
30.51000 656.565
30.52000 663.417
30.53000 668.162
30.54000 667.711
30.55000 667.020
30.56000 666.581
30.57000 657.685
30.58000 651.125
30.59000 648.118
30.60000 649.215
30.61000 650.328
30.62000 653.717
30.63000 658.845
30.64000 663.890
30.65000 661.957
30.66000 656.559
30.67000 651.461
30.68000 651.508
30.69000 653.415
30.70000 655.763
30.71000 662.308
30.72000 669.896
30.73000 676.528
30.74000 680.991
30.75000 684.506
30.76000 685.941
30.77000 679.124
30.78000 671.456
30.79000 664.546
30.80000 659.702
30.81000 654.975
30.82000 651.859
30.83000 659.568
30.84000 665.437
30.85000 666.163
30.86000 660.252
30.87000 654.320
30.88000 652.249
30.89000 653.467
30.90000 654.672
30.91000 651.522
30.92000 645.988
30.93000 640.986
30.94000 647.110
30.95000 657.681
30.96000 667.810
30.97000 673.063
30.98000 676.971
30.99000 680.443
31.00000 677.268
31.01000 673.444
31.02000 670.193
31.03000 669.472
31.04000 669.050
31.05000 669.143
31.06000 670.785
31.07000 672.534
31.08000 673.728
31.09000 657.324
31.10000 644.638
31.11000 642.155
31.12000 654.335
31.13000 666.630
31.14000 671.077
31.15000 668.028
31.16000 665.001
31.17000 657.597
31.18000 647.552
31.19000 638.060
31.20000 643.031
31.21000 654.395
31.22000 665.236
31.23000 669.350
31.24000 671.407
31.25000 673.262
31.26000 675.120
31.27000 676.752
31.28000 677.903
31.29000 676.682
31.30000 675.141
31.31000 676.393
31.32000 686.981
31.33000 698.319
31.34000 706.328
31.35000 698.153
31.36000 691.454
31.37000 683.370
31.38000 673.077
31.39000 662.756
31.40000 658.708
31.41000 661.396
31.42000 664.075
31.43000 665.592
31.44000 666.275
31.45000 667.062
31.46000 671.369
31.47000 677.396
31.48000 682.872
31.49000 679.938
31.50000 674.157
31.51000 668.869
31.52000 668.951
31.53000 670.131
31.54000 672.092
31.55000 678.367
31.56000 685.302
31.57000 690.667
31.58000 690.207
31.59000 689.200
31.60000 688.466
31.61000 680.324
31.62000 673.769
31.63000 671.290
31.64000 676.027
31.65000 680.901
31.66000 687.665
31.67000 696.701
31.68000 705.724
31.69000 702.810
31.70000 690.483
31.71000 678.250
31.72000 670.320
31.73000 664.717
31.74000 659.937
31.75000 670.293
31.76000 686.319
31.77000 701.166
31.78000 694.744
31.79000 684.033
31.80000 674.562
31.81000 672.791
31.82000 672.347
31.83000 670.738
31.84000 664.326
31.85000 657.394
31.86000 652.194
31.87000 652.902
31.88000 653.735
31.89000 656.483
31.90000 662.986
31.91000 669.587
31.92000 673.829
31.93000 674.908
31.94000 675.969
31.95000 679.602
31.96000 685.509
31.97000 691.352
31.98000 693.092
31.99000 692.373
32.00000 691.483
32.01000 686.732
32.02000 680.381
32.03000 674.428
32.04000 676.200
32.05000 679.825
32.06000 683.984
32.07000 691.888
32.08000 700.516
32.09000 706.178
32.10000 698.225
32.11000 688.581
32.12000 681.150
32.13000 679.685
32.14000 678.866
32.15000 679.338
32.16000 682.604
32.17000 685.968
32.18000 683.811
32.19000 673.415
32.20000 662.940
32.21000 659.946
32.22000 664.402
32.23000 668.888
32.24000 676.466
32.25000 686.100
32.26000 695.654
32.27000 702.953
32.28000 709.218
32.29000 715.154
32.30000 702.778
32.31000 686.035
32.32000 672.000
32.33000 679.571
32.34000 691.813
32.35000 701.370
32.36000 697.154
32.37000 690.992
32.38000 686.124
32.39000 680.122
32.40000 675.226
32.41000 672.401
32.42000 674.537
32.43000 676.890
32.44000 678.815
32.45000 680.031
32.46000 681.237
32.47000 681.874
32.48000 686.312
32.49000 689.286
32.50000 684.769
32.51000 674.711
32.52000 665.051
32.53000 670.266
32.54000 683.017
32.55000 695.214
32.56000 698.110
32.57000 697.766
32.58000 697.492
32.59000 697.858
32.60000 698.378
32.61000 697.471
32.62000 688.353
32.63000 677.924
32.64000 669.488
32.65000 686.387
32.66000 702.177
32.67000 714.139
32.68000 715.958
32.69000 717.234
32.70000 714.925
32.71000 706.037
32.72000 697.007
32.73000 691.982
32.74000 690.746
32.75000 689.906
32.76000 692.334
32.77000 697.459
32.78000 702.539
32.79000 705.333
32.80000 706.844
32.81000 708.302
32.82000 706.619
32.83000 703.886
32.84000 701.395
32.85000 701.449
32.86000 702.183
32.87000 702.773
32.88000 702.419
32.89000 701.895
32.90000 701.463
32.91000 702.697
32.92000 703.871
32.93000 703.446
32.94000 698.329
32.95000 692.909
32.96000 690.247
32.97000 693.187
32.98000 696.289
32.99000 698.101
33.00000 706.432
33.01000 712.320
33.02000 710.704
33.03000 702.154
33.04000 693.766
33.05000 697.459
33.06000 708.664
33.07000 719.558
33.08000 719.365
33.09000 714.655
33.10000 710.230
33.11000 709.317
33.12000 709.447
33.13000 709.467
33.14000 708.680
33.15000 707.730
33.16000 706.929
33.17000 714.943
33.18000 722.596
33.19000 726.469
33.20000 718.073
33.21000 708.733
33.22000 702.133
33.23000 701.687
33.24000 701.472
33.25000 701.341
33.26000 708.271
33.27000 713.284
33.28000 717.604
33.29000 721.204
33.30000 724.762
33.31000 723.184
33.32000 718.060
33.33000 713.045
33.34000 708.209
33.35000 703.646
33.36000 699.355
33.37000 699.001
33.38000 699.941
33.39000 701.985
33.40000 713.260
33.41000 726.610
33.42000 738.088
33.43000 731.538
33.44000 723.742
33.45000 718.104
33.46000 720.235
33.47000 723.064
33.48000 724.625
33.49000 723.032
33.50000 721.291
33.51000 720.183
33.52000 728.237
33.53000 734.204
33.54000 739.487
33.55000 743.973
33.56000 748.448
33.57000 750.430
33.58000 750.496
33.59000 750.561
33.60000 739.105
33.61000 722.138
33.62000 706.143
33.63000 707.067
33.64000 714.150
33.65000 720.939
33.66000 724.904
33.67000 728.162
33.68000 731.013
33.69000 724.516
33.70000 717.611
33.71000 712.473
33.72000 714.397
33.73000 717.055
33.74000 718.168
33.75000 715.032
33.76000 711.652
33.77000 709.417
33.78000 726.360
33.79000 739.202
33.80000 745.810
33.81000 744.311
33.82000 742.781
33.83000 743.154
33.84000 745.160
33.85000 747.145
33.86000 748.480
33.87000 749.414
33.88000 749.780
33.89000 738.068
33.90000 721.494
33.91000 706.317
33.92000 706.676
33.93000 711.351
33.94000 715.510
33.95000 729.981
33.96000 744.218
33.97000 754.085
33.98000 744.506
33.99000 732.601
34.00000 724.426
34.01000 727.592
34.02000 731.539
34.03000 734.242
34.04000 736.086
34.05000 737.445
34.06000 738.570
34.07000 739.353
34.08000 740.133
34.09000 741.323
34.10000 742.908
34.11000 744.481
34.12000 744.326
34.13000 743.075
34.14000 741.800
34.15000 739.917
34.16000 737.762
34.17000 736.095
34.18000 740.779
34.19000 747.419
34.20000 753.414
34.21000 746.572
34.22000 738.197
34.23000 730.772
34.24000 728.074
34.25000 726.019
34.26000 725.581
34.27000 730.587
34.28000 736.036
34.29000 739.893
34.30000 737.700
34.31000 735.845
34.32000 733.608
34.33000 730.758
34.34000 727.899
34.35000 730.535
34.36000 739.120
34.37000 747.674
34.38000 748.104
34.39000 742.757
34.40000 737.542
34.41000 736.870
34.42000 738.435
34.43000 739.500
34.44000 732.840
34.45000 723.543
34.46000 715.033
34.47000 728.008
34.48000 744.017
34.49000 757.583
34.50000 757.551
34.51000 755.419
34.52000 752.683
34.53000 747.684
34.54000 742.470
34.55000 738.664
34.56000 745.854
34.57000 751.826
34.58000 755.962
34.59000 756.825
34.60000 757.623
34.61000 755.774
34.62000 750.717
34.63000 745.661
34.64000 745.010
34.65000 747.870
34.66000 750.736
34.67000 753.878
34.68000 757.170
34.69000 760.257
34.70000 759.521
34.71000 757.342
34.72000 755.321
34.73000 756.633
34.74000 758.594
34.75000 761.229
34.76000 768.089
34.77000 775.684
34.78000 779.902
34.79000 770.102
34.80000 758.765
34.81000 750.246
34.82000 749.015
34.83000 748.402
34.84000 750.745
34.85000 758.923
34.86000 767.259
34.87000 772.068
34.88000 772.110
34.89000 772.127
34.90000 773.475
34.91000 776.013
34.92000 778.419
34.93000 772.026
34.94000 760.323
34.95000 749.232
34.96000 752.215
34.97000 761.071
34.98000 769.378
34.99000 766.875
35.00000 761.753
35.01000 757.456
35.02000 758.997
35.03000 761.675
35.04000 764.686
35.05000 769.238
35.06000 773.982
35.07000 777.644
35.08000 767.405
35.09000 758.481
35.10000 755.391
35.11000 765.037
35.12000 775.130
35.13000 786.999
35.14000 801.538
35.15000 816.105
35.16000 823.404
35.17000 799.278
35.18000 783.249
35.19000 774.200
35.20000 769.828
35.21000 765.707
35.22000 768.825
35.23000 775.284
35.24000 781.408
35.25000 778.186
35.26000 772.466
35.27000 766.622
35.28000 759.793
35.29000 752.748
35.30000 748.229
35.31000 756.772
35.32000 767.177
35.33000 775.412
35.34000 769.404
35.35000 763.591
35.36000 762.537
35.37000 772.973
35.38000 783.918
35.39000 786.886
35.40000 776.541
35.41000 765.990
35.42000 760.396
35.43000 764.218
35.44000 766.790
35.45000 763.209
35.46000 755.040
35.47000 747.056
35.48000 746.109
35.49000 748.755
35.50000 751.287
35.51000 757.205
35.52000 763.834
35.53000 770.230
35.54000 774.470
35.55000 778.187
35.56000 779.490
35.57000 766.780
35.58000 751.813
35.59000 739.688
35.60000 749.606
35.61000 759.479
35.62000 767.483
35.63000 770.496
35.64000 773.238
35.65000 780.351
35.66000 795.546
35.67000 810.921
35.68000 819.507
35.69000 801.327
35.70000 788.680
35.71000 776.313
35.72000 764.179
35.73000 752.324
35.74000 755.044
35.75000 766.000
35.76000 776.578
35.77000 780.659
35.78000 782.109
35.79000 782.629
35.80000 773.239
35.81000 761.176
35.82000 751.837
35.83000 760.320
35.84000 772.031
35.85000 781.727
35.86000 771.449
35.87000 761.069
35.88000 758.062
35.89000 776.829
35.90000 797.023
35.91000 809.887
35.92000 807.754
35.93000 805.175
35.94000 803.664
35.95000 810.413
35.96000 815.201
35.97000 804.690
35.98000 779.926
35.99000 755.407
36.00000 749.751
36.01000 755.915
36.02000 761.910
36.03000 764.148
36.04000 764.732
36.05000 765.654
36.06000 770.779
36.07000 777.161
36.08000 783.330
36.09000 787.919
36.10000 792.186
36.11000 795.791
36.12000 786.614
36.13000 777.535
36.14000 771.511
36.15000 775.476
36.16000 780.217
36.17000 782.488
36.18000 779.169
36.19000 775.637
36.20000 773.474
36.21000 785.058
36.22000 793.467
36.23000 799.125
36.24000 801.899
36.25000 804.618
36.26000 800.320
36.27000 791.139
36.28000 782.148
36.29000 783.999
36.30000 790.760
36.31000 797.030
36.32000 796.092
36.33000 792.765
36.34000 790.202
36.35000 794.090
36.36000 799.439
36.37000 804.044
36.38000 803.583
36.39000 802.553
36.40000 801.432
36.41000 799.985
36.42000 798.508
36.43000 794.276
36.44000 783.148
36.45000 771.690
36.46000 764.381
36.47000 779.079
36.48000 790.053
36.49000 795.388
36.50000 794.101
36.51000 792.817
36.52000 794.977
36.53000 799.805
36.54000 804.559
36.55000 805.041
36.56000 803.316
36.57000 801.489
36.58000 797.846
36.59000 793.539
36.60000 790.644
36.61000 801.452
36.62000 815.716
36.63000 828.212
36.64000 829.802
36.65000 829.594
36.66000 828.094
36.67000 821.395
36.68000 814.148
36.69000 809.936
36.70000 814.125
36.71000 818.803
36.72000 821.903
36.73000 802.965
36.74000 788.575
36.75000 782.574
36.76000 787.568
36.77000 792.609
36.78000 795.633
36.79000 796.910
36.80000 798.174
36.81000 803.774
36.82000 811.733
36.83000 819.151
36.84000 814.857
36.85000 805.816
36.86000 797.685
36.87000 799.799
36.88000 804.781
36.89000 809.217
36.90000 807.001
36.91000 803.984
36.92000 798.549
36.93000 782.262
36.94000 764.665
36.95000 757.388
36.96000 781.717
36.97000 808.251
36.98000 826.469
36.99000 819.385
37.00000 813.455
37.01000 808.134
37.02000 803.699
37.03000 799.273
37.04000 802.818
37.05000 814.106
37.06000 825.318
37.07000 825.530
37.08000 818.693
37.09000 812.304
37.10000 818.060
37.11000 829.261
37.12000 839.760
37.13000 841.013
37.14000 839.397
37.15000 837.936
37.16000 832.308
37.17000 826.584
37.18000 820.751
37.19000 814.376
37.20000 807.927
37.21000 803.195
37.22000 804.292
37.23000 805.867
37.24000 806.985
37.25000 828.852
37.26000 846.142
37.27000 854.749
37.28000 849.285
37.29000 843.627
37.30000 834.918
37.31000 822.878
37.32000 810.881
37.33000 813.065
37.34000 825.393
37.35000 837.647
37.36000 847.328
37.37000 855.733
37.38000 863.429
37.39000 860.021
37.40000 852.797
37.41000 846.178
37.42000 838.957
37.43000 832.402
37.44000 826.351
37.45000 823.131
37.46000 820.351
37.47000 819.819
37.48000 827.746
37.49000 836.484
37.50000 842.878
37.51000 843.676
37.52000 844.069
37.53000 847.181
37.54000 855.177
37.55000 863.271
37.56000 864.055
37.57000 855.911
37.58000 847.758
37.59000 844.183
37.60000 844.299
37.61000 844.256
37.62000 836.684
37.63000 824.979
37.64000 814.043
37.65000 817.632
37.66000 826.743
37.67000 835.198
37.68000 836.179
37.69000 835.300
37.70000 833.548
37.71000 826.284
37.72000 818.054
37.73000 813.359
37.74000 823.460
37.75000 835.198
37.76000 844.037
37.77000 844.576
37.78000 844.593
37.79000 841.725
37.80000 833.119
37.81000 824.355
37.82000 823.294
37.83000 832.728
37.84000 842.218
37.85000 839.781
37.86000 826.602
37.87000 813.601
37.88000 812.743
37.89000 819.271
37.90000 826.176
37.91000 841.857
37.92000 861.228
37.93000 879.413
37.94000 876.677
37.95000 868.640
37.96000 861.582
37.97000 861.517
37.98000 862.826
37.99000 863.215
38.00000 859.311
38.01000 854.865
38.02000 851.426
38.03000 857.636
38.04000 863.131
38.05000 868.036
38.06000 871.644
38.07000 875.205
38.08000 875.585
38.09000 871.144
38.10000 866.654
38.11000 864.395
38.12000 859.397
38.13000 856.074
38.14000 854.437
38.15000 853.939
38.16000 853.375
38.17000 850.841
38.18000 847.391
38.19000 844.119
38.20000 853.906
38.21000 866.811
38.22000 877.902
38.23000 874.257
38.24000 867.376
38.25000 860.898
38.26000 856.521
38.27000 852.446
38.28000 849.215
38.29000 860.942
38.30000 871.421
38.31000 875.764
38.32000 865.185
38.33000 853.936
38.34000 853.041
38.35000 869.556
38.36000 886.348
38.37000 895.287
38.38000 858.142
38.39000 832.904
38.40000 824.922
38.41000 829.904
38.42000 834.978
38.43000 843.587
38.44000 854.014
38.45000 864.001
38.46000 866.922
38.47000 867.299
38.48000 867.395
38.49000 864.868
38.50000 861.699
38.51000 859.450
38.52000 862.579
38.53000 866.583
38.54000 869.832
38.55000 869.333
38.56000 868.618
38.57000 868.340
38.58000 869.237
38.59000 870.199
38.60000 867.273
38.61000 857.103
38.62000 846.770
38.63000 840.978
38.64000 852.895
38.65000 861.200
38.66000 870.625
38.67000 880.987
38.68000 890.985
38.69000 881.434
38.70000 860.756
38.71000 840.782
38.72000 852.236
38.73000 874.704
38.74000 894.895
38.75000 890.555
38.76000 879.549
38.77000 869.296
38.78000 864.016
38.79000 859.644
38.80000 856.019
38.81000 851.033
38.82000 846.785
38.83000 846.629
38.84000 858.650
38.85000 871.479
38.86000 880.967
38.87000 883.567
38.88000 885.960
38.89000 887.366
38.90000 900.904
38.91000 910.510
38.92000 913.111
38.93000 909.130
38.94000 905.143
38.95000 900.591
38.96000 895.684
38.97000 890.908
38.98000 888.438
38.99000 887.044
39.00000 885.407
39.01000 880.733
39.02000 875.144
39.03000 871.778
39.04000 885.037
39.05000 901.696
39.06000 915.791
39.07000 909.116
39.08000 901.225
39.09000 894.145
39.10000 889.737
39.11000 885.538
39.12000 881.231
39.13000 876.678
39.14000 872.115
39.15000 869.312
39.16000 875.792
39.17000 880.517
39.18000 884.654
39.19000 888.170
39.20000 891.667
39.21000 892.744
39.22000 892.124
39.23000 891.516
39.24000 886.883
39.25000 880.563
39.26000 874.854
39.27000 878.228
39.28000 884.634
39.29000 890.070
39.30000 887.234
39.31000 882.509
39.32000 878.437
39.33000 885.613
39.34000 893.131
39.35000 897.462
39.36000 890.151
39.37000 881.771
39.38000 877.780
39.39000 884.854
39.40000 892.465
39.41000 897.334
39.42000 905.602
39.43000 911.667
39.44000 914.426
39.45000 913.271
39.46000 912.095
39.47000 906.858
39.48000 898.448
39.49000 890.163
39.50000 887.845
39.51000 888.682
39.52000 889.912
39.53000 898.171
39.54000 909.026
39.55000 918.953
39.56000 919.775
39.57000 918.285
39.58000 916.978
39.59000 918.159
39.60000 919.535
39.61000 919.411
39.62000 913.199
39.63000 906.339
39.64000 899.914
39.65000 894.702
39.66000 889.561
39.67000 886.145
39.68000 890.832
39.69000 894.449
39.70000 900.519
39.71000 909.833
39.72000 919.152
39.73000 920.155
39.74000 913.900
39.75000 907.709
39.76000 917.271
39.77000 935.728
39.78000 953.052
39.79000 945.538
39.80000 927.880
39.81000 910.833
39.82000 900.729
39.83000 892.584
39.84000 885.324
39.85000 897.301
39.86000 910.900
39.87000 921.170
39.88000 916.393
39.89000 909.782
39.90000 906.064
39.91000 911.272
39.92000 917.111
39.93000 921.129
39.94000 921.161
39.95000 921.086
39.96000 920.458
39.97000 919.019
39.98000 917.572
39.99000 915.593
40.00000 913.091
40.01000 910.606
40.02000 914.069
40.03000 921.324
40.04000 928.384
40.05000 930.058
40.06000 929.299
40.07000 927.919
40.08000 918.243
40.09000 905.974
40.10000 894.874
40.11000 896.578
40.12000 900.477
40.13000 904.349
40.14000 908.082
40.15000 911.795
40.16000 918.704
40.17000 936.534
40.18000 955.273
40.19000 968.600
40.20000 955.107
40.21000 943.969
40.22000 934.444
40.23000 927.552
40.24000 920.697
40.25000 916.292
40.26000 914.581
40.27000 912.879
40.28000 915.377
40.29000 920.888
40.30000 926.269
40.31000 927.009
40.32000 925.431
40.33000 924.582
40.34000 935.309
40.35000 950.042
40.36000 963.555
40.37000 962.531
40.38000 958.546
40.39000 952.445
40.40000 934.367
40.41000 914.408
40.42000 900.686
40.43000 910.618
40.44000 922.842
40.45000 931.806
40.46000 939.411
40.47000 945.230
40.48000 948.513
40.49000 947.207
40.50000 945.807
40.51000 939.794
40.52000 928.102
40.53000 916.412
40.54000 917.002
40.55000 927.528
40.56000 937.815
40.57000 936.468
40.58000 928.690
40.59000 921.367
40.60000 922.784
40.61000 927.547
40.62000 931.971
40.63000 942.381
40.64000 953.194
40.65000 961.015
40.66000 949.768
40.67000 935.152
40.68000 925.914
40.69000 939.352
40.70000 955.323
40.71000 967.373
40.72000 954.348
40.73000 942.905
40.74000 936.896
40.75000 941.771
40.76000 946.949
40.77000 951.741
40.78000 956.002
40.79000 960.259
40.80000 960.531
40.81000 957.185
40.82000 953.846
40.83000 950.949
40.84000 948.324
40.85000 945.657
40.86000 941.994
40.87000 937.909
40.88000 934.071
40.89000 937.880
40.90000 943.398
40.91000 947.801
40.92000 944.157
40.93000 938.920
40.94000 935.166
40.95000 938.389
40.96000 942.504
40.97000 945.691
40.98000 951.459
40.99000 956.193
41.00000 959.452
41.01000 959.445
41.02000 959.319
41.03000 958.145
41.04000 955.371
41.05000 952.581
41.06000 951.171
41.07000 973.953
41.08000 989.094
41.09000 992.873
41.10000 988.921
41.11000 984.846
41.12000 977.058
41.13000 967.531
41.14000 958.486
41.15000 955.268
41.16000 954.042
41.17000 953.748
41.18000 961.110
41.19000 970.165
41.20000 976.636
41.21000 969.521
41.22000 960.434
41.23000 953.217
41.24000 949.483
41.25000 946.723
41.26000 946.915
41.27000 954.334
41.28000 962.083
41.29000 963.936
41.30000 955.802
41.31000 947.504
41.32000 943.070
41.33000 948.716
41.34000 952.590
41.35000 959.889
41.36000 969.783
41.37000 979.468
41.38000 980.901
41.39000 978.060
41.40000 975.337
41.41000 991.760
41.42000 1013.498
41.43000 1031.265
41.44000 1011.651
41.45000 982.823
41.46000 959.522
41.47000 968.830
41.48000 983.481
41.49000 995.389
41.50000 992.239
41.51000 988.414
41.52000 982.633
41.53000 971.553
41.54000 960.178
41.55000 956.937
41.56000 968.958
41.57000 981.331
41.58000 988.291
41.59000 979.538
41.60000 973.429
41.61000 971.254
41.62000 972.405
41.63000 973.625
41.64000 978.646
41.65000 985.846
41.66000 992.805
41.67000 988.874
41.68000 981.089
41.69000 974.085
41.70000 975.591
41.71000 979.428
41.72000 982.706
41.73000 982.262
41.74000 981.133
41.75000 980.195
41.76000 987.727
41.77000 994.777
41.78000 999.922
41.79000 999.361
41.80000 998.416
41.81000 997.452
41.82000 996.446
41.83000 995.439
41.84000 994.845
41.85000 992.426
41.86000 990.711
41.87000 998.676
41.88000 1015.812
41.89000 1032.722
41.90000 1031.133
41.91000 1017.780
41.92000 1004.778
41.93000 1001.149
41.94000 1001.611
41.95000 1001.606
41.96000 995.659
41.97000 987.909
41.98000 982.108
41.99000 991.014
42.00000 1002.953
42.01000 1013.068
42.02000 999.518
42.03000 985.514
42.04000 976.753
42.05000 985.388
42.06000 995.408
42.07000 1000.820
42.08000 995.656
42.09000 990.073
42.10000 986.633
42.11000 1005.917
42.12000 1019.960
42.13000 1030.025
42.14000 1035.852
42.15000 1041.598
42.16000 1036.268
42.17000 1023.110
42.18000 1010.214
42.19000 1015.562
42.20000 1029.226
42.21000 1041.763
42.22000 1037.298
42.23000 1027.116
42.24000 1018.386
42.25000 1022.150
42.26000 1028.789
42.27000 1034.519
42.28000 1033.168
42.29000 1031.110
42.30000 1030.518
42.31000 1035.321
42.32000 1040.625
42.33000 1041.401
42.34000 1030.681
42.35000 1019.394
42.36000 1012.153
42.37000 1022.459
42.38000 1030.210
42.39000 1037.118
42.40000 1043.019
42.41000 1048.900
42.42000 1049.796
42.43000 1046.766
42.44000 1043.781
42.45000 1044.925
42.46000 1048.188
42.47000 1050.942
42.48000 1044.437
42.49000 1034.487
42.50000 1024.950
42.51000 1019.494
42.52000 1015.083
42.53000 1011.208
42.54000 1016.654
42.55000 1022.705
42.56000 1030.552
42.57000 1045.748
42.58000 1061.733
42.59000 1072.195
42.60000 1067.150
42.61000 1061.177
42.62000 1057.198
42.63000 1049.271
42.64000 1043.328
42.65000 1042.044
42.66000 1046.965
42.67000 1051.907
42.68000 1047.627
42.69000 1035.230
42.70000 1022.956
42.71000 1014.074
42.72000 1007.357
42.73000 1001.511
42.74000 1015.086
42.75000 1036.650
42.76000 1056.981
42.77000 1063.144
42.78000 1065.280
42.79000 1067.187
42.80000 1060.312
42.81000 1052.863
42.82000 1046.227
42.83000 1043.300
42.84000 1040.829
42.85000 1039.614
42.86000 1042.303
42.87000 1045.272
42.88000 1047.320
42.89000 1042.762
42.90000 1039.170
42.91000 1036.332
42.92000 1034.614
42.93000 1032.906
42.94000 1034.098
42.95000 1038.155
42.96000 1042.187
42.97000 1035.735
42.98000 1022.550
42.99000 1010.070
43.00000 1017.382
43.01000 1033.695
43.02000 1049.205
43.03000 1053.886
43.04000 1055.156
43.05000 1056.305
43.06000 1051.481
43.07000 1046.101
43.08000 1042.037
43.09000 1044.671
43.10000 1048.244
43.11000 1050.869
43.12000 1050.233
43.13000 1049.323
43.14000 1048.675
43.15000 1052.769
43.16000 1056.044
43.17000 1058.261
43.18000 1058.735
43.19000 1059.184
43.20000 1061.998
43.21000 1067.435
43.22000 1072.856
43.23000 1075.896
43.24000 1077.175
43.25000 1078.278
43.26000 1072.919
43.27000 1064.309
43.28000 1056.184
43.29000 1055.854
43.30000 1058.241
43.31000 1060.433
43.32000 1069.772
43.33000 1079.626
43.34000 1087.629
43.35000 1085.065
43.36000 1080.828
43.37000 1079.594
43.38000 1089.836
43.39000 1101.202
43.40000 1109.553
43.41000 1107.521
43.42000 1105.525
43.43000 1100.027
43.44000 1088.148
43.45000 1076.134
43.46000 1077.166
43.47000 1094.390
43.48000 1111.638
43.49000 1115.947
43.50000 1109.685
43.51000 1103.511
43.52000 1101.707
43.53000 1102.337
43.54000 1103.446
43.55000 1113.872
43.56000 1127.892
43.57000 1140.925
43.58000 1139.819
43.59000 1135.430
43.60000 1132.530
43.61000 1139.208
43.62000 1147.594
43.63000 1155.203
43.64000 1159.515
43.65000 1163.456
43.66000 1166.434
43.67000 1179.324
43.68000 1189.929
43.69000 1198.588
43.70000 1203.323
43.71000 1207.946
43.72000 1213.375
43.73000 1219.921
43.74000 1226.472
43.75000 1239.630
43.76000 1258.828
43.77000 1277.860
43.78000 1284.766
43.79000 1284.187
43.80000 1284.346
43.81000 1302.310
43.82000 1327.867
43.83000 1351.897
43.84000 1369.322
43.85000 1383.457
43.86000 1397.844
43.87000 1414.065
43.88000 1430.652
43.89000 1448.667
43.90000 1473.454
43.91000 1499.114
43.92000 1519.030
43.93000 1584.963
43.94000 1640.158
43.95000 1692.932
43.96000 1740.303
43.97000 1787.475
43.98000 1832.279
43.99000 1873.442
44.00000 1914.564
44.01000 1935.430
44.02000 2032.899
44.03000 2098.230
44.04000 2166.749
44.05000 2237.455
44.06000 2308.406
44.07000 2386.910
44.08000 2468.974
44.09000 2546.940
44.10000 2631.661
44.11000 2711.960
44.12000 2791.779
44.13000 2867.623
44.14000 2942.580
44.15000 3018.477
44.16000 3099.351
44.17000 3180.955
44.18000 3245.873
44.19000 3309.335
44.20000 3360.375
44.21000 3405.637
44.22000 3436.645
44.23000 3466.992
44.24000 3488.446
44.25000 3494.726
44.26000 3500.751
44.27000 3503.983
44.28000 3458.921
44.29000 3428.105
44.30000 3394.650
44.31000 3359.182
44.32000 3323.222
44.33000 3267.300
44.34000 3200.963
44.35000 3137.347
44.36000 3075.502
44.37000 3018.338
44.38000 2960.988
44.39000 2901.876
44.40000 2842.327
44.41000 2777.769
44.42000 2683.411
44.43000 2584.127
44.44000 2503.307
44.45000 2410.868
44.46000 2334.387
44.47000 2256.358
44.48000 2174.104
44.49000 2091.611
44.50000 2020.537
44.51000 1971.048
44.52000 1922.068
44.53000 1894.423
44.54000 1824.549
44.55000 1775.882
44.56000 1730.727
44.57000 1688.565
44.58000 1646.557
44.59000 1613.229
44.60000 1584.915
44.61000 1557.535
44.62000 1523.601
44.63000 1489.094
44.64000 1455.719
44.65000 1434.796
44.66000 1417.309
44.67000 1397.214
44.68000 1359.611
44.69000 1318.757
44.70000 1284.781
44.71000 1285.691
44.72000 1289.865
44.73000 1287.772
44.74000 1266.767
44.75000 1244.474
44.76000 1225.479
44.77000 1213.381
44.78000 1201.501
44.79000 1194.472
44.80000 1213.421
44.81000 1226.958
44.82000 1231.858
44.83000 1228.508
44.84000 1225.164
44.85000 1222.302
44.86000 1219.749
44.87000 1217.262
44.88000 1203.438
44.89000 1185.476
44.90000 1168.616
44.91000 1165.943
44.92000 1167.611
44.93000 1168.537
44.94000 1163.821
44.95000 1157.933
44.96000 1152.937
44.97000 1166.137
44.98000 1179.265
44.99000 1187.611
45.00000 1179.965
45.01000 1171.032
45.02000 1161.837
45.03000 1152.033
45.04000 1142.204
45.05000 1136.131
45.06000 1155.357
45.07000 1169.404
45.08000 1166.648
45.09000 1145.849
45.10000 1125.173
45.11000 1123.059
45.12000 1134.162
45.13000 1145.047
45.14000 1146.119
45.15000 1142.533
45.16000 1139.968
45.17000 1153.017
45.18000 1171.353
45.19000 1185.771
45.20000 1166.131
45.21000 1138.594
45.22000 1114.795
45.23000 1118.627
45.24000 1125.472
45.25000 1129.904
45.26000 1125.390
45.27000 1120.035
45.28000 1115.417
45.29000 1112.681
45.30000 1110.038
45.31000 1108.339
45.32000 1114.368
45.33000 1118.875
45.34000 1124.901
45.35000 1132.752
45.36000 1140.589
45.37000 1142.990
45.38000 1141.076
45.39000 1139.189
45.40000 1128.362
45.41000 1113.147
45.42000 1098.730
45.43000 1099.012
45.44000 1104.802
45.45000 1110.330
45.46000 1113.232
45.47000 1115.458
45.48000 1117.415
45.49000 1121.562
45.50000 1125.454
45.51000 1132.520
45.52000 1152.668
45.53000 1174.235
45.54000 1181.560
45.55000 1148.608
45.56000 1113.212
45.57000 1089.571
45.58000 1122.420
45.59000 1147.862
45.60000 1165.704
45.61000 1173.347
45.62000 1180.926
45.63000 1175.219
45.64000 1157.726
45.65000 1140.401
45.66000 1126.900
45.67000 1115.923
45.68000 1105.211
45.69000 1100.481
45.70000 1098.229
45.71000 1096.917
45.72000 1106.528
45.73000 1119.267
45.74000 1130.647
45.75000 1125.574
45.76000 1118.383
45.77000 1113.385
45.78000 1118.462
45.79000 1124.790
45.80000 1128.410
45.81000 1123.553
45.82000 1118.083
45.83000 1114.299
45.84000 1123.552
45.85000 1130.849
45.86000 1138.991
45.87000 1148.396
45.88000 1157.812
45.89000 1160.484
45.90000 1156.438
45.91000 1152.416
45.92000 1140.848
45.93000 1124.486
45.94000 1108.691
45.95000 1109.077
45.96000 1116.875
45.97000 1124.964
45.98000 1137.018
45.99000 1150.331
46.00000 1162.400
46.01000 1152.765
46.02000 1140.130
46.03000 1130.164
46.04000 1133.902
46.05000 1139.576
46.06000 1143.727
46.07000 1142.594
46.08000 1141.012
46.09000 1139.881
46.10000 1136.091
46.11000 1133.110
46.12000 1134.137
46.13000 1141.804
46.14000 1149.571
46.15000 1145.072
46.16000 1126.852
46.17000 1108.678
46.18000 1105.457
46.19000 1113.239
46.20000 1120.861
46.21000 1122.506
46.22000 1121.122
46.23000 1119.951
46.24000 1122.245
46.25000 1125.756
46.26000 1128.982
46.27000 1135.304
46.28000 1141.613
46.29000 1147.010
46.30000 1147.154
46.31000 1146.459
46.32000 1144.368
46.33000 1136.903
46.34000 1128.906
46.35000 1123.017
46.36000 1138.926
46.37000 1152.145
46.38000 1160.734
46.39000 1160.823
46.40000 1160.729
46.41000 1157.491
46.42000 1150.322
46.43000 1143.149
46.44000 1140.357
46.45000 1141.178
46.46000 1141.923
46.47000 1138.797
46.48000 1133.500
46.49000 1128.646
46.50000 1132.536
46.51000 1139.822
46.52000 1146.602
46.53000 1149.197
46.54000 1150.530
46.55000 1152.057
46.56000 1154.841
46.57000 1157.851
46.58000 1162.373
46.59000 1173.373
46.60000 1185.110
46.61000 1194.000
46.62000 1189.197
46.63000 1184.732
46.64000 1180.415
46.65000 1176.401
46.66000 1172.397
46.67000 1170.009
46.68000 1169.875
46.69000 1169.757
46.70000 1171.994
46.71000 1176.405
46.72000 1180.716
46.73000 1177.540
46.74000 1169.707
46.75000 1162.114
46.76000 1160.408
46.77000 1161.231
46.78000 1162.006
46.79000 1158.474
46.80000 1154.076
46.81000 1151.378
46.82000 1161.161
46.83000 1173.457
46.84000 1182.702
46.85000 1177.378
46.86000 1170.157
46.87000 1164.542
46.88000 1166.945
46.89000 1169.347
46.90000 1172.506
46.91000 1177.369
46.92000 1182.296
46.93000 1178.529
46.94000 1161.289
46.95000 1143.894
46.96000 1135.031
46.97000 1159.279
46.98000 1175.410
46.99000 1174.689
47.00000 1162.325
47.01000 1150.255
47.02000 1147.328
47.03000 1148.744
47.04000 1150.091
47.05000 1155.030
47.06000 1160.689
47.07000 1165.705
47.08000 1165.349
47.09000 1163.785
47.10000 1164.974
47.11000 1180.880
47.12000 1198.959
47.13000 1213.366
47.14000 1201.810
47.15000 1190.605
47.16000 1181.086
47.17000 1175.753
47.18000 1170.618
47.19000 1172.186
47.20000 1185.276
47.21000 1198.566
47.22000 1205.721
47.23000 1189.781
47.24000 1178.883
47.25000 1172.830
47.26000 1170.503
47.27000 1168.417
47.28000 1176.325
47.29000 1189.484
47.30000 1202.111
47.31000 1186.830
47.32000 1163.048
47.33000 1141.319
47.34000 1139.310
47.35000 1142.235
47.36000 1145.764
47.37000 1152.912
47.38000 1160.665
47.39000 1166.985
47.40000 1189.648
47.41000 1209.568
47.42000 1222.164
47.43000 1214.632
47.44000 1205.944
47.45000 1198.244
47.46000 1192.428
47.47000 1186.657
47.48000 1183.388
47.49000 1195.567
47.50000 1204.071
47.51000 1202.352
47.52000 1191.852
47.53000 1181.509
47.54000 1180.291
47.55000 1184.384
47.56000 1188.344
47.57000 1196.779
47.58000 1206.449
47.59000 1215.224
47.60000 1214.041
47.61000 1210.090
47.62000 1206.452
47.63000 1204.933
47.64000 1203.810
47.65000 1202.876
47.66000 1191.754
47.67000 1181.532
47.68000 1176.691
47.69000 1188.213
47.70000 1200.862
47.71000 1203.649
47.72000 1185.661
47.73000 1167.007
47.74000 1155.935
47.75000 1170.874
47.76000 1181.597
47.77000 1192.973
47.78000 1204.977
47.79000 1216.840
47.80000 1216.258
47.81000 1207.642
47.82000 1199.245
47.83000 1186.341
47.84000 1172.111
47.85000 1159.077
47.86000 1161.625
47.87000 1168.973
47.88000 1176.050
47.89000 1181.037
47.90000 1185.586
47.91000 1189.451
47.92000 1209.054
47.93000 1227.307
47.94000 1239.125
47.95000 1229.270
47.96000 1217.651
47.97000 1207.145
47.98000 1199.233
47.99000 1191.426
48.00000 1186.588
48.01000 1183.023
48.02000 1180.471
48.03000 1180.133
48.04000 1182.192
48.05000 1184.319
48.06000 1196.693
48.07000 1216.419
48.08000 1235.768
48.09000 1228.712
48.10000 1209.390
48.11000 1190.859
48.12000 1184.577
48.13000 1182.473
48.14000 1183.011
48.15000 1206.738
48.16000 1235.882
48.17000 1261.101
48.18000 1251.434
48.19000 1238.637
48.20000 1226.792
48.21000 1218.505
48.22000 1210.555
48.23000 1206.210
48.24000 1211.149
48.25000 1216.559
48.26000 1220.049
48.27000 1210.867
48.28000 1203.977
48.29000 1194.985
48.30000 1183.443
48.31000 1171.951
48.32000 1178.755
48.33000 1200.189
48.34000 1221.328
48.35000 1227.533
48.36000 1225.653
48.37000 1223.357
48.38000 1213.291
48.39000 1200.292
48.40000 1189.174
48.41000 1197.079
48.42000 1209.927
48.43000 1221.237
48.44000 1240.815
48.45000 1258.911
48.46000 1272.393
48.47000 1266.714
48.48000 1258.935
48.49000 1250.981
48.50000 1242.525
48.51000 1234.038
48.52000 1228.354
48.53000 1225.219
48.54000 1222.943
48.55000 1225.267
48.56000 1233.808
48.57000 1242.374
48.58000 1238.439
48.59000 1223.322
48.60000 1208.346
48.61000 1205.443
48.62000 1209.742
48.63000 1214.170
48.64000 1221.582
48.65000 1230.238
48.66000 1236.871
48.67000 1219.714
48.68000 1195.694
48.69000 1174.214
48.70000 1187.984
48.71000 1205.983
48.72000 1220.097
48.73000 1216.234
48.74000 1210.117
48.75000 1206.438
48.76000 1210.449
48.77000 1215.024
48.78000 1218.195
48.79000 1237.156
48.80000 1251.848
48.81000 1261.316
48.82000 1262.927
48.83000 1264.459
48.84000 1256.048
48.85000 1237.650
48.86000 1219.356
48.87000 1217.163
48.88000 1225.647
48.89000 1233.797
48.90000 1232.211
48.91000 1226.133
48.92000 1221.133
48.93000 1231.041
48.94000 1245.714
48.95000 1259.030
48.96000 1267.829
48.97000 1274.729
48.98000 1277.970
48.99000 1262.293
49.00000 1243.919
49.01000 1230.331
49.02000 1233.467
49.03000 1238.044
49.04000 1241.320
49.05000 1242.096
49.06000 1242.603
49.07000 1243.171
49.08000 1243.839
49.09000 1244.508
49.10000 1245.700
49.11000 1247.480
49.12000 1249.255
49.13000 1246.919
49.14000 1241.556
49.15000 1236.157
49.16000 1229.404
49.17000 1221.960
49.18000 1214.835
49.19000 1212.993
49.20000 1213.020
49.21000 1213.044
49.22000 1228.346
49.23000 1245.332
49.24000 1259.295
49.25000 1255.721
49.26000 1249.321
49.27000 1243.334
49.28000 1238.952
49.29000 1234.730
49.30000 1231.615
49.31000 1237.678
49.32000 1242.763
49.33000 1248.376
49.34000 1254.964
49.35000 1261.575
49.36000 1265.632
49.37000 1266.469
49.38000 1267.294
49.39000 1267.205
49.40000 1266.356
49.41000 1265.596
49.42000 1269.505
49.43000 1276.052
49.44000 1282.052
49.45000 1277.069
49.46000 1267.789
49.47000 1259.148
49.48000 1246.438
49.49000 1233.954
49.50000 1222.977
49.51000 1221.861
49.52000 1222.532
49.53000 1223.527
49.54000 1225.919
49.55000 1228.472
49.56000 1230.410
49.57000 1231.429
49.58000 1232.182
49.59000 1235.615
49.60000 1244.532
49.61000 1253.612
49.62000 1256.986
49.63000 1252.345
49.64000 1247.648
49.65000 1246.147
49.66000 1247.622
49.67000 1249.219
49.68000 1260.178
49.69000 1277.003
49.70000 1293.150
49.71000 1292.434
49.72000 1284.424
49.73000 1276.880
49.74000 1266.017
49.75000 1255.172
49.76000 1246.208
49.77000 1251.172
49.78000 1258.964
49.79000 1265.283
49.80000 1264.513
49.81000 1262.811
49.82000 1261.485
49.83000 1271.734
49.84000 1280.615
49.85000 1284.806
49.86000 1278.382
49.87000 1271.552
49.88000 1269.275
49.89000 1274.107
49.90000 1279.023
49.91000 1281.538
49.92000 1256.290
49.93000 1239.474
49.94000 1241.571
49.95000 1256.833
49.96000 1271.646
49.97000 1272.206
49.98000 1265.948
49.99000 1259.995
50.00000 1263.154
50.01000 1268.872
50.02000 1273.573
50.03000 1269.687
50.04000 1263.856
50.05000 1259.472
50.06000 1262.881
50.07000 1267.452
50.08000 1271.101
50.09000 1274.515
50.10000 1277.254
50.11000 1281.913
50.12000 1291.380
50.13000 1301.076
50.14000 1305.270
50.15000 1299.935
50.16000 1294.431
50.17000 1291.457
50.18000 1288.181
50.19000 1285.915
50.20000 1277.769
50.21000 1265.064
50.22000 1252.466
50.23000 1244.375
50.24000 1238.670
50.25000 1233.193
50.26000 1236.034
50.27000 1241.546
50.28000 1247.399
50.29000 1256.555
50.30000 1266.545
50.31000 1275.431
50.32000 1277.641
50.33000 1278.728
50.34000 1279.615
50.35000 1284.625
50.36000 1289.079
50.37000 1291.750
50.38000 1289.486
50.39000 1286.934
50.40000 1285.125
50.41000 1284.740
50.42000 1284.389
50.43000 1284.190
50.44000 1284.231
50.45000 1284.256
50.46000 1280.884
50.47000 1274.571
50.48000 1268.263
50.49000 1262.253
50.50000 1256.418
50.51000 1250.770
50.52000 1251.559
50.53000 1254.773
50.54000 1258.907
50.55000 1273.385
50.56000 1290.760
50.57000 1308.211
50.58000 1326.185
50.59000 1344.258
50.60000 1359.332
50.61000 1331.959
50.62000 1305.010
50.63000 1286.682
50.64000 1294.754
50.65000 1304.668
50.66000 1311.645
50.67000 1312.391
50.68000 1312.934
50.69000 1313.257
50.70000 1299.085
50.71000 1288.956
50.72000 1285.771
50.73000 1289.330
50.74000 1292.846
50.75000 1292.518
50.76000 1289.688
50.77000 1286.928
50.78000 1294.908
50.79000 1307.127
50.80000 1317.919
50.81000 1309.892
50.82000 1296.022
50.83000 1283.907
50.84000 1285.403
50.85000 1289.772
50.86000 1293.489
50.87000 1292.180
50.88000 1290.500
50.89000 1288.122
50.90000 1283.378
50.91000 1278.439
50.92000 1278.621
50.93000 1290.817
50.94000 1303.512
50.95000 1311.404
50.96000 1307.080
50.97000 1303.846
50.98000 1305.842
50.99000 1313.548
51.00000 1321.206
51.01000 1320.800
51.02000 1314.562
51.03000 1308.442
51.04000 1316.244
51.05000 1330.424
51.06000 1344.002
51.07000 1348.160
51.08000 1349.081
51.09000 1349.397
51.10000 1344.354
51.11000 1338.049
51.12000 1332.586
51.13000 1338.329
51.14000 1344.701
51.15000 1345.049
51.16000 1322.722
51.17000 1298.220
51.18000 1283.516
51.19000 1294.229
51.20000 1306.249
51.21000 1314.026
51.22000 1307.012
51.23000 1301.664
51.24000 1306.791
51.25000 1324.714
51.26000 1342.613
51.27000 1341.068
51.28000 1323.850
51.29000 1306.863
51.30000 1298.653
51.31000 1295.354
51.32000 1292.844
51.33000 1305.272
51.34000 1323.378
51.35000 1339.392
51.36000 1334.032
51.37000 1323.075
51.38000 1313.419
51.39000 1306.628
51.40000 1301.208
51.41000 1297.880
51.42000 1303.305
51.43000 1309.698
51.44000 1317.160
51.45000 1327.691
51.46000 1338.412
51.47000 1345.610
51.48000 1334.449
51.49000 1325.788
51.50000 1321.672
51.51000 1323.752
51.52000 1325.864
51.53000 1321.254
51.54000 1310.585
51.55000 1300.012
51.56000 1300.346
51.57000 1307.181
51.58000 1314.024
51.59000 1321.079
51.60000 1328.223
51.61000 1335.014
51.62000 1337.612
51.63000 1338.990
51.64000 1340.224
51.65000 1329.540
51.66000 1318.171
51.67000 1310.344
51.68000 1319.040
51.69000 1329.828
51.70000 1336.146
51.71000 1328.263
51.72000 1319.328
51.73000 1313.119
51.74000 1325.247
51.75000 1334.880
51.76000 1338.562
51.77000 1333.226
51.78000 1327.797
51.79000 1320.846
51.80000 1312.351
51.81000 1303.903
51.82000 1306.461
51.83000 1316.324
51.84000 1326.056
51.85000 1331.926
51.86000 1336.002
51.87000 1339.575
51.88000 1336.117
51.89000 1330.396
51.90000 1325.200
51.91000 1336.726
51.92000 1350.155
51.93000 1359.204
51.94000 1345.421
51.95000 1328.353
51.96000 1316.809
51.97000 1324.712
51.98000 1334.308
51.99000 1341.194
52.00000 1356.645
52.01000 1368.754
52.02000 1374.761
52.03000 1370.507
52.04000 1366.089
52.05000 1357.519
52.06000 1344.230
52.07000 1330.973
52.08000 1328.686
52.09000 1334.601
52.10000 1340.667
52.11000 1352.612
52.12000 1367.580
52.13000 1381.187
52.14000 1372.028
52.15000 1354.758
52.16000 1338.859
52.17000 1349.980
52.18000 1365.836
52.19000 1378.679
52.20000 1373.895
52.21000 1366.245
52.22000 1359.085
52.23000 1353.837
52.24000 1348.781
52.25000 1345.043
52.26000 1326.924
52.27000 1312.255
52.28000 1308.500
52.29000 1325.078
52.30000 1342.115
52.31000 1353.789
52.32000 1358.647
52.33000 1363.476
52.34000 1362.810
52.35000 1357.548
52.36000 1352.468
52.37000 1357.117
52.38000 1367.304
52.39000 1377.100
52.40000 1378.923
52.41000 1377.605
52.42000 1376.376
52.43000 1373.768
52.44000 1371.068
52.45000 1368.400
52.46000 1365.938
52.47000 1363.514
52.48000 1361.308
52.49000 1360.052
52.50000 1358.905
52.51000 1358.034
52.52000 1362.349
52.53000 1366.015
52.54000 1367.812
52.55000 1365.759
52.56000 1363.590
52.57000 1362.557
52.58000 1363.132
52.59000 1363.719
52.60000 1361.507
52.61000 1356.669
52.62000 1351.924
52.63000 1354.648
52.64000 1362.087
52.65000 1368.913
52.66000 1360.215
52.67000 1344.752
52.68000 1330.179
52.69000 1333.706
52.70000 1341.932
52.71000 1349.013
52.72000 1347.547
52.73000 1344.333
52.74000 1343.778
52.75000 1356.129
52.76000 1370.191
52.77000 1381.166
52.78000 1369.124
52.79000 1358.079
52.80000 1351.930
52.81000 1356.940
52.82000 1362.385
52.83000 1364.042
52.84000 1359.742
52.85000 1355.369
52.86000 1353.123
52.87000 1350.175
52.88000 1348.221
52.89000 1350.219
52.90000 1354.988
52.91000 1359.773
52.92000 1365.060
52.93000 1370.589
52.94000 1375.854
52.95000 1380.675
52.96000 1385.003
52.97000 1387.407
52.98000 1373.397
52.99000 1355.641
53.00000 1342.570
53.01000 1354.953
53.02000 1371.163
53.03000 1384.125
53.04000 1374.734
53.05000 1365.485
53.06000 1359.324
53.07000 1360.952
53.08000 1362.957
53.09000 1365.847
53.10000 1370.281
53.11000 1374.743
53.12000 1377.164
53.13000 1376.888
53.14000 1376.718
53.15000 1382.623
53.16000 1393.274
53.17000 1403.704
53.18000 1404.564
53.19000 1400.321
53.20000 1396.245
53.21000 1380.802
53.22000 1362.415
53.23000 1346.564
53.24000 1355.568
53.25000 1370.887
53.26000 1383.990
53.27000 1383.565
53.28000 1380.847
53.29000 1378.623
53.30000 1392.079
53.31000 1404.467
53.32000 1413.245
53.33000 1411.958
53.34000 1410.077
53.35000 1406.238
53.36000 1398.618
53.37000 1390.902
53.38000 1386.501
53.39000 1387.112
53.40000 1387.559
53.41000 1391.459
53.42000 1398.374
53.43000 1405.098
53.44000 1400.106
53.45000 1388.195
53.46000 1376.658
53.47000 1380.238
53.48000 1389.467
53.49000 1396.726
53.50000 1381.577
53.51000 1360.106
53.52000 1341.662
53.53000 1344.092
53.54000 1350.494
53.55000 1355.841
53.56000 1376.745
53.57000 1395.668
53.58000 1408.587
53.59000 1402.982
53.60000 1396.068
53.61000 1388.362
53.62000 1378.964
53.63000 1369.509
53.64000 1363.861
53.65000 1387.311
53.66000 1404.128
53.67000 1399.055
53.68000 1372.544
53.69000 1346.373
53.70000 1352.166
53.71000 1378.905
53.72000 1404.991
53.73000 1416.338
53.74000 1420.819
53.75000 1424.049
53.76000 1410.582
53.77000 1391.895
53.78000 1375.668
53.79000 1378.708
53.80000 1385.849
53.81000 1391.932
53.82000 1389.716
53.83000 1386.885
53.84000 1386.860
53.85000 1396.424
53.86000 1406.788
53.87000 1412.008
53.88000 1405.077
53.89000 1397.632
53.90000 1392.990
53.91000 1413.506
53.92000 1428.553
53.93000 1428.118
53.94000 1410.642
53.95000 1393.263
53.96000 1393.561
53.97000 1406.738
53.98000 1419.673
53.99000 1409.543
54.00000 1388.654
54.01000 1369.497
54.02000 1377.824
54.03000 1395.665
54.04000 1411.661
54.05000 1411.146
54.06000 1406.712
54.07000 1402.866
54.08000 1414.116
54.09000 1425.717
54.10000 1432.163
54.11000 1419.053
54.12000 1404.049
54.13000 1396.045
54.14000 1406.334
54.15000 1417.577
54.16000 1424.870
54.17000 1416.568
54.18000 1410.255
54.19000 1411.832
54.20000 1423.129
54.21000 1434.417
54.22000 1432.725
54.23000 1420.488
54.24000 1408.411
54.25000 1400.107
54.26000 1394.055
54.27000 1388.359
54.28000 1389.479
54.29000 1393.207
54.30000 1397.201
54.31000 1403.930
54.32000 1411.380
54.33000 1417.954
54.34000 1424.319
54.35000 1429.778
54.36000 1433.104
54.37000 1427.435
54.38000 1420.760
54.39000 1416.282
54.40000 1418.151
54.41000 1420.420
54.42000 1421.947
54.43000 1411.527
54.44000 1403.532
54.45000 1395.138
54.46000 1386.193
54.47000 1377.256
54.48000 1387.311
54.49000 1414.630
54.50000 1441.711
54.51000 1445.785
54.52000 1435.951
54.53000 1426.496
54.54000 1426.063
54.55000 1429.448
54.56000 1432.825
54.57000 1436.098
54.58000 1439.341
54.59000 1442.247
54.60000 1423.902
54.61000 1404.200
54.62000 1390.176
54.63000 1402.844
54.64000 1418.924
54.65000 1432.014
54.66000 1435.538
54.67000 1438.344
54.68000 1440.299
54.69000 1444.736
54.70000 1448.152
54.71000 1443.625
54.72000 1426.970
54.73000 1410.185
54.74000 1414.459
54.75000 1440.248
54.76000 1465.901
54.77000 1463.337
54.78000 1441.837
54.79000 1421.010
54.80000 1420.426
54.81000 1429.319
54.82000 1437.623
54.83000 1437.585
54.84000 1434.841
54.85000 1432.347
54.86000 1419.079
54.87000 1405.237
54.88000 1395.854
54.89000 1409.908
54.90000 1427.365
54.91000 1439.828
54.92000 1434.585
54.93000 1427.784
54.94000 1422.893
54.95000 1418.763
54.96000 1415.629
54.97000 1413.471
54.98000 1412.966
54.99000 1412.489
55.00000 1414.956
55.01000 1420.800
55.02000 1426.632
55.03000 1429.384
55.04000 1429.802
55.05000 1430.498
55.06000 1442.260
55.07000 1459.755
55.08000 1476.330
55.09000 1477.331
55.10000 1472.742
55.11000 1468.513
55.12000 1456.457
55.13000 1443.940
55.14000 1432.250
55.15000 1425.443
55.16000 1419.437
55.17000 1415.724
55.18000 1421.040
55.19000 1427.279
55.20000 1431.901
55.21000 1444.693
55.22000 1454.979
55.23000 1461.240
55.24000 1459.949
55.25000 1458.484
55.26000 1455.628
55.27000 1450.992
55.28000 1446.354
55.29000 1440.909
55.30000 1434.797
55.31000 1428.766
55.32000 1427.189
55.33000 1428.165
55.34000 1429.480
55.35000 1437.781
55.36000 1448.854
55.37000 1459.183
55.38000 1452.194
55.39000 1441.569
55.40000 1433.665
55.41000 1443.875
55.42000 1457.422
55.43000 1467.681
55.44000 1463.531
55.45000 1457.690
55.46000 1453.240
55.47000 1451.407
55.48000 1450.103
55.49000 1448.244
55.50000 1445.234
55.51000 1442.189
55.52000 1443.588
55.53000 1451.329
55.54000 1459.117
55.55000 1463.030
55.56000 1463.273
55.57000 1463.447
55.58000 1458.015
55.59000 1449.017
55.60000 1440.256
55.61000 1437.610
55.62000 1437.647
55.63000 1437.682
55.64000 1448.201
55.65000 1460.758
55.66000 1471.372
55.67000 1467.329
55.68000 1460.263
55.69000 1453.474
55.70000 1448.043
55.71000 1442.793
55.72000 1438.689
55.73000 1452.389
55.74000 1464.454
55.75000 1473.142
55.76000 1474.078
55.77000 1474.707
55.78000 1472.874
55.79000 1467.139
55.80000 1461.356
55.81000 1458.373
55.82000 1440.065
55.83000 1427.843
55.84000 1431.524
55.85000 1446.443
55.86000 1461.173
55.87000 1469.676
55.88000 1475.157
55.89000 1480.379
55.90000 1480.726
55.91000 1479.530
55.92000 1477.971
55.93000 1473.288
55.94000 1467.886
55.95000 1462.665
55.96000 1458.435
55.97000 1454.356
55.98000 1451.088
55.99000 1463.283
56.00000 1474.311
56.01000 1482.189
56.02000 1482.069
56.03000 1481.556
56.04000 1479.878
56.05000 1476.155
56.06000 1472.393
56.07000 1470.345
56.08000 1455.947
56.09000 1446.075
56.10000 1443.378
56.11000 1446.331
56.12000 1449.227
56.13000 1449.590
56.14000 1448.594
56.15000 1447.637
56.16000 1456.118
56.17000 1467.353
56.18000 1476.802
56.19000 1468.549
56.20000 1455.765
56.21000 1445.556
56.22000 1451.205
56.23000 1459.564
56.24000 1466.412
56.25000 1481.183
56.26000 1493.991
56.27000 1500.809
56.28000 1490.806
56.29000 1479.796
56.30000 1475.416
56.31000 1483.937
56.32000 1492.791
56.33000 1497.858
56.34000 1498.044
56.35000 1498.153
56.36000 1493.700
56.37000 1485.233
56.38000 1476.934
56.39000 1479.241
56.40000 1487.858
56.41000 1496.209
56.42000 1493.234
56.43000 1486.006
56.44000 1479.586
56.45000 1482.467
56.46000 1487.992
56.47000 1493.076
56.48000 1495.097
56.49000 1496.530
56.50000 1497.729
56.51000 1483.271
56.52000 1469.659
56.53000 1462.636
56.54000 1476.091
56.55000 1491.009
56.56000 1499.603
56.57000 1494.582
56.58000 1489.101
56.59000 1485.816
56.60000 1473.469
56.61000 1464.642
56.62000 1465.018
56.63000 1474.486
56.64000 1483.838
56.65000 1481.979
56.66000 1472.716
56.67000 1463.675
56.68000 1470.171
56.69000 1483.142
56.70000 1495.509
56.71000 1499.710
56.72000 1501.340
56.73000 1503.618
56.74000 1511.026
56.75000 1519.534
56.76000 1526.791
56.77000 1514.164
56.78000 1501.193
56.79000 1492.219
56.80000 1497.006
56.81000 1502.952
56.82000 1506.335
56.83000 1503.619
56.84000 1500.641
56.85000 1498.779
56.86000 1495.490
56.87000 1493.102
56.88000 1491.758
56.89000 1491.574
56.90000 1491.355
56.91000 1485.037
56.92000 1474.240
56.93000 1463.636
56.94000 1466.808
56.95000 1476.561
56.96000 1486.103
56.97000 1492.235
56.98000 1497.178
56.99000 1501.589
57.00000 1501.179
57.01000 1499.617
57.02000 1498.261
57.03000 1503.812
57.04000 1509.478
57.05000 1512.200
57.06000 1503.675
57.07000 1494.049
57.08000 1488.753
57.09000 1494.857
57.10000 1501.563
57.11000 1505.926
57.12000 1510.774
57.13000 1514.336
57.14000 1519.314
57.15000 1526.052
57.16000 1532.770
57.17000 1529.041
57.18000 1516.756
57.19000 1504.628
57.20000 1497.090
57.21000 1492.238
57.22000 1487.181
57.23000 1478.122
57.24000 1467.520
57.25000 1459.461
57.26000 1477.933
57.27000 1503.457
57.28000 1526.003
57.29000 1521.921
57.30000 1514.297
57.31000 1509.527
57.32000 1516.881
57.33000 1525.603
57.34000 1529.411
57.35000 1518.912
57.36000 1507.499
57.37000 1499.798
57.38000 1497.828
57.39000 1496.484
57.40000 1498.648
57.41000 1505.667
57.42000 1512.715
57.43000 1518.553
57.44000 1523.282
57.45000 1527.971
57.46000 1519.885
57.47000 1504.206
57.48000 1489.683
57.49000 1503.010
57.50000 1528.212
57.51000 1550.174
57.52000 1532.740
57.53000 1503.688
57.54000 1477.622
57.55000 1480.676
57.56000 1488.432
57.57000 1494.184
57.58000 1490.440
57.59000 1485.472
57.60000 1483.976
57.61000 1493.673
57.62000 1504.219
57.63000 1511.583
57.64000 1513.166
57.65000 1514.199
57.66000 1515.888
57.67000 1518.586
57.68000 1521.294
57.69000 1524.488
57.70000 1528.183
57.71000 1531.860
57.72000 1528.026
57.73000 1519.149
57.74000 1510.695
57.75000 1515.241
57.76000 1525.918
57.77000 1535.551
57.78000 1530.218
57.79000 1519.997
57.80000 1510.694
57.81000 1498.963
57.82000 1488.101
57.83000 1482.183
57.84000 1502.468
57.85000 1526.589
57.86000 1544.974
57.87000 1542.858
57.88000 1538.918
57.89000 1536.078
57.90000 1542.656
57.91000 1548.030
57.92000 1551.043
57.93000 1550.027
57.94000 1548.943
57.95000 1545.686
57.96000 1539.917
57.97000 1534.159
57.98000 1536.565
57.99000 1545.149
58.00000 1553.637
58.01000 1558.235
58.02000 1560.803
58.03000 1562.706
58.04000 1553.205
58.05000 1539.580
58.06000 1527.014
58.07000 1534.776
58.08000 1546.252
58.09000 1554.360
58.10000 1542.429
58.11000 1527.184
58.12000 1514.346
58.13000 1511.055
58.14000 1508.750
58.15000 1507.038
58.16000 1512.765
58.17000 1517.543
58.18000 1524.720
58.19000 1536.431
58.20000 1548.249
58.21000 1553.074
58.22000 1548.872
58.23000 1544.638
58.24000 1544.320
58.25000 1547.332
58.26000 1550.086
58.27000 1538.271
58.28000 1518.039
58.29000 1498.973
58.30000 1504.359
58.31000 1519.520
58.32000 1533.674
58.33000 1532.347
58.34000 1527.272
58.35000 1522.795
58.36000 1522.329
58.37000 1522.609
58.38000 1521.961
58.39000 1517.216
58.40000 1511.986
58.41000 1507.994
58.42000 1512.210
58.43000 1515.973
58.44000 1520.314
58.45000 1525.868
58.46000 1531.460
58.47000 1535.534
58.48000 1537.427
58.49000 1539.302
58.50000 1542.597
58.51000 1547.248
58.52000 1551.892
58.53000 1555.964
58.54000 1559.669
58.55000 1563.148
58.56000 1560.689
58.57000 1555.606
58.58000 1550.809
58.59000 1550.168
58.60000 1550.746
58.61000 1551.478
58.62000 1553.375
58.63000 1555.516
58.64000 1555.858
58.65000 1547.340
58.66000 1537.624
58.67000 1530.015
58.68000 1528.687
58.69000 1528.030
58.70000 1532.950
58.71000 1550.771
58.72000 1569.110
58.73000 1576.269
58.74000 1565.575
58.75000 1554.650
58.76000 1548.991
58.77000 1552.300
58.78000 1554.495
58.79000 1551.109
58.80000 1543.747
58.81000 1536.505
58.82000 1533.298
58.83000 1532.064
58.84000 1530.887
58.85000 1537.802
58.86000 1546.757
58.87000 1554.645
58.88000 1553.252
58.89000 1549.707
58.90000 1546.261
58.91000 1543.356
58.92000 1540.534
58.93000 1538.270
58.94000 1546.409
58.95000 1553.790
58.96000 1562.458
58.97000 1574.417
58.98000 1586.541
58.99000 1587.486
59.00000 1568.641
59.01000 1549.417
59.02000 1538.911
59.03000 1550.661
59.04000 1558.706
59.05000 1548.178
59.06000 1522.913
59.07000 1498.324
59.08000 1504.438
59.09000 1527.161
59.10000 1549.021
59.11000 1546.412
59.12000 1535.369
59.13000 1526.793
59.14000 1542.925
59.15000 1565.429
59.16000 1583.888
59.17000 1577.223
59.18000 1566.226
59.19000 1557.204
59.20000 1553.358
59.21000 1550.662
59.22000 1548.762
59.23000 1549.111
59.24000 1549.596
59.25000 1552.220
59.26000 1559.034
59.27000 1565.958
59.28000 1569.934
59.29000 1561.057
59.30000 1554.803
59.31000 1548.508
59.32000 1542.176
59.33000 1536.051
59.34000 1543.350
59.35000 1558.693
59.36000 1573.572
59.37000 1579.599
59.38000 1581.835
59.39000 1583.423
59.40000 1577.493
59.41000 1569.411
59.42000 1561.458
59.43000 1554.424
59.44000 1547.567
59.45000 1541.822
59.46000 1543.490
59.47000 1545.642
59.48000 1552.702
59.49000 1575.125
59.50000 1598.661
59.51000 1613.673
59.52000 1610.205
59.53000 1606.101
59.54000 1603.633
59.55000 1582.564
59.56000 1567.458
59.57000 1556.197
59.58000 1548.766
59.59000 1541.407
59.60000 1541.383
59.61000 1546.236
59.62000 1550.976
59.63000 1552.833
59.64000 1553.345
59.65000 1554.486
59.66000 1564.229
59.67000 1576.701
59.68000 1587.641
59.69000 1586.352
59.70000 1582.420
59.71000 1579.060
59.72000 1582.184
59.73000 1585.587
59.74000 1584.980
59.75000 1570.462
59.76000 1554.760
59.77000 1548.897
59.78000 1566.622
59.79000 1585.375
59.80000 1597.136
59.81000 1589.328
59.82000 1583.475
59.83000 1588.184
59.84000 1604.710
59.85000 1621.104
59.86000 1611.628
59.87000 1583.008
59.88000 1554.889
59.89000 1549.780
59.90000 1556.111
59.91000 1562.293
59.92000 1566.063
59.93000 1568.985
59.94000 1572.228
59.95000 1578.402
59.96000 1585.282
59.97000 1591.265
59.98000 1603.286
59.99000 1614.366
60.00000 1619.067
60.01000 1599.204
60.02000 1576.910
60.03000 1562.754
60.04000 1570.172
60.05000 1578.748
60.06000 1584.342
60.07000 1597.250
60.08000 1606.837
60.09000 1607.432
60.10000 1596.776
60.11000 1586.086
60.12000 1575.296
60.13000 1564.424
60.14000 1553.687
60.15000 1554.471
60.16000 1561.535
60.17000 1567.990
60.18000 1562.437
60.19000 1552.218
60.20000 1543.864
60.21000 1555.164
60.22000 1571.728
60.23000 1586.377
60.24000 1594.222
60.25000 1599.945
60.26000 1606.290
60.27000 1615.297
60.28000 1624.609
60.29000 1630.983
60.30000 1628.746
60.31000 1625.951
60.32000 1624.060
60.33000 1618.042
60.34000 1613.470
60.35000 1604.345
60.36000 1588.872
60.37000 1573.359
60.38000 1565.917
60.39000 1565.935
60.40000 1565.952
60.41000 1571.042
60.42000 1579.139
60.43000 1586.877
60.44000 1585.814
60.45000 1580.971
60.46000 1576.594
60.47000 1577.947
60.48000 1581.003
60.49000 1583.748
60.50000 1588.447
60.51000 1592.902
60.52000 1596.490
60.53000 1595.933
60.54000 1594.836
60.55000 1591.558
60.56000 1581.200
60.57000 1570.297
60.58000 1562.667
60.59000 1583.492
60.60000 1600.046
60.61000 1605.300
60.62000 1593.038
60.63000 1580.577
60.64000 1581.044
60.65000 1594.941
60.66000 1608.772
60.67000 1607.284
60.68000 1595.349
60.69000 1583.664
60.70000 1579.799
60.71000 1579.647
60.72000 1580.103
60.73000 1589.381
60.74000 1601.562
60.75000 1612.660
60.76000 1607.112
60.77000 1598.882
60.78000 1592.339
60.79000 1594.813
60.80000 1598.619
60.81000 1600.761
60.82000 1596.911
60.83000 1592.521
60.84000 1589.350
60.85000 1592.485
60.86000 1595.116
60.87000 1596.645
60.88000 1596.278
60.89000 1595.877
60.90000 1598.009
60.91000 1603.090
60.92000 1608.163
60.93000 1614.191
60.94000 1620.913
60.95000 1627.452
60.96000 1626.433
60.97000 1621.440
60.98000 1616.784
60.99000 1617.991
61.00000 1621.332
61.01000 1624.416
61.02000 1612.975
61.03000 1599.457
61.04000 1587.655
61.05000 1586.144
61.06000 1586.350
61.07000 1588.929
61.08000 1600.999
61.09000 1614.057
61.10000 1623.773
61.11000 1643.074
61.12000 1658.519
61.13000 1667.621
61.14000 1664.650
61.15000 1661.386
61.16000 1652.529
61.17000 1636.393
61.18000 1620.240
61.19000 1614.953
61.20000 1618.993
61.21000 1622.902
61.22000 1619.267
61.23000 1611.240
61.24000 1603.719
61.25000 1606.962
61.26000 1614.538
61.27000 1621.618
61.28000 1628.191
61.29000 1634.027
61.30000 1637.406
61.31000 1624.140
61.32000 1607.757
61.33000 1597.334
61.34000 1613.446
61.35000 1632.731
61.36000 1647.479
61.37000 1647.479
61.38000 1646.678
61.39000 1640.746
61.40000 1624.008
61.41000 1606.923
61.42000 1604.864
61.43000 1624.568
61.44000 1644.451
61.45000 1651.213
61.46000 1645.337
61.47000 1639.450
61.48000 1632.634
61.49000 1625.218
61.50000 1618.288
61.51000 1624.271
61.52000 1636.003
61.53000 1647.085
61.54000 1639.351
61.55000 1626.931
61.56000 1615.716
61.57000 1613.764
61.58000 1613.752
61.59000 1614.713
61.60000 1620.507
61.61000 1626.959
61.62000 1632.022
61.63000 1643.487
61.64000 1653.072
61.65000 1657.002
61.66000 1647.756
61.67000 1637.972
61.68000 1629.645
61.69000 1623.664
61.70000 1617.714
61.71000 1614.620
61.72000 1627.210
61.73000 1635.701
61.74000 1641.531
61.75000 1645.451
61.76000 1649.367
61.77000 1653.140
61.78000 1656.843
61.79000 1660.375
61.80000 1649.099
61.81000 1633.943
61.82000 1622.419
61.83000 1642.780
61.84000 1670.591
61.85000 1692.040
61.86000 1678.063
61.87000 1658.618
61.88000 1642.992
61.89000 1642.661
61.90000 1643.570
61.91000 1642.955
61.92000 1638.414
61.93000 1633.675
61.94000 1633.184
61.95000 1640.272
61.96000 1647.508
61.97000 1651.478
61.98000 1644.276
61.99000 1639.295
62.00000 1631.200
62.01000 1620.613
62.02000 1610.251
62.03000 1610.292
62.04000 1616.000
62.05000 1621.495
62.06000 1630.276
62.07000 1639.678
62.08000 1648.555
62.09000 1652.111
62.10000 1654.286
62.11000 1655.391
62.12000 1649.801
62.13000 1643.047
62.14000 1637.497
62.15000 1635.248
62.16000 1633.697
62.17000 1631.963
62.18000 1629.706
62.19000 1627.416
62.20000 1626.002
62.21000 1626.320
62.22000 1626.684
62.23000 1626.893
62.24000 1637.650
62.25000 1645.220
62.26000 1651.568
62.27000 1656.821
62.28000 1662.055
62.29000 1666.012
62.30000 1669.198
62.31000 1672.289
62.32000 1649.987
62.33000 1618.792
62.34000 1591.754
62.35000 1613.587
62.36000 1649.518
62.37000 1680.602
62.38000 1677.359
62.39000 1667.422
62.40000 1659.085
62.41000 1654.145
62.42000 1650.388
62.43000 1646.644
62.44000 1642.944
62.45000 1639.247
62.46000 1641.719
62.47000 1657.665
62.48000 1674.084
62.49000 1683.985
62.50000 1662.326
62.51000 1646.685
62.52000 1642.482
62.53000 1649.768
62.54000 1656.939
62.55000 1652.090
62.56000 1639.184
62.57000 1626.574
62.58000 1627.558
62.59000 1634.508
62.60000 1641.086
62.61000 1642.512
62.62000 1642.292
62.63000 1642.979
62.64000 1650.973
62.65000 1660.560
62.66000 1668.759
62.67000 1666.193
62.68000 1662.735
62.69000 1657.043
62.70000 1643.540
62.71000 1629.365
62.72000 1619.865
62.73000 1621.658
62.74000 1623.950
62.75000 1625.392
62.76000 1646.250
62.77000 1661.554
62.78000 1673.570
62.79000 1681.879
62.80000 1690.166
62.81000 1695.049
62.82000 1697.392
62.83000 1699.695
62.84000 1703.340
62.85000 1707.527
62.86000 1711.021
62.87000 1703.093
62.88000 1691.123
62.89000 1680.160
62.90000 1678.489
62.91000 1679.074
62.92000 1679.583
62.93000 1669.839
62.94000 1660.104
62.95000 1656.621
62.96000 1677.385
62.97000 1700.575
62.98000 1717.873
62.99000 1719.439
63.00000 1720.149
63.01000 1720.613
63.02000 1682.960
63.03000 1654.681
63.04000 1644.250
63.05000 1656.325
63.06000 1668.462
63.07000 1674.910
63.08000 1676.623
63.09000 1678.315
63.10000 1682.175
63.11000 1687.133
63.12000 1692.026
63.13000 1695.621
63.14000 1698.708
63.15000 1700.614
63.16000 1689.918
63.17000 1675.823
63.18000 1663.344
63.19000 1666.578
63.20000 1671.839
63.21000 1675.417
63.22000 1671.731
63.23000 1667.210
63.24000 1666.578
63.25000 1677.440
63.26000 1689.054
63.27000 1696.931
63.28000 1679.219
63.29000 1665.443
63.30000 1662.905
63.31000 1676.158
63.32000 1689.517
63.33000 1686.087
63.34000 1667.012
63.35000 1648.088
63.36000 1643.891
63.37000 1648.836
63.38000 1653.771
63.39000 1658.460
63.40000 1663.043
63.41000 1667.487
63.42000 1670.190
63.43000 1672.374
63.44000 1674.337
63.45000 1666.875
63.46000 1658.664
63.47000 1652.625
63.48000 1657.036
63.49000 1662.820
63.50000 1667.810
63.51000 1670.199
63.52000 1672.385
63.53000 1673.920
63.54000 1698.273
63.55000 1717.365
63.56000 1724.921
63.57000 1714.462
63.58000 1703.790
63.59000 1692.445
63.60000 1680.396
63.61000 1668.402
63.62000 1669.284
63.63000 1679.022
63.64000 1688.286
63.65000 1682.486
63.66000 1669.479
63.67000 1657.803
63.68000 1665.692
63.69000 1680.065
63.70000 1693.174
63.71000 1697.573
63.72000 1699.723
63.73000 1701.571
63.74000 1701.785
63.75000 1701.757
63.76000 1700.873
63.77000 1696.888
63.78000 1692.621
63.79000 1689.532
63.80000 1693.171
63.81000 1696.212
63.82000 1700.445
63.83000 1706.744
63.84000 1713.079
63.85000 1712.574
63.86000 1704.037
63.87000 1695.505
63.88000 1692.500
63.89000 1693.771
63.90000 1695.130
63.91000 1700.213
63.92000 1707.268
63.93000 1713.670
63.94000 1708.560
63.95000 1699.229
63.96000 1690.607
63.97000 1695.315
63.98000 1702.557
63.99000 1709.701
64.00000 1716.249
64.01000 1722.698
64.02000 1727.682
64.03000 1726.766
64.04000 1725.230
64.05000 1724.084
64.06000 1735.433
64.07000 1744.838
64.08000 1754.416
64.09000 1764.325
64.10000 1774.242
64.11000 1778.622
64.12000 1775.739
64.13000 1772.826
64.14000 1767.200
64.15000 1759.239
64.16000 1751.359
64.17000 1748.323
64.18000 1748.128
64.19000 1749.048
64.20000 1774.089
64.21000 1808.912
64.22000 1841.474
64.23000 1846.668
64.24000 1844.426
64.25000 1840.342
64.26000 1823.670
64.27000 1804.622
64.28000 1791.182
64.29000 1802.904
64.30000 1817.665
64.31000 1828.975
64.32000 1858.478
64.33000 1882.776
64.34000 1895.087
64.35000 1881.959
64.36000 1868.001
64.37000 1868.012
64.38000 1888.412
64.39000 1908.985
64.40000 1923.815
64.41000 1933.065
64.42000 1942.185
64.43000 1939.548
64.44000 1929.262
64.45000 1919.161
64.46000 1914.043
64.47000 1911.160
64.48000 1908.435
64.49000 1935.945
64.50000 1969.836
64.51000 2001.180
64.52000 2012.766
64.53000 2020.178
64.54000 2024.909
64.55000 2016.205
64.56000 2005.652
64.57000 1997.358
64.58000 2011.948
64.59000 2025.135
64.60000 2030.579
64.61000 2017.853
64.62000 2004.372
64.63000 1990.818
64.64000 1977.146
64.65000 1963.472
64.66000 1956.333
64.67000 1967.796
64.68000 1975.456
64.69000 1967.343
64.70000 1947.825
64.71000 1928.889
64.72000 1930.403
64.73000 1942.059
64.74000 1953.187
64.75000 1945.208
64.76000 1931.697
64.77000 1919.405
64.78000 1917.930
64.79000 1919.001
64.80000 1918.420
64.81000 1908.555
64.82000 1897.245
64.83000 1888.141
64.84000 1896.321
64.85000 1904.302
64.86000 1907.678
64.87000 1899.103
64.88000 1889.914
64.89000 1881.437
64.90000 1874.239
64.91000 1867.067
64.92000 1863.119
64.93000 1835.372
64.94000 1816.282
64.95000 1820.012
64.96000 1842.140
64.97000 1863.742
64.98000 1860.369
64.99000 1843.285
65.00000 1826.831
65.01000 1816.952
65.02000 1810.023
65.03000 1802.338
65.04000 1786.927
65.05000 1769.492
65.06000 1754.080
65.07000 1751.440
65.08000 1751.039
65.09000 1750.709
65.10000 1743.656
65.11000 1737.246
65.12000 1737.562
65.13000 1757.182
65.14000 1778.004
65.15000 1787.387
65.16000 1774.023
65.17000 1760.035
65.18000 1751.948
65.19000 1755.268
65.20000 1757.645
65.21000 1765.352
65.22000 1777.864
65.23000 1790.183
65.24000 1789.263
65.25000 1780.288
65.26000 1771.575
65.27000 1758.789
65.28000 1745.032
65.29000 1732.867
65.30000 1739.626
65.31000 1751.885
65.32000 1762.041
65.33000 1757.177
65.34000 1749.359
65.35000 1742.792
65.36000 1737.321
65.37000 1732.879
65.38000 1726.979
65.39000 1716.450
65.40000 1705.578
65.41000 1701.272
65.42000 1711.412
65.43000 1722.068
65.44000 1728.514
65.45000 1743.428
65.46000 1754.119
65.47000 1755.297
65.48000 1746.837
65.49000 1738.432
65.50000 1736.088
65.51000 1737.837
65.52000 1739.546
65.53000 1750.715
65.54000 1765.631
65.55000 1778.559
65.56000 1763.654
65.57000 1739.788
65.58000 1718.774
65.59000 1720.945
65.60000 1728.208
65.61000 1734.428
65.62000 1735.480
65.63000 1735.740
65.64000 1738.199
65.65000 1748.404
65.66000 1759.283
65.67000 1762.552
65.68000 1747.312
65.69000 1731.239
65.70000 1721.101
65.71000 1734.503
65.72000 1744.479
65.73000 1753.426
65.74000 1761.202
65.75000 1768.980
65.76000 1777.431
65.77000 1786.386
65.78000 1795.193
65.79000 1790.791
65.80000 1779.963
65.81000 1770.393
65.82000 1781.837
65.83000 1800.771
65.84000 1817.012
65.85000 1808.162
65.86000 1793.173
65.87000 1780.105
65.88000 1780.402
65.89000 1782.513
65.90000 1783.336
65.91000 1779.121
65.92000 1774.398
65.93000 1772.593
65.94000 1778.637
65.95000 1785.114
65.96000 1789.362
65.97000 1784.659
65.98000 1781.052
65.99000 1769.556
66.00000 1748.034
66.01000 1726.512
66.02000 1723.682
66.03000 1736.531
66.04000 1749.229
66.05000 1750.163
66.06000 1744.538
66.07000 1739.809
66.08000 1753.291
66.09000 1773.950
66.10000 1792.445
66.11000 1787.627
66.12000 1776.472
66.13000 1766.584
66.14000 1764.753
66.15000 1764.443
66.16000 1761.731
66.17000 1748.571
66.18000 1734.197
66.19000 1727.169
66.20000 1741.998
66.21000 1758.279
66.22000 1769.349
66.23000 1761.926
66.24000 1755.966
66.25000 1749.578
66.26000 1742.585
66.27000 1735.587
66.28000 1727.249
66.29000 1717.651
66.30000 1708.127
66.31000 1702.758
66.32000 1700.059
66.33000 1698.384
66.34000 1722.639
66.35000 1758.194
66.36000 1790.581
66.37000 1783.095
66.38000 1763.588
66.39000 1746.030
66.40000 1743.596
66.41000 1744.175
66.42000 1744.422
66.43000 1743.057
66.44000 1741.479
66.45000 1741.357
66.46000 1746.032
66.47000 1751.085
66.48000 1754.639
66.49000 1751.197
66.50000 1748.384
66.51000 1745.035
66.52000 1740.844
66.53000 1736.642
66.54000 1739.786
66.55000 1750.690
66.56000 1761.547
66.57000 1768.374
66.58000 1772.333
66.59000 1775.994
66.60000 1769.981
66.61000 1759.306
66.62000 1749.114
66.63000 1746.111
66.64000 1745.509
66.65000 1744.959
66.66000 1742.582
66.67000 1740.103
66.68000 1740.466
66.69000 1756.268
66.70000 1774.393
66.71000 1786.492
66.72000 1776.578
66.73000 1764.641
66.74000 1755.980
66.75000 1753.898
66.76000 1752.543
66.77000 1749.905
66.78000 1745.029
66.79000 1740.113
66.80000 1742.574
66.81000 1753.767
66.82000 1764.953
66.83000 1764.881
66.84000 1756.062
66.85000 1747.414
66.86000 1746.185
66.87000 1748.911
66.88000 1751.241
66.89000 1746.486
66.90000 1739.112
66.91000 1732.294
66.92000 1738.289
66.93000 1746.597
66.94000 1753.679
66.95000 1753.277
66.96000 1751.606
66.97000 1752.118
66.98000 1761.493
66.99000 1771.811
67.00000 1779.519
67.01000 1756.647
67.02000 1737.410
67.03000 1731.097
67.04000 1749.754
67.05000 1769.040
67.06000 1781.400
67.07000 1784.608
67.08000 1787.771
67.09000 1785.179
67.10000 1777.575
67.11000 1770.205
67.12000 1777.094
67.13000 1792.405
67.14000 1806.777
67.15000 1800.517
67.16000 1785.828
67.17000 1772.083
67.18000 1771.301
67.19000 1773.913
67.20000 1776.503
67.21000 1778.935
67.22000 1781.338
67.23000 1780.229
67.24000 1763.243
67.25000 1744.320
67.26000 1729.795
67.27000 1735.780
67.28000 1741.656
67.29000 1751.325
67.30000 1769.097
67.31000 1787.140
67.32000 1793.246
67.33000 1781.799
67.34000 1770.196
67.35000 1765.022
67.36000 1766.146
67.37000 1767.304
67.38000 1771.592
67.39000 1777.932
67.40000 1784.013
67.41000 1782.932
67.42000 1778.617
67.43000 1774.535
67.44000 1773.847
67.45000 1774.189
67.46000 1774.677
67.47000 1776.297
67.48000 1778.159
67.49000 1777.340
67.50000 1762.989
67.51000 1746.759
67.52000 1733.980
67.53000 1776.433
67.54000 1814.133
67.55000 1832.383
67.56000 1804.662
67.57000 1775.000
67.58000 1766.462
67.59000 1792.416
67.60000 1818.860
67.61000 1832.720
67.62000 1826.508
67.63000 1822.271
67.64000 1814.454
67.65000 1804.030
67.66000 1793.814
67.67000 1791.085
67.68000 1792.098
67.69000 1793.065
67.70000 1792.633
67.71000 1791.781
67.72000 1790.983
67.73000 1790.662
67.74000 1790.454
67.75000 1791.350
67.76000 1798.487
67.77000 1806.605
67.78000 1813.150
67.79000 1802.166
67.80000 1791.866
67.81000 1780.786
67.82000 1767.672
67.83000 1754.452
67.84000 1755.095
67.85000 1780.827
67.86000 1807.075
67.87000 1821.579
67.88000 1822.733
67.89000 1823.490
67.90000 1818.611
67.91000 1809.151
67.92000 1799.759
67.93000 1793.623
67.94000 1789.288
67.95000 1785.110
67.96000 1794.211
67.97000 1807.542
67.98000 1819.358
67.99000 1815.527
68.00000 1807.567
68.01000 1800.037
68.02000 1795.241
68.03000 1790.930
68.04000 1787.376
68.05000 1802.400
68.06000 1816.474
68.07000 1827.939
68.08000 1831.863
68.09000 1835.310
68.10000 1835.401
68.11000 1828.766
68.12000 1821.944
68.13000 1817.986
68.14000 1797.812
68.15000 1783.591
68.16000 1777.051
68.17000 1777.495
68.18000 1777.924
68.19000 1777.240
68.20000 1775.875
68.21000 1774.550
68.22000 1781.968
68.23000 1792.528
68.24000 1802.314
68.25000 1802.784
68.26000 1800.528
68.27000 1800.112
68.28000 1812.966
68.29000 1828.450
68.30000 1841.477
68.31000 1824.949
68.32000 1808.018
68.33000 1796.232
68.34000 1800.913
68.35000 1806.830
68.36000 1811.251
68.37000 1812.355
68.38000 1813.338
68.39000 1813.935
68.40000 1815.353
68.41000 1816.371
68.42000 1814.937
68.43000 1810.999
68.44000 1807.064
68.45000 1803.583
68.46000 1800.410
68.47000 1797.307
68.48000 1802.646
68.49000 1811.557
68.50000 1819.911
68.51000 1820.390
68.52000 1818.313
68.53000 1816.578
68.54000 1817.649
68.55000 1819.340
68.56000 1820.791
68.57000 1816.972
68.58000 1813.099
68.59000 1811.044
68.60000 1815.433
68.61000 1820.391
68.62000 1823.963
68.63000 1824.142
68.64000 1824.167
68.65000 1824.182
68.66000 1795.390
68.67000 1774.175
68.68000 1774.659
68.69000 1800.018
68.70000 1825.346
68.71000 1837.967
68.72000 1840.965
68.73000 1843.913
68.74000 1848.860
68.75000 1854.648
68.76000 1860.314
68.77000 1863.895
68.78000 1866.727
68.79000 1870.294
68.80000 1880.774
68.81000 1892.958
68.82000 1903.594
68.83000 1900.841
68.84000 1896.608
68.85000 1898.585
68.86000 1925.028
68.87000 1953.969
68.88000 1976.608
68.89000 1982.173
68.90000 1986.783
68.91000 1989.815
68.92000 2091.186
68.93000 2167.492
68.94000 2260.653
68.95000 2375.405
68.96000 2490.278
68.97000 2628.818
68.98000 2787.367
68.99000 2944.107
69.00000 3128.983
69.01000 3325.192
69.02000 3517.900
69.03000 3638.321
69.04000 3730.047
69.05000 3819.354
69.06000 3882.305
69.07000 3938.039
69.08000 3987.498
69.09000 4002.851
69.10000 4010.709
69.11000 4022.785
69.12000 4053.352
69.13000 4086.088
69.14000 4110.559
69.15000 4110.256
69.16000 4108.288
69.17000 4106.946
69.18000 4073.628
69.19000 4047.991
69.20000 3996.347
69.21000 3907.599
69.22000 3818.566
69.23000 3709.437
69.24000 3581.267
69.25000 3454.042
69.26000 3333.634
69.27000 3219.474
69.28000 3107.357
69.29000 3047.832
69.30000 3011.388
69.31000 2976.022
69.32000 2954.366
69.33000 2936.873
69.34000 2921.112
69.35000 2884.368
69.36000 2848.333
69.37000 2805.957
69.38000 2732.557
69.39000 2655.005
69.40000 2578.281
69.41000 2504.303
69.42000 2430.545
69.43000 2378.560
69.44000 2264.200
69.45000 2175.598
69.46000 2103.091
69.47000 2056.095
69.48000 2009.421
69.49000 1966.658
69.50000 1928.061
69.51000 1889.628
69.52000 1866.686
69.53000 1854.813
69.54000 1843.531
69.55000 1851.776
69.56000 1869.498
69.57000 1885.827
69.58000 1881.134
69.59000 1869.370
69.60000 1858.621
69.61000 1854.209
69.62000 1851.586
69.63000 1850.497
69.64000 1857.803
69.65000 1866.384
69.66000 1873.211
69.67000 1873.587
69.68000 1873.363
69.69000 1873.200
69.70000 1865.186
69.71000 1858.723
69.72000 1854.253
69.73000 1853.285
69.74000 1852.382
69.75000 1849.530
69.76000 1844.351
69.77000 1839.178
69.78000 1836.160
69.79000 1834.845
69.80000 1833.603
69.81000 1835.599
69.82000 1839.334
69.83000 1842.160
69.84000 1828.484
69.85000 1808.668
69.86000 1790.325
69.87000 1805.428
69.88000 1826.699
69.89000 1843.432
69.90000 1832.217
69.91000 1816.223
69.92000 1804.445
69.93000 1809.918
69.94000 1817.244
69.95000 1822.728
69.96000 1819.706
69.97000 1816.950
69.98000 1819.422
69.99000 1832.065
70.00000 1844.970
