20.00000 561.213
20.01000 562.301
20.02000 563.545
20.03000 566.103
20.04000 573.910
20.05000 582.263
20.06000 588.478
20.07000 583.169
20.08000 578.524
20.09000 577.059
20.10000 581.647
20.11000 586.381
20.12000 588.049
20.13000 585.731
20.14000 583.398
20.15000 581.252
20.16000 579.270
20.17000 577.258
20.18000 573.521
20.19000 568.780
20.20000 564.312
20.21000 565.660
20.22000 569.348
20.23000 572.794
20.24000 570.556
20.25000 567.092
20.26000 563.722
20.27000 560.992
20.28000 558.381
20.29000 555.452
20.30000 551.111
20.31000 546.601
20.32000 543.153
20.33000 555.229
20.34000 565.599
20.35000 572.490
20.36000 572.055
20.37000 571.386
20.38000 572.956
20.39000 577.769
20.40000 582.609
20.41000 585.174
20.42000 585.549
20.43000 585.859
20.44000 580.432
20.45000 571.302
20.46000 562.413
20.47000 559.907
20.48000 560.242
20.49000 560.559
20.50000 558.376
20.51000 555.667
20.52000 553.116
20.53000 551.780
20.54000 550.699
20.55000 549.952
20.56000 550.866
20.57000 552.007
20.58000 552.902
20.59000 553.331
20.60000 553.645
20.61000 554.304
20.62000 555.767
20.63000 557.263
20.64000 558.437
20.65000 559.094
20.66000 559.744
20.67000 560.082
20.68000 552.322
20.69000 547.126
20.70000 549.021
20.71000 556.005
20.72000 562.793
20.73000 562.869
20.74000 559.641
20.75000 556.562
20.76000 553.767
20.77000 551.262
20.78000 548.846
20.79000 547.199
20.80000 545.733
20.81000 545.377
20.82000 551.198
20.83000 557.972
20.84000 563.415
20.85000 563.082
20.86000 562.368
20.87000 560.651
20.88000 556.350
20.89000 551.918
20.90000 547.722
20.91000 543.946
20.92000 540.179
20.93000 538.112
20.94000 551.856
20.95000 561.315
20.96000 564.123
20.97000 561.615
20.98000 559.139
20.99000 558.220
21.00000 558.148
21.01000 558.079
21.02000 557.337
21.03000 556.402
21.04000 555.291
21.05000 552.410
21.06000 549.069
21.07000 547.152
21.08000 554.151
21.09000 562.700
21.10000 569.724
21.11000 562.744
21.12000 555.751
21.13000 551.032
21.14000 552.790
21.15000 554.946
21.16000 556.240
21.17000 555.834
21.18000 555.382
21.19000 555.122
21.20000 551.190
21.21000 548.426
21.22000 550.364
21.23000 556.503
21.24000 562.588
21.25000 564.981
21.26000 565.146
21.27000 565.307
21.28000 564.695
21.29000 563.810
21.30000 562.839
21.31000 560.862
21.32000 558.594
21.33000 556.551
21.34000 556.102
21.35000 555.964
21.36000 555.848
21.37000 557.419
21.38000 558.903
21.39000 558.759
21.40000 553.484
21.41000 547.833
21.42000 544.538
21.43000 546.383
21.44000 548.410
21.45000 549.631
21.46000 556.424
21.47000 561.298
21.48000 560.981
21.49000 555.451
21.50000 549.969
21.51000 549.533
21.52000 552.477
21.53000 555.353
21.54000 560.988
21.55000 567.604
21.56000 574.043
21.57000 578.044
21.58000 581.267
21.59000 583.773
21.60000 580.505
21.61000 575.980
21.62000 572.109
21.63000 580.889
21.64000 589.812
21.65000 597.246
21.66000 599.480
21.67000 601.266
21.68000 600.142
21.69000 591.991
21.70000 583.529
21.71000 578.207
21.72000 589.274
21.73000 597.462
21.74000 605.154
21.75000 612.289
21.76000 619.422
21.77000 626.484
21.78000 633.491
21.79000 640.379
21.80000 644.789
21.81000 647.829
21.82000 651.242
21.83000 660.791
21.84000 672.509
21.85000 683.913
21.86000 692.406
21.87000 700.193
21.88000 706.974
21.89000 718.599
21.90000 729.194
21.91000 741.029
21.92000 757.676
21.93000 774.803
21.94000 789.239
21.95000 796.490
21.96000 803.349
21.97000 807.835
21.98000 818.655
21.99000 826.705
22.00000 830.273
22.01000 828.190
22.02000 826.095
22.03000 826.936
22.04000 830.220
22.05000 833.464
22.06000 831.408
22.07000 826.483
22.08000 821.657
22.09000 818.800
22.10000 816.713
22.11000 814.296
22.12000 808.373
22.13000 801.504
22.14000 795.423
22.15000 785.115
22.16000 775.537
22.17000 764.794
22.18000 749.023
22.19000 732.673
22.20000 716.724
22.21000 701.959
22.22000 687.271
22.23000 677.310
22.24000 680.770
22.25000 683.648
22.26000 678.153
22.27000 660.897
22.28000 643.563
22.29000 638.535
22.30000 644.970
22.31000 651.354
22.32000 641.351
22.33000 621.437
22.34000 602.293
22.35000 602.308
22.36000 610.609
22.37000 617.814
22.38000 611.390
22.39000 600.890
22.40000 591.448
22.41000 584.767
22.42000 579.405
22.43000 574.867
22.44000 574.289
22.45000 574.232
22.46000 574.474
22.47000 575.695
22.48000 576.993
22.49000 577.903
22.50000 577.080
22.51000 576.407
22.52000 574.283
22.53000 569.894
22.54000 565.478
22.55000 556.094
22.56000 541.507
22.57000 526.986
22.58000 527.525
22.59000 538.422
22.60000 548.723
22.61000 540.049
22.62000 522.300
22.63000 505.982
22.64000 510.704
22.65000 522.397
22.66000 533.061
22.67000 531.991
22.68000 528.686
22.69000 525.440
22.70000 522.511
22.71000 519.630
22.72000 518.599
22.73000 524.274
22.74000 530.559
22.75000 535.109
22.76000 538.120
22.77000 540.376
22.78000 537.373
22.79000 525.266
22.80000 512.997
22.81000 510.725
22.82000 520.188
22.83000 529.648
22.84000 533.435
22.85000 532.828
22.86000 532.236
22.87000 532.272
22.88000 532.640
22.89000 532.767
22.90000 528.630
22.91000 522.929
22.92000 517.663
22.93000 520.358
22.94000 524.577
22.95000 527.755
22.96000 524.635
22.97000 520.456
22.98000 517.405
22.99000 518.896
23.00000 520.865
23.01000 522.333
23.02000 524.165
23.03000 525.608
23.04000 526.222
23.05000 525.246
23.06000 524.231
23.07000 521.319
23.08000 515.922
23.09000 510.518
23.10000 505.532
23.11000 500.917
23.12000 496.403
23.13000 497.924
23.14000 502.982
23.15000 507.825
23.16000 508.020
23.17000 506.331
23.18000 504.752
23.19000 504.475
23.20000 504.555
23.21000 505.142
23.22000 509.189
23.23000 513.890
23.24000 516.735
23.25000 511.256
23.26000 504.773
23.27000 499.806
23.28000 502.336
23.29000 504.747
23.30000 504.767
23.31000 499.714
23.32000 494.497
23.33000 497.267
23.34000 511.693
23.35000 526.217
23.36000 530.030
23.37000 523.441
23.38000 516.833
23.39000 508.386
23.40000 498.744
23.41000 489.568
23.42000 493.007
23.43000 502.102
23.44000 510.699
23.45000 505.495
23.46000 496.781
23.47000 489.988
23.48000 498.095
23.49000 509.346
23.50000 518.934
23.51000 520.184
23.52000 520.288
23.53000 520.370
23.54000 522.407
23.55000 524.165
23.56000 522.745
23.57000 513.866
23.58000 504.678
23.59000 498.324
23.60000 496.560
23.61000 494.860
23.62000 493.973
23.63000 495.814
23.64000 497.103
23.65000 505.146
23.66000 518.072
23.67000 530.539
23.68000 526.934
23.69000 515.361
23.70000 504.313
23.71000 506.223
23.72000 512.133
23.73000 517.141
23.74000 514.162
23.75000 509.302
23.76000 505.080
23.77000 504.438
23.78000 504.353
23.79000 504.284
23.80000 507.180
23.81000 509.761
23.82000 512.566
23.83000 515.953
23.84000 519.371
23.85000 518.902
23.86000 511.454
23.87000 503.865
23.88000 499.688
23.89000 499.927
23.90000 500.108
23.91000 503.621
23.92000 509.818
23.93000 515.907
23.94000 516.869
23.95000 515.017
23.96000 513.233
23.97000 507.733
23.98000 501.243
23.99000 495.174
24.00000 493.410
24.01000 492.774
24.02000 493.484
24.03000 502.703
24.04000 513.413
24.05000 522.226
24.06000 510.981
24.07000 499.910
24.08000 492.382
24.09000 495.014
24.10000 498.280
24.11000 498.825
24.12000 493.964
24.13000 488.955
24.14000 486.059
24.15000 494.916
24.16000 501.167
24.17000 500.310
24.18000 493.045
24.19000 485.883
24.20000 485.720
24.21000 489.814
24.22000 493.787
24.23000 501.728
24.24000 510.845
24.25000 519.089
24.26000 516.965
24.27000 511.829
24.28000 506.642
24.29000 501.090
24.30000 495.465
24.31000 490.739
24.32000 493.934
24.33000 497.430
24.34000 498.903
24.35000 493.948
24.36000 488.517
24.37000 485.779
24.38000 488.962
24.39000 492.357
24.40000 494.410
24.41000 496.922
24.42000 498.716
24.43000 499.387
24.44000 498.922
24.45000 498.446
24.46000 496.771
24.47000 494.287
24.48000 491.860
24.49000 488.455
24.50000 484.757
24.51000 481.184
24.52000 479.357
24.53000 478.092
24.54000 477.638
24.55000 483.779
24.56000 491.367
24.57000 497.866
24.58000 494.062
24.59000 489.602
24.60000 484.861
24.61000 479.134
24.62000 473.322
24.63000 471.303
24.64000 478.510
24.65000 486.131
24.66000 490.938
24.67000 487.537
24.68000 484.979
24.69000 483.291
24.70000 482.590
24.71000 481.911
24.72000 485.358
24.73000 491.903
24.74000 498.340
24.75000 495.535
24.76000 488.228
24.77000 481.292
24.78000 480.560
24.79000 482.037
24.80000 483.527
24.81000 485.128
24.82000 486.757
24.83000 488.177
24.84000 486.715
24.85000 485.065
24.86000 483.205
24.87000 480.523
24.88000 477.758
24.89000 477.697
24.90000 484.905
24.91000 492.514
24.92000 497.503
24.93000 494.905
24.94000 492.868
24.95000 489.050
24.96000 482.968
24.97000 476.889
24.98000 476.182
24.99000 479.978
25.00000 483.731
25.01000 488.370
25.02000 493.387
25.03000 497.850
25.04000 491.043
25.05000 479.794
25.06000 469.541
25.07000 470.006
25.08000 473.384
25.09000 476.378
25.10000 483.511
25.11000 490.340
25.12000 495.496
25.13000 493.379
25.14000 490.418
25.15000 488.450
25.16000 489.435
25.17000 490.616
25.18000 491.418
25.19000 484.280
25.20000 478.771
25.21000 476.552
25.22000 478.991
25.23000 481.463
25.24000 481.613
25.25000 479.580
25.26000 477.563
25.27000 479.527
25.28000 483.929
25.29000 487.924
25.30000 481.652
25.31000 470.908
25.32000 461.061
25.33000 462.505
25.34000 467.353
25.35000 471.716
25.36000 475.780
25.37000 479.289
25.38000 482.910
25.39000 487.075
25.40000 491.312
25.41000 494.098
25.42000 492.098
25.43000 489.723
25.44000 488.053
25.45000 484.223
25.46000 481.257
25.47000 478.054
25.48000 474.478
25.49000 470.896
25.50000 469.349
25.51000 469.950
25.52000 470.548
25.53000 471.081
25.54000 471.563
25.55000 472.116
25.56000 474.982
25.57000 478.962
25.58000 482.562
25.59000 480.514
25.60000 476.579
25.61000 472.988
25.62000 467.651
25.63000 462.561
25.64000 458.711
25.65000 461.593
25.66000 465.487
25.67000 468.206
25.68000 466.632
25.69000 464.663
25.70000 463.234
25.71000 463.499
25.72000 463.766
25.73000 464.897
25.74000 467.538
25.75000 470.207
25.76000 472.470
25.77000 474.254
25.78000 476.034
25.79000 472.843
25.80000 465.808
25.81000 459.029
25.82000 463.318
25.83000 473.506
25.84000 483.047
25.85000 481.009
25.86000 474.695
25.87000 468.856
25.88000 467.969
25.89000 468.302
25.90000 468.252
25.91000 465.863
25.92000 463.079
25.93000 460.992
25.94000 461.738
25.95000 462.785
25.96000 463.566
25.97000 467.678
25.98000 471.036
25.99000 474.786
26.00000 479.292
26.01000 483.817
26.02000 482.660
26.03000 473.995
26.04000 465.300
26.05000 464.814
26.06000 471.482
26.07000 478.078
26.08000 480.352
26.09000 480.074
26.10000 479.621
26.11000 475.339
26.12000 469.493
26.13000 464.023
26.14000 463.086
26.15000 463.396
26.16000 462.913
26.17000 456.958
26.18000 449.962
26.19000 444.854
26.20000 448.278
26.21000 452.742
26.22000 456.169
26.23000 457.328
26.24000 458.117
26.25000 455.626
26.26000 446.127
26.27000 436.396
26.28000 433.944
26.29000 442.195
26.30000 450.540
26.31000 454.440
26.32000 453.988
26.33000 453.572
26.34000 456.526
26.35000 461.690
26.36000 466.622
26.37000 465.193
26.38000 460.892
26.39000 456.823
26.40000 465.336
26.41000 476.778
26.42000 486.107
26.43000 478.899
26.44000 468.172
26.45000 458.897
26.46000 456.953
26.47000 456.026
26.48000 455.296
26.49000 453.965
26.50000 452.858
26.51000 454.672
26.52000 463.387
26.53000 472.393
26.54000 474.793
26.55000 466.410
26.56000 457.874
26.57000 453.401
26.58000 454.092
26.59000 454.556
26.60000 453.917
26.61000 452.475
26.62000 451.205
26.63000 456.076
26.64000 464.016
26.65000 471.599
26.66000 465.930
26.67000 456.395
26.68000 447.430
26.69000 443.573
26.70000 440.926
26.71000 439.667
26.72000 446.258
26.73000 454.081
26.74000 460.388
26.75000 463.447
26.76000 465.675
26.77000 467.650
26.78000 468.961
26.79000 470.237
26.80000 469.397
26.81000 464.726
26.82000 459.976
26.83000 457.352
26.84000 451.631
26.85000 447.690
26.86000 447.789
26.87000 451.171
26.88000 454.558
26.89000 458.171
26.90000 461.910
26.91000 465.514
26.92000 463.453
26.93000 459.479
26.94000 455.806
26.95000 455.239
26.96000 455.490
26.97000 455.246
26.98000 451.849
26.99000 447.893
27.00000 444.633
27.01000 449.188
27.02000 453.654
27.03000 456.442
27.04000 454.376
27.05000 452.005
27.06000 451.393
27.07000 454.306
27.08000 457.317
27.09000 459.064
27.10000 452.832
27.11000 448.426
27.12000 445.568
27.13000 444.115
27.14000 442.747
27.15000 447.291
27.16000 455.457
27.17000 463.389
27.18000 461.578
27.19000 455.944
27.20000 451.108
27.21000 455.872
27.22000 463.445
27.23000 469.391
27.24000 463.609
27.25000 455.502
27.26000 448.683
27.27000 445.239
27.28000 442.728
27.29000 442.842
27.30000 451.352
27.31000 460.493
27.32000 462.861
27.33000 450.229
27.34000 437.053
27.35000 429.058
27.36000 438.959
27.37000 446.158
27.38000 452.209
27.39000 457.086
27.40000 461.895
27.41000 459.047
27.42000 450.991
27.43000 443.113
27.44000 439.028
27.45000 436.813
27.46000 434.988
27.47000 438.683
27.48000 444.167
27.49000 449.210
27.50000 450.626
27.51000 451.240
27.52000 451.766
27.53000 440.678
27.54000 429.888
27.55000 422.472
27.56000 427.020
27.57000 432.620
27.58000 434.884
27.59000 428.980
27.60000 422.703
27.61000 418.733
27.62000 434.085
27.63000 445.443
27.64000 449.376
27.65000 444.802
27.66000 440.227
27.67000 437.694
27.68000 436.706
27.69000 435.735
27.70000 436.617
27.71000 438.401
27.72000 439.875
27.73000 436.117
27.74000 430.481
27.75000 425.852
27.76000 430.698
27.77000 437.878
27.78000 444.147
27.79000 442.739
27.80000 440.459
27.81000 438.182
27.82000 435.920
27.83000 433.660
27.84000 431.823
27.85000 431.131
27.86000 430.504
27.87000 430.092
27.88000 439.596
27.89000 446.762
27.90000 449.358
27.91000 446.103
27.92000 442.826
27.93000 439.186
27.94000 435.239
27.95000 431.337
27.96000 433.053
27.97000 437.872
27.98000 442.600
27.99000 445.452
28.00000 447.559
28.01000 449.823
28.02000 453.802
28.03000 458.250
28.04000 462.197
28.05000 461.393
28.06000 459.938
28.07000 458.135
28.08000 454.806
28.09000 451.298
28.10000 446.419
28.11000 437.434
28.12000 428.172
28.13000 421.860
28.14000 436.152
28.15000 447.308
28.16000 450.091
28.17000 440.933
28.18000 431.685
28.19000 429.384
28.20000 433.660
28.21000 437.905
28.22000 440.800
28.23000 442.804
28.24000 444.503
28.25000 438.386
28.26000 428.838
28.27000 420.420
28.28000 426.381
28.29000 436.708
28.30000 446.012
28.31000 452.294
28.32000 457.258
28.33000 459.879
28.34000 451.037
28.35000 440.662
28.36000 431.998
28.37000 429.015
28.38000 426.482
28.39000 424.698
28.40000 431.032
28.41000 436.078
28.42000 438.544
28.43000 436.919
28.44000 435.243
28.45000 440.270
28.46000 452.436
28.47000 464.551
28.48000 465.345
28.49000 458.212
28.50000 450.873
28.51000 436.734
28.52000 419.296
28.53000 403.185
28.54000 407.079
28.55000 417.700
28.56000 427.404
28.57000 425.317
28.58000 421.054
28.59000 417.794
28.60000 420.022
28.61000 423.082
28.62000 425.222
28.63000 423.979
28.64000 422.422
28.65000 421.290
28.66000 420.456
28.67000 419.826
28.68000 421.542
28.69000 427.382
28.70000 433.298
28.71000 435.574
28.72000 433.509
28.73000 431.439
28.74000 424.396
28.75000 413.491
28.76000 402.917
28.77000 407.025
28.78000 419.016
28.79000 430.323
28.80000 429.236
28.81000 423.539
28.82000 418.266
28.83000 412.735
28.84000 407.705
28.85000 403.444
28.86000 403.921
28.87000 405.208
28.88000 408.036
28.89000 417.168
28.90000 426.977
28.91000 434.318
28.92000 433.269
28.93000 432.059
28.94000 430.162
28.95000 426.928
28.96000 423.659
28.97000 421.601
28.98000 421.154
28.99000 420.715
29.00000 420.158
29.01000 419.497
29.02000 418.847
29.03000 418.919
29.04000 419.420
29.05000 419.922
29.06000 420.466
29.07000 421.027
29.08000 421.552
29.09000 419.979
29.10000 418.006
29.11000 416.889
29.12000 421.724
29.13000 427.701
29.14000 430.679
29.15000 419.996
29.16000 407.632
29.17000 398.124
29.18000 409.605
29.19000 419.875
29.20000 427.748
29.21000 430.462
29.22000 433.003
29.23000 433.620
29.24000 431.389
29.25000 429.131
29.26000 424.446
29.27000 417.363
29.28000 410.356
29.29000 410.768
29.30000 416.075
29.31000 421.261
29.32000 423.036
29.33000 423.261
29.34000 423.473
29.35000 418.293
29.36000 411.964
29.37000 406.527
29.38000 408.132
29.39000 411.247
29.40000 413.478
29.41000 411.210
29.42000 408.312
29.43000 406.026
29.44000 414.049
29.45000 421.179
29.46000 425.668
29.47000 423.871
29.48000 421.804
29.49000 418.447
29.50000 412.970
29.51000 407.461
29.52000 404.563
29.53000 410.671
29.54000 414.802
29.55000 416.250
29.56000 415.730
29.57000 415.288
29.58000 417.714
29.59000 421.583
29.60000 425.281
29.61000 426.647
29.62000 427.162
29.63000 427.635
29.64000 427.729
29.65000 427.732
29.66000 426.951
29.67000 421.700
29.68000 415.741
29.69000 410.929
29.70000 415.411
29.71000 419.795
29.72000 420.768
29.73000 412.770
29.74000 404.297
29.75000 400.678
29.76000 405.904
29.77000 411.316
29.78000 414.317
29.79000 421.005
29.80000 425.630
29.81000 429.490
29.82000 432.725
29.83000 435.871
29.84000 434.555
29.85000 430.756
29.86000 427.092
29.87000 430.982
29.88000 437.379
29.89000 443.264
29.90000 443.802
29.91000 442.919
29.92000 442.881
29.93000 448.269
29.94000 454.624
29.95000 459.870
29.96000 456.715
29.97000 453.335
29.98000 452.900
29.99000 461.035
30.00000 469.718
30.01000 475.090
30.02000 473.784
30.03000 472.288
30.04000 471.418
30.05000 454.905
30.06000 443.238
30.07000 440.012
30.08000 444.521
30.09000 448.949
30.10000 447.458
30.11000 442.313
30.12000 437.314
30.13000 440.886
30.14000 447.753
30.15000 454.027
30.16000 453.095
30.17000 450.038
30.18000 447.728
30.19000 450.844
30.20000 455.044
30.21000 458.582
30.22000 453.283
30.23000 447.909
30.24000 443.160
30.25000 440.423
30.26000 437.839
30.27000 435.699
30.28000 434.549
30.29000 433.436
30.30000 432.759
30.31000 435.481
30.32000 437.451
30.33000 438.295
30.34000 437.979
30.35000 437.653
30.36000 436.148
30.37000 433.837
30.38000 431.575
30.39000 429.293
30.40000 427.093
30.41000 425.004
30.42000 424.490
30.43000 424.490
30.44000 424.113
30.45000 420.615
30.46000 416.420
30.47000 412.818
30.48000 425.632
30.49000 438.498
30.50000 447.731
30.51000 443.983
30.52000 439.080
30.53000 436.585
30.54000 440.032
30.55000 443.755
30.56000 446.116
30.57000 442.963
30.58000 440.607
30.59000 442.882
30.60000 450.506
30.61000 458.112
30.62000 460.191
30.63000 458.052
30.64000 455.947
30.65000 455.691
30.66000 456.376
30.67000 457.170
30.68000 459.824
30.69000 463.150
30.70000 466.262
30.71000 467.334
30.72000 467.899
30.73000 468.393
30.74000 474.930
30.75000 481.383
30.76000 486.185
30.77000 484.438
30.78000 482.016
30.79000 478.345
30.80000 471.267
30.81000 463.997
30.82000 459.204
30.83000 467.806
30.84000 474.379
30.85000 483.465
30.86000 495.795
30.87000 508.123
30.88000 511.620
30.89000 507.594
30.90000 503.613
30.91000 509.362
30.92000 520.466
30.93000 531.422
30.94000 539.270
30.95000 545.875
30.96000 552.986
30.97000 565.662
30.98000 579.873
30.99000 592.497
31.00000 615.244
31.01000 636.600
31.02000 657.785
31.03000 678.215
31.04000 698.555
31.05000 725.383
31.06000 771.792
31.07000 819.534
31.08000 852.152
31.09000 929.927
31.10000 989.172
31.11000 1058.934
31.12000 1143.810
31.13000 1228.805
31.14000 1321.762
31.15000 1422.321
31.16000 1522.164
31.17000 1647.108
31.18000 1785.877
31.19000 1925.427
31.20000 2085.417
31.21000 2254.440
31.22000 2424.165
31.23000 2602.931
31.24000 2784.461
31.25000 2948.188
31.26000 3144.743
31.27000 3323.326
31.28000 3496.493
31.29000 3642.964
31.30000 3785.830
31.31000 3928.056
31.32000 4068.142
31.33000 4208.056
31.34000 4306.884
31.35000 4392.912
31.36000 4457.831
31.37000 4513.512
31.38000 4554.449
31.39000 4595.195
31.40000 4598.229
31.41000 4560.775
31.42000 4523.459
31.43000 4429.079
31.44000 4295.376
31.45000 4162.132
31.46000 4044.361
31.47000 3934.152
31.48000 3821.001
31.49000 3662.955
31.50000 3489.704
31.51000 3331.249
31.52000 3159.812
31.53000 3004.748
31.54000 2847.641
31.55000 2679.256
31.56000 2509.146
31.57000 2341.907
31.58000 2185.310
31.59000 2029.711
31.60000 1916.344
31.61000 1779.105
31.62000 1672.498
31.63000 1568.989
31.64000 1470.961
31.65000 1373.038
31.66000 1289.020
31.67000 1221.722
31.68000 1154.581
31.69000 1092.452
31.70000 1034.571
31.71000 976.920
31.72000 929.702
31.73000 888.127
31.74000 847.111
31.75000 816.372
31.76000 789.482
31.77000 764.572
31.78000 727.269
31.79000 690.836
31.80000 657.493
31.81000 643.339
31.82000 632.493
31.83000 618.851
31.84000 593.687
31.85000 567.273
31.86000 547.463
31.87000 536.902
31.88000 529.091
31.89000 522.516
31.90000 518.364
31.91000 514.275
31.92000 505.606
31.93000 490.791
31.94000 475.952
31.95000 468.664
31.96000 468.077
31.97000 467.530
31.98000 469.603
31.99000 473.245
32.00000 476.541
32.01000 472.024
32.02000 464.270
32.03000 457.001
32.04000 451.539
32.05000 447.038
32.06000 442.698
32.07000 439.495
32.08000 436.513
32.09000 433.662
32.10000 431.415
32.11000 429.244
32.12000 427.571
32.13000 426.383
32.14000 425.469
32.15000 422.784
32.16000 416.261
32.17000 409.604
32.18000 409.299
32.19000 418.471
32.20000 427.734
32.21000 431.523
32.22000 429.860
32.23000 428.176
32.24000 424.282
32.25000 418.921
32.26000 413.592
32.27000 409.203
32.28000 405.244
32.29000 401.494
32.30000 399.036
32.31000 397.151
32.32000 395.765
32.33000 398.355
32.34000 401.804
32.35000 405.149
32.36000 407.954
32.37000 410.684
32.38000 412.840
32.39000 414.385
32.40000 415.583
32.41000 415.615
32.42000 412.850
32.43000 409.964
32.44000 405.094
32.45000 396.938
32.46000 388.734
32.47000 384.400
32.48000 399.811
32.49000 410.213
32.50000 407.118
32.51000 394.039
32.52000 381.245
32.53000 379.096
32.54000 382.341
32.55000 385.445
32.56000 386.061
32.57000 385.821
32.58000 385.829
32.59000 388.109
32.60000 390.937
32.61000 393.305
32.62000 393.028
32.63000 392.330
32.64000 391.765
32.65000 395.146
32.66000 398.215
32.67000 399.476
32.68000 395.950
32.69000 392.166
32.70000 389.764
32.71000 389.900
32.72000 390.090
32.73000 390.196
32.74000 385.420
32.75000 382.119
32.76000 383.537
32.77000 388.850
32.78000 394.055
32.79000 393.800
32.80000 390.482
32.81000 387.280
32.82000 387.574
32.83000 389.128
32.84000 391.384
32.85000 401.039
32.86000 412.675
32.87000 422.586
32.88000 421.317
32.89000 418.039
32.90000 415.329
32.91000 422.728
32.92000 429.778
32.93000 432.852
32.94000 424.272
32.95000 414.937
32.96000 408.992
32.97000 409.930
32.98000 411.069
32.99000 411.735
33.00000 407.019
33.01000 403.679
33.02000 406.745
33.03000 415.730
33.04000 424.497
33.05000 417.010
33.06000 399.413
33.07000 382.306
33.08000 380.490
33.09000 385.007
33.10000 388.933
33.11000 385.586
33.12000 380.079
33.13000 375.190
33.14000 374.838
33.15000 375.400
33.16000 375.873
33.17000 369.493
33.18000 363.417
33.19000 360.099
33.20000 365.737
33.21000 372.063
33.22000 375.384
33.23000 371.955
33.24000 368.272
33.25000 366.023
33.26000 361.484
33.27000 358.219
33.28000 356.545
33.29000 356.521
33.30000 356.523
33.31000 359.699
33.32000 365.065
33.33000 370.318
33.34000 362.857
33.35000 349.897
33.36000 337.927
33.37000 340.345
33.38000 347.497
33.39000 353.860
33.40000 353.619
33.41000 351.894
33.42000 350.411
33.43000 350.839
33.44000 351.441
33.45000 352.519
33.46000 355.309
33.47000 358.254
33.48000 359.327
33.49000 355.749
33.50000 351.952
33.51000 349.536
33.52000 358.232
33.53000 364.689
33.54000 367.573
33.55000 366.298
33.56000 365.004
33.57000 360.801
33.58000 354.360
33.59000 348.020
33.60000 346.876
33.61000 348.413
33.62000 350.175
33.63000 355.849
33.64000 362.948
33.65000 369.106
33.66000 366.221
33.67000 361.074
33.68000 356.571
33.69000 353.024
33.70000 350.122
33.71000 348.406
33.72000 351.436
33.73000 354.959
33.74000 357.563
33.75000 357.640
33.76000 357.571
33.77000 357.526
33.78000 353.287
33.79000 350.085
33.80000 346.676
33.81000 342.996
33.82000 339.321
33.83000 340.295
33.84000 345.262
33.85000 350.176
33.86000 349.222
33.87000 344.954
33.88000 340.817
33.89000 339.476
33.90000 339.260
33.91000 339.513
33.92000 344.972
33.93000 351.879
33.94000 358.022
33.95000 352.463
33.96000 345.737
33.97000 339.162
33.98000 333.262
33.99000 327.442
34.00000 324.587
34.01000 330.745
34.02000 337.524
34.03000 342.167
34.04000 343.514
34.05000 344.444
34.06000 342.523
34.07000 336.474
34.08000 330.392
34.09000 331.096
34.10000 338.337
34.11000 345.527
34.12000 348.767
34.13000 349.446
34.14000 350.149
34.15000 351.482
34.16000 353.096
34.17000 354.190
34.18000 348.509
34.19000 340.741
34.20000 333.727
34.21000 335.838
34.22000 339.373
34.23000 341.881
34.24000 339.282
34.25000 335.988
34.26000 335.319
34.27000 343.489
34.28000 352.378
34.29000 358.671
34.30000 352.888
34.31000 348.119
34.32000 343.668
34.33000 339.732
34.34000 335.802
34.35000 333.960
34.36000 334.379
34.37000 334.797
34.38000 331.348
34.39000 325.183
34.40000 319.312
34.41000 323.530
34.42000 332.716
34.43000 341.303
34.44000 340.638
34.45000 336.816
34.46000 333.317
34.47000 331.147
34.48000 329.494
34.49000 327.986
34.50000 327.293
34.51000 326.726
34.52000 326.443
34.53000 327.222
34.54000 328.101
34.55000 328.743
34.56000 332.908
34.57000 336.256
34.58000 336.442
34.59000 330.989
34.60000 325.425
34.61000 323.651
34.62000 326.470
34.63000 329.294
34.64000 330.711
34.65000 330.999
34.66000 331.361
34.67000 335.124
34.68000 340.739
34.69000 345.838
34.70000 341.294
34.71000 333.112
34.72000 325.525
34.73000 330.688
34.74000 338.318
34.75000 344.525
34.76000 341.819
34.77000 337.563
34.78000 334.439
34.79000 336.019
34.80000 338.114
34.81000 339.688
34.82000 337.988
34.83000 336.502
34.84000 333.649
34.85000 328.096
34.86000 322.471
34.87000 319.251
34.88000 319.280
34.89000 319.328
34.90000 320.458
34.91000 322.554
34.92000 324.612
34.93000 324.237
34.94000 322.392
34.95000 320.714
34.96000 322.878
34.97000 326.646
34.98000 330.180
34.99000 328.643
35.00000 325.910
35.01000 323.136
35.02000 320.072
35.03000 316.952
35.04000 315.813
35.05000 323.838
35.06000 333.012
35.07000 340.094
35.08000 337.450
35.09000 334.789
35.10000 330.717
35.11000 323.565
35.12000 316.305
35.13000 312.379
35.14000 313.467
35.15000 314.605
35.16000 315.176
35.17000 314.742
35.18000 314.480
35.19000 317.119
35.20000 321.703
35.21000 326.199
35.22000 328.136
35.23000 328.893
35.24000 329.611
35.25000 329.760
35.26000 329.730
35.27000 329.712
35.28000 329.792
35.29000 329.893
35.30000 328.813
35.31000 321.627
35.32000 313.571
35.33000 307.195
35.34000 317.209
35.35000 326.389
35.36000 333.021
35.37000 333.500
35.38000 333.706
35.39000 330.814
35.40000 322.750
35.41000 314.606
35.42000 310.287
35.43000 307.751
35.44000 306.043
35.45000 307.296
35.46000 310.756
35.47000 314.203
35.48000 317.114
35.49000 319.751
35.50000 322.276
35.51000 318.789
35.52000 313.560
35.53000 308.840
35.54000 308.820
35.55000 309.941
35.56000 310.968
35.57000 311.452
35.58000 311.848
35.59000 312.170
35.60000 308.749
35.61000 305.658
35.62000 303.010
35.63000 301.547
35.64000 300.148
35.65000 303.076
35.66000 314.005
35.67000 325.111
35.68000 331.314
35.69000 321.061
35.70000 313.934
35.71000 310.629
35.72000 310.503
35.73000 310.403
35.74000 311.618
35.75000 313.577
35.76000 315.468
35.77000 317.653
35.78000 319.819
35.79000 322.033
35.80000 324.762
35.81000 327.630
35.82000 329.885
35.83000 328.142
35.84000 325.675
35.85000 323.632
35.86000 324.291
35.87000 325.091
35.88000 323.958
35.89000 317.117
35.90000 309.901
35.91000 305.123
35.92000 305.337
35.93000 305.699
35.94000 305.911
35.95000 300.716
35.96000 297.034
35.97000 304.138
35.98000 321.291
35.99000 338.215
36.00000 337.489
36.01000 325.705
36.02000 314.242
36.03000 310.046
36.04000 309.043
36.05000 307.953
36.06000 305.779
36.07000 303.281
36.08000 300.805
36.09000 298.493
36.10000 296.213
36.11000 294.288
36.12000 302.333
36.13000 310.156
36.14000 316.326
36.15000 317.093
36.16000 317.439
36.17000 315.413
36.18000 308.017
36.19000 300.415
36.20000 295.760
36.21000 308.858
36.22000 318.386
36.23000 318.017
36.24000 307.284
36.25000 296.595
36.26000 291.664
36.27000 290.741
36.28000 289.836
36.29000 292.156
36.30000 295.868
36.31000 299.568
36.32000 303.109
36.33000 306.596
36.34000 309.829
36.35000 310.911
36.36000 311.507
36.37000 312.020
36.38000 309.087
36.39000 306.167
36.40000 304.080
36.41000 305.011
36.42000 306.215
36.43000 306.526
36.44000 304.597
36.45000 302.562
36.46000 301.264
36.47000 304.375
36.48000 306.695
36.49000 309.118
36.50000 311.663
36.51000 314.194
36.52000 313.269
36.53000 309.665
36.54000 306.115
36.55000 301.907
36.56000 297.488
36.57000 293.360
36.58000 294.360
36.59000 297.240
36.60000 299.746
36.61000 298.612
36.62000 296.560
36.63000 294.763
36.64000 292.577
36.65000 290.646
36.66000 291.328
36.67000 302.537
36.68000 314.854
36.69000 321.667
36.70000 313.245
36.71000 303.936
36.72000 297.767
36.73000 302.830
36.74000 306.774
36.75000 309.814
36.76000 311.671
36.77000 313.521
36.78000 314.145
36.79000 313.707
36.80000 313.274
36.81000 307.792
36.82000 299.539
36.83000 291.786
36.84000 294.837
36.85000 302.269
36.86000 308.824
36.87000 305.525
36.88000 299.466
36.89000 294.072
36.90000 302.169
36.91000 311.415
36.92000 318.590
36.93000 316.471
36.94000 313.230
36.95000 310.991
36.96000 311.822
36.97000 312.868
36.98000 313.585
36.99000 320.448
37.00000 325.744
37.01000 326.030
37.02000 319.006
37.03000 311.920
37.04000 306.563
37.05000 302.885
37.06000 299.232
37.07000 302.009
37.08000 308.865
37.09000 315.494
37.10000 316.012
37.11000 313.790
37.12000 311.878
37.13000 314.063
37.14000 317.518
37.15000 320.641
37.16000 321.760
37.17000 322.372
37.18000 321.843
37.19000 315.599
37.20000 308.569
37.21000 303.528
37.22000 305.238
37.23000 307.503
37.24000 309.110
37.25000 305.139
37.26000 301.943
37.27000 299.438
37.28000 298.057
37.29000 296.690
37.30000 297.361
37.31000 300.255
37.32000 303.139
37.33000 301.894
37.34000 297.701
37.35000 293.642
37.36000 294.264
37.37000 297.208
37.38000 300.098
37.39000 302.126
37.40000 303.859
37.41000 305.446
37.42000 301.562
37.43000 296.956
37.44000 292.981
37.45000 292.548
37.46000 292.666
37.47000 291.343
37.48000 284.594
37.49000 277.324
37.50000 272.005
37.51000 275.187
37.52000 277.979
37.53000 281.037
37.54000 284.573
37.55000 288.119
37.56000 289.733
37.57000 288.987
37.58000 288.236
37.59000 288.542
37.60000 289.695
37.61000 290.835
37.62000 291.363
37.63000 291.555
37.64000 291.809
37.65000 293.252
37.66000 295.146
37.67000 296.903
37.68000 292.384
37.69000 286.830
37.70000 283.061
37.71000 290.565
37.72000 300.045
37.73000 307.671
37.74000 307.540
37.75000 306.549
37.76000 305.804
37.77000 311.397
37.78000 316.082
37.79000 315.812
37.80000 305.687
37.81000 295.291
37.82000 291.551
37.83000 296.877
37.84000 302.254
37.85000 303.365
37.86000 300.634
37.87000 297.912
37.88000 295.895
37.89000 294.306
37.90000 292.748
37.91000 291.901
37.92000 291.354
37.93000 290.841
37.94000 295.960
37.95000 302.119
37.96000 307.900
37.97000 310.977
37.98000 313.522
37.99000 314.963
38.00000 311.254
38.01000 306.893
38.02000 303.520
38.03000 298.507
38.04000 294.433
38.05000 294.227
38.06000 302.530
38.07000 311.137
38.08000 317.512
38.09000 320.506
38.10000 323.465
38.11000 324.953
38.12000 319.586
38.13000 316.033
38.14000 316.089
38.15000 318.582
38.16000 321.023
38.17000 321.929
38.18000 322.121
38.19000 322.304
38.20000 322.448
38.21000 322.570
38.22000 323.658
38.23000 332.605
38.24000 343.278
38.25000 352.238
38.26000 352.267
38.27000 351.012
38.28000 350.017
38.29000 356.386
38.30000 362.025
38.31000 366.576
38.32000 368.483
38.33000 370.270
38.34000 372.993
38.35000 377.290
38.36000 381.611
38.37000 383.911
38.38000 383.569
38.39000 383.387
38.40000 394.061
38.41000 412.892
38.42000 431.546
38.43000 443.320
38.44000 451.556
38.45000 459.444
38.46000 473.285
38.47000 488.170
38.48000 501.922
38.49000 505.118
38.50000 505.733
38.51000 509.977
38.52000 535.465
38.53000 564.404
38.54000 587.886
38.55000 616.079
38.56000 639.451
38.57000 659.967
38.58000 672.807
38.59000 685.223
38.60000 697.705
38.61000 710.308
38.62000 722.913
38.63000 729.978
38.64000 722.160
38.65000 716.718
38.66000 718.852
38.67000 727.338
38.68000 735.723
38.69000 738.708
38.70000 738.620
38.71000 738.534
38.72000 731.177
38.73000 721.541
38.74000 712.812
38.75000 713.841
38.76000 717.522
38.77000 717.689
38.78000 694.671
38.79000 667.418
38.80000 644.821
38.81000 629.208
38.82000 616.980
38.83000 603.753
38.84000 587.552
38.85000 571.153
38.86000 556.624
38.87000 545.950
38.88000 535.392
38.89000 529.186
38.90000 503.057
38.91000 484.532
38.92000 470.371
38.93000 460.310
38.94000 450.202
38.95000 436.375
38.96000 420.200
38.97000 404.459
38.98000 392.094
38.99000 381.719
39.00000 371.885
39.01000 368.843
39.02000 367.849
39.03000 366.167
39.04000 359.343
39.05000 351.468
39.06000 344.805
39.07000 336.478
39.08000 329.325
39.09000 324.370
39.10000 326.658
39.11000 329.516
39.12000 329.981
39.13000 324.991
39.14000 319.790
39.15000 316.595
39.16000 322.011
39.17000 325.967
39.18000 325.610
39.19000 320.697
39.20000 315.804
39.21000 313.818
39.22000 313.869
39.23000 313.920
39.24000 309.940
39.25000 304.246
39.26000 298.776
39.27000 296.639
39.28000 295.616
39.29000 294.958
39.30000 297.416
39.31000 300.586
39.32000 303.319
39.33000 300.811
39.34000 298.017
39.35000 295.472
39.36000 293.835
39.37000 292.281
39.38000 291.306
39.39000 291.786
39.40000 292.336
39.41000 292.689
39.42000 286.889
39.43000 282.585
39.44000 277.975
39.45000 273.005
39.46000 268.053
39.47000 268.095
39.48000 272.038
39.49000 275.922
39.50000 275.976
39.51000 274.046
39.52000 272.266
39.53000 273.162
39.54000 275.046
39.55000 277.070
39.56000 280.468
39.57000 284.215
39.58000 287.502
39.59000 286.554
39.60000 285.124
39.61000 283.708
39.62000 282.351
39.63000 281.001
39.64000 278.391
39.65000 272.272
39.66000 265.945
39.67000 261.741
39.68000 252.571
39.69000 245.697
39.70000 245.411
39.71000 253.827
39.72000 262.281
39.73000 268.653
39.74000 273.209
39.75000 277.718
39.76000 275.571
39.77000 269.626
39.78000 264.224
39.79000 270.736
39.80000 282.114
39.81000 292.532
39.82000 292.025
39.83000 288.437
39.84000 285.238
39.85000 281.827
39.86000 278.825
39.87000 275.761
39.88000 272.418
39.89000 269.040
39.90000 268.367
39.91000 276.037
39.92000 284.297
39.93000 289.982
39.94000 278.839
39.95000 270.057
39.96000 264.638
39.97000 264.165
39.98000 263.735
39.99000 263.606
40.00000 263.772
40.01000 263.937
40.02000 267.064
40.03000 272.058
40.04000 276.795
40.05000 274.465
40.06000 268.945
40.07000 263.510
40.08000 259.226
40.09000 255.301
40.10000 251.751
40.11000 250.674
40.12000 250.190
40.13000 249.949
40.14000 250.935
40.15000 252.091
40.16000 253.986
40.17000 258.401
40.18000 263.026
40.19000 266.316
40.20000 271.063
40.21000 274.724
40.22000 276.708
40.23000 275.953
40.24000 275.159
40.25000 272.696
40.26000 268.396
40.27000 264.110
40.28000 263.733
40.29000 266.183
40.30000 268.559
40.31000 268.300
40.32000 266.725
40.33000 265.342
40.34000 267.016
40.35000 269.748
40.36000 272.254
40.37000 274.549
40.38000 276.550
40.39000 277.846
40.40000 275.147
40.41000 271.822
40.42000 270.106
40.43000 274.494
40.44000 279.473
40.45000 283.124
40.46000 276.911
40.47000 271.714
40.48000 266.841
40.49000 262.553
40.50000 258.277
40.51000 255.722
40.52000 255.284
40.53000 254.853
40.54000 254.043
40.55000 252.931
40.56000 251.897
40.57000 254.715
40.58000 259.663
40.59000 264.269
40.60000 262.339
40.61000 257.905
40.62000 253.787
40.63000 258.447
40.64000 264.738
40.65000 269.737
40.66000 266.503
40.67000 261.812
40.68000 257.535
40.69000 255.000
40.70000 252.660
40.71000 250.895
40.72000 254.534
40.73000 257.651
40.74000 258.273
40.75000 253.895
40.76000 249.377
40.77000 248.623
40.78000 253.036
40.79000 257.479
40.80000 258.738
40.81000 257.104
40.82000 255.503
40.83000 256.218
40.84000 258.352
40.85000 260.312
40.86000 258.130
40.87000 254.194
40.88000 250.496
40.89000 246.470
40.90000 242.708
40.91000 240.267
40.92000 247.351
40.93000 256.324
40.94000 264.679
40.95000 270.135
40.96000 275.221
40.97000 279.161
40.98000 265.387
40.99000 253.392
41.00000 246.799
41.01000 252.170
41.02000 257.976
41.03000 257.658
41.04000 247.988
41.05000 238.218
41.06000 233.282
41.07000 244.325
41.08000 251.664
41.09000 253.522
41.10000 251.649
41.11000 249.915
41.12000 252.362
41.13000 256.766
41.14000 260.946
41.15000 264.156
41.16000 266.828
41.17000 268.748
41.18000 264.496
41.19000 258.879
41.20000 254.265
41.21000 254.923
41.22000 256.347
41.23000 257.477
41.24000 255.054
41.25000 252.852
41.26000 252.664
41.27000 257.408
41.28000 262.379
41.29000 265.112
41.30000 264.057
41.31000 262.940
41.32000 262.343
41.33000 255.765
41.34000 251.288
41.35000 249.550
41.36000 249.885
41.37000 250.271
41.38000 252.663
41.39000 256.096
41.40000 259.385
41.41000 256.239
41.42000 251.147
41.43000 246.627
41.44000 247.491
41.45000 249.683
41.46000 251.921
41.47000 254.437
41.48000 256.998
41.49000 259.080
41.50000 248.951
41.51000 239.669
41.52000 234.807
41.53000 241.916
41.54000 249.695
41.55000 254.746
41.56000 254.680
41.57000 254.496
41.58000 254.392
41.59000 256.671
41.60000 258.251
41.61000 255.247
41.62000 248.368
41.63000 241.633
41.64000 242.786
41.65000 248.463
41.66000 253.949
41.67000 254.031
41.68000 252.085
41.69000 249.908
41.70000 245.225
41.71000 239.856
41.72000 235.493
41.73000 237.827
41.74000 241.395
41.75000 244.357
41.76000 243.790
41.77000 242.979
41.78000 242.242
41.79000 241.730
41.80000 241.233
41.81000 242.633
41.82000 247.971
41.83000 253.430
41.84000 256.649
41.85000 242.985
41.86000 233.249
41.87000 229.911
41.88000 232.632
41.89000 235.377
41.90000 240.174
41.91000 246.274
41.92000 252.213
41.93000 251.619
41.94000 248.320
41.95000 244.964
41.96000 240.883
41.97000 236.581
41.98000 233.281
41.99000 237.534
42.00000 243.346
42.01000 248.269
42.02000 240.714
42.03000 232.986
42.04000 228.174
42.05000 233.037
42.06000 238.669
42.07000 242.672
42.08000 242.934
42.09000 243.048
42.10000 243.118
42.11000 243.259
42.12000 243.361
42.13000 244.553
42.14000 246.905
42.15000 249.246
42.16000 250.044
42.17000 249.751
42.18000 249.464
42.19000 245.787
42.20000 240.665
42.21000 235.892
42.22000 236.374
42.23000 238.624
42.24000 240.481
42.25000 238.960
42.26000 236.661
42.27000 234.678
42.28000 245.241
42.29000 255.819
42.30000 263.539
42.31000 260.736
42.32000 256.956
42.33000 252.341
42.34000 245.608
42.35000 238.770
42.36000 234.383
42.37000 239.656
42.38000 243.630
42.39000 244.725
42.40000 242.385
42.41000 240.042
42.42000 239.067
42.43000 239.167
42.44000 239.266
42.45000 237.446
42.46000 234.680
42.47000 232.072
42.48000 232.345
42.49000 233.689
42.50000 234.988
42.51000 235.840
42.52000 236.577
42.53000 237.225
42.54000 234.033
42.55000 230.725
42.56000 228.362
42.57000 229.863
42.58000 231.779
42.59000 231.862
42.60000 226.799
42.61000 221.428
42.62000 217.849
42.63000 230.800
42.64000 240.702
42.65000 244.795
42.66000 241.155
42.67000 237.478
42.68000 234.451
42.69000 231.996
42.70000 229.566
42.71000 231.641
42.72000 236.296
42.73000 240.763
42.74000 241.045
42.75000 239.605
42.76000 238.365
42.77000 239.417
42.78000 241.121
42.79000 242.641
42.80000 242.664
42.81000 242.434
42.82000 241.360
42.83000 236.445
42.84000 231.058
42.85000 227.998
42.86000 232.169
42.87000 236.857
42.88000 240.092
42.89000 236.847
42.90000 234.244
42.91000 233.782
42.92000 236.492
42.93000 239.232
42.94000 238.371
42.95000 233.956
42.96000 229.567
42.97000 228.479
42.98000 229.555
42.99000 230.755
43.00000 235.418
43.01000 241.657
43.02000 247.454
43.03000 247.286
43.04000 245.239
43.05000 243.385
43.06000 240.271
43.07000 237.288
43.08000 234.819
43.09000 234.963
43.10000 235.474
43.11000 236.060
43.12000 236.901
43.13000 237.765
43.14000 238.381
43.15000 239.383
43.16000 240.160
43.17000 239.347
43.18000 235.922
43.19000 232.458
43.20000 229.754
43.21000 227.892
43.22000 226.037
43.23000 227.849
43.24000 232.318
43.25000 236.752
43.26000 239.928
43.27000 242.472
43.28000 244.584
43.29000 239.756
43.30000 232.508
43.31000 225.853
43.32000 225.889
43.33000 227.347
43.34000 227.714
43.35000 221.857
43.36000 215.015
43.37000 210.040
43.38000 212.203
43.39000 215.064
43.40000 217.167
43.41000 218.480
43.42000 219.463
43.43000 220.426
43.44000 221.353
43.45000 222.279
43.46000 222.344
43.47000 221.338
43.48000 220.332
43.49000 219.992
43.50000 220.199
43.51000 220.392
43.52000 219.861
43.53000 218.929
43.54000 218.083
43.55000 218.924
43.56000 220.414
43.57000 221.800
43.58000 220.542
43.59000 218.772
43.60000 217.801
43.61000 221.966
43.62000 227.046
43.63000 230.720
43.64000 228.423
43.65000 225.452
43.66000 223.207
43.67000 223.106
43.68000 223.135
43.69000 223.236
43.70000 223.482
43.71000 223.732
43.72000 225.262
43.73000 228.563
43.74000 231.875
43.75000 231.110
43.76000 226.614
43.77000 222.171
43.78000 221.609
43.79000 223.443
43.80000 225.178
43.81000 224.520
43.82000 222.843
43.83000 221.266
43.84000 230.176
43.85000 241.138
43.86000 250.664
43.87000 249.748
43.88000 246.746
43.89000 244.149
43.90000 243.475
43.91000 243.048
43.92000 242.718
43.93000 238.317
43.94000 234.573
43.95000 231.747
43.96000 230.970
43.97000 230.269
43.98000 228.333
43.99000 224.500
44.00000 220.646
44.01000 218.690
44.02000 224.696
44.03000 228.705
44.04000 231.072
44.05000 232.313
44.06000 233.423
44.07000 230.511
44.08000 225.702
44.09000 221.134
44.10000 224.128
44.11000 229.175
44.12000 233.409
44.13000 230.906
44.14000 226.901
44.15000 224.373
44.16000 229.680
44.17000 236.133
44.18000 241.267
44.19000 243.565
44.20000 245.215
44.21000 245.062
44.22000 240.462
44.23000 235.657
44.24000 232.380
44.25000 231.712
44.26000 231.087
44.27000 230.752
44.28000 232.767
44.29000 234.134
44.30000 233.258
44.31000 230.669
44.32000 228.178
44.33000 229.655
44.34000 233.204
44.35000 236.606
44.36000 240.045
44.37000 243.268
44.38000 246.214
44.39000 246.517
44.40000 246.163
44.41000 245.846
44.42000 245.749
44.43000 245.687
44.44000 245.637
44.45000 247.816
44.46000 249.784
44.47000 251.413
44.48000 252.120
44.49000 252.774
44.50000 254.644
44.51000 258.810
44.52000 263.030
44.53000 265.412
44.54000 268.764
44.55000 271.094
44.56000 271.900
44.57000 271.408
44.58000 270.995
44.59000 275.116
44.60000 281.856
44.61000 288.374
44.62000 286.749
44.63000 282.143
44.64000 278.227
44.65000 281.908
44.66000 287.684
44.67000 292.741
44.68000 292.963
44.69000 292.286
44.70000 291.724
44.71000 304.306
44.72000 316.008
44.73000 325.667
44.74000 329.161
44.75000 332.234
44.76000 335.717
44.77000 340.058
44.78000 344.426
44.79000 347.010
44.80000 362.847
44.81000 374.113
44.82000 380.980
44.83000 383.645
44.84000 386.309
44.85000 388.924
44.86000 391.509
44.87000 394.027
44.88000 399.181
44.89000 405.206
44.90000 411.482
44.91000 420.986
44.92000 431.477
44.93000 440.949
44.94000 442.654
44.95000 442.745
44.96000 442.822
44.97000 447.099
44.98000 451.161
44.99000 453.986
45.00000 452.677
45.01000 451.036
45.02000 449.989
45.03000 450.320
45.04000 450.705
45.05000 450.944
45.06000 439.624
45.07000 431.384
45.08000 427.945
45.09000 429.663
45.10000 431.379
45.11000 432.798
45.12000 434.006
45.13000 435.189
45.14000 425.910
45.15000 412.052
45.16000 398.798
45.17000 394.766
45.18000 393.858
45.19000 393.356
45.20000 396.383
45.21000 400.228
45.22000 403.551
45.23000 389.200
45.24000 374.714
45.25000 362.063
45.26000 356.217
45.27000 351.011
45.28000 345.993
45.29000 341.460
45.30000 336.951
45.31000 334.051
45.32000 327.832
45.33000 323.248
45.34000 317.339
45.35000 309.840
45.36000 302.358
45.37000 301.521
45.38000 305.955
45.39000 310.327
45.40000 310.621
45.41000 308.765
45.42000 306.604
45.43000 298.848
45.44000 288.996
45.45000 279.768
45.46000 276.791
45.47000 275.426
45.48000 274.226
45.49000 274.450
45.50000 274.854
45.51000 275.716
45.52000 278.461
45.53000 281.411
45.54000 282.560
45.55000 278.620
45.56000 274.371
45.57000 271.533
45.58000 260.640
45.59000 252.412
45.60000 247.386
45.61000 246.656
45.62000 245.951
45.63000 247.693
45.64000 251.605
45.65000 255.479
45.66000 256.912
45.67000 256.882
45.68000 256.992
45.69000 260.273
45.70000 264.868
45.71000 268.329
45.72000 258.608
45.73000 245.113
45.74000 233.057
45.75000 234.984
45.76000 239.018
45.77000 241.668
45.78000 237.968
45.79000 233.478
45.80000 230.754
45.81000 233.553
45.82000 236.752
45.83000 238.964
45.84000 238.650
45.85000 238.348
45.86000 239.407
45.87000 242.499
45.88000 245.610
45.89000 243.062
45.90000 234.876
45.91000 226.739
45.92000 220.645
45.93000 215.974
45.94000 211.483
45.95000 212.146
45.96000 215.169
45.97000 217.861
45.98000 216.034
45.99000 212.774
46.00000 209.817
46.01000 214.384
46.02000 219.847
46.03000 224.147
46.04000 222.487
46.05000 219.984
46.06000 217.365
46.07000 214.341
46.08000 211.283
46.09000 209.099
46.10000 210.161
46.11000 211.080
46.12000 209.919
46.13000 205.313
46.14000 200.655
46.15000 201.288
46.16000 207.841
46.17000 214.377
46.18000 214.404
46.19000 209.653
46.20000 204.936
46.21000 201.505
46.22000 198.725
46.23000 196.398
46.24000 201.437
46.25000 209.064
46.26000 216.072
46.27000 221.327
46.28000 225.642
46.29000 228.247
46.30000 221.015
46.31000 212.212
46.32000 205.676
46.33000 207.868
46.34000 210.923
46.35000 213.174
46.36000 218.295
46.37000 222.379
46.38000 221.212
46.39000 210.406
46.40000 199.392
46.41000 193.975
46.42000 195.558
46.43000 197.160
46.44000 199.691
46.45000 202.979
46.46000 206.252
46.47000 208.762
46.48000 210.844
46.49000 212.714
46.50000 210.393
46.51000 206.445
46.52000 202.771
46.53000 201.653
46.54000 201.262
46.55000 200.745
46.56000 199.415
46.57000 197.939
46.58000 197.148
46.59000 199.290
46.60000 201.767
46.61000 203.643
46.62000 202.070
46.63000 200.659
46.64000 200.788
46.65000 204.044
46.66000 207.391
46.67000 208.480
46.68000 206.419
46.69000 204.337
46.70000 202.771
46.71000 201.682
46.72000 200.605
46.73000 200.482
46.74000 200.951
46.75000 201.386
46.76000 200.991
46.77000 200.240
46.78000 199.534
46.79000 200.902
46.80000 202.715
46.81000 204.405
46.82000 205.190
46.83000 205.793
46.84000 206.169
46.85000 205.463
46.86000 204.616
46.87000 203.958
46.88000 200.111
46.89000 196.854
46.90000 195.050
46.91000 196.507
46.92000 198.086
46.93000 198.961
46.94000 198.743
46.95000 198.513
46.96000 198.395
46.97000 192.781
46.98000 189.074
46.99000 192.706
47.00000 201.408
47.01000 209.758
47.02000 207.092
47.03000 199.195
47.04000 191.688
47.05000 187.873
47.06000 185.470
47.07000 183.502
47.08000 185.185
47.09000 187.688
47.10000 189.577
47.11000 188.184
47.12000 186.307
47.13000 184.811
47.14000 193.535
47.15000 201.314
47.16000 206.338
47.17000 204.521
47.18000 202.381
47.19000 200.576
47.20000 199.348
47.21000 198.129
47.22000 197.473
47.23000 196.979
47.24000 196.649
47.25000 198.370
47.26000 201.668
47.27000 204.906
47.28000 205.623
47.29000 205.016
47.30000 204.434
47.31000 203.834
47.32000 203.266
47.33000 202.202
47.34000 196.365
47.35000 189.334
47.36000 184.340
47.37000 191.574
47.38000 200.846
47.39000 208.406
47.40000 201.978
47.41000 195.531
47.42000 190.007
47.43000 187.016
47.44000 184.172
47.45000 183.057
47.46000 185.237
47.47000 187.497
47.48000 188.776
47.49000 197.925
47.50000 204.306
47.51000 205.704
47.52000 202.822
47.53000 199.971
47.54000 198.898
47.55000 198.861
47.56000 198.826
47.57000 199.235
47.58000 199.790
47.59000 199.903
47.60000 195.093
47.61000 188.914
47.62000 184.242
47.63000 189.780
47.64000 197.229
47.65000 203.434
47.66000 199.082
47.67000 194.431
47.68000 189.780
47.69000 185.129
47.70000 180.478
47.71000 178.067
47.72000 180.376
47.73000 182.837
47.74000 184.297
47.75000 187.517
47.76000 189.805
47.77000 189.540
47.78000 186.814
47.79000 184.106
47.80000 182.916
47.81000 182.706
47.82000 182.502
47.83000 183.619
47.84000 185.247
47.85000 187.007
47.86000 190.489
47.87000 194.502
47.88000 197.784
47.89000 195.442
47.90000 191.922
47.91000 188.932
47.92000 185.409
47.93000 182.392
47.94000 180.761
47.95000 183.803
47.96000 187.224
47.97000 189.834
47.98000 190.554
47.99000 191.197
48.00000 191.595
48.01000 186.133
48.02000 182.149
48.03000 180.142
48.04000 180.277
48.05000 180.414
48.06000 180.685
48.07000 181.051
48.08000 181.410
48.09000 183.085
48.10000 185.322
48.11000 187.527
48.12000 189.229
48.13000 190.760
48.14000 192.613
48.15000 197.301
48.16000 202.651
48.17000 207.281
48.18000 206.608
48.19000 205.340
48.20000 203.656
48.21000 200.420
48.22000 197.037
48.23000 194.378
48.24000 193.586
48.25000 192.889
48.26000 192.439
48.27000 186.938
48.28000 182.847
48.29000 182.979
48.30000 188.230
48.31000 193.474
48.32000 192.532
48.33000 186.642
48.34000 180.834
48.35000 179.618
48.36000 180.868
48.37000 182.104
48.38000 183.061
48.39000 183.912
48.40000 184.474
48.41000 182.118
48.42000 179.004
48.43000 176.262
48.44000 179.742
48.45000 183.670
48.46000 186.468
48.47000 184.570
48.48000 182.157
48.49000 181.320
48.50000 184.971
48.51000 188.897
48.52000 191.527
48.53000 192.741
48.54000 193.614
48.55000 193.247
48.56000 191.202
48.57000 189.149
48.58000 188.130
48.59000 188.035
48.60000 187.941
48.61000 188.013
48.62000 188.182
48.63000 188.236
48.64000 185.640
48.65000 181.940
48.66000 178.764
48.67000 181.760
48.68000 186.536
48.69000 190.808
48.70000 189.278
48.71000 186.959
48.72000 185.164
48.73000 185.796
48.74000 186.732
48.75000 186.816
48.76000 184.210
48.77000 181.407
48.78000 179.464
48.79000 188.500
48.80000 195.593
48.81000 199.508
48.82000 198.643
48.83000 197.731
48.84000 193.155
48.85000 184.900
48.86000 176.692
48.87000 173.934
48.88000 174.815
48.89000 175.768
48.90000 178.798
48.91000 182.786
48.92000 186.694
48.93000 189.484
48.94000 191.917
48.95000 194.124
48.96000 190.906
48.97000 187.020
48.98000 183.498
48.99000 181.855
49.00000 180.480
49.01000 179.091
49.02000 177.654
49.03000 176.214
49.04000 175.182
49.05000 182.110
49.06000 187.672
49.07000 191.231
49.08000 191.447
49.09000 191.611
49.10000 190.334
49.11000 187.431
49.12000 184.535
49.13000 182.718
49.14000 181.712
49.15000 180.724
49.16000 180.406
49.17000 180.430
49.18000 180.526
49.19000 181.824
49.20000 183.546
49.21000 185.131
49.22000 183.777
49.23000 181.931
49.24000 180.643
49.25000 182.592
49.26000 185.064
49.27000 186.954
49.28000 186.590
49.29000 186.001
49.30000 185.566
49.31000 174.472
49.32000 165.428
49.33000 162.956
49.34000 172.641
49.35000 182.594
49.36000 188.618
49.37000 189.689
49.38000 190.743
49.39000 190.006
49.40000 187.787
49.41000 185.585
49.42000 184.296
49.43000 183.523
49.44000 182.781
49.45000 182.650
49.46000 182.758
49.47000 182.859
49.48000 183.372
49.49000 183.936
49.50000 184.375
49.51000 183.991
49.52000 183.458
49.53000 182.534
49.54000 179.928
49.55000 177.129
49.56000 175.004
49.57000 179.738
49.58000 183.811
49.59000 185.528
49.60000 182.425
49.61000 179.179
49.62000 178.236
49.63000 180.527
49.64000 182.840
49.65000 182.191
49.66000 178.784
49.67000 175.419
49.68000 175.407
49.69000 177.495
49.70000 179.613
49.71000 182.496
49.72000 185.710
49.73000 188.736
49.74000 193.636
49.75000 198.632
49.76000 202.195
49.77000 195.149
49.78000 185.949
49.79000 177.809
49.80000 174.763
49.81000 172.386
49.82000 170.535
49.83000 178.931
49.84000 186.254
49.85000 192.406
49.86000 195.909
49.87000 199.310
49.88000 196.061
49.89000 182.429
49.90000 168.675
49.91000 161.638
49.92000 165.915
49.93000 168.804
49.94000 173.404
49.95000 179.197
49.96000 184.832
49.97000 185.424
49.98000 183.604
49.99000 181.872
50.00000 182.499
50.01000 183.802
50.02000 184.884
50.03000 184.106
50.04000 182.906
50.05000 182.213
50.06000 184.251
50.07000 186.695
50.08000 188.647
50.09000 189.209
50.10000 189.560
50.11000 189.616
50.12000 188.928
50.13000 188.205
50.14000 185.847
50.15000 180.659
50.16000 175.422
50.17000 172.591
50.18000 186.488
50.19000 195.993
50.20000 199.253
50.21000 197.673
50.22000 196.088
50.23000 194.322
50.24000 192.460
50.25000 190.672
50.26000 185.820
50.27000 180.229
50.28000 175.676
50.29000 181.191
50.30000 189.243
50.31000 196.693
50.32000 200.492
50.33000 203.679
50.34000 206.280
50.35000 210.411
50.36000 213.924
50.37000 214.574
50.38000 207.304
50.39000 199.572
50.40000 197.931
50.41000 207.969
50.42000 218.295
50.43000 224.165
50.44000 227.442
50.45000 229.721
50.46000 234.738
50.47000 242.124
50.48000 249.431
50.49000 252.015
50.50000 251.830
50.51000 251.651
50.52000 253.981
50.53000 257.145
50.54000 260.673
50.55000 268.301
50.56000 277.078
50.57000 284.813
50.58000 285.435
50.59000 284.714
50.60000 284.113
50.61000 282.181
50.62000 280.445
50.63000 279.925
50.64000 283.127
50.65000 286.589
50.66000 290.008
50.67000 293.338
50.68000 296.665
50.69000 298.647
50.70000 295.621
50.71000 293.447
50.72000 289.109
50.73000 282.668
50.74000 276.255
50.75000 272.465
50.76000 270.379
50.77000 268.345
50.78000 269.425
50.79000 271.790
50.80000 274.050
50.81000 274.935
50.82000 275.393
50.83000 275.090
50.84000 268.885
50.85000 261.434
50.86000 255.096
50.87000 246.537
50.88000 239.090
50.89000 233.557
50.90000 234.517
50.91000 236.012
50.92000 237.880
50.93000 240.624
50.94000 243.405
50.95000 245.133
50.96000 224.645
50.97000 209.672
50.98000 204.780
50.99000 210.890
51.00000 216.957
51.01000 215.305
51.02000 208.070
51.03000 200.971
51.04000 202.785
51.05000 208.796
51.06000 214.411
51.07000 213.842
51.08000 211.148
51.09000 208.750
51.10000 208.979
51.11000 209.825
51.12000 210.559
51.13000 205.725
51.14000 200.873
51.15000 196.286
51.16000 192.694
51.17000 189.198
51.18000 186.123
51.19000 184.138
51.20000 182.209
51.21000 180.961
51.22000 186.938
51.23000 191.415
51.24000 190.149
51.25000 181.865
51.26000 173.584
51.27000 172.834
51.28000 178.153
51.29000 183.400
51.30000 185.252
51.31000 185.241
51.32000 185.098
51.33000 182.467
51.34000 178.890
51.35000 175.676
51.36000 176.180
51.37000 177.657
51.38000 178.958
51.39000 182.418
51.40000 185.726
51.41000 186.630
51.42000 177.475
51.43000 167.206
51.44000 161.109
51.45000 166.980
51.46000 173.598
51.47000 178.040
51.48000 184.689
51.49000 189.671
51.50000 188.541
51.51000 179.082
51.52000 169.579
51.53000 166.390
51.54000 168.893
51.55000 171.374
51.56000 170.377
51.57000 167.326
51.58000 164.494
51.59000 166.804
51.60000 171.276
51.61000 175.149
51.62000 171.915
51.63000 166.615
51.64000 161.871
51.65000 160.554
51.66000 159.993
51.67000 160.116
51.68000 163.425
51.69000 167.139
51.70000 170.873
51.71000 174.673
51.72000 178.478
51.73000 181.122
51.74000 172.216
51.75000 165.192
51.76000 164.248
51.77000 172.517
51.78000 180.881
51.79000 183.733
51.80000 181.001
51.81000 178.283
51.82000 174.644
51.83000 170.437
51.84000 166.251
51.85000 162.683
51.86000 159.403
51.87000 156.416
51.88000 157.531
51.89000 159.967
51.90000 162.179
51.91000 163.454
51.92000 164.397
51.93000 165.148
51.94000 164.896
51.95000 164.499
51.96000 164.628
51.97000 166.609
51.98000 168.751
51.99000 170.288
52.00000 170.202
52.01000 170.080
52.02000 170.848
52.03000 173.111
52.04000 175.397
52.05000 174.181
52.06000 168.982
52.07000 163.793
52.08000 161.007
52.09000 160.033
52.10000 159.092
52.11000 159.455
52.12000 160.488
52.13000 161.306
52.14000 158.512
52.15000 154.433
52.16000 150.677
52.17000 158.900
52.18000 168.873
52.19000 176.674
52.20000 171.765
52.21000 164.790
52.22000 159.670
52.23000 161.803
52.24000 164.668
52.25000 166.787
52.26000 170.178
52.27000 172.863
52.28000 172.194
52.29000 165.280
52.30000 158.224
52.31000 156.822
52.32000 162.604
52.33000 168.405
52.34000 169.713
52.35000 167.261
52.36000 164.847
52.37000 164.526
52.38000 165.396
52.39000 166.251
52.40000 166.801
52.41000 167.232
52.42000 167.634
52.43000 162.663
52.44000 156.843
52.45000 152.187
52.46000 155.205
52.47000 159.625
52.48000 163.635
52.49000 165.861
52.50000 167.878
52.51000 169.412
52.52000 163.954
52.53000 159.296
52.54000 157.369
52.55000 161.072
52.56000 164.945
52.57000 167.459
52.58000 168.049
52.59000 168.624
52.60000 169.159
52.61000 169.655
52.62000 170.090
52.63000 165.625
52.64000 158.066
52.65000 150.968
52.66000 155.517
52.67000 165.141
52.68000 174.211
52.69000 172.424
52.70000 167.791
52.71000 163.692
52.72000 163.579
52.73000 164.283
52.74000 164.844
52.75000 164.714
52.76000 164.492
52.77000 164.319
52.78000 165.474
52.79000 166.478
52.80000 167.193
52.81000 167.249
52.82000 167.279
52.83000 168.476
52.84000 171.509
52.85000 174.564
52.86000 176.133
52.87000 172.422
52.88000 169.928
52.89000 167.859
52.90000 166.087
52.91000 164.347
52.92000 163.648
52.93000 163.451
52.94000 163.263
52.95000 162.745
52.96000 162.164
52.97000 161.373
52.98000 158.798
52.99000 155.816
53.00000 153.605
53.01000 155.584
53.02000 158.193
53.03000 160.279
53.04000 153.486
53.05000 147.336
53.06000 144.632
53.07000 150.613
53.08000 157.015
53.09000 160.258
53.10000 157.990
53.11000 155.621
53.12000 154.335
53.13000 159.925
53.14000 163.753
53.15000 164.510
53.16000 162.870
53.17000 161.230
53.18000 159.633
53.19000 158.059
53.20000 156.547
53.21000 159.561
53.22000 163.949
53.23000 167.568
53.24000 163.650
53.25000 157.817
53.26000 153.513
53.27000 158.540
53.28000 165.148
53.29000 170.553
53.30000 168.630
53.31000 166.417
53.32000 164.950
53.33000 165.562
53.34000 166.297
53.35000 166.960
53.36000 167.483
53.37000 168.002
53.38000 168.299
53.39000 168.921
53.40000 169.355
53.41000 169.269
53.42000 168.730
53.43000 168.200
53.44000 168.254
53.45000 168.654
53.46000 169.042
53.47000 170.797
53.48000 172.985
53.49000 174.805
53.50000 172.437
53.51000 168.888
53.52000 165.924
53.53000 166.992
53.54000 168.827
53.55000 170.360
53.56000 173.557
53.57000 176.380
53.58000 176.776
53.59000 169.689
53.60000 162.074
53.61000 157.495
53.62000 159.407
53.63000 161.535
53.64000 162.806
53.65000 162.540
53.66000 162.342
53.67000 160.533
53.68000 157.147
53.69000 153.823
53.70000 156.428
53.71000 162.918
53.72000 169.249
53.73000 169.478
53.74000 167.064
53.75000 164.705
53.76000 163.071
53.77000 161.665
53.78000 160.386
53.79000 160.095
53.80000 160.015
53.81000 159.947
53.82000 159.774
53.83000 159.615
53.84000 159.899
53.85000 161.694
53.86000 163.614
53.87000 164.631
53.88000 163.513
53.89000 162.305
53.90000 161.552
53.91000 155.930
53.92000 151.827
53.93000 150.611
53.94000 152.571
53.95000 154.517
53.96000 153.669
53.97000 150.786
53.98000 147.955
53.99000 148.445
54.00000 150.519
54.01000 152.703
54.02000 156.656
54.03000 161.221
54.04000 165.373
54.05000 165.826
54.06000 165.402
54.07000 165.034
54.08000 158.974
54.09000 153.051
54.10000 149.167
54.11000 153.016
54.12000 157.615
54.13000 161.295
54.14000 162.575
54.15000 163.729
54.16000 164.477
54.17000 163.079
54.18000 162.022
54.19000 162.108
54.20000 163.599
54.21000 165.090
54.22000 165.265
54.23000 164.371
54.24000 163.488
54.25000 161.028
54.26000 157.785
54.27000 154.821
54.28000 157.216
54.29000 161.662
54.30000 165.424
54.31000 162.105
54.32000 156.918
54.33000 152.342
54.34000 157.754
54.35000 163.945
54.36000 168.945
54.37000 168.919
54.38000 168.331
54.39000 167.673
54.40000 166.810
54.41000 165.934
54.42000 165.344
54.43000 160.419
54.44000 156.667
54.45000 157.687
54.46000 165.258
54.47000 172.865
54.48000 174.234
54.49000 169.932
54.50000 165.667
54.51000 160.791
54.52000 155.639
54.53000 150.756
54.54000 152.236
54.55000 156.409
54.56000 160.300
54.57000 160.804
54.58000 160.315
54.59000 159.877
54.60000 163.221
54.61000 166.796
54.62000 169.447
54.63000 167.754
54.64000 165.504
54.65000 164.305
54.66000 166.464
54.67000 168.875
54.68000 170.554
54.69000 163.148
54.70000 157.312
54.71000 154.012
54.72000 154.582
54.73000 155.195
54.74000 156.642
54.75000 158.942
54.76000 161.231
54.77000 161.553
54.78000 160.549
54.79000 159.601
54.80000 160.318
54.81000 161.813
54.82000 163.206
54.83000 163.136
54.84000 162.593
54.85000 162.098
54.86000 163.853
54.87000 165.845
54.88000 167.547
54.89000 167.724
54.90000 167.680
54.91000 167.937
54.92000 169.266
54.93000 170.688
54.94000 171.712
54.95000 164.188
54.96000 158.130
54.97000 154.641
54.98000 155.502
54.99000 156.434
55.00000 159.094
55.01000 163.733
55.02000 168.362
55.03000 169.791
55.04000 168.803
55.05000 167.778
55.06000 165.269
55.07000 161.990
55.08000 159.059
55.09000 162.010
55.10000 167.073
55.11000 171.738
55.12000 172.450
55.13000 172.216
55.14000 172.385
55.15000 174.934
55.16000 177.872
55.17000 179.540
55.18000 176.200
55.19000 172.348
55.20000 169.495
55.21000 168.421
55.22000 167.665
55.23000 166.932
55.24000 166.243
55.25000 165.555
55.26000 168.214
55.27000 175.159
55.28000 182.113
55.29000 186.383
55.30000 188.379
55.31000 190.317
55.32000 189.079
55.33000 186.020
55.34000 182.966
55.35000 180.023
55.36000 177.124
55.37000 174.421
55.38000 185.836
55.39000 199.678
55.40000 210.884
55.41000 204.550
55.42000 194.985
55.43000 188.287
55.44000 194.156
55.45000 201.500
55.46000 207.095
55.47000 220.253
55.48000 231.012
55.49000 236.876
55.50000 232.573
55.51000 227.957
55.52000 230.639
55.53000 243.730
55.54000 256.899
55.55000 263.922
55.56000 265.121
55.57000 266.407
55.58000 274.782
55.59000 287.666
55.60000 300.439
55.61000 310.383
55.62000 319.085
55.63000 327.293
55.64000 327.810
55.65000 326.143
55.66000 326.934
55.67000 346.266
55.68000 369.420
55.69000 389.159
55.70000 392.189
55.71000 392.983
55.72000 393.604
55.73000 414.902
55.74000 433.212
55.75000 448.656
55.76000 457.517
55.77000 466.117
55.78000 474.678
55.79000 483.177
55.80000 491.675
55.81000 496.059
55.82000 508.239
55.83000 516.463
55.84000 526.944
55.85000 539.020
55.86000 550.833
55.87000 553.924
55.88000 552.781
55.89000 551.692
55.90000 556.241
55.91000 562.212
55.92000 567.437
55.93000 566.229
55.94000 563.542
55.95000 559.559
55.96000 548.473
55.97000 536.311
55.98000 526.569
55.99000 520.162
56.00000 515.229
56.01000 509.138
56.02000 500.107
56.03000 490.930
56.04000 484.008
56.05000 481.045
56.06000 478.157
56.07000 476.584
56.08000 453.063
56.09000 436.906
56.10000 424.641
56.11000 415.440
56.12000 406.206
56.13000 395.527
56.14000 384.070
56.15000 373.056
56.16000 366.454
56.17000 361.805
56.18000 357.067
56.19000 351.442
56.20000 345.591
56.21000 339.012
56.22000 327.960
56.23000 316.143
56.24000 306.462
56.25000 301.021
56.26000 296.932
56.27000 291.965
56.28000 284.529
56.29000 276.946
56.30000 269.671
56.31000 262.997
56.32000 256.339
56.33000 252.528
56.34000 242.539
56.35000 235.542
56.36000 228.862
56.37000 222.462
56.38000 216.126
56.39000 213.846
56.40000 213.979
56.41000 214.108
56.42000 211.193
56.43000 207.248
56.44000 203.775
56.45000 205.723
56.46000 209.212
56.47000 212.238
56.48000 212.041
56.49000 211.227
56.50000 210.546
56.51000 204.385
56.52000 198.706
56.53000 193.291
56.54000 188.696
56.55000 184.160
56.56000 181.302
56.57000 182.058
56.58000 182.937
56.59000 183.464
56.60000 179.197
56.61000 176.136
56.62000 173.488
56.63000 171.248
56.64000 169.027
56.65000 168.742
56.66000 169.733
56.67000 170.701
56.68000 174.155
56.69000 178.539
56.70000 182.059
56.71000 173.904
56.72000 162.070
56.73000 151.487
56.74000 150.785
56.75000 152.202
56.76000 153.411
56.77000 157.924
56.78000 162.112
56.79000 165.345
56.80000 165.287
56.81000 164.952
56.82000 165.497
56.83000 168.137
56.84000 170.866
56.85000 172.573
56.86000 162.431
56.87000 154.986
56.88000 151.362
56.89000 151.976
56.90000 152.595
56.91000 153.525
56.92000 154.683
56.93000 155.821
56.94000 154.022
56.95000 150.859
56.96000 147.990
56.97000 149.842
56.98000 153.341
56.99000 156.518
57.00000 156.788
57.01000 156.362
57.02000 155.993
57.03000 154.206
57.04000 152.491
57.05000 150.860
57.06000 149.549
57.07000 148.270
57.08000 147.589
57.09000 148.485
57.10000 149.464
57.11000 150.101
57.12000 148.496
57.13000 147.285
57.14000 144.687
57.15000 140.365
57.16000 136.054
57.17000 137.738
57.18000 144.333
57.19000 150.844
57.20000 157.153
57.21000 163.188
57.22000 168.668
57.23000 163.353
57.24000 153.875
57.25000 145.111
57.26000 143.801
57.27000 144.472
57.28000 145.065
57.29000 143.535
57.30000 141.887
57.31000 140.738
57.32000 141.715
57.33000 142.931
57.34000 143.046
57.35000 139.951
57.36000 136.651
57.37000 134.424
57.38000 140.041
57.39000 144.388
57.40000 145.357
57.41000 141.652
57.42000 137.919
57.43000 137.009
57.44000 138.685
57.45000 140.347
57.46000 139.638
57.47000 137.506
57.48000 135.553
57.49000 137.883
57.50000 142.041
57.51000 146.179
57.52000 150.075
57.53000 153.900
57.54000 157.332
57.55000 156.713
57.56000 155.465
57.57000 154.366
57.58000 153.974
57.59000 153.673
57.60000 152.640
57.61000 149.249
57.62000 145.678
57.63000 143.185
57.64000 140.204
57.65000 137.939
57.66000 137.970
57.67000 141.530
57.68000 145.129
57.69000 147.666
57.70000 149.108
57.71000 150.543
57.72000 149.097
57.73000 145.717
57.74000 142.476
57.75000 143.487
57.76000 146.503
57.77000 149.157
57.78000 146.622
57.79000 142.391
57.80000 138.541
57.81000 140.188
57.82000 142.732
57.83000 144.934
57.84000 145.326
57.85000 145.453
57.86000 145.556
57.87000 145.572
57.88000 145.580
57.89000 145.586
57.90000 144.668
57.91000 143.932
57.92000 143.411
57.93000 143.257
57.94000 143.110
57.95000 142.371
57.96000 140.950
57.97000 139.532
57.98000 139.657
57.99000 140.951
58.00000 142.299
58.01000 145.826
58.02000 150.490
58.03000 154.953
58.04000 155.974
58.05000 155.749
58.06000 155.542
58.07000 153.180
58.08000 150.584
58.09000 148.236
58.10000 147.364
58.11000 146.735
58.12000 145.703
58.13000 143.068
58.14000 140.268
58.15000 138.189
58.16000 138.160
58.17000 138.228
58.18000 139.203
58.19000 141.893
58.20000 144.624
58.21000 144.866
58.22000 141.895
58.23000 138.913
58.24000 138.582
58.25000 140.506
58.26000 142.389
58.27000 141.997
58.28000 140.291
58.29000 138.690
58.30000 139.278
58.31000 140.741
58.32000 142.107
58.33000 141.520
58.34000 140.499
58.35000 139.740
58.36000 140.738
58.37000 142.063
58.38000 143.502
58.39000 145.440
58.40000 147.438
58.41000 148.963
58.42000 147.691
58.43000 146.539
58.44000 145.174
58.45000 143.366
58.46000 141.544
58.47000 141.913
58.48000 145.429
58.49000 148.970
58.50000 149.213
58.51000 146.306
58.52000 143.404
58.53000 140.920
58.54000 138.704
58.55000 136.675
58.56000 139.566
58.57000 144.631
58.58000 149.412
58.59000 143.625
58.60000 135.355
58.61000 127.901
58.62000 126.677
58.63000 126.747
58.64000 127.577
58.65000 132.152
58.66000 137.232
58.67000 141.211
58.68000 135.385
58.69000 130.101
58.70000 127.229
58.71000 129.938
58.72000 132.872
58.73000 135.617
58.74000 138.060
58.75000 140.499
58.76000 141.763
58.77000 140.560
58.78000 139.739
58.79000 137.517
58.80000 134.299
58.81000 131.172
58.82000 131.145
58.83000 132.633
58.84000 134.051
58.85000 133.546
58.86000 132.472
58.87000 132.075
58.88000 137.553
58.89000 144.395
58.90000 149.449
58.91000 144.640
58.92000 138.321
58.93000 133.252
58.94000 135.476
58.95000 137.832
58.96000 140.152
58.97000 142.381
58.98000 144.607
58.99000 145.706
59.00000 144.811
59.01000 143.879
59.02000 143.369
59.03000 140.316
59.04000 138.210
59.05000 134.826
59.06000 130.426
59.07000 126.136
59.08000 126.799
59.09000 130.143
59.10000 133.359
59.11000 135.547
59.12000 137.237
59.13000 138.618
59.14000 136.906
59.15000 134.397
59.16000 132.558
59.17000 134.882
59.18000 137.923
59.19000 140.419
59.20000 138.776
59.21000 137.059
59.22000 135.584
59.23000 134.793
59.24000 134.043
59.25000 133.920
59.26000 135.028
59.27000 136.168
59.28000 136.823
59.29000 139.515
59.30000 141.402
59.31000 141.050
59.32000 138.711
59.33000 136.398
59.34000 135.716
59.35000 136.014
59.36000 136.302
59.37000 138.920
59.38000 142.315
59.39000 145.367
59.40000 144.428
59.41000 142.346
59.42000 140.269
59.43000 138.227
59.44000 136.193
59.45000 134.488
59.46000 135.733
59.47000 137.073
59.48000 138.281
59.49000 139.076
59.50000 139.841
59.51000 138.445
59.52000 132.363
59.53000 126.120
59.54000 122.367
59.55000 124.559
59.56000 126.157
59.57000 128.155
59.58000 130.550
59.59000 132.938
59.60000 134.621
59.61000 135.835
59.62000 137.021
59.63000 136.215
59.64000 134.571
59.65000 132.946
59.66000 131.577
59.67000 130.288
59.68000 129.335
59.69000 131.053
59.70000 133.349
59.71000 135.310
59.72000 133.572
59.73000 131.669
59.74000 129.652
59.75000 127.241
59.76000 124.797
59.77000 124.603
59.78000 129.805
59.79000 135.242
59.80000 138.652
59.81000 137.684
59.82000 136.938
59.83000 136.521
59.84000 136.475
59.85000 136.421
59.86000 135.164
59.87000 133.015
59.88000 130.904
59.89000 130.188
59.90000 130.178
59.91000 130.302
59.92000 132.616
59.93000 135.698
59.94000 138.507
59.95000 138.825
59.96000 138.543
59.97000 138.297
59.98000 137.194
59.99000 136.136
60.00000 135.479
60.01000 136.365
60.02000 137.403
60.03000 137.401
60.04000 134.641
60.05000 131.734
60.06000 129.838
60.07000 132.776
60.08000 135.008
60.09000 135.507
60.10000 133.839
60.11000 132.168
60.12000 132.416
60.13000 134.249
60.14000 136.059
60.15000 139.560
60.16000 143.896
60.17000 147.936
60.18000 146.130
60.19000 142.054
60.20000 137.993
60.21000 134.089
60.22000 130.226
60.23000 126.810
60.24000 130.880
60.25000 135.560
60.26000 139.122
60.27000 137.898
60.28000 136.129
60.29000 135.402
60.30000 137.731
60.31000 140.257
60.32000 141.967
60.33000 140.924
60.34000 140.087
60.35000 139.596
60.36000 139.589
60.37000 139.585
60.38000 138.644
60.39000 136.838
60.40000 135.046
60.41000 133.596
60.42000 132.380
60.43000 131.184
60.44000 130.479
60.45000 129.984
60.46000 129.737
60.47000 132.531
60.48000 136.230
60.49000 139.551
60.50000 140.025
60.51000 139.937
60.52000 139.795
60.53000 139.395
60.54000 138.961
60.55000 138.737
60.56000 139.194
60.57000 139.702
60.58000 140.058
60.59000 138.403
60.60000 137.094
60.61000 136.997
60.62000 138.779
60.63000 140.582
60.64000 140.461
60.65000 138.341
60.66000 136.231
60.67000 134.284
60.68000 132.470
60.69000 130.754
60.70000 132.105
60.71000 134.912
60.72000 137.630
60.73000 139.058
60.74000 140.060
60.75000 140.974
60.76000 142.272
60.77000 143.498
60.78000 144.386
60.79000 143.463
60.80000 142.273
60.81000 140.326
60.82000 135.653
60.83000 130.735
60.84000 127.182
60.85000 130.683
60.86000 133.622
60.87000 134.915
60.88000 133.377
60.89000 131.789
60.90000 129.881
60.91000 127.601
60.92000 125.325
60.93000 127.278
60.94000 132.451
60.95000 137.489
60.96000 136.892
60.97000 133.334
60.98000 130.186
60.99000 134.182
61.00000 140.779
61.01000 146.869
61.02000 144.160
61.03000 139.757
61.04000 136.214
61.05000 137.838
61.06000 140.322
61.07000 143.124
61.08000 147.195
61.09000 151.398
61.10000 154.525
61.11000 148.322
61.12000 143.079
61.13000 140.610
61.14000 143.421
61.15000 146.361
61.16000 146.503
61.17000 143.006
61.18000 139.496
61.19000 139.166
61.20000 141.562
61.21000 143.958
61.22000 146.367
61.23000 148.783
61.24000 150.988
61.25000 148.705
61.26000 144.614
61.27000 140.792
61.28000 141.648
61.29000 143.605
61.30000 144.882
61.31000 141.560
61.32000 137.376
61.33000 133.923
61.34000 133.718
61.35000 133.902
61.36000 134.043
61.37000 133.826
61.38000 133.635
61.39000 135.481
61.40000 141.617
61.41000 147.890
61.42000 150.636
61.43000 148.272
61.44000 145.867
61.45000 147.882
61.46000 154.155
61.47000 160.390
61.48000 163.312
61.49000 164.096
61.50000 165.178
61.51000 174.215
61.52000 186.794
61.53000 198.676
61.54000 213.108
61.55000 227.076
61.56000 241.582
61.57000 260.225
61.58000 279.733
61.59000 297.862
61.60000 309.128
61.61000 319.460
61.62000 327.565
61.63000 346.731
61.64000 362.777
61.65000 373.305
61.66000 370.977
61.67000 368.123
61.68000 364.846
61.69000 360.886
61.70000 356.918
61.71000 354.855
61.72000 369.388
61.73000 379.109
61.74000 373.716
61.75000 357.476
61.76000 341.325
61.77000 328.243
61.78000 316.673
61.79000 305.634
61.80000 286.541
61.81000 266.269
61.82000 246.173
61.83000 227.633
61.84000 209.457
61.85000 192.731
61.86000 184.082
61.87000 176.679
61.88000 170.731
61.89000 165.989
61.90000 162.238
61.91000 158.645
61.92000 155.459
61.93000 152.295
61.94000 149.377
61.95000 146.901
61.96000 144.434
61.97000 143.080
61.98000 148.603
61.99000 152.402
62.00000 152.550
62.01000 149.776
62.02000 147.084
62.03000 148.173
62.04000 151.322
62.05000 154.352
62.06000 152.031
62.07000 147.957
62.08000 144.182
62.09000 143.424
62.10000 143.450
62.11000 143.583
62.12000 144.381
62.13000 145.295
62.14000 146.047
62.15000 148.077
62.16000 149.860
62.17000 150.785
62.18000 149.265
62.19000 147.595
62.20000 147.314
62.21000 149.776
62.22000 152.311
62.23000 153.772
62.24000 147.081
62.25000 142.368
62.26000 140.625
62.27000 141.538
62.28000 142.422
62.29000 141.374
62.30000 139.160
62.31000 137.012
62.32000 138.092
62.33000 140.395
62.34000 142.401
62.35000 140.921
62.36000 138.434
62.37000 136.275
62.38000 136.427
62.39000 137.030
62.40000 137.537
62.41000 144.672
62.42000 151.304
62.43000 156.035
62.44000 154.774
62.45000 153.075
62.46000 151.026
62.47000 148.217
62.48000 145.381
62.49000 143.671
62.50000 149.514
62.51000 153.727
62.52000 154.327
62.53000 151.299
62.54000 148.281
62.55000 146.235
62.56000 144.841
62.57000 143.479
62.58000 146.415
62.59000 151.126
62.60000 155.321
62.61000 152.373
62.62000 147.141
62.63000 142.067
62.64000 138.270
62.65000 134.751
62.66000 131.741
62.67000 137.724
62.68000 143.850
62.69000 148.363
62.70000 147.239
62.71000 145.630
62.72000 145.082
62.73000 147.092
62.74000 149.217
62.75000 150.553
62.76000 152.276
62.77000 153.527
62.78000 154.538
62.79000 155.279
62.80000 156.013
62.81000 155.604
62.82000 154.342
62.83000 153.103
62.84000 150.480
62.85000 147.262
62.86000 144.094
62.87000 141.741
62.88000 139.678
62.89000 137.987
62.90000 139.741
62.91000 142.332
62.92000 144.587
62.93000 145.035
62.94000 145.168
62.95000 145.611
62.96000 147.256
62.97000 149.021
62.98000 150.414
62.99000 150.815
63.00000 151.161
63.01000 151.388
63.02000 146.170
63.03000 142.248
63.04000 139.202
63.05000 137.261
63.06000 135.336
63.07000 139.200
63.08000 147.883
63.09000 156.460
63.10000 155.197
63.11000 148.542
63.12000 142.283
63.13000 143.960
63.14000 148.743
63.15000 153.043
63.16000 152.206
63.17000 149.983
63.18000 148.015
63.19000 146.486
63.20000 145.234
63.21000 144.284
63.22000 144.642
63.23000 145.150
63.24000 147.356
63.25000 154.578
63.26000 162.129
63.27000 167.249
63.28000 158.286
63.29000 151.289
63.30000 148.037
63.31000 150.048
63.32000 152.095
63.33000 151.735
63.34000 149.132
63.35000 146.549
63.36000 146.413
63.37000 147.786
63.38000 149.211
63.39000 151.932
63.40000 155.213
63.41000 158.302
63.42000 158.997
63.43000 158.976
63.44000 158.956
63.45000 154.102
63.46000 148.990
63.47000 144.298
63.48000 141.618
63.49000 139.204
63.50000 139.030
63.51000 146.184
63.52000 153.908
63.53000 159.327
63.54000 157.311
63.55000 155.571
63.56000 153.939
63.57000 152.479
63.58000 151.020
63.59000 151.070
63.60000 152.700
63.61000 154.324
63.62000 158.844
63.63000 165.309
63.64000 171.435
63.65000 166.762
63.66000 156.922
63.67000 147.575
63.68000 145.481
63.69000 145.790
63.70000 146.073
63.71000 151.960
63.72000 158.305
63.73000 163.213
63.74000 160.380
63.75000 156.392
63.76000 152.867
63.77000 151.014
63.78000 149.314
63.79000 148.083
63.80000 153.552
63.81000 157.996
63.82000 159.003
63.83000 154.058
63.84000 149.008
63.85000 148.452
63.86000 153.174
63.87000 157.894
63.88000 157.774
63.89000 153.923
63.90000 150.189
63.91000 151.385
63.92000 155.190
63.93000 158.912
63.94000 161.162
63.95000 162.873
63.96000 164.453
63.97000 163.323
63.98000 161.697
63.99000 160.143
64.00000 159.037
64.01000 158.006
64.02000 158.002
64.03000 162.138
64.04000 166.710
64.05000 170.118
64.06000 164.865
64.07000 160.382
64.08000 158.922
64.09000 163.261
64.10000 167.743
64.11000 169.951
64.12000 169.175
64.13000 168.387
64.14000 166.748
64.15000 164.376
64.16000 162.038
64.17000 161.715
64.18000 162.573
64.19000 163.517
64.20000 166.327
64.21000 169.893
64.22000 173.227
64.23000 172.381
64.24000 170.550
64.25000 168.668
64.26000 166.432
64.27000 164.129
64.28000 162.642
64.29000 164.815
64.30000 167.430
64.31000 169.434
64.32000 175.178
64.33000 179.919
64.34000 181.846
64.35000 177.799
64.36000 173.556
64.37000 171.068
64.38000 171.139
64.39000 171.233
64.40000 169.471
64.41000 165.908
64.42000 162.404
64.43000 164.377
64.44000 169.912
64.45000 175.433
64.46000 180.567
64.47000 185.527
64.48000 190.216
64.49000 182.015
64.50000 170.806
64.51000 161.380
64.52000 165.778
64.53000 173.095
64.54000 179.333
64.55000 180.161
64.56000 180.246
64.57000 180.313
64.58000 176.735
64.59000 173.630
64.60000 171.996
64.61000 173.811
64.62000 175.769
64.63000 178.593
64.64000 182.819
64.65000 187.065
64.66000 189.281
64.67000 185.264
64.68000 182.555
64.69000 181.579
64.70000 181.855
64.71000 182.141
64.72000 182.787
64.73000 183.612
64.74000 184.399
64.75000 187.792
64.76000 191.777
64.77000 195.090
64.78000 192.445
64.79000 188.397
64.80000 185.376
64.81000 188.126
64.82000 191.774
64.83000 194.710
64.84000 191.998
64.85000 189.357
64.86000 186.718
64.87000 184.079
64.88000 181.440
64.89000 181.327
64.90000 185.751
64.91000 190.267
64.92000 192.753
64.93000 193.746
64.94000 194.422
64.95000 193.213
64.96000 190.483
64.97000 187.989
64.98000 196.721
64.99000 211.614
65.00000 225.959
65.01000 223.901
65.02000 216.113
65.03000 209.522
65.04000 215.168
65.05000 224.017
65.06000 231.114
65.07000 227.144
65.08000 221.234
65.09000 216.370
65.10000 222.738
65.11000 228.996
65.12000 234.409
65.13000 237.401
65.14000 240.242
65.15000 242.015
65.16000 241.664
65.17000 241.254
65.18000 241.017
65.19000 255.543
65.20000 265.781
65.21000 270.341
65.22000 269.782
65.23000 269.268
65.24000 271.890
65.25000 276.419
65.26000 280.816
65.27000 290.288
65.28000 301.301
65.29000 312.380
65.30000 324.256
65.31000 336.362
65.32000 348.451
65.33000 360.408
65.34000 372.340
65.35000 382.364
65.36000 380.507
65.37000 377.705
65.38000 378.567
65.39000 391.066
65.40000 404.428
65.41000 415.191
65.42000 420.237
65.43000 425.079
65.44000 428.007
65.45000 436.206
65.46000 442.087
65.47000 446.908
65.48000 450.656
65.49000 454.420
65.50000 460.022
65.51000 466.864
65.52000 473.552
65.53000 483.883
65.54000 495.406
65.55000 506.476
65.56000 511.211
65.57000 513.905
65.58000 517.433
65.59000 527.737
65.60000 539.530
65.61000 549.629
65.62000 562.325
65.63000 573.355
65.64000 585.972
65.65000 604.176
65.66000 622.866
65.67000 647.093
65.68000 684.783
65.69000 723.079
65.70000 747.236
65.71000 830.122
65.72000 890.819
65.73000 958.313
65.74000 1033.535
65.75000 1108.756
65.76000 1182.293
65.77000 1254.565
65.78000 1325.630
65.79000 1399.178
65.80000 1471.550
65.81000 1542.202
65.82000 1584.077
65.83000 1615.698
65.84000 1645.483
65.85000 1658.159
65.86000 1666.650
65.87000 1674.052
65.88000 1687.105
65.89000 1699.048
65.90000 1697.598
65.91000 1643.794
65.92000 1584.699
65.93000 1523.761
65.94000 1457.866
65.95000 1391.698
65.96000 1348.305
65.97000 1236.114
65.98000 1152.462
65.99000 1066.638
66.00000 978.052
66.01000 889.465
66.02000 804.815
66.03000 723.467
66.04000 643.074
66.05000 587.301
66.06000 546.569
66.07000 506.432
66.08000 478.395
66.09000 455.126
66.10000 432.784
66.11000 420.428
66.12000 410.786
66.13000 402.239
66.14000 396.060
66.15000 391.086
66.16000 386.403
66.17000 382.992
66.18000 379.729
66.19000 378.352
66.20000 382.586
66.21000 387.191
66.22000 390.323
66.23000 390.897
66.24000 391.268
66.25000 394.751
66.26000 402.640
66.27000 410.563
66.28000 429.087
66.29000 457.572
66.30000 485.839
66.31000 504.731
66.32000 517.482
66.33000 530.125
66.34000 540.017
66.35000 548.710
66.36000 557.250
66.37000 563.869
66.38000 569.910
66.39000 575.347
66.40000 579.057
66.41000 581.999
66.42000 585.035
66.43000 588.528
66.44000 592.081
66.45000 593.985
66.46000 590.455
66.47000 586.498
66.48000 583.716
66.49000 571.320
66.50000 561.645
66.51000 547.176
66.52000 525.166
66.53000 503.064
66.54000 484.887
66.55000 470.857
66.56000 456.890
66.57000 441.674
66.58000 425.751
66.59000 410.086
66.60000 402.829
66.61000 399.622
66.62000 396.099
66.63000 387.871
66.64000 378.071
66.65000 369.125
66.66000 369.996
66.67000 372.757
66.68000 375.219
66.69000 376.058
66.70000 376.652
66.71000 375.189
66.72000 366.205
66.73000 356.530
66.74000 349.511
66.75000 361.716
66.76000 371.813
66.77000 378.516
66.78000 379.298
66.79000 379.972
66.80000 380.766
66.81000 381.701
66.82000 382.635
66.83000 378.654
66.84000 370.875
66.85000 363.306
66.86000 364.838
66.87000 371.225
66.88000 377.373
66.89000 379.264
66.90000 379.582
66.91000 379.877
66.92000 388.352
66.93000 397.832
66.94000 405.143
66.95000 399.220
66.96000 391.052
66.97000 386.082
66.98000 394.091
66.99000 403.481
67.00000 410.495
67.01000 415.383
67.02000 419.095
67.03000 422.411
67.04000 424.962
67.05000 427.494
67.06000 427.256
67.07000 423.357
67.08000 419.443
67.09000 419.556
67.10000 423.177
67.11000 426.771
67.12000 428.600
67.13000 429.389
67.14000 429.979
67.15000 426.226
67.16000 420.700
67.17000 415.528
67.18000 419.170
67.19000 424.741
67.20000 430.448
67.21000 437.102
67.22000 443.935
67.23000 449.300
67.24000 448.028
67.25000 445.946
67.26000 444.348
67.27000 450.933
67.28000 456.595
67.29000 461.258
67.30000 463.787
67.31000 466.245
67.32000 467.689
67.33000 467.640
67.34000 467.578
67.35000 472.086
67.36000 481.070
67.37000 489.917
67.38000 485.772
67.39000 473.113
67.40000 460.768
67.41000 457.089
67.42000 457.323
67.43000 457.545
67.44000 465.166
67.45000 474.299
67.46000 482.652
67.47000 484.892
67.48000 485.832
67.49000 486.998
67.50000 489.311
67.51000 491.783
67.52000 493.729
67.53000 503.767
67.54000 512.351
67.55000 515.708
67.56000 506.713
67.57000 497.196
67.58000 497.137
67.59000 512.521
67.60000 528.124
67.61000 536.301
67.62000 517.798
67.63000 505.329
67.64000 505.001
67.65000 513.521
67.66000 521.963
67.67000 527.628
67.68000 531.904
67.69000 535.990
67.70000 539.375
67.71000 542.297
67.72000 544.524
67.73000 540.527
67.74000 535.053
67.75000 532.992
67.76000 550.255
67.77000 570.554
67.78000 586.919
67.79000 577.372
67.80000 567.580
67.81000 563.591
67.82000 574.772
67.83000 586.744
67.84000 594.545
67.85000 594.798
67.86000 594.896
67.87000 594.950
67.88000 602.210
67.89000 607.211
67.90000 604.868
67.91000 596.558
67.92000 588.526
67.93000 593.990
67.94000 606.919
67.95000 619.379
67.96000 619.794
67.97000 615.849
67.98000 612.794
67.99000 618.936
68.00000 627.504
68.01000 635.894
68.02000 643.150
68.03000 650.204
68.04000 656.019
68.05000 660.847
68.06000 664.729
68.07000 670.496
68.08000 681.710
68.09000 693.268
68.10000 698.101
68.11000 689.462
68.12000 680.446
68.13000 675.216
68.14000 686.416
68.15000 694.343
68.16000 696.802
68.17000 694.289
68.18000 691.813
68.19000 691.863
68.20000 693.462
68.21000 695.015
68.22000 704.181
68.23000 715.947
68.24000 727.531
68.25000 736.943
68.26000 745.718
68.27000 754.357
68.28000 762.013
68.29000 769.473
68.30000 775.750
68.31000 782.636
68.32000 788.443
68.33000 793.803
68.34000 797.733
68.35000 801.557
68.36000 806.600
68.37000 814.348
68.38000 822.194
68.39000 826.955
68.40000 847.536
68.41000 862.341
68.42000 877.634
68.43000 893.426
68.44000 909.243
68.45000 927.803
68.46000 948.231
68.47000 968.207
68.48000 974.820
68.49000 975.162
68.50000 975.493
68.51000 975.664
68.52000 975.783
68.53000 980.755
68.54000 1025.566
68.55000 1079.197
68.56000 1125.188
68.57000 1169.297
68.58000 1206.326
68.59000 1242.708
68.60000 1276.791
68.61000 1310.671
68.62000 1355.920
68.63000 1429.017
68.64000 1503.385
68.65000 1550.432
68.66000 1705.896
68.67000 1819.886
68.68000 1911.096
68.69000 1976.191
68.70000 2041.316
68.71000 2118.980
68.72000 2206.143
68.73000 2291.883
68.74000 2384.121
68.75000 2476.650
68.76000 2569.047
68.77000 2659.202
68.78000 2748.553
68.79000 2843.394
68.80000 2989.923
68.81000 3149.192
68.82000 3288.224
68.83000 3529.911
68.84000 3751.105
68.85000 4000.933
68.86000 4363.545
68.87000 4737.672
68.88000 5209.661
68.89000 5946.757
68.90000 6698.688
68.91000 7193.122
68.92000 9731.631
68.93000 11635.338
68.94000 14435.051
68.95000 18382.529
68.96000 22336.676
68.97000 27678.998
68.98000 34194.984
68.99000 40636.633
69.00000 47975.398
69.01000 55640.973
69.02000 63261.605
69.03000 69954.391
69.04000 76278.867
69.05000 82366.070
69.06000 85869.180
69.07000 88664.586
69.08000 91145.273
69.09000 92505.203
69.10000 93504.656
69.11000 94468.313
69.12000 95275.063
69.13000 96063.398
69.14000 96872.227
69.15000 97742.484
69.16000 98616.867
69.17000 99212.852
69.18000 98501.852
69.19000 97940.328
69.20000 96454.758
69.21000 93650.805
69.22000 90836.703
69.23000 87174.148
69.24000 82707.734
69.25000 78274.266
69.26000 73566.016
69.27000 68763.469
69.28000 64003.586
69.29000 60342.121
69.30000 57162.754
69.31000 54069.742
69.32000 52076.309
69.33000 50416.820
69.34000 48921.586
69.35000 47422.395
69.36000 46106.375
69.37000 44628.102
69.38000 42356.203
69.39000 39978.070
69.40000 37372.043
69.41000 34009.523
69.42000 30586.828
69.43000 28174.545
69.44000 23662.412
69.45000 20177.412
69.46000 16952.693
69.47000 14140.544
69.48000 11333.589
69.49000 9128.801
69.50000 7565.424
69.51000 6008.800
69.52000 4962.714
69.53000 4284.387
69.54000 3613.705
69.55000 3196.082
69.56000 2901.288
69.57000 2613.121
69.58000 2424.878
69.59000 2270.241
69.60000 2128.940
69.61000 2014.695
69.62000 1918.757
69.63000 1826.127
69.64000 1751.621
69.65000 1679.864
69.66000 1610.982
69.67000 1552.683
69.68000 1495.368
69.69000 1453.694
69.70000 1412.135
69.71000 1380.165
69.72000 1345.999
69.73000 1307.973
69.74000 1269.875
69.75000 1227.589
69.76000 1180.305
69.77000 1133.103
69.78000 1110.694
69.79000 1107.823
69.80000 1104.486
69.81000 1080.561
69.82000 1045.576
69.83000 1011.768
69.84000 999.307
69.85000 994.789
69.86000 990.607
69.87000 974.403
69.88000 957.070
69.89000 940.159
69.90000 925.839
69.91000 911.963
69.92000 899.335
69.93000 891.814
69.94000 884.843
69.95000 879.624
69.96000 871.037
69.97000 864.179
69.98000 855.173
69.99000 841.987
70.00000 828.693
