20.00000 572.482
20.01000 569.952
20.02000 567.061
20.03000 565.721
20.04000 570.581
20.05000 576.086
20.06000 580.182
20.07000 574.774
20.08000 570.142
20.09000 564.786
20.10000 558.050
20.11000 551.281
20.12000 548.334
20.13000 550.359
20.14000 552.404
20.15000 556.159
20.16000 561.373
20.17000 566.476
20.18000 565.152
20.19000 560.089
20.20000 555.296
20.21000 556.266
20.22000 559.555
20.23000 562.628
20.24000 558.823
20.25000 553.638
20.26000 548.505
20.27000 543.735
20.28000 539.032
20.29000 536.519
20.30000 543.750
20.31000 552.145
20.32000 558.565
20.33000 566.135
20.34000 572.169
20.35000 573.038
20.36000 563.028
20.37000 552.670
20.38000 546.212
20.39000 545.401
20.40000 544.637
20.41000 547.508
20.42000 553.880
20.43000 560.210
20.44000 562.801
20.45000 562.979
20.46000 563.155
20.47000 563.275
20.48000 563.369
20.49000 563.458
20.50000 561.964
20.51000 560.145
20.52000 558.222
20.53000 555.505
20.54000 552.622
20.55000 551.190
20.56000 556.969
20.57000 563.731
20.58000 569.037
20.59000 570.307
20.60000 571.060
20.61000 571.632
20.62000 571.782
20.63000 571.915
20.64000 572.657
20.65000 574.380
20.66000 576.115
20.67000 577.018
20.68000 554.859
20.69000 539.975
20.70000 538.545
20.71000 546.768
20.72000 554.794
20.73000 556.084
20.74000 554.057
20.75000 552.124
20.76000 549.758
20.77000 547.425
20.78000 545.213
20.79000 544.058
20.80000 543.149
20.81000 543.781
20.82000 552.990
20.83000 563.521
20.84000 571.984
20.85000 568.164
20.86000 564.123
20.87000 560.150
20.88000 556.350
20.89000 552.558
20.90000 551.337
20.91000 554.700
20.92000 558.153
20.93000 560.046
20.94000 549.343
20.95000 541.978
20.96000 540.489
20.97000 543.697
20.98000 546.879
20.99000 548.870
21.00000 550.212
21.01000 551.505
21.02000 551.869
21.03000 551.883
21.04000 551.616
21.05000 548.517
21.06000 544.682
21.07000 542.780
21.08000 552.986
21.09000 565.297
21.10000 575.411
21.11000 562.878
21.12000 550.544
21.13000 541.298
21.14000 540.841
21.15000 540.924
21.16000 541.769
21.17000 544.115
21.18000 546.501
21.19000 547.876
21.20000 549.818
21.21000 551.176
21.22000 547.560
21.23000 539.497
21.24000 531.696
21.25000 541.357
21.26000 561.559
21.27000 581.159
21.28000 576.719
21.29000 563.000
21.30000 549.884
21.31000 543.859
21.32000 539.878
21.33000 536.753
21.34000 539.682
21.35000 543.792
21.36000 547.239
21.37000 540.965
21.38000 534.729
21.39000 531.827
21.40000 539.438
21.41000 547.818
21.42000 553.495
21.43000 553.271
21.44000 552.840
21.45000 552.580
21.46000 540.891
21.47000 532.490
21.48000 534.210
21.49000 546.095
21.50000 557.917
21.51000 563.258
21.52000 564.257
21.53000 565.232
21.54000 564.071
21.55000 562.015
21.56000 559.755
21.57000 554.681
21.58000 548.709
21.59000 544.274
21.60000 552.217
21.61000 562.857
21.62000 571.957
21.63000 565.544
21.64000 558.273
21.65000 553.910
21.66000 559.711
21.67000 566.386
21.68000 569.581
21.69000 564.372
21.70000 558.792
21.71000 555.283
21.72000 556.729
21.73000 557.831
21.74000 561.909
21.75000 569.342
21.76000 576.726
21.77000 573.986
21.78000 563.699
21.79000 553.588
21.80000 562.471
21.81000 580.426
21.82000 597.513
21.83000 600.274
21.84000 597.967
21.85000 595.889
21.86000 595.912
21.87000 596.446
21.88000 596.911
21.89000 600.229
21.90000 603.455
21.91000 608.701
21.92000 621.780
21.93000 635.642
21.94000 648.236
21.95000 657.443
21.96000 666.467
21.97000 672.368
21.98000 683.348
21.99000 691.496
22.00000 698.784
22.01000 704.985
22.02000 711.170
22.03000 710.785
22.04000 704.935
22.05000 699.155
22.06000 707.468
22.07000 723.335
22.08000 738.516
22.09000 739.949
22.10000 736.004
22.11000 731.998
22.12000 727.344
22.13000 722.515
22.14000 718.240
22.15000 712.403
22.16000 707.109
22.17000 701.721
22.18000 695.927
22.19000 690.086
22.20000 688.898
22.21000 701.450
22.22000 714.903
22.23000 724.025
22.24000 709.163
22.25000 697.548
22.26000 687.021
22.27000 678.021
22.28000 669.033
22.29000 661.640
22.30000 655.732
22.31000 649.871
22.32000 651.479
22.33000 657.655
22.34000 663.229
22.35000 653.781
22.36000 637.838
22.37000 623.171
22.38000 624.378
22.39000 630.334
22.40000 635.689
22.41000 614.396
22.42000 591.013
22.43000 571.380
22.44000 569.792
22.45000 570.575
22.46000 572.088
22.47000 575.986
22.48000 580.070
22.49000 582.934
22.50000 578.053
22.51000 574.134
22.52000 570.541
22.53000 567.455
22.54000 564.374
22.55000 562.078
22.56000 560.603
22.57000 559.134
22.58000 553.152
22.59000 544.129
22.60000 535.249
22.61000 530.913
22.62000 528.750
22.63000 526.840
22.64000 528.658
22.65000 531.711
22.66000 534.495
22.67000 533.336
22.68000 531.517
22.69000 530.108
22.70000 530.906
22.71000 532.034
22.72000 532.628
22.73000 531.289
22.74000 529.774
22.75000 528.677
22.76000 519.813
22.77000 512.722
22.78000 511.445
22.79000 520.233
22.80000 529.199
22.81000 529.642
22.82000 520.080
22.83000 510.524
22.84000 503.921
22.85000 499.632
22.86000 495.579
22.87000 501.531
22.88000 512.778
22.89000 523.409
22.90000 523.170
22.91000 518.945
22.92000 515.042
22.93000 513.220
22.94000 512.055
22.95000 511.375
22.96000 513.628
22.97000 516.373
22.98000 518.024
22.99000 515.265
23.00000 512.042
23.01000 509.639
23.02000 512.756
23.03000 515.434
23.04000 517.299
23.05000 517.608
23.06000 517.878
23.07000 517.585
23.08000 516.554
23.09000 515.520
23.10000 513.103
23.11000 509.494
23.12000 505.986
23.13000 508.471
23.14000 514.469
23.15000 520.202
23.16000 520.239
23.17000 517.967
23.18000 515.842
23.19000 514.739
23.20000 513.996
23.21000 512.977
23.22000 510.066
23.23000 506.799
23.24000 503.443
23.25000 499.685
23.26000 495.879
23.27000 492.963
23.28000 495.867
23.29000 498.480
23.30000 501.208
23.31000 504.182
23.32000 507.163
23.33000 507.013
23.34000 502.294
23.35000 497.535
23.36000 497.439
23.37000 501.870
23.38000 506.235
23.39000 504.548
23.40000 498.925
23.41000 493.552
23.42000 494.897
23.43000 499.254
23.44000 503.373
23.45000 498.120
23.46000 490.625
23.47000 485.129
23.48000 495.136
23.49000 508.416
23.50000 517.654
23.51000 506.653
23.52000 492.868
23.53000 482.034
23.54000 483.684
23.55000 485.828
23.56000 490.100
23.57000 499.367
23.58000 508.841
23.59000 512.826
23.60000 507.916
23.61000 502.885
23.62000 500.258
23.63000 506.689
23.64000 511.057
23.65000 517.829
23.66000 526.339
23.67000 534.564
23.68000 532.764
23.69000 525.993
23.70000 519.529
23.71000 516.681
23.72000 515.189
23.73000 513.819
23.74000 513.524
23.75000 513.483
23.76000 514.190
23.77000 519.102
23.78000 524.668
23.79000 529.148
23.80000 530.592
23.81000 531.527
23.82000 531.451
23.83000 528.752
23.84000 525.918
23.85000 522.514
23.86000 518.085
23.87000 513.636
23.88000 511.188
23.89000 523.436
23.90000 531.882
23.91000 534.825
23.92000 533.332
23.93000 531.894
23.94000 533.043
23.95000 535.611
23.96000 538.085
23.97000 536.151
23.98000 532.763
23.99000 528.721
24.00000 518.013
24.01000 505.560
24.02000 495.143
24.03000 497.589
24.04000 502.288
24.05000 506.156
24.06000 505.535
24.07000 504.616
24.08000 506.170
24.09000 514.821
24.10000 523.913
24.11000 529.370
24.12000 527.602
24.13000 525.636
24.14000 524.499
24.15000 516.434
24.16000 510.754
24.17000 505.827
24.18000 501.579
24.19000 497.501
24.20000 505.054
24.21000 519.680
24.22000 533.878
24.23000 528.126
24.24000 514.714
24.25000 502.770
24.26000 508.279
24.27000 518.858
24.28000 527.077
24.29000 518.439
24.30000 506.488
24.31000 496.448
24.32000 493.851
24.33000 492.471
24.34000 491.049
24.35000 489.490
24.36000 487.921
24.37000 489.435
24.38000 497.726
24.39000 506.259
24.40000 511.420
24.41000 515.036
24.42000 517.601
24.43000 517.177
24.44000 513.725
24.45000 510.263
24.46000 505.653
24.47000 500.268
24.48000 495.005
24.49000 492.428
24.50000 491.156
24.51000 490.300
24.52000 495.260
24.53000 502.094
24.54000 507.497
24.55000 501.280
24.56000 492.511
24.57000 485.002
24.58000 488.261
24.59000 492.318
24.60000 494.222
24.61000 488.549
24.62000 482.216
24.63000 476.410
24.64000 471.886
24.65000 467.420
24.66000 464.603
24.67000 465.045
24.68000 465.402
24.69000 472.860
24.70000 488.388
24.71000 503.859
24.72000 506.132
24.73000 498.489
24.74000 490.973
24.75000 486.913
24.76000 484.704
24.77000 482.446
24.78000 479.365
24.79000 475.991
24.80000 473.185
24.81000 475.670
24.82000 479.448
24.83000 482.743
24.84000 487.009
24.85000 490.792
24.86000 492.274
24.87000 484.764
24.88000 476.347
24.89000 472.383
24.90000 480.390
24.91000 489.057
24.92000 494.741
24.93000 491.801
24.94000 489.496
24.95000 485.883
24.96000 480.610
24.97000 475.335
24.98000 472.134
24.99000 470.671
25.00000 469.226
25.01000 471.872
25.02000 476.726
25.03000 480.901
25.04000 471.287
25.05000 456.239
25.06000 443.048
25.07000 449.848
25.08000 462.080
25.09000 472.922
25.10000 479.581
25.11000 484.683
25.12000 488.089
25.13000 484.119
25.14000 479.293
25.15000 478.441
25.16000 489.414
25.17000 501.172
25.18000 509.165
25.19000 495.380
25.20000 484.597
25.21000 478.883
25.22000 480.345
25.23000 481.859
25.24000 480.839
25.25000 477.440
25.26000 474.067
25.27000 474.480
25.28000 477.236
25.29000 479.775
25.30000 476.843
25.31000 471.528
25.32000 466.500
25.33000 465.087
25.34000 464.764
25.35000 464.473
25.36000 466.932
25.37000 469.581
25.38000 472.959
25.39000 479.870
25.40000 487.250
25.41000 490.940
25.42000 482.475
25.43000 473.055
25.44000 466.432
25.45000 469.377
25.46000 471.891
25.47000 470.608
25.48000 463.356
25.49000 456.031
25.50000 459.806
25.51000 475.301
25.52000 490.730
25.53000 490.610
25.54000 479.702
25.55000 469.235
25.56000 473.059
25.57000 483.768
25.58000 493.231
25.59000 484.148
25.60000 468.875
25.61000 454.933
25.62000 452.553
25.63000 452.783
25.64000 453.574
25.65000 457.413
25.66000 461.710
25.67000 465.093
25.68000 465.139
25.69000 464.878
25.70000 464.689
25.71000 453.751
25.72000 444.944
25.73000 444.417
25.74000 458.331
25.75000 472.508
25.76000 477.702
25.77000 472.268
25.78000 466.826
25.79000 462.168
25.80000 458.143
25.81000 454.233
25.82000 455.325
25.83000 459.082
25.84000 462.830
25.85000 466.412
25.86000 469.932
25.87000 473.188
25.88000 463.111
25.89000 451.019
25.90000 440.899
25.91000 442.813
25.92000 446.766
25.93000 450.487
25.94000 453.266
25.95000 455.945
25.96000 457.946
25.97000 460.775
25.98000 463.018
25.99000 465.630
26.00000 468.958
26.01000 472.303
26.02000 474.198
26.03000 474.178
26.04000 474.150
26.05000 475.581
26.06000 478.282
26.07000 480.761
26.08000 469.618
26.09000 450.431
26.10000 431.935
26.11000 428.596
26.12000 431.445
26.13000 434.111
26.14000 442.392
26.15000 451.356
26.16000 458.642
26.17000 454.369
26.18000 447.896
26.19000 441.864
26.20000 437.830
26.21000 434.039
26.22000 431.129
26.23000 432.796
26.24000 434.369
26.25000 437.579
26.26000 444.288
26.27000 451.112
26.28000 454.938
26.29000 454.353
26.30000 453.728
26.31000 457.097
26.32000 464.376
26.33000 471.583
26.34000 472.079
26.35000 468.179
26.36000 464.380
26.37000 463.358
26.38000 463.590
26.39000 463.809
26.40000 461.786
26.41000 459.282
26.42000 457.042
26.43000 456.864
26.44000 457.126
26.45000 456.462
26.46000 451.123
26.47000 445.134
26.48000 440.420
26.49000 447.309
26.50000 453.602
26.51000 459.199
26.52000 463.149
26.53000 467.030
26.54000 468.572
26.55000 466.296
26.56000 463.966
26.57000 462.745
26.58000 452.713
26.59000 445.967
26.60000 447.720
26.61000 455.665
26.62000 463.222
26.63000 456.914
26.64000 443.681
26.65000 431.039
26.66000 428.960
26.67000 430.424
26.68000 432.499
26.69000 440.039
26.70000 448.874
26.71000 456.359
26.72000 456.198
26.73000 454.837
26.74000 453.739
26.75000 460.599
26.76000 466.795
26.77000 468.235
26.78000 457.252
26.79000 445.620
26.80000 442.136
26.81000 453.389
26.82000 464.946
26.83000 471.331
26.84000 461.003
26.85000 453.856
26.86000 448.975
26.87000 445.936
26.88000 443.071
26.89000 448.696
26.90000 459.015
26.91000 468.958
26.92000 469.230
26.93000 466.006
26.94000 461.964
26.95000 449.479
26.96000 434.768
26.97000 423.149
26.98000 431.230
26.99000 442.792
27.00000 452.321
27.01000 454.233
27.02000 455.107
27.03000 455.589
27.04000 454.938
27.05000 454.215
27.06000 453.757
27.07000 453.827
27.08000 453.912
27.09000 453.961
27.10000 447.267
27.11000 442.543
27.12000 441.001
27.13000 442.350
27.14000 443.645
27.15000 441.077
27.16000 436.143
27.17000 431.351
27.18000 430.425
27.19000 431.100
27.20000 432.022
27.21000 435.919
27.22000 440.686
27.23000 444.474
27.24000 441.210
27.25000 436.549
27.26000 432.628
27.27000 421.243
27.28000 410.955
27.29000 406.119
27.30000 418.720
27.31000 432.629
27.32000 442.350
27.33000 442.793
27.34000 442.899
27.35000 442.964
27.36000 438.621
27.37000 435.489
27.38000 436.145
27.39000 440.669
27.40000 445.140
27.41000 443.689
27.42000 438.209
27.43000 432.850
27.44000 435.186
27.45000 440.881
27.46000 446.023
27.47000 443.356
27.48000 438.156
27.49000 433.370
27.50000 431.984
27.51000 431.350
27.52000 430.807
27.53000 433.869
27.54000 436.897
27.55000 438.212
27.56000 433.453
27.57000 428.159
27.58000 423.125
27.59000 418.730
27.60000 414.363
27.61000 411.602
27.62000 408.607
27.63000 406.433
27.64000 407.871
27.65000 413.450
27.66000 419.015
27.67000 420.649
27.68000 419.308
27.69000 417.989
27.70000 420.967
27.71000 426.004
27.72000 430.707
27.73000 429.759
27.74000 426.783
27.75000 424.809
27.76000 432.260
27.77000 442.034
27.78000 450.565
27.79000 448.005
27.80000 444.259
27.81000 440.041
27.82000 433.961
27.83000 427.692
27.84000 423.936
27.85000 426.988
27.86000 430.421
27.87000 432.678
27.88000 431.275
27.89000 430.180
27.90000 431.866
27.91000 437.113
27.92000 442.364
27.93000 441.836
27.94000 436.424
27.95000 431.075
27.96000 431.221
27.97000 434.439
27.98000 437.497
27.99000 437.231
28.00000 435.646
28.01000 434.660
28.02000 440.187
28.03000 447.498
28.04000 453.985
28.05000 449.168
28.06000 443.189
28.07000 437.650
28.08000 434.037
28.09000 430.650
28.10000 430.820
28.11000 441.650
28.12000 453.196
28.13000 461.065
28.14000 439.358
28.15000 422.455
28.16000 414.716
28.17000 420.047
28.18000 425.477
28.19000 428.197
28.20000 428.349
28.21000 428.500
28.22000 427.510
28.23000 425.822
28.24000 424.206
28.25000 424.418
28.26000 425.433
28.27000 426.480
28.28000 427.926
28.29000 429.493
28.30000 430.905
28.31000 424.017
28.32000 416.472
28.33000 411.736
28.34000 420.731
28.35000 431.563
28.36000 439.443
28.37000 437.530
28.38000 434.838
28.39000 432.940
28.40000 430.197
28.41000 428.091
28.42000 425.069
28.43000 420.593
28.44000 416.098
28.45000 417.543
28.46000 425.312
28.47000 433.049
28.48000 433.553
28.49000 428.993
28.50000 424.515
28.51000 422.763
28.52000 422.334
28.53000 421.629
28.54000 416.781
28.55000 410.539
28.56000 404.836
28.57000 404.795
28.58000 405.916
28.59000 406.877
28.60000 406.957
28.61000 406.903
28.62000 408.074
28.63000 413.748
28.64000 419.841
28.65000 424.270
28.66000 419.595
28.67000 415.654
28.68000 412.915
28.69000 412.286
28.70000 411.697
28.71000 408.229
28.72000 401.325
28.73000 394.428
28.74000 397.849
28.75000 409.333
28.76000 420.577
28.77000 421.186
28.78000 416.085
28.79000 411.289
28.80000 412.039
28.81000 414.853
28.82000 417.457
28.83000 414.325
28.84000 410.190
28.85000 407.110
28.86000 410.522
28.87000 415.043
28.88000 419.240
28.89000 422.117
28.90000 424.851
28.91000 426.898
28.92000 419.929
28.93000 414.071
28.94000 408.983
28.95000 405.393
28.96000 401.842
28.97000 401.646
28.98000 405.917
28.99000 410.208
29.00000 416.740
29.01000 425.231
29.02000 433.644
29.03000 437.182
29.04000 437.818
29.05000 438.084
29.06000 430.088
29.07000 418.694
29.08000 408.023
29.09000 406.549
29.10000 407.585
29.11000 408.389
29.12000 407.578
29.13000 406.459
29.14000 406.500
29.15000 411.831
29.16000 417.813
29.17000 422.413
29.18000 416.206
29.19000 410.684
29.20000 406.081
29.21000 403.458
29.22000 400.901
29.23000 400.839
29.24000 404.471
29.25000 408.137
29.26000 409.752
29.27000 409.343
29.28000 408.947
29.29000 409.902
29.30000 411.749
29.31000 413.635
29.32000 416.609
29.33000 420.078
29.34000 423.361
29.35000 426.629
29.36000 429.631
29.37000 431.471
29.38000 424.131
29.39000 414.823
29.40000 406.831
29.41000 405.536
29.42000 405.180
29.43000 404.899
29.44000 404.334
29.45000 403.862
29.46000 403.322
29.47000 402.619
29.48000 401.910
29.49000 402.979
29.50000 406.973
29.51000 411.010
29.52000 413.134
29.53000 412.146
29.54000 411.471
29.55000 410.211
29.56000 408.522
29.57000 406.895
29.58000 407.520
29.59000 409.277
29.60000 410.956
29.61000 409.966
29.62000 408.178
29.63000 406.957
29.64000 410.862
29.65000 415.993
29.66000 420.513
29.67000 421.548
29.68000 422.032
29.69000 422.422
29.70000 420.379
29.71000 418.525
29.72000 415.708
29.73000 410.358
29.74000 404.875
29.75000 403.105
29.76000 408.103
29.77000 413.244
29.78000 416.094
29.79000 418.716
29.80000 420.518
29.81000 418.771
29.82000 414.120
29.83000 409.667
29.84000 415.147
29.85000 426.158
29.86000 436.775
29.87000 436.113
29.88000 431.401
29.89000 426.980
29.90000 425.595
29.91000 425.017
29.92000 424.604
29.93000 425.253
29.94000 426.090
29.95000 426.782
29.96000 432.510
29.97000 437.696
29.98000 441.206
29.99000 439.836
30.00000 438.154
30.01000 438.225
30.02000 441.832
30.03000 445.540
30.04000 447.698
30.05000 451.216
30.06000 453.693
30.07000 452.342
30.08000 447.484
30.09000 442.650
30.10000 439.552
30.11000 437.526
30.12000 435.557
30.13000 432.956
30.14000 430.229
30.15000 428.410
30.16000 437.628
30.17000 450.099
30.18000 459.813
30.19000 449.478
30.20000 435.139
30.21000 423.058
30.22000 424.025
30.23000 426.236
30.24000 428.264
30.25000 429.702
30.26000 431.095
30.27000 432.802
30.28000 435.210
30.29000 437.643
30.30000 439.124
30.31000 433.766
30.32000 429.885
30.33000 431.165
30.34000 437.762
30.35000 444.287
30.36000 442.390
30.37000 434.720
30.38000 427.216
30.39000 423.943
30.40000 422.717
30.41000 421.795
30.42000 425.221
30.43000 430.068
30.44000 434.109
30.45000 431.476
30.46000 427.354
30.47000 423.815
30.48000 422.274
30.49000 421.219
30.50000 422.028
30.51000 429.499
30.52000 437.562
30.53000 440.768
30.54000 431.994
30.55000 422.665
30.56000 416.746
30.57000 423.735
30.58000 428.965
30.59000 433.368
30.60000 436.815
30.61000 440.257
30.62000 442.883
30.63000 444.886
30.64000 446.856
30.65000 447.027
30.66000 446.284
30.67000 446.014
30.68000 453.872
30.69000 464.667
30.70000 474.299
30.71000 472.879
30.72000 468.715
30.73000 465.075
30.74000 466.260
30.75000 467.957
30.76000 469.007
30.77000 467.486
30.78000 465.701
30.79000 465.306
30.80000 468.706
30.81000 472.321
30.82000 474.704
30.83000 485.473
30.84000 493.555
30.85000 501.126
30.86000 508.037
30.87000 514.929
30.88000 511.530
30.89000 499.365
30.90000 487.335
30.91000 490.308
30.92000 501.675
30.93000 512.730
30.94000 517.236
30.95000 519.123
30.96000 521.519
30.97000 529.502
30.98000 539.026
30.99000 547.487
31.00000 567.332
31.01000 586.376
31.02000 603.635
31.03000 613.011
31.04000 621.454
31.05000 632.803
31.06000 652.924
31.07000 673.641
31.08000 687.796
31.09000 731.463
31.10000 764.825
31.11000 800.955
31.12000 841.063
31.13000 881.204
31.14000 926.973
31.15000 978.116
31.16000 1028.895
31.17000 1093.622
31.18000 1166.108
31.19000 1238.976
31.20000 1321.868
31.21000 1409.191
31.22000 1495.770
31.23000 1572.772
31.24000 1646.844
31.25000 1713.652
31.26000 1859.542
31.27000 2002.078
31.28000 2137.657
31.29000 2238.949
31.30000 2335.611
31.31000 2431.800
31.32000 2526.407
31.33000 2620.887
31.34000 2687.622
31.35000 2764.023
31.36000 2822.318
31.37000 2865.564
31.38000 2884.786
31.39000 2903.696
31.40000 2907.232
31.41000 2894.261
31.42000 2881.338
31.43000 2870.648
31.44000 2861.638
31.45000 2851.046
31.46000 2787.164
31.47000 2697.236
31.48000 2608.152
31.49000 2531.941
31.50000 2460.090
31.51000 2394.376
31.52000 2284.252
31.53000 2177.214
31.54000 2072.016
31.55000 1976.973
31.56000 1883.484
31.57000 1789.572
31.58000 1694.097
31.59000 1598.474
31.60000 1528.804
31.61000 1419.119
31.62000 1333.110
31.63000 1256.077
31.64000 1194.929
31.65000 1134.085
31.66000 1074.587
31.67000 1016.706
31.68000 958.934
31.69000 917.051
31.70000 887.910
31.71000 858.522
31.72000 817.915
31.73000 771.241
31.74000 725.875
31.75000 704.581
31.76000 692.305
31.77000 680.932
31.78000 662.458
31.79000 644.191
31.80000 626.477
31.81000 612.197
31.82000 598.510
31.83000 584.001
31.84000 566.112
31.85000 547.857
31.86000 534.166
31.87000 531.488
31.88000 529.919
31.89000 527.495
31.90000 523.398
31.91000 519.257
31.92000 511.251
31.93000 498.061
31.94000 484.850
31.95000 472.119
31.96000 459.829
31.97000 447.686
31.98000 445.060
31.99000 448.136
32.00000 450.992
32.01000 448.877
32.02000 444.701
32.03000 440.787
32.04000 440.970
32.05000 442.205
32.06000 442.835
32.07000 439.222
32.08000 434.789
32.09000 431.805
32.10000 435.473
32.11000 439.967
32.12000 443.429
32.13000 433.959
32.14000 425.719
32.15000 419.380
32.16000 417.161
32.17000 415.085
32.18000 413.176
32.19000 411.515
32.20000 409.857
32.21000 408.141
32.22000 406.367
32.23000 404.589
32.24000 402.412
32.25000 399.969
32.26000 397.706
32.27000 400.608
32.28000 405.874
32.29000 410.864
32.30000 407.437
32.31000 401.824
32.32000 396.939
32.33000 397.870
32.34000 400.058
32.35000 402.700
32.36000 407.676
32.37000 412.981
32.38000 417.173
32.39000 409.789
32.40000 403.070
32.41000 398.860
32.42000 400.662
32.43000 402.726
32.44000 404.734
32.45000 406.650
32.46000 408.564
32.47000 409.575
32.48000 389.935
32.49000 376.630
32.50000 371.335
32.51000 371.966
32.52000 372.810
32.53000 381.550
32.54000 394.291
32.55000 406.479
32.56000 408.182
32.57000 406.339
32.58000 404.456
32.59000 402.213
32.60000 399.884
32.61000 397.131
32.62000 391.947
32.63000 386.374
32.64000 381.866
32.65000 377.700
32.66000 374.338
32.67000 372.994
32.68000 376.999
32.69000 381.290
32.70000 385.655
32.71000 390.156
32.72000 394.660
32.73000 397.166
32.74000 387.014
32.75000 379.979
32.76000 378.442
32.77000 381.440
32.78000 384.428
32.79000 386.897
32.80000 389.074
32.81000 391.175
32.82000 388.417
32.83000 384.046
32.84000 380.409
32.85000 384.508
32.86000 390.679
32.87000 396.757
32.88000 402.237
32.89000 407.608
32.90000 412.049
32.91000 411.480
32.92000 410.541
32.93000 407.936
32.94000 400.449
32.95000 392.647
32.96000 388.181
32.97000 390.495
32.98000 393.006
32.99000 394.473
33.00000 390.443
33.01000 387.584
33.02000 387.495
33.03000 389.965
33.04000 392.327
33.05000 386.568
33.06000 375.759
33.07000 365.250
33.08000 362.525
33.09000 363.113
33.10000 363.583
33.11000 362.601
33.12000 361.187
33.13000 359.825
33.14000 358.840
33.15000 357.931
33.16000 357.164
33.17000 353.749
33.18000 350.608
33.19000 350.298
33.20000 359.180
33.21000 368.767
33.22000 372.423
33.23000 362.750
33.24000 352.575
33.25000 346.364
33.26000 347.667
33.27000 348.661
33.28000 348.818
33.29000 348.106
33.30000 347.409
33.31000 348.405
33.32000 350.572
33.33000 352.693
33.34000 351.016
33.35000 347.675
33.36000 344.500
33.37000 343.738
33.38000 343.769
33.39000 344.340
33.40000 349.418
33.41000 355.510
33.42000 360.747
33.43000 348.822
33.44000 336.584
33.45000 327.396
33.46000 329.186
33.47000 331.963
33.48000 335.999
33.49000 343.162
33.50000 350.473
33.51000 355.123
33.52000 352.983
33.53000 351.343
33.54000 348.684
33.55000 344.837
33.56000 341.003
33.57000 340.333
33.58000 342.098
33.59000 343.835
33.60000 344.596
33.61000 344.838
33.62000 345.031
33.63000 344.390
33.64000 343.446
33.65000 342.334
33.66000 339.616
33.67000 336.495
33.68000 333.765
33.69000 339.859
33.70000 346.343
33.71000 351.657
33.72000 352.295
33.73000 352.446
33.74000 352.237
33.75000 351.035
33.76000 349.777
33.77000 348.945
33.78000 348.049
33.79000 347.387
33.80000 346.039
33.81000 343.796
33.82000 341.555
33.83000 342.567
33.84000 346.375
33.85000 350.141
33.86000 348.004
33.87000 342.558
33.88000 337.374
33.89000 337.767
33.90000 340.405
33.91000 342.478
33.92000 338.269
33.93000 332.314
33.94000 327.018
33.95000 331.884
33.96000 337.759
33.97000 343.504
33.98000 348.672
33.99000 353.772
34.00000 357.837
34.01000 358.760
34.02000 359.467
34.03000 359.951
34.04000 349.469
34.05000 341.355
34.06000 336.646
34.07000 336.865
34.08000 337.124
34.09000 338.307
34.10000 340.379
34.11000 342.436
34.12000 344.322
34.13000 346.070
34.14000 347.742
34.15000 347.410
34.16000 346.185
34.17000 345.185
34.18000 347.106
34.19000 349.927
34.20000 352.475
34.21000 353.606
34.22000 354.340
34.23000 353.874
34.24000 347.447
34.25000 340.208
34.26000 333.306
34.27000 327.539
34.28000 321.864
34.29000 317.847
34.30000 326.315
34.31000 333.137
34.32000 336.658
34.33000 334.868
34.34000 333.008
34.35000 333.865
34.36000 337.663
34.37000 341.448
34.38000 346.149
34.39000 351.458
34.40000 356.481
34.41000 351.687
34.42000 342.060
34.43000 332.790
34.44000 329.048
34.45000 327.192
34.46000 325.493
34.47000 321.755
34.48000 318.005
34.49000 315.423
34.50000 319.336
34.51000 324.251
34.52000 328.970
34.53000 332.954
34.54000 336.869
34.55000 339.727
34.56000 337.316
34.57000 335.251
34.58000 334.456
34.59000 335.924
34.60000 337.437
34.61000 339.410
34.62000 341.942
34.63000 344.470
34.64000 344.756
34.65000 343.255
34.66000 341.807
34.67000 342.785
34.68000 345.087
34.69000 347.081
34.70000 343.363
34.71000 337.488
34.72000 332.041
34.73000 328.406
34.74000 325.557
34.75000 323.861
34.76000 329.385
34.77000 336.164
34.78000 341.654
34.79000 341.788
34.80000 341.336
34.81000 340.997
34.82000 325.779
34.83000 313.167
34.84000 307.927
34.85000 317.240
34.86000 326.943
34.87000 331.628
34.88000 329.529
34.89000 327.393
34.90000 325.054
34.91000 322.537
34.92000 320.070
34.93000 320.969
34.94000 323.901
34.95000 326.663
34.96000 325.525
34.97000 322.758
34.98000 320.163
34.99000 316.132
35.00000 312.082
35.01000 308.598
35.02000 309.121
35.03000 310.427
35.04000 311.631
35.05000 312.367
35.06000 313.044
35.07000 313.567
35.08000 311.738
35.09000 310.151
35.10000 310.530
35.11000 315.200
35.12000 320.020
35.13000 322.128
35.14000 320.157
35.15000 318.145
35.16000 317.137
35.17000 324.347
35.18000 329.136
35.19000 331.707
35.20000 332.792
35.21000 333.659
35.22000 328.216
35.23000 319.861
35.24000 311.941
35.25000 316.334
35.26000 324.007
35.27000 330.704
35.28000 329.542
35.29000 326.668
35.30000 323.716
35.31000 320.362
35.32000 316.951
35.33000 314.252
35.34000 313.926
35.35000 313.828
35.36000 313.181
35.37000 311.207
35.38000 309.175
35.39000 305.509
35.40000 299.117
35.41000 292.683
35.42000 289.271
35.43000 297.572
35.44000 303.202
35.45000 304.824
35.46000 303.456
35.47000 302.247
35.48000 307.041
35.49000 314.898
35.50000 322.418
35.51000 320.937
35.52000 316.589
35.53000 312.198
35.54000 307.406
35.55000 302.516
35.56000 298.111
35.57000 296.516
35.58000 295.374
35.59000 294.449
35.60000 302.074
35.61000 308.981
35.62000 312.798
35.63000 308.371
35.64000 303.494
35.65000 299.603
35.66000 297.532
35.67000 295.501
35.68000 294.367
35.69000 298.742
35.70000 301.781
35.71000 303.278
35.72000 303.495
35.73000 303.761
35.74000 306.619
35.75000 310.942
35.76000 315.116
35.77000 314.905
35.78000 313.091
35.79000 311.363
35.80000 310.538
35.81000 309.957
35.82000 309.069
35.83000 306.174
35.84000 302.914
35.85000 300.216
35.86000 302.065
35.87000 304.023
35.88000 305.827
35.89000 307.175
35.90000 308.492
35.91000 309.542
35.92000 310.043
35.93000 310.528
35.94000 310.812
35.95000 306.628
35.96000 303.660
35.97000 303.809
35.98000 306.861
35.99000 309.882
36.00000 310.523
36.01000 309.671
36.02000 308.842
36.03000 308.895
36.04000 309.307
36.05000 309.547
36.06000 307.633
36.07000 305.075
36.08000 303.357
36.09000 307.865
36.10000 313.637
36.11000 318.514
36.12000 316.403
36.13000 313.870
36.14000 310.722
36.15000 305.566
36.16000 300.254
36.17000 296.979
36.18000 298.317
36.19000 299.831
36.20000 300.758
36.21000 297.378
36.22000 294.921
36.23000 294.463
36.24000 296.096
36.25000 297.734
36.26000 299.823
36.27000 302.225
36.28000 304.578
36.29000 303.529
36.30000 300.958
36.31000 298.506
36.32000 297.800
36.33000 297.672
36.34000 297.722
36.35000 299.270
36.36000 301.158
36.37000 302.783
36.38000 295.198
36.39000 287.611
36.40000 283.878
36.41000 294.119
36.42000 305.631
36.43000 315.549
36.44000 321.479
36.45000 327.218
36.46000 330.880
36.47000 315.316
36.48000 303.747
36.49000 294.935
36.50000 289.358
36.51000 283.809
36.52000 284.172
36.53000 289.116
36.54000 293.984
36.55000 293.059
36.56000 289.187
36.57000 285.560
36.58000 286.231
36.59000 288.479
36.60000 290.848
36.61000 294.386
36.62000 298.218
36.63000 301.576
36.64000 298.969
36.65000 295.872
36.66000 292.932
36.67000 290.628
36.68000 288.390
36.69000 285.934
36.70000 282.871
36.71000 279.773
36.72000 277.720
36.73000 283.136
36.74000 287.272
36.75000 289.935
36.76000 290.667
36.77000 291.390
36.78000 292.194
36.79000 293.067
36.80000 293.932
36.81000 294.091
36.82000 293.842
36.83000 293.630
36.84000 294.227
36.85000 295.151
36.86000 295.933
36.87000 295.118
36.88000 293.855
36.89000 292.731
36.90000 296.631
36.91000 300.842
36.92000 304.141
36.93000 303.344
36.94000 302.052
36.95000 301.570
36.96000 303.566
36.97000 305.734
36.98000 307.223
36.99000 305.208
37.00000 303.612
37.01000 304.488
37.02000 308.971
37.03000 313.484
37.04000 314.200
37.05000 311.228
37.06000 308.275
37.07000 308.659
37.08000 311.175
37.09000 313.512
37.10000 311.011
37.11000 306.341
37.12000 301.943
37.13000 301.140
37.14000 301.453
37.15000 301.736
37.16000 305.272
37.17000 308.987
37.18000 311.288
37.19000 306.504
37.20000 300.746
37.21000 296.081
37.22000 295.121
37.23000 294.467
37.24000 294.003
37.25000 301.202
37.26000 306.921
37.27000 309.038
37.28000 305.321
37.29000 301.524
37.30000 297.196
37.31000 292.289
37.32000 287.400
37.33000 286.298
37.34000 287.920
37.35000 289.625
37.36000 294.259
37.37000 300.345
37.38000 305.915
37.39000 303.393
37.40000 298.091
37.41000 293.232
37.42000 292.414
37.43000 292.532
37.44000 292.659
37.45000 292.831
37.46000 293.010
37.47000 293.692
37.48000 296.269
37.49000 299.028
37.50000 301.047
37.51000 302.546
37.52000 303.683
37.53000 302.990
37.54000 299.011
37.55000 294.967
37.56000 291.903
37.57000 290.037
37.58000 288.176
37.59000 289.925
37.60000 294.563
37.61000 299.152
37.62000 301.448
37.63000 302.486
37.64000 303.342
37.65000 300.773
37.66000 296.902
37.67000 293.310
37.68000 294.559
37.69000 296.828
37.70000 297.843
37.71000 290.949
37.72000 282.667
37.73000 276.389
37.74000 278.492
37.75000 281.523
37.76000 283.804
37.77000 282.850
37.78000 281.946
37.79000 282.319
37.80000 285.235
37.81000 288.220
37.82000 292.443
37.83000 298.353
37.84000 304.271
37.85000 304.816
37.86000 300.521
37.87000 296.242
37.88000 293.023
37.89000 290.448
37.90000 288.001
37.91000 288.517
37.92000 290.279
37.93000 291.933
37.94000 294.497
37.95000 297.075
37.96000 299.517
37.97000 300.977
37.98000 302.244
37.99000 302.494
38.00000 297.997
38.01000 292.899
38.02000 288.957
38.03000 299.605
38.04000 308.912
38.05000 312.499
38.06000 303.506
38.07000 294.064
38.08000 289.451
38.09000 292.154
38.10000 294.933
38.11000 296.331
38.12000 305.152
38.13000 311.001
38.14000 312.019
38.15000 309.774
38.16000 307.618
38.17000 308.042
38.18000 309.666
38.19000 311.206
38.20000 309.182
38.21000 306.257
38.22000 304.348
38.23000 310.698
38.24000 318.862
38.25000 324.239
38.26000 315.079
38.27000 303.828
38.28000 294.909
38.29000 306.747
38.30000 317.722
38.31000 325.132
38.32000 323.876
38.33000 322.230
38.34000 326.142
38.35000 339.399
38.36000 352.805
38.37000 359.941
38.38000 354.371
38.39000 350.597
38.40000 352.281
38.41000 358.064
38.42000 364.056
38.43000 378.181
38.44000 396.487
38.45000 414.019
38.46000 423.003
38.47000 428.541
38.48000 434.001
38.49000 438.728
38.50000 443.276
38.51000 450.448
38.52000 472.971
38.53000 497.990
38.54000 518.291
38.55000 552.576
38.56000 581.676
38.57000 610.855
38.58000 640.242
38.59000 669.640
38.60000 704.077
38.61000 747.899
38.62000 791.934
38.63000 816.613
38.64000 864.971
38.65000 898.537
38.66000 925.780
38.67000 947.721
38.68000 969.581
38.69000 987.105
38.70000 1002.162
38.71000 1016.705
38.72000 1025.900
38.73000 1032.581
38.74000 1039.549
38.75000 1049.609
38.76000 1060.510
38.77000 1069.782
38.78000 1068.304
38.79000 1064.863
38.80000 1062.009
38.81000 1023.513
38.82000 988.291
38.83000 957.246
38.84000 938.626
38.85000 920.830
38.86000 896.051
38.87000 856.877
38.88000 817.266
38.89000 793.984
38.90000 747.762
38.91000 715.052
38.92000 680.264
38.93000 643.525
38.94000 606.927
38.95000 581.530
38.96000 563.204
38.97000 545.368
38.98000 527.194
38.99000 509.745
39.00000 492.123
39.01000 472.301
39.02000 451.816
39.03000 430.934
39.04000 407.081
39.05000 382.620
39.06000 361.925
39.07000 356.078
39.08000 352.832
39.09000 349.262
39.10000 344.628
39.11000 339.910
39.12000 335.457
39.13000 331.609
39.14000 327.785
39.15000 325.436
39.16000 317.273
39.17000 311.371
39.18000 307.489
39.19000 305.739
39.20000 303.997
39.21000 303.199
39.22000 303.062
39.23000 302.928
39.24000 298.395
39.25000 291.998
39.26000 286.313
39.27000 291.222
39.28000 299.668
39.29000 306.698
39.30000 301.657
39.31000 293.860
39.32000 287.139
39.33000 289.924
39.34000 293.496
39.35000 296.675
39.36000 298.416
39.37000 300.025
39.38000 299.257
39.39000 292.500
39.40000 285.453
39.41000 280.944
39.42000 272.273
39.43000 265.905
39.44000 265.959
39.45000 273.614
39.46000 281.262
39.47000 283.382
39.48000 281.183
39.49000 279.017
39.50000 280.771
39.51000 284.501
39.52000 287.893
39.53000 285.246
39.54000 280.369
39.55000 276.186
39.56000 278.811
39.57000 283.164
39.58000 286.983
39.59000 283.395
39.60000 279.235
39.61000 275.020
39.62000 270.582
39.63000 266.119
39.64000 263.220
39.65000 264.680
39.66000 266.397
39.67000 267.537
39.68000 273.879
39.69000 278.666
39.70000 278.135
39.71000 270.580
39.72000 263.001
39.73000 263.394
39.74000 270.745
39.75000 278.020
39.76000 276.713
39.77000 270.475
39.78000 264.289
39.79000 259.225
39.80000 254.620
39.81000 250.727
39.82000 254.938
39.83000 261.435
39.84000 267.226
39.85000 268.740
39.86000 269.349
39.87000 270.237
39.88000 272.387
39.89000 274.691
39.90000 275.781
39.91000 273.125
39.92000 270.206
39.93000 268.196
39.94000 264.412
39.95000 261.528
39.96000 260.959
39.97000 263.794
39.98000 266.659
39.99000 269.250
40.00000 271.572
40.01000 273.879
40.02000 272.941
40.03000 269.922
40.04000 266.892
40.05000 263.570
40.06000 260.118
40.07000 256.765
40.08000 254.743
40.09000 253.136
40.10000 251.683
40.11000 256.194
40.12000 261.283
40.13000 265.080
40.14000 262.353
40.15000 258.721
40.16000 256.293
40.17000 257.980
40.18000 260.008
40.19000 261.451
40.20000 260.758
40.21000 260.161
40.22000 262.001
40.23000 267.818
40.24000 273.692
40.25000 274.855
40.26000 270.834
40.27000 266.824
40.28000 264.592
40.29000 263.662
40.30000 262.578
40.31000 255.963
40.32000 246.585
40.33000 237.953
40.34000 241.140
40.35000 248.418
40.36000 255.094
40.37000 255.558
40.38000 254.658
40.39000 253.750
40.40000 252.796
40.41000 251.836
40.42000 250.654
40.43000 248.636
40.44000 246.536
40.45000 244.997
40.46000 252.773
40.47000 259.155
40.48000 261.429
40.49000 256.271
40.50000 250.959
40.51000 249.285
40.52000 252.091
40.53000 254.904
40.54000 256.600
40.55000 257.386
40.56000 258.147
40.57000 257.749
40.58000 256.708
40.59000 255.657
40.60000 254.387
40.61000 253.035
40.62000 251.778
40.63000 255.400
40.64000 259.827
40.65000 263.137
40.66000 259.337
40.67000 254.279
40.68000 249.595
40.69000 246.485
40.70000 243.552
40.71000 241.338
40.72000 255.251
40.73000 266.947
40.74000 273.449
40.75000 269.549
40.76000 265.358
40.77000 259.370
40.78000 250.915
40.79000 242.447
40.80000 241.731
40.81000 248.058
40.82000 254.315
40.83000 255.635
40.84000 253.929
40.85000 252.093
40.86000 247.166
40.87000 240.930
40.88000 235.072
40.89000 237.843
40.90000 242.677
40.91000 246.980
40.92000 247.461
40.93000 247.186
40.94000 247.153
40.95000 248.267
40.96000 249.527
40.97000 250.503
40.98000 252.143
40.99000 253.485
41.00000 254.195
41.01000 253.505
41.02000 252.764
41.03000 252.966
41.04000 254.607
41.05000 256.263
41.06000 257.100
41.07000 249.148
41.08000 243.878
41.09000 244.365
41.10000 248.767
41.11000 252.979
41.12000 251.454
41.13000 247.242
41.14000 243.244
41.15000 241.994
41.16000 241.662
41.17000 241.545
41.18000 243.183
41.19000 245.211
41.20000 247.154
41.21000 248.654
41.22000 250.090
41.23000 251.230
41.24000 254.053
41.25000 256.445
41.26000 256.513
41.27000 250.889
41.28000 245.006
41.29000 240.788
41.30000 239.391
41.31000 238.040
41.32000 237.318
41.33000 240.813
41.34000 243.194
41.35000 244.316
41.36000 244.485
41.37000 244.622
41.38000 243.457
41.39000 241.619
41.40000 239.857
41.41000 241.987
41.42000 245.279
41.43000 248.406
41.44000 249.986
41.45000 251.185
41.46000 250.976
41.47000 242.466
41.48000 232.596
41.49000 224.573
41.50000 221.708
41.51000 219.799
41.52000 219.824
41.53000 225.088
41.54000 230.644
41.55000 236.713
41.56000 243.743
41.57000 250.796
41.58000 254.762
41.59000 247.663
41.60000 242.715
41.61000 241.742
41.62000 244.129
41.63000 246.437
41.64000 244.313
41.65000 239.649
41.66000 235.141
41.67000 237.142
41.68000 241.466
41.69000 245.247
41.70000 243.108
41.71000 239.349
41.72000 235.911
41.73000 234.620
41.74000 233.723
41.75000 232.978
41.76000 231.605
41.77000 230.408
41.78000 230.770
41.79000 235.800
41.80000 241.145
41.81000 244.159
41.82000 242.333
41.83000 240.357
41.84000 239.192
41.85000 239.960
41.86000 240.512
41.87000 242.719
41.88000 246.493
41.89000 250.231
41.90000 250.980
41.91000 249.829
41.92000 248.707
41.93000 246.952
41.94000 245.014
41.95000 243.042
41.96000 240.625
41.97000 238.073
41.98000 236.196
41.99000 239.408
42.00000 243.669
42.01000 247.279
42.02000 245.119
42.03000 242.663
42.04000 240.867
42.05000 241.265
42.06000 241.838
42.07000 240.290
42.08000 233.875
42.09000 227.268
42.10000 223.197
42.11000 230.601
42.12000 236.017
42.13000 236.352
42.14000 231.275
42.15000 226.251
42.16000 228.661
42.17000 236.324
42.18000 243.833
42.19000 246.321
42.20000 246.370
42.21000 246.427
42.22000 246.611
42.23000 246.839
42.24000 246.753
42.25000 243.970
42.26000 240.567
42.27000 237.630
42.28000 238.847
42.29000 240.415
42.30000 241.972
42.31000 243.486
42.32000 244.997
42.33000 246.477
42.34000 247.879
42.35000 249.277
42.36000 250.174
42.37000 246.581
42.38000 243.900
42.39000 243.589
42.40000 246.104
42.41000 248.607
42.42000 245.774
42.43000 238.740
42.44000 231.809
42.45000 230.984
42.46000 233.368
42.47000 235.499
42.48000 233.054
42.49000 228.907
42.50000 225.239
42.51000 226.314
42.52000 228.603
42.53000 230.613
42.54000 229.976
42.55000 229.040
42.56000 229.439
42.57000 235.304
42.58000 241.755
42.59000 243.815
42.60000 233.549
42.61000 222.545
42.62000 215.214
42.63000 221.022
42.64000 225.572
42.65000 229.118
42.66000 231.328
42.67000 233.529
42.68000 232.897
42.69000 229.772
42.70000 226.678
42.71000 227.197
42.72000 229.811
42.73000 232.340
42.74000 232.984
42.75000 232.853
42.76000 232.885
42.77000 234.786
42.78000 237.218
42.79000 239.389
42.80000 240.871
42.81000 242.047
42.82000 241.751
42.83000 234.752
42.84000 226.929
42.85000 222.312
42.86000 227.662
42.87000 233.724
42.88000 237.907
42.89000 234.943
42.90000 232.535
42.91000 231.239
42.92000 231.592
42.93000 231.960
42.94000 230.183
42.95000 226.289
42.96000 222.419
42.97000 223.640
42.98000 228.158
42.99000 232.490
43.00000 231.604
43.01000 228.344
43.02000 225.400
43.03000 226.719
43.04000 229.381
43.05000 231.792
43.06000 237.107
43.07000 242.339
43.08000 245.969
43.09000 241.440
43.10000 235.768
43.11000 231.682
43.12000 233.059
43.13000 234.895
43.14000 236.203
43.15000 234.880
43.16000 233.785
43.17000 231.061
43.18000 225.659
43.19000 220.216
43.20000 216.980
43.21000 216.190
43.22000 215.404
43.23000 216.315
43.24000 218.453
43.25000 220.545
43.26000 220.907
43.27000 220.400
43.28000 219.738
43.29000 216.605
43.30000 212.610
43.31000 208.943
43.32000 213.639
43.33000 219.611
43.34000 224.956
43.35000 226.722
43.36000 227.920
43.37000 228.831
43.38000 228.649
43.39000 228.360
43.40000 228.147
43.41000 227.125
43.42000 226.301
43.43000 226.436
43.44000 228.317
43.45000 230.235
43.46000 232.710
43.47000 235.874
43.48000 239.036
43.49000 237.064
43.50000 230.910
43.51000 224.853
43.52000 223.605
43.53000 225.036
43.54000 226.405
43.55000 226.580
43.56000 226.295
43.57000 226.030
43.58000 228.624
43.59000 231.652
43.60000 234.122
43.61000 233.007
43.62000 231.254
43.63000 229.540
43.64000 227.996
43.65000 226.470
43.66000 225.317
43.67000 220.456
43.68000 216.458
43.69000 214.549
43.70000 216.854
43.71000 219.280
43.72000 221.143
43.73000 222.227
43.74000 223.306
43.75000 224.940
43.76000 227.082
43.77000 229.130
43.78000 224.362
43.79000 215.385
43.80000 206.756
43.81000 206.515
43.82000 209.850
43.83000 212.987
43.84000 218.324
43.85000 223.792
43.86000 228.810
43.87000 230.562
43.88000 231.660
43.89000 231.419
43.90000 224.831
43.91000 217.424
43.92000 211.675
43.93000 223.644
43.94000 234.229
43.95000 239.736
43.96000 233.913
43.97000 227.671
43.98000 224.064
43.99000 224.510
44.00000 225.001
44.01000 225.250
44.02000 222.992
44.03000 221.506
44.04000 223.154
44.05000 226.950
44.06000 230.574
44.07000 228.907
44.08000 224.745
44.09000 220.791
44.10000 219.340
44.11000 218.754
44.12000 217.933
44.13000 215.170
44.14000 211.973
44.15000 210.020
44.16000 214.656
44.17000 220.256
44.18000 224.711
44.19000 219.730
44.20000 215.040
44.21000 213.062
44.22000 217.773
44.23000 222.794
44.24000 224.682
44.25000 221.224
44.26000 217.676
44.27000 215.773
44.28000 220.448
44.29000 223.638
44.30000 225.032
44.31000 225.057
44.32000 224.986
44.33000 221.058
44.34000 215.116
44.35000 209.418
44.36000 214.564
44.37000 223.031
44.38000 230.354
44.39000 226.794
44.40000 220.532
44.41000 215.902
44.42000 220.989
44.43000 227.683
44.44000 233.131
44.45000 232.322
44.46000 231.135
44.47000 230.354
44.48000 230.682
44.49000 231.073
44.50000 232.299
44.51000 235.101
44.52000 237.940
44.53000 239.543
44.54000 229.976
44.55000 223.307
44.56000 222.579
44.57000 226.913
44.58000 231.279
44.59000 237.427
44.60000 244.606
44.61000 251.549
44.62000 251.467
44.63000 248.740
44.64000 246.038
44.65000 243.611
44.66000 241.260
44.67000 239.148
44.68000 238.644
44.69000 238.440
44.70000 238.270
44.71000 241.632
44.72000 244.762
44.73000 248.087
44.74000 252.001
44.75000 255.956
44.76000 258.994
44.77000 260.114
44.78000 261.173
44.79000 261.800
44.80000 266.873
44.81000 270.483
44.82000 275.085
44.83000 280.632
44.84000 286.104
44.85000 285.140
44.86000 280.051
44.87000 275.094
44.88000 278.401
44.89000 285.037
44.90000 291.141
44.91000 290.381
44.92000 287.523
44.93000 285.668
44.94000 291.456
44.95000 298.833
44.96000 305.091
44.97000 310.087
44.98000 314.132
44.99000 318.657
45.00000 324.784
45.01000 331.040
45.02000 336.768
45.03000 341.274
45.04000 345.731
45.05000 348.485
45.06000 347.809
45.07000 347.291
45.08000 349.647
45.09000 355.089
45.10000 360.489
45.11000 359.618
45.12000 354.282
45.13000 349.050
45.14000 348.268
45.15000 349.609
45.16000 351.086
45.17000 354.634
45.18000 358.885
45.19000 362.510
45.20000 360.700
45.21000 357.630
45.22000 354.977
45.23000 347.083
45.24000 339.698
45.25000 335.551
45.26000 343.415
45.27000 352.407
45.28000 355.478
45.29000 343.406
45.30000 330.579
45.31000 322.326
45.32000 328.044
45.33000 332.413
45.34000 336.758
45.35000 341.075
45.36000 345.356
45.37000 338.662
45.38000 323.260
45.39000 308.075
45.40000 304.052
45.41000 306.010
45.42000 307.734
45.43000 305.159
45.44000 300.975
45.45000 296.682
45.46000 291.314
45.47000 285.669
45.48000 280.706
45.49000 287.415
45.50000 294.917
45.51000 299.891
45.52000 294.439
45.53000 287.857
45.54000 282.931
45.55000 282.688
45.56000 282.729
45.57000 282.757
45.58000 269.398
45.59000 259.239
45.60000 253.124
45.61000 252.437
45.62000 251.777
45.63000 250.621
45.64000 249.023
45.65000 247.441
45.66000 246.891
45.67000 246.960
45.68000 247.270
45.69000 253.066
45.70000 261.134
45.71000 267.963
45.72000 260.389
45.73000 248.693
45.74000 238.244
45.75000 240.991
45.76000 245.608
45.77000 248.569
45.78000 243.931
45.79000 238.348
45.80000 234.603
45.81000 236.610
45.82000 239.033
45.83000 240.709
45.84000 240.232
45.85000 239.817
45.86000 236.173
45.87000 227.710
45.88000 219.200
45.89000 215.752
45.90000 217.344
45.91000 218.927
45.92000 220.402
45.93000 221.787
45.94000 223.167
45.95000 224.435
45.96000 225.651
45.97000 226.643
45.98000 224.576
45.99000 221.539
46.00000 218.786
46.01000 216.879
46.02000 215.358
46.03000 213.992
46.04000 213.426
46.05000 212.973
46.06000 211.420
46.07000 206.051
46.08000 200.356
46.09000 196.288
46.10000 204.158
46.11000 210.559
46.12000 213.462
46.13000 210.566
46.14000 207.582
46.15000 204.401
46.16000 200.999
46.17000 197.608
46.18000 197.757
46.19000 200.505
46.20000 203.217
46.21000 204.574
46.22000 205.244
46.23000 206.100
46.24000 209.970
46.25000 214.898
46.26000 219.427
46.27000 218.571
46.28000 216.648
46.29000 214.141
46.30000 208.279
46.31000 201.880
46.32000 197.631
46.33000 201.657
46.34000 206.502
46.35000 210.070
46.36000 210.322
46.37000 210.379
46.38000 210.424
46.39000 210.445
46.40000 210.466
46.41000 210.910
46.42000 211.883
46.43000 212.856
46.44000 213.030
46.45000 212.546
46.46000 212.076
46.47000 212.334
46.48000 213.000
46.49000 213.508
46.50000 210.870
46.51000 207.009
46.52000 203.418
46.53000 200.546
46.54000 198.126
46.55000 196.544
46.56000 200.388
46.57000 205.208
46.58000 208.619
46.59000 205.996
46.60000 202.686
46.61000 200.179
46.62000 200.068
46.63000 200.103
46.64000 201.760
46.65000 206.716
46.66000 211.768
46.67000 210.364
46.68000 199.956
46.69000 189.491
46.70000 187.922
46.71000 194.571
46.72000 201.160
46.73000 203.242
46.74000 202.521
46.75000 201.891
46.76000 203.455
46.77000 205.962
46.78000 208.321
46.79000 208.630
46.80000 208.356
46.81000 208.050
46.82000 207.505
46.83000 206.912
46.84000 206.333
46.85000 205.820
46.86000 205.316
46.87000 204.924
46.88000 201.016
46.89000 197.692
46.90000 195.977
46.91000 197.876
46.92000 199.911
46.93000 201.081
46.94000 200.910
46.95000 200.724
46.96000 200.630
46.97000 194.910
46.98000 191.123
46.99000 193.528
47.00000 200.211
47.01000 206.694
47.02000 206.955
47.03000 204.262
47.04000 201.701
47.05000 198.115
47.06000 194.488
47.07000 191.564
47.08000 194.525
47.09000 198.810
47.10000 202.258
47.11000 201.237
47.12000 199.556
47.13000 198.216
47.14000 197.284
47.15000 196.561
47.16000 195.982
47.17000 195.759
47.18000 195.553
47.19000 194.527
47.20000 192.093
47.21000 189.635
47.22000 188.312
47.23000 187.355
47.24000 186.703
47.25000 186.288
47.26000 186.057
47.27000 185.869
47.28000 187.486
47.29000 190.051
47.30000 192.513
47.31000 187.707
47.32000 180.741
47.33000 174.766
47.34000 178.296
47.35000 184.206
47.36000 189.624
47.37000 192.098
47.38000 194.081
47.39000 195.697
47.40000 188.530
47.41000 181.922
47.42000 178.319
47.43000 182.976
47.44000 188.107
47.45000 190.703
47.46000 188.473
47.47000 186.126
47.48000 184.797
47.49000 193.291
47.50000 199.216
47.51000 196.296
47.52000 185.777
47.53000 175.435
47.54000 175.330
47.55000 181.184
47.56000 186.847
47.57000 187.410
47.58000 186.001
47.59000 184.977
47.60000 188.227
47.61000 192.666
47.62000 196.192
47.63000 193.542
47.64000 189.736
47.65000 186.566
47.66000 190.611
47.67000 194.677
47.68000 196.056
47.69000 189.261
47.70000 181.902
47.71000 176.919
47.72000 176.939
47.73000 177.119
47.74000 177.226
47.75000 176.350
47.76000 175.726
47.77000 177.044
47.78000 180.235
47.79000 183.422
47.80000 186.274
47.81000 188.909
47.82000 191.477
47.83000 190.222
47.84000 187.400
47.85000 184.723
47.86000 183.920
47.87000 183.694
47.88000 183.847
47.89000 186.908
47.90000 190.578
47.91000 193.696
47.92000 192.433
47.93000 190.872
47.94000 188.874
47.95000 185.403
47.96000 181.812
47.97000 181.312
47.98000 188.012
47.99000 195.006
48.00000 199.341
48.01000 192.064
48.02000 186.718
48.03000 186.379
48.04000 191.460
48.05000 196.495
48.06000 194.389
48.07000 187.159
48.08000 180.068
48.09000 178.059
48.10000 178.534
48.11000 179.238
48.12000 183.483
48.13000 188.937
48.14000 193.207
48.15000 187.086
48.16000 178.538
48.17000 171.141
48.18000 175.211
48.19000 180.177
48.20000 183.308
48.21000 179.589
48.22000 175.219
48.23000 173.322
48.24000 177.791
48.25000 182.583
48.26000 185.675
48.27000 184.792
48.28000 184.090
48.29000 184.525
48.30000 186.338
48.31000 188.140
48.32000 185.272
48.33000 178.670
48.34000 172.160
48.35000 176.004
48.36000 185.226
48.37000 193.892
48.38000 192.189
48.39000 186.573
48.40000 181.583
48.41000 182.928
48.42000 185.918
48.43000 188.550
48.44000 184.580
48.45000 180.173
48.46000 177.899
48.47000 184.481
48.48000 192.032
48.49000 195.819
48.50000 188.882
48.51000 181.286
48.52000 176.199
48.53000 185.953
48.54000 193.484
48.55000 194.217
48.56000 185.757
48.57000 177.252
48.58000 174.065
48.59000 175.636
48.60000 177.193
48.61000 179.749
48.62000 182.846
48.63000 185.838
48.64000 186.416
48.65000 185.985
48.66000 185.434
48.67000 183.471
48.68000 181.100
48.69000 178.979
48.70000 184.610
48.71000 190.838
48.72000 195.642
48.73000 193.853
48.74000 191.237
48.75000 188.324
48.76000 184.477
48.77000 180.561
48.78000 177.846
48.79000 173.836
48.80000 170.784
48.81000 171.149
48.82000 176.654
48.83000 182.210
48.84000 183.077
48.85000 179.235
48.86000 175.415
48.87000 174.319
48.88000 175.039
48.89000 175.696
48.90000 174.500
48.91000 172.451
48.92000 170.491
48.93000 169.770
48.94000 169.445
48.95000 169.151
48.96000 169.328
48.97000 169.574
48.98000 169.852
48.99000 170.287
49.00000 170.746
49.01000 172.197
49.02000 177.121
49.03000 182.344
49.04000 186.083
49.05000 180.127
49.06000 175.250
49.07000 171.492
49.08000 169.602
49.09000 167.741
49.10000 166.101
49.11000 164.709
49.12000 163.322
49.13000 168.582
49.14000 178.724
49.15000 188.618
49.16000 189.088
49.17000 184.748
49.18000 180.475
49.19000 177.309
49.20000 174.535
49.21000 171.983
49.22000 176.600
49.23000 182.281
49.24000 186.690
49.25000 183.727
49.26000 179.576
49.27000 175.948
49.28000 174.350
49.29000 172.956
49.30000 171.927
49.31000 170.973
49.32000 170.237
49.33000 170.312
49.34000 171.887
49.35000 173.496
49.36000 175.813
49.37000 179.025
49.38000 182.235
49.39000 183.277
49.40000 182.516
49.41000 181.691
49.42000 177.520
49.43000 171.459
49.44000 165.760
49.45000 167.333
49.46000 171.751
49.47000 175.865
49.48000 177.228
49.49000 177.790
49.50000 178.164
49.51000 177.308
49.52000 176.229
49.53000 175.194
49.54000 174.351
49.55000 173.529
49.56000 172.906
49.57000 177.619
49.58000 181.597
49.59000 183.469
49.60000 181.030
49.61000 178.462
49.62000 176.700
49.63000 176.069
49.64000 175.446
49.65000 175.120
49.66000 175.072
49.67000 175.054
49.68000 177.355
49.69000 181.110
49.70000 184.582
49.71000 181.017
49.72000 174.408
49.73000 168.184
49.74000 169.320
49.75000 172.373
49.76000 174.842
49.77000 172.985
49.78000 170.249
49.79000 168.828
49.80000 173.730
49.81000 179.463
49.82000 183.929
49.83000 181.072
49.84000 178.343
49.85000 176.599
49.86000 177.087
49.87000 177.661
49.88000 177.373
49.89000 175.740
49.90000 174.091
49.91000 173.247
49.92000 174.527
49.93000 175.375
49.94000 174.774
49.95000 173.163
49.96000 171.635
49.97000 172.745
49.98000 175.117
49.99000 177.374
50.00000 173.024
50.01000 166.974
50.02000 162.134
50.03000 167.515
50.04000 175.212
50.05000 181.930
50.06000 183.377
50.07000 184.039
50.08000 184.568
50.09000 179.096
50.10000 174.237
50.11000 171.351
50.12000 173.401
50.13000 175.687
50.14000 177.912
50.15000 180.032
50.16000 182.150
50.17000 183.294
50.18000 187.353
50.19000 190.112
50.20000 187.192
50.21000 179.871
50.22000 172.705
50.23000 172.103
50.24000 174.977
50.25000 177.736
50.26000 178.740
50.27000 179.077
50.28000 180.135
50.29000 188.184
50.30000 197.996
50.31000 205.989
50.32000 202.971
50.33000 198.101
50.34000 194.125
50.35000 190.004
50.36000 186.619
50.37000 184.705
50.38000 186.861
50.39000 189.256
50.40000 191.925
50.41000 195.122
50.42000 198.333
50.43000 200.158
50.44000 194.907
50.45000 191.234
50.46000 192.354
50.47000 197.625
50.48000 202.878
50.49000 207.036
50.50000 210.553
50.51000 213.957
50.52000 213.496
50.53000 211.577
50.54000 210.170
50.55000 214.518
50.56000 220.477
50.57000 225.915
50.58000 227.803
50.59000 229.020
50.60000 230.035
50.61000 229.078
50.62000 228.088
50.63000 229.242
50.64000 236.966
50.65000 245.149
50.66000 251.256
50.67000 252.962
50.68000 254.524
50.69000 255.453
50.70000 253.481
50.71000 252.066
50.72000 250.620
50.73000 249.145
50.74000 247.652
50.75000 244.598
50.76000 240.527
50.77000 236.558
50.78000 238.048
50.79000 241.810
50.80000 245.249
50.81000 244.437
50.82000 242.304
50.83000 240.072
50.84000 237.069
50.85000 233.903
50.86000 231.209
50.87000 235.888
50.88000 240.670
50.89000 242.900
50.90000 236.468
50.91000 229.323
50.92000 223.523
50.93000 220.878
50.94000 218.364
50.95000 216.801
50.96000 217.024
50.97000 217.202
50.98000 216.844
50.99000 215.900
51.00000 214.952
51.01000 213.322
51.02000 211.200
51.03000 209.117
51.04000 210.745
51.05000 214.090
51.06000 216.844
51.07000 210.345
51.08000 200.666
51.09000 191.956
51.10000 191.843
51.11000 193.753
51.12000 195.408
51.13000 194.109
51.14000 192.612
51.15000 191.152
51.16000 189.830
51.17000 188.520
51.18000 187.276
51.19000 186.199
51.20000 185.132
51.21000 184.441
51.22000 186.720
51.23000 188.430
51.24000 185.426
51.25000 176.661
51.26000 167.895
51.27000 163.635
51.28000 163.006
51.29000 162.385
51.30000 165.244
51.31000 169.883
51.32000 174.272
51.33000 173.948
51.34000 171.832
51.35000 169.995
51.36000 171.009
51.37000 172.770
51.38000 174.321
51.39000 171.738
51.40000 168.888
51.41000 167.221
51.42000 170.512
51.43000 174.351
51.44000 176.942
51.45000 175.951
51.46000 174.737
51.47000 173.922
51.48000 172.951
51.49000 172.227
51.50000 171.851
51.51000 171.950
51.52000 172.052
51.53000 173.700
51.54000 176.741
51.55000 179.756
51.56000 178.375
51.57000 174.400
51.58000 170.588
51.59000 170.579
51.60000 172.168
51.61000 173.323
51.62000 169.311
51.63000 163.797
51.64000 158.862
51.65000 161.489
51.66000 165.079
51.67000 167.757
51.68000 166.179
51.69000 164.062
51.70000 163.053
51.71000 165.565
51.72000 168.338
51.73000 170.265
51.74000 168.454
51.75000 166.990
51.76000 166.882
51.77000 168.833
51.78000 170.804
51.79000 172.876
51.80000 175.050
51.81000 177.212
51.82000 176.353
51.83000 173.491
51.84000 170.640
51.85000 168.120
51.86000 165.754
51.87000 163.759
51.88000 166.955
51.89000 171.821
51.90000 176.243
51.91000 173.613
51.92000 169.922
51.93000 166.320
51.94000 163.185
51.95000 160.118
51.96000 157.459
51.97000 156.241
51.98000 155.148
51.99000 154.364
52.00000 159.167
52.01000 163.032
52.02000 166.076
52.03000 167.741
52.04000 169.385
52.05000 170.729
52.06000 171.733
52.07000 172.734
52.08000 170.695
52.09000 166.402
52.10000 162.265
52.11000 164.239
52.12000 169.353
52.13000 173.962
52.14000 170.105
52.15000 163.232
52.16000 156.905
52.17000 157.519
52.18000 159.587
52.19000 162.006
52.20000 166.481
52.21000 171.290
52.22000 174.539
52.23000 171.693
52.24000 168.231
52.25000 165.671
52.26000 164.225
52.27000 163.151
52.28000 162.193
52.29000 161.450
52.30000 160.713
52.31000 162.138
52.32000 166.311
52.33000 170.488
52.34000 170.254
52.35000 166.331
52.36000 162.513
52.37000 164.352
52.38000 169.411
52.39000 174.211
52.40000 173.735
52.41000 171.179
52.42000 168.797
52.43000 169.536
52.44000 170.973
52.45000 171.757
52.46000 168.239
52.47000 163.934
52.48000 160.155
52.49000 158.657
52.50000 157.425
52.51000 156.488
52.52000 159.107
52.53000 161.352
52.54000 163.040
52.55000 163.580
52.56000 164.086
52.57000 164.630
52.58000 165.230
52.59000 165.831
52.60000 165.372
52.61000 163.917
52.62000 162.458
52.63000 160.591
52.64000 158.468
52.65000 156.360
52.66000 154.622
52.67000 153.046
52.68000 151.560
52.69000 151.275
52.70000 151.345
52.71000 151.686
52.72000 154.061
52.73000 156.851
52.74000 158.653
52.75000 155.665
52.76000 152.041
52.77000 149.213
52.78000 152.494
52.79000 155.493
52.80000 157.017
52.81000 155.178
52.82000 153.208
52.83000 153.586
52.84000 157.659
52.85000 161.777
52.86000 163.893
52.87000 159.417
52.88000 156.424
52.89000 155.864
52.90000 157.012
52.91000 158.169
52.92000 159.645
52.93000 161.274
52.94000 162.826
52.95000 163.460
52.96000 163.764
52.97000 163.821
52.98000 161.766
52.99000 159.229
53.00000 157.198
53.01000 157.918
53.02000 159.052
53.03000 159.958
53.04000 161.867
53.05000 163.485
53.06000 163.665
53.07000 160.222
53.08000 156.602
53.09000 155.896
53.10000 160.273
53.11000 164.742
53.12000 167.166
53.13000 160.963
53.14000 156.703
53.15000 152.979
53.16000 149.673
53.17000 146.527
53.18000 150.297
53.19000 157.756
53.20000 164.923
53.21000 158.210
53.22000 147.126
53.23000 137.485
53.24000 141.995
53.25000 150.099
53.26000 156.884
53.27000 155.608
53.28000 152.966
53.29000 150.806
53.30000 156.724
53.31000 162.275
53.32000 165.729
53.33000 163.335
53.34000 160.596
53.35000 160.235
53.36000 164.470
53.37000 168.821
53.38000 171.302
53.39000 165.361
53.40000 161.191
53.41000 158.875
53.42000 158.177
53.43000 157.476
53.44000 156.664
53.45000 155.786
53.46000 154.935
53.47000 157.162
53.48000 160.460
53.49000 163.362
53.50000 161.766
53.51000 158.900
53.52000 156.786
53.53000 159.850
53.54000 163.900
53.55000 167.282
53.56000 163.711
53.57000 160.043
53.58000 156.839
53.59000 155.065
53.60000 153.392
53.61000 152.543
53.62000 153.457
53.63000 154.430
53.64000 155.011
53.65000 150.759
53.66000 147.713
53.67000 147.866
53.68000 151.152
53.69000 154.438
53.70000 157.786
53.71000 161.174
53.72000 164.479
53.73000 164.068
53.74000 162.072
53.75000 160.102
53.76000 158.477
53.77000 156.961
53.78000 155.484
53.79000 154.315
53.80000 153.211
53.81000 152.271
53.82000 150.918
53.83000 149.732
53.84000 148.351
53.85000 146.308
53.86000 144.209
53.87000 144.257
53.88000 149.378
53.89000 154.713
53.90000 158.039
53.91000 157.424
53.92000 156.941
53.93000 156.295
53.94000 155.472
53.95000 154.651
53.96000 154.206
53.97000 154.035
53.98000 153.866
53.99000 152.407
54.00000 150.378
54.01000 148.389
54.02000 147.044
54.03000 145.923
54.04000 145.049
54.05000 146.388
54.06000 148.252
54.07000 149.870
54.08000 153.266
54.09000 156.397
54.10000 159.021
54.11000 159.727
54.12000 160.246
54.13000 159.954
54.14000 157.543
54.15000 155.021
54.16000 153.385
54.17000 152.034
54.18000 151.049
54.19000 151.820
54.20000 154.752
54.21000 157.678
54.22000 155.860
54.23000 150.186
54.24000 144.586
54.25000 145.958
54.26000 151.043
54.27000 155.848
54.28000 155.248
54.29000 152.580
54.30000 150.326
54.31000 152.351
54.32000 155.506
54.33000 158.289
54.34000 160.279
54.35000 161.873
54.36000 162.377
54.37000 158.284
54.38000 153.676
54.39000 150.921
54.40000 153.519
54.41000 156.456
54.42000 158.432
54.43000 153.619
54.44000 149.899
54.45000 148.795
54.46000 151.284
54.47000 153.794
54.48000 156.485
54.49000 159.341
54.50000 162.172
54.51000 163.272
54.52000 163.310
54.53000 163.192
54.54000 159.370
54.55000 153.980
54.56000 149.144
54.57000 150.966
54.58000 154.737
54.59000 158.117
54.60000 158.772
54.61000 158.873
54.62000 158.648
54.63000 156.892
54.64000 154.940
54.65000 153.238
54.66000 152.335
54.67000 151.493
54.68000 150.906
54.69000 150.977
54.70000 151.049
54.71000 152.477
54.72000 155.978
54.73000 159.501
54.74000 158.776
54.75000 153.710
54.76000 148.670
54.77000 145.903
54.78000 144.697
54.79000 143.596
54.80000 145.661
54.81000 149.209
54.82000 152.648
54.83000 154.554
54.84000 155.964
54.85000 157.245
54.86000 154.940
54.87000 152.199
54.88000 150.073
54.89000 151.176
54.90000 152.748
54.91000 153.068
54.92000 148.948
54.93000 144.437
54.94000 141.192
54.95000 152.125
54.96000 160.989
54.97000 164.672
54.98000 159.577
54.99000 154.338
55.00000 151.128
55.01000 150.244
55.02000 149.365
55.03000 153.282
55.04000 160.782
55.05000 168.048
55.06000 166.027
55.07000 159.196
55.08000 152.728
55.09000 152.409
55.10000 154.297
55.11000 156.037
55.12000 159.743
55.13000 163.495
55.14000 165.700
55.15000 158.778
55.16000 150.361
55.17000 144.368
55.18000 147.922
55.19000 152.451
55.20000 155.807
55.21000 154.871
55.22000 153.958
55.23000 155.605
55.24000 162.058
55.25000 168.621
55.26000 171.829
55.27000 170.738
55.28000 169.633
55.29000 168.799
55.30000 168.196
55.31000 167.608
55.32000 167.845
55.33000 168.555
55.34000 169.374
55.35000 172.451
55.36000 176.422
55.37000 180.127
55.38000 179.245
55.39000 177.308
55.40000 175.927
55.41000 178.248
55.42000 181.250
55.43000 183.739
55.44000 183.974
55.45000 183.946
55.46000 183.924
55.47000 181.454
55.48000 179.380
55.49000 179.865
55.50000 185.665
55.51000 191.628
55.52000 195.206
55.53000 195.381
55.54000 195.531
55.55000 197.266
55.56000 200.503
55.57000 203.743
55.58000 207.242
55.59000 210.905
55.60000 214.481
55.61000 215.808
55.62000 216.150
55.63000 216.471
55.64000 220.122
55.65000 224.392
55.66000 229.091
55.67000 237.020
55.68000 245.614
55.69000 254.079
55.70000 261.911
55.71000 269.658
55.72000 275.715
55.73000 279.242
55.74000 281.896
55.75000 288.324
55.76000 303.419
55.77000 318.857
55.78000 331.333
55.79000 339.114
55.80000 346.835
55.81000 350.818
55.82000 380.174
55.83000 399.887
55.84000 410.251
55.85000 414.008
55.86000 417.995
55.87000 429.596
55.88000 444.893
55.89000 459.467
55.90000 470.572
55.91000 479.782
55.92000 488.806
55.93000 496.231
55.94000 503.288
55.95000 509.342
55.96000 509.899
55.97000 509.623
55.98000 509.402
55.99000 520.945
56.00000 531.168
56.01000 536.576
56.02000 529.762
56.03000 522.346
56.04000 516.992
56.05000 515.261
56.06000 513.597
56.07000 512.692
56.08000 517.900
56.09000 521.444
56.10000 513.750
56.11000 497.209
56.12000 480.601
56.13000 461.048
56.14000 439.913
56.15000 419.594
56.16000 411.120
56.17000 407.310
56.18000 403.319
56.19000 397.539
56.20000 391.300
56.21000 383.622
56.22000 367.073
56.23000 349.007
56.24000 334.209
56.25000 327.972
56.26000 323.613
56.27000 317.685
56.28000 307.353
56.29000 296.758
56.30000 287.540
56.31000 281.004
56.32000 274.537
56.33000 270.836
56.34000 259.566
56.35000 251.673
56.36000 246.760
56.37000 244.471
56.38000 242.149
56.39000 237.744
56.40000 232.100
56.41000 226.631
56.42000 221.310
56.43000 216.330
56.44000 211.293
56.45000 205.600
56.46000 199.720
56.47000 194.426
56.48000 193.197
56.49000 192.749
56.50000 192.375
56.51000 187.084
56.52000 182.186
56.53000 178.977
56.54000 181.015
56.55000 183.429
56.56000 182.926
56.57000 176.142
56.58000 169.145
56.59000 164.952
56.60000 174.352
56.61000 181.117
56.62000 186.620
56.63000 190.878
56.64000 195.063
56.65000 192.244
56.66000 184.800
56.67000 177.533
56.68000 171.151
56.69000 165.431
56.70000 159.842
56.71000 156.013
56.72000 152.738
56.73000 150.001
56.74000 151.518
56.75000 153.948
56.76000 156.021
56.77000 160.154
56.78000 163.876
56.79000 166.578
56.80000 165.769
56.81000 164.664
56.82000 162.942
56.83000 159.748
56.84000 156.492
56.85000 154.456
56.86000 148.150
56.87000 143.554
56.88000 143.425
56.89000 148.255
56.90000 153.060
56.91000 153.039
56.92000 149.476
56.93000 145.976
56.94000 146.046
56.95000 147.846
56.96000 149.541
56.97000 149.529
56.98000 148.921
56.99000 148.687
57.00000 151.837
57.01000 155.795
57.02000 159.233
57.03000 153.790
57.04000 147.951
57.05000 143.627
57.06000 145.097
57.07000 147.134
57.08000 148.883
57.09000 149.874
57.10000 150.825
57.11000 151.444
57.12000 150.075
57.13000 149.041
57.14000 147.383
57.15000 144.952
57.16000 142.524
57.17000 142.428
57.18000 144.242
57.19000 146.032
57.20000 145.016
57.21000 142.504
57.22000 140.089
57.23000 139.561
57.24000 139.761
57.25000 140.092
57.26000 141.792
57.27000 143.856
57.28000 145.679
57.29000 148.421
57.30000 150.931
57.31000 152.785
57.32000 151.850
57.33000 150.600
57.34000 149.248
57.35000 147.598
57.36000 145.928
57.37000 144.802
57.38000 143.669
57.39000 142.827
57.40000 144.481
57.41000 149.590
57.42000 154.719
57.43000 153.510
57.44000 146.492
57.45000 139.533
57.46000 137.538
57.47000 138.589
57.48000 139.731
57.49000 143.069
57.50000 147.345
57.51000 151.237
57.52000 150.471
57.53000 148.332
57.54000 146.413
57.55000 145.092
57.56000 144.041
57.57000 143.147
57.58000 142.995
57.59000 142.939
57.60000 142.195
57.61000 139.233
57.62000 136.103
57.63000 133.917
57.64000 136.882
57.65000 139.265
57.66000 140.020
57.67000 138.271
57.68000 136.494
57.69000 136.938
57.70000 139.670
57.71000 142.388
57.72000 142.463
57.73000 140.745
57.74000 139.005
57.75000 136.574
57.76000 133.818
57.77000 131.333
57.78000 132.742
57.79000 135.423
57.80000 137.863
57.81000 141.343
57.82000 144.628
57.83000 147.071
57.84000 145.048
57.85000 142.371
57.86000 139.512
57.87000 136.005
57.88000 132.441
57.89000 129.872
57.90000 132.935
57.91000 135.481
57.92000 137.531
57.93000 138.733
57.94000 139.922
57.95000 140.099
57.96000 139.109
57.97000 138.119
57.98000 137.545
57.99000 137.289
58.00000 136.948
58.01000 133.165
58.02000 127.587
58.03000 122.572
58.04000 127.233
58.05000 135.391
58.06000 142.916
58.07000 141.644
58.08000 138.546
58.09000 135.679
58.10000 134.185
58.11000 132.919
58.12000 132.602
58.13000 136.057
58.14000 139.901
58.15000 142.755
58.16000 143.151
58.17000 143.350
58.18000 142.846
58.19000 141.012
58.20000 139.147
58.21000 138.715
58.22000 140.133
58.23000 141.557
58.24000 141.153
58.25000 139.196
58.26000 137.246
58.27000 135.709
58.28000 134.411
58.29000 133.224
58.30000 134.366
58.31000 136.440
58.32000 138.375
58.33000 136.948
58.34000 134.814
58.35000 132.659
58.36000 130.370
58.37000 128.056
58.38000 126.682
58.39000 129.457
58.40000 132.725
58.41000 135.219
58.42000 134.094
58.43000 133.013
58.44000 132.473
58.45000 133.066
58.46000 133.694
58.47000 132.905
58.48000 130.080
58.49000 127.239
58.50000 127.234
58.51000 129.937
58.52000 132.604
58.53000 132.337
58.54000 130.189
58.55000 128.133
58.56000 128.491
58.57000 129.916
58.58000 131.261
58.59000 133.638
58.60000 136.108
58.61000 138.459
58.62000 139.913
58.63000 141.179
58.64000 141.727
58.65000 138.734
58.66000 135.261
58.67000 132.542
58.68000 134.625
58.69000 136.598
58.70000 137.596
58.71000 136.340
58.72000 134.994
58.73000 134.233
58.74000 134.409
58.75000 134.597
58.76000 134.694
58.77000 135.075
58.78000 135.328
58.79000 134.980
58.80000 134.203
58.81000 133.403
58.82000 131.801
58.83000 129.808
58.84000 127.908
58.85000 127.784
58.86000 128.228
58.87000 129.305
58.88000 135.891
58.89000 143.754
58.90000 149.750
58.91000 145.438
58.92000 139.548
58.93000 134.823
58.94000 131.889
58.95000 129.649
58.96000 128.406
58.97000 129.715
58.98000 131.151
58.99000 131.300
59.00000 129.169
59.01000 126.995
59.02000 125.807
59.03000 130.561
59.04000 133.835
59.05000 136.916
59.06000 139.846
59.07000 142.659
59.08000 140.184
59.09000 134.849
59.10000 129.717
59.11000 132.118
59.12000 137.016
59.13000 141.232
59.14000 138.628
59.15000 134.264
59.16000 130.856
59.17000 133.383
59.18000 136.933
59.19000 139.845
59.20000 142.664
59.21000 144.969
59.22000 145.514
59.23000 141.082
59.24000 136.348
59.25000 134.457
59.26000 138.140
59.27000 141.969
59.28000 144.168
59.29000 138.166
59.30000 133.940
59.31000 131.268
59.32000 129.975
59.33000 128.701
59.34000 128.745
59.35000 129.578
59.36000 130.386
59.37000 131.824
59.38000 133.433
59.39000 135.202
59.40000 138.827
59.41000 142.985
59.42000 146.136
59.43000 142.229
59.44000 136.957
59.45000 132.540
59.46000 132.858
59.47000 133.612
59.48000 134.920
59.49000 137.966
59.50000 141.136
59.51000 142.684
59.52000 140.713
59.53000 138.621
59.54000 137.363
59.55000 133.875
59.56000 131.380
59.57000 131.856
59.58000 135.292
59.59000 138.712
59.60000 140.481
59.61000 141.151
59.62000 141.806
59.63000 138.826
59.64000 134.380
59.65000 130.403
59.66000 132.827
59.67000 137.282
59.68000 140.823
59.69000 137.069
59.70000 131.737
59.71000 127.183
59.72000 130.557
59.73000 134.342
59.74000 137.000
59.75000 135.746
59.76000 134.158
59.77000 132.856
59.78000 132.239
59.79000 131.653
59.80000 131.284
59.81000 135.112
59.82000 137.923
59.83000 140.073
59.84000 141.481
59.85000 142.873
59.86000 141.346
59.87000 137.659
59.88000 134.036
59.89000 136.101
59.90000 140.880
59.91000 145.180
59.92000 141.678
59.93000 135.435
59.94000 129.943
59.95000 131.314
59.96000 134.337
59.97000 136.967
59.98000 136.979
59.99000 136.632
60.00000 136.715
60.01000 138.451
60.02000 140.351
60.03000 140.351
60.04000 135.314
60.05000 130.007
60.06000 126.545
60.07000 133.180
60.08000 138.208
60.09000 140.472
60.10000 139.275
60.11000 138.070
60.12000 137.654
60.13000 137.887
60.14000 138.118
60.15000 135.155
60.16000 130.521
60.17000 126.065
60.18000 125.115
60.19000 125.528
60.20000 126.155
60.21000 129.046
60.22000 132.544
60.23000 135.638
60.24000 138.338
60.25000 140.609
60.26000 141.712
60.27000 137.808
60.28000 133.333
60.29000 130.594
60.30000 132.947
60.31000 135.629
60.32000 137.444
60.33000 132.352
60.34000 128.410
60.35000 127.366
60.36000 130.365
60.37000 133.389
60.38000 133.442
60.39000 130.749
60.40000 128.078
60.41000 128.068
60.42000 129.683
60.43000 131.196
60.44000 130.173
60.45000 128.061
60.46000 126.216
60.47000 127.658
60.48000 130.075
60.49000 132.247
60.50000 131.963
60.51000 131.283
60.52000 130.390
60.53000 128.476
60.54000 126.429
60.55000 124.898
60.56000 125.040
60.57000 125.311
60.58000 125.500
60.59000 124.894
60.60000 124.413
60.61000 123.651
60.62000 122.453
60.63000 121.250
60.64000 123.189
60.65000 128.393
60.66000 133.572
60.67000 134.911
60.68000 133.612
60.69000 132.285
60.70000 130.077
60.71000 127.451
60.72000 125.152
60.73000 127.603
60.74000 131.618
60.75000 135.276
60.76000 133.840
60.77000 131.553
60.78000 129.350
60.79000 127.597
60.80000 125.910
60.81000 125.486
60.82000 129.610
60.83000 134.142
60.84000 137.417
60.85000 130.993
60.86000 125.715
60.87000 124.325
60.88000 129.617
60.89000 135.025
60.90000 137.492
60.91000 136.531
60.92000 135.568
60.93000 135.675
60.94000 136.601
60.95000 137.477
60.96000 136.317
60.97000 134.087
60.98000 132.096
60.99000 134.267
61.00000 137.955
61.01000 141.359
61.02000 141.709
61.03000 141.338
61.04000 140.674
61.05000 138.256
61.06000 135.545
61.07000 133.513
61.08000 134.192
61.09000 135.154
61.10000 135.869
61.11000 138.634
61.12000 140.877
61.13000 142.729
61.14000 143.835
61.15000 144.924
61.16000 144.759
61.17000 142.960
61.18000 141.157
61.19000 142.532
61.20000 146.630
61.21000 150.653
61.22000 150.379
61.23000 147.603
61.24000 144.827
61.25000 142.052
61.26000 139.277
61.27000 136.684
61.28000 136.276
61.29000 136.457
61.30000 136.771
61.31000 137.981
61.32000 139.359
61.33000 140.536
61.34000 140.820
61.35000 140.998
61.36000 141.133
61.37000 143.592
61.38000 145.658
61.39000 145.685
61.40000 141.418
61.41000 137.013
61.42000 135.291
61.43000 137.455
61.44000 139.652
61.45000 140.342
61.46000 139.581
61.47000 138.885
61.48000 143.782
61.49000 152.290
61.50000 160.655
61.51000 165.203
61.52000 168.053
61.53000 170.744
61.54000 179.044
61.55000 188.249
61.56000 197.724
61.57000 209.270
61.58000 221.251
61.59000 233.092
61.60000 244.242
61.61000 255.298
61.62000 263.973
61.63000 272.876
61.64000 280.011
61.65000 285.734
61.66000 288.168
61.67000 290.467
61.68000 290.688
61.69000 287.566
61.70000 284.398
61.71000 282.751
61.72000 282.226
61.73000 281.851
61.74000 278.425
61.75000 272.808
61.76000 267.165
61.77000 260.620
61.78000 253.631
61.79000 246.964
61.80000 232.525
61.81000 216.663
61.82000 201.410
61.83000 191.512
61.84000 182.864
61.85000 174.602
61.86000 168.479
61.87000 162.687
61.88000 158.033
61.89000 157.159
61.90000 156.741
61.91000 154.501
61.92000 147.567
61.93000 140.395
61.94000 136.686
61.95000 139.151
61.96000 141.738
61.97000 143.157
61.98000 138.704
61.99000 135.642
62.00000 135.892
62.01000 138.793
62.02000 141.664
62.03000 143.158
62.04000 143.901
62.05000 144.617
62.06000 144.979
62.07000 145.195
62.08000 145.110
62.09000 141.994
62.10000 138.089
62.11000 134.367
62.12000 131.792
62.13000 129.416
62.14000 127.464
62.15000 130.351
62.16000 133.158
62.17000 135.196
62.18000 135.044
62.19000 134.758
62.20000 133.390
62.21000 129.888
62.22000 126.329
62.23000 124.279
62.24000 131.099
62.25000 135.908
62.26000 141.230
62.27000 147.013
62.28000 152.667
62.29000 149.823
62.30000 141.847
62.31000 134.108
62.32000 138.095
62.33000 146.515
62.34000 154.302
62.35000 154.647
62.36000 152.844
62.37000 150.839
62.38000 147.402
62.39000 143.685
62.40000 140.566
62.41000 141.085
62.42000 141.896
62.43000 142.090
62.44000 140.339
62.45000 138.445
62.46000 137.494
62.47000 138.602
62.48000 139.782
62.49000 140.494
62.50000 138.842
62.51000 137.650
62.52000 137.838
62.53000 139.412
62.54000 140.965
62.55000 140.351
62.56000 138.284
62.57000 136.264
62.58000 135.781
62.59000 135.997
62.60000 136.569
62.61000 142.065
62.62000 149.135
62.63000 154.871
62.64000 149.868
62.65000 142.524
62.66000 136.243
62.67000 141.227
62.68000 146.785
62.69000 150.616
62.70000 148.415
62.71000 145.695
62.72000 142.717
62.73000 139.114
62.74000 135.483
62.75000 133.200
62.76000 139.119
62.77000 143.492
62.78000 147.137
62.79000 149.959
62.80000 152.753
62.81000 150.383
62.82000 144.160
62.83000 138.045
62.84000 139.875
62.85000 145.565
62.86000 150.841
62.87000 149.287
62.88000 145.316
62.89000 141.655
62.90000 140.852
62.91000 140.743
62.92000 140.649
62.93000 144.272
62.94000 147.878
62.95000 150.729
62.96000 150.646
62.97000 150.270
62.98000 149.130
62.99000 145.950
63.00000 142.659
63.01000 140.507
63.02000 138.466
63.03000 136.968
63.04000 137.222
63.05000 139.685
63.06000 142.154
63.07000 144.137
63.08000 145.717
63.09000 147.278
63.10000 148.087
63.11000 148.462
63.12000 148.870
63.13000 149.944
63.14000 151.280
63.15000 152.423
63.16000 151.502
63.17000 150.025
63.18000 148.717
63.19000 146.210
63.20000 143.854
63.21000 142.206
63.22000 143.616
63.23000 145.379
63.24000 146.260
63.25000 144.537
63.26000 142.645
63.27000 141.361
63.28000 145.771
63.29000 149.186
63.30000 149.326
63.31000 144.865
63.32000 140.373
63.33000 138.429
63.34000 138.861
63.35000 139.290
63.36000 142.690
63.37000 147.862
63.38000 152.884
63.39000 154.204
63.40000 153.920
63.41000 153.436
63.42000 150.440
63.43000 146.692
63.44000 143.323
63.45000 141.812
63.46000 140.818
63.47000 139.509
63.48000 136.675
63.49000 133.642
63.50000 132.389
63.51000 136.959
63.52000 141.982
63.53000 145.506
63.54000 156.118
63.55000 164.356
63.56000 166.093
63.57000 157.679
63.58000 149.146
63.59000 147.340
63.60000 152.581
63.61000 157.799
63.62000 158.543
63.63000 156.198
63.64000 153.864
63.65000 151.877
63.66000 150.055
63.67000 148.416
63.68000 149.458
63.69000 151.388
63.70000 153.149
63.71000 154.878
63.72000 156.404
63.73000 157.487
63.74000 156.186
63.75000 154.528
63.76000 153.195
63.77000 153.039
63.78000 152.990
63.79000 152.954
63.80000 151.609
63.81000 150.529
63.82000 151.141
63.83000 154.684
63.84000 158.279
63.85000 160.841
63.86000 162.190
63.87000 163.534
63.88000 160.237
63.89000 153.381
63.90000 146.757
63.91000 149.949
63.92000 158.337
63.93000 166.087
63.94000 162.569
63.95000 154.919
63.96000 147.850
63.97000 150.409
63.98000 154.883
63.99000 158.795
64.00000 159.302
64.01000 159.237
64.02000 158.417
64.03000 154.555
64.04000 150.372
64.05000 147.253
64.06000 150.878
64.07000 154.006
64.08000 156.251
64.09000 156.800
64.10000 157.307
64.11000 156.307
64.12000 153.331
64.13000 150.349
64.14000 148.834
64.15000 148.591
64.16000 148.408
64.17000 151.836
64.18000 157.382
64.19000 162.598
64.20000 160.719
64.21000 155.961
64.22000 151.512
64.23000 149.635
64.24000 148.585
64.25000 148.274
64.26000 153.016
64.27000 158.711
64.28000 163.162
64.29000 162.031
64.30000 160.225
64.31000 158.841
64.32000 163.829
64.33000 168.119
64.34000 170.417
64.35000 168.489
64.36000 166.422
64.37000 167.272
64.38000 172.377
64.39000 177.518
64.40000 176.606
64.41000 169.816
64.42000 163.102
64.43000 163.420
64.44000 168.311
64.45000 173.022
64.46000 172.854
64.47000 170.499
64.48000 168.273
64.49000 168.354
64.50000 169.085
64.51000 169.654
64.52000 168.956
64.53000 167.990
64.54000 167.318
64.55000 168.120
64.56000 169.124
64.57000 169.914
64.58000 167.263
64.59000 164.914
64.60000 163.958
64.61000 166.268
64.62000 168.714
64.63000 169.220
64.64000 166.580
64.65000 163.897
64.66000 162.496
64.67000 168.906
64.68000 173.247
64.69000 177.925
64.70000 182.846
64.71000 187.619
64.72000 187.206
64.73000 184.219
64.74000 181.368
64.75000 179.618
64.76000 178.344
64.77000 177.038
64.78000 175.447
64.79000 173.788
64.80000 172.014
64.81000 169.592
64.82000 167.070
64.83000 165.040
64.84000 175.766
64.85000 185.462
64.86000 192.079
64.87000 190.712
64.88000 188.934
64.89000 187.843
64.90000 187.989
64.91000 188.160
64.92000 188.253
64.93000 188.050
64.94000 187.901
64.95000 184.775
64.96000 179.250
64.97000 173.905
64.98000 177.059
64.99000 184.879
65.00000 192.412
65.01000 194.001
65.02000 193.372
65.03000 192.991
65.04000 195.151
65.05000 197.976
65.06000 200.710
65.07000 202.869
65.08000 204.928
65.09000 206.622
65.10000 201.389
65.11000 196.457
65.12000 194.302
65.13000 200.117
65.14000 206.430
65.15000 211.353
65.16000 213.515
65.17000 215.601
65.18000 216.807
65.19000 224.690
65.20000 230.239
65.21000 230.781
65.22000 226.806
65.23000 222.896
65.24000 223.330
65.25000 226.409
65.26000 229.397
65.27000 231.772
65.28000 233.782
65.29000 236.286
65.30000 244.684
65.31000 254.793
65.32000 263.758
65.33000 264.550
65.34000 263.734
65.35000 263.049
65.36000 269.747
65.37000 276.106
65.38000 283.675
65.39000 295.085
65.40000 306.781
65.41000 314.744
65.42000 314.499
65.43000 313.960
65.44000 313.634
65.45000 323.140
65.46000 329.986
65.47000 337.516
65.48000 345.738
65.49000 353.930
65.50000 358.873
65.51000 361.620
65.52000 364.305
65.53000 367.497
65.54000 370.781
65.55000 374.228
65.56000 379.961
65.57000 386.428
65.58000 392.647
65.59000 396.846
65.60000 400.601
65.61000 403.817
65.62000 421.626
65.63000 438.428
65.64000 452.976
65.65000 459.590
65.66000 465.514
65.67000 478.482
65.68000 508.583
65.69000 539.455
65.70000 558.929
65.71000 599.261
65.72000 628.707
65.73000 677.121
65.74000 747.106
65.75000 817.034
65.76000 871.146
65.77000 913.370
65.78000 954.890
65.79000 998.430
65.80000 1041.547
65.81000 1083.135
65.82000 1099.145
65.83000 1106.041
65.84000 1113.670
65.85000 1128.140
65.86000 1144.284
65.87000 1158.359
65.88000 1153.630
65.89000 1146.974
65.90000 1136.465
65.91000 1110.895
65.92000 1083.803
65.93000 1053.360
65.94000 1013.906
65.95000 973.954
65.96000 947.754
65.97000 874.205
65.98000 819.328
65.99000 758.425
66.00000 689.863
66.01000 621.294
66.02000 562.783
66.03000 512.710
66.04000 463.223
66.05000 431.009
66.06000 409.178
66.07000 387.794
66.08000 375.505
66.09000 366.800
66.10000 357.943
66.11000 347.457
66.12000 336.529
66.13000 326.841
66.14000 329.240
66.15000 333.230
66.16000 334.338
66.17000 322.916
66.18000 310.037
66.19000 300.669
66.20000 301.745
66.21000 303.514
66.22000 304.717
66.23000 312.263
66.24000 318.040
66.25000 324.229
66.26000 331.003
66.27000 337.782
66.28000 349.623
66.29000 366.221
66.30000 382.691
66.31000 391.160
66.32000 394.519
66.33000 398.256
66.34000 411.564
66.35000 429.043
66.36000 446.225
66.37000 459.679
66.38000 472.010
66.39000 483.108
66.40000 475.463
66.41000 465.400
66.42000 457.560
66.43000 460.511
66.44000 464.893
66.45000 467.139
66.46000 462.347
66.47000 457.001
66.48000 453.242
66.49000 442.783
66.50000 434.661
66.51000 425.985
66.52000 416.437
66.53000 406.879
66.54000 394.270
66.55000 378.439
66.56000 362.678
66.57000 354.649
66.58000 352.071
66.59000 349.489
66.60000 346.752
66.61000 343.941
66.62000 340.918
66.63000 334.750
66.64000 327.531
66.65000 320.941
66.66000 318.231
66.67000 316.613
66.68000 315.075
66.69000 313.978
66.70000 312.946
66.71000 311.785
66.72000 310.151
66.73000 308.473
66.74000 307.256
66.75000 307.092
66.76000 307.005
66.77000 309.560
66.78000 316.725
66.79000 323.973
66.80000 326.428
66.81000 323.210
66.82000 319.990
66.83000 318.370
66.84000 318.003
66.85000 317.628
66.86000 316.926
66.87000 316.050
66.88000 315.429
66.89000 319.362
66.90000 324.979
66.91000 330.172
66.92000 335.305
66.93000 339.901
66.94000 343.603
66.95000 341.849
66.96000 339.170
66.97000 337.682
66.98000 341.033
66.99000 344.898
67.00000 347.786
67.01000 354.022
67.02000 359.037
67.03000 361.495
67.04000 359.010
67.05000 356.400
67.06000 355.317
67.07000 356.253
67.08000 357.198
67.09000 358.140
67.10000 359.078
67.11000 360.003
67.12000 360.129
67.13000 359.783
67.14000 359.551
67.15000 361.816
67.16000 365.101
67.17000 368.176
67.18000 367.746
67.19000 366.458
67.20000 366.252
67.21000 373.516
67.22000 382.201
67.23000 389.214
67.24000 388.662
67.25000 387.189
67.26000 386.058
67.27000 395.622
67.28000 403.779
67.29000 405.163
67.30000 392.073
67.31000 378.502
67.32000 374.408
67.33000 384.252
67.34000 394.220
67.35000 401.598
67.36000 406.439
67.37000 411.227
67.38000 410.998
67.39000 407.482
67.40000 403.974
67.41000 400.707
67.42000 397.548
67.43000 394.560
67.44000 395.161
67.45000 396.746
67.46000 399.057
67.47000 407.057
67.48000 416.268
67.49000 423.321
67.50000 419.473
67.51000 414.113
67.52000 409.892
67.53000 412.937
67.54000 415.862
67.55000 421.781
67.56000 434.777
67.57000 448.072
67.58000 454.274
67.59000 448.892
67.60000 443.345
67.61000 440.438
67.62000 433.197
67.63000 428.332
67.64000 430.231
67.65000 437.059
67.66000 443.763
67.67000 446.000
67.68000 446.005
67.69000 446.010
67.70000 450.573
67.71000 456.283
67.72000 462.023
67.73000 468.039
67.74000 474.120
67.75000 480.227
67.76000 486.478
67.77000 492.752
67.78000 497.810
67.79000 486.192
67.80000 475.444
67.81000 472.275
67.82000 488.911
67.83000 506.581
67.84000 514.455
67.85000 504.602
67.86000 494.384
67.87000 488.738
67.88000 489.242
67.89000 489.596
67.90000 488.605
67.91000 486.521
67.92000 484.680
67.93000 494.618
67.94000 511.071
67.95000 526.927
67.96000 535.188
67.97000 540.217
67.98000 545.026
67.99000 547.546
68.00000 549.463
68.01000 551.051
68.02000 550.549
68.03000 549.677
68.04000 548.958
68.05000 543.412
68.06000 538.403
68.07000 535.596
68.08000 539.155
68.09000 543.115
68.10000 548.150
68.11000 555.337
68.12000 562.584
68.13000 566.788
68.14000 571.735
68.15000 575.208
68.16000 576.136
68.17000 574.751
68.18000 573.494
68.19000 581.272
68.20000 594.588
68.21000 607.520
68.22000 616.129
68.23000 622.564
68.24000 628.493
68.25000 628.331
68.26000 626.386
68.27000 624.454
68.28000 622.618
68.29000 620.802
68.30000 619.274
68.31000 630.279
68.32000 640.792
68.33000 651.691
68.34000 663.823
68.35000 676.048
68.36000 686.516
68.37000 693.091
68.38000 699.524
68.39000 703.428
68.40000 705.760
68.41000 707.412
68.42000 710.254
68.43000 714.312
68.44000 718.394
68.45000 725.207
68.46000 733.878
68.47000 742.358
68.48000 758.636
68.49000 777.747
68.50000 796.332
68.51000 807.457
68.52000 816.162
68.53000 826.012
68.54000 845.263
68.55000 866.594
68.56000 884.888
68.57000 907.278
68.58000 926.695
68.59000 949.497
68.60000 984.305
68.61000 1020.171
68.62000 1057.406
68.63000 1097.997
68.64000 1138.741
68.65000 1164.516
68.66000 1265.675
68.67000 1339.905
68.68000 1395.555
68.69000 1429.907
68.70000 1464.315
68.71000 1515.833
68.72000 1580.310
68.73000 1643.734
68.74000 1706.779
68.75000 1767.605
68.76000 1827.528
68.77000 1872.132
68.78000 1911.239
68.79000 1953.555
68.80000 2026.090
68.81000 2106.074
68.82000 2175.894
68.83000 2284.585
68.84000 2383.037
68.85000 2499.209
68.86000 2685.177
68.87000 2878.272
68.88000 3122.340
68.89000 3504.490
68.90000 3894.368
68.91000 4150.733
68.92000 5581.477
68.93000 6654.816
68.94000 8396.063
68.95000 10992.884
68.96000 13594.510
68.97000 17135.217
68.98000 21469.891
68.99000 25755.111
69.00000 30682.449
69.01000 35851.484
69.02000 40975.254
69.03000 45164.391
69.04000 48982.523
69.05000 52658.957
69.06000 54792.168
69.07000 56502.734
69.08000 58020.715
69.09000 58752.059
69.10000 59260.184
69.11000 59784.926
69.12000 60382.527
69.13000 60988.684
69.14000 61603.941
69.15000 62246.500
69.16000 62890.895
69.17000 63330.121
69.18000 63585.383
69.19000 63771.914
69.20000 63074.566
69.21000 61116.133
69.22000 59147.984
69.23000 56299.977
69.24000 52618.352
69.25000 48963.879
69.26000 45606.277
69.27000 42489.746
69.28000 39410.027
69.29000 37278.133
69.30000 35562.238
69.31000 33895.363
69.32000 32852.641
69.33000 31999.480
69.34000 31230.764
69.35000 30377.133
69.36000 29612.840
69.37000 28752.684
69.38000 27423.623
69.39000 26031.797
69.40000 24446.279
69.41000 22217.801
69.42000 19938.180
69.43000 18331.523
69.44000 14958.699
69.45000 12347.763
69.46000 10093.172
69.47000 8403.417
69.48000 6720.775
69.49000 5444.312
69.50000 4600.500
69.51000 3760.355
69.52000 3165.681
69.53000 2748.753
69.54000 2337.151
69.55000 2101.802
69.56000 1952.004
69.57000 1804.572
69.58000 1692.826
69.59000 1593.082
69.60000 1501.941
69.61000 1437.084
69.62000 1384.854
69.63000 1335.768
69.64000 1303.903
69.65000 1274.649
69.66000 1243.065
69.67000 1202.901
69.68000 1161.940
69.69000 1132.157
69.70000 1084.401
69.71000 1046.978
69.72000 1016.456
69.73000 998.063
69.74000 979.896
69.75000 958.429
69.76000 933.022
69.77000 907.657
69.78000 886.248
69.79000 868.044
69.80000 850.056
69.81000 841.587
69.82000 838.232
69.83000 834.335
69.84000 820.615
69.85000 803.238
69.86000 787.155
69.87000 770.183
69.88000 754.723
69.89000 741.168
69.90000 739.351
69.91000 739.540
69.92000 736.767
69.93000 721.879
69.94000 705.689
69.95000 693.570
69.96000 696.113
69.97000 698.781
69.98000 693.558
69.99000 672.976
70.00000 651.997
