20.00000 570.329
20.01000 566.118
20.02000 561.307
20.03000 559.049
20.04000 566.747
20.05000 575.447
20.06000 581.832
20.07000 581.573
20.08000 581.104
20.09000 580.257
20.10000 578.741
20.11000 577.211
20.12000 574.894
20.13000 571.655
20.14000 568.423
20.15000 569.997
20.16000 575.158
20.17000 580.151
20.18000 578.979
20.19000 574.703
20.20000 570.432
20.21000 566.245
20.22000 562.086
20.23000 558.291
20.24000 568.099
20.25000 579.543
20.26000 588.076
20.27000 581.275
20.28000 572.245
20.29000 565.555
20.30000 566.973
20.31000 569.081
20.32000 570.576
20.33000 585.600
20.34000 597.450
20.35000 600.803
20.36000 590.763
20.37000 580.557
20.38000 574.111
20.39000 571.536
20.40000 568.976
20.41000 570.271
20.42000 574.092
20.43000 577.816
20.44000 578.903
20.45000 578.805
20.46000 578.379
20.47000 573.786
20.48000 567.927
20.49000 562.666
20.50000 553.854
20.51000 545.522
20.52000 540.146
20.53000 548.504
20.54000 558.591
20.55000 565.526
20.56000 562.730
20.57000 559.245
20.58000 556.865
20.59000 557.694
20.60000 558.389
20.61000 557.579
20.62000 554.661
20.63000 551.733
20.64000 553.427
20.65000 559.298
20.66000 565.110
20.67000 571.796
20.68000 578.848
20.69000 585.596
20.70000 585.936
20.71000 583.703
20.72000 581.419
20.73000 578.595
20.74000 575.624
20.75000 573.004
20.76000 567.525
20.77000 562.362
20.78000 559.705
20.79000 567.345
20.80000 576.099
20.81000 582.178
20.82000 580.888
20.83000 579.171
20.84000 578.045
20.85000 566.724
20.86000 558.228
20.87000 553.857
20.88000 554.598
20.89000 555.345
20.90000 553.254
20.91000 548.905
20.92000 544.622
20.93000 550.915
20.94000 562.454
20.95000 573.492
20.96000 576.062
20.97000 575.596
20.98000 575.391
20.99000 577.560
21.00000 580.300
21.01000 582.670
21.02000 579.959
21.03000 576.986
21.04000 573.438
21.05000 567.796
21.06000 561.962
21.07000 557.206
21.08000 555.102
21.09000 553.120
21.10000 551.877
21.11000 560.444
21.12000 566.744
21.13000 570.244
21.14000 570.685
21.15000 571.152
21.16000 575.249
21.17000 581.907
21.18000 588.422
21.19000 589.112
21.20000 587.131
21.21000 584.968
21.22000 580.277
21.23000 574.777
21.24000 569.933
21.25000 570.214
21.26000 571.585
21.27000 572.746
21.28000 580.447
21.29000 587.638
21.30000 592.461
21.31000 589.591
21.32000 586.129
21.33000 583.265
21.34000 581.715
21.35000 580.212
21.36000 579.313
21.37000 574.611
21.38000 571.249
21.39000 569.625
21.40000 569.665
21.41000 569.665
21.42000 566.600
21.43000 561.615
21.44000 556.775
21.45000 557.515
21.46000 560.455
21.47000 564.122
21.48000 576.181
21.49000 590.631
21.50000 602.929
21.51000 600.648
21.52000 595.636
21.53000 591.482
21.54000 589.607
21.55000 588.277
21.56000 585.665
21.57000 579.336
21.58000 572.772
21.59000 574.735
21.60000 593.424
21.61000 612.554
21.62000 623.420
21.63000 627.414
21.64000 630.189
21.65000 640.396
21.66000 656.860
21.67000 673.257
21.68000 686.294
21.69000 697.455
21.70000 708.198
21.71000 719.222
21.72000 729.664
21.73000 740.383
21.74000 753.803
21.75000 767.907
21.76000 783.154
21.77000 805.161
21.78000 828.278
21.79000 846.975
21.80000 871.247
21.81000 891.445
21.82000 912.498
21.83000 935.765
21.84000 959.144
21.85000 982.653
21.86000 1006.386
21.87000 1030.123
21.88000 1042.858
21.89000 1033.543
21.90000 1027.247
21.91000 1036.608
21.92000 1057.619
21.93000 1078.373
21.94000 1090.033
21.95000 1097.168
21.96000 1103.967
21.97000 1094.007
21.98000 1079.549
21.99000 1066.566
22.00000 1065.894
22.01000 1067.986
22.02000 1066.016
22.03000 1042.945
22.04000 1016.852
22.05000 996.300
22.06000 976.362
22.07000 960.424
22.08000 940.174
22.09000 909.960
22.10000 879.345
22.11000 853.361
22.12000 834.585
22.13000 815.893
22.14000 806.475
22.15000 762.356
22.16000 732.973
22.17000 713.740
22.18000 701.208
22.19000 688.840
22.20000 680.793
22.21000 674.666
22.22000 668.894
22.23000 664.229
22.24000 660.264
22.25000 655.266
22.26000 642.809
22.27000 628.874
22.28000 615.665
22.29000 605.790
22.30000 596.328
22.31000 589.086
22.32000 583.920
22.33000 579.957
22.34000 577.670
22.35000 578.843
22.36000 580.121
22.37000 578.438
22.38000 572.664
22.39000 566.867
22.40000 563.471
22.41000 562.215
22.42000 560.995
22.43000 561.920
22.44000 564.106
22.45000 566.149
22.46000 565.238
22.47000 563.156
22.48000 561.220
22.49000 555.468
22.50000 549.352
22.51000 545.580
22.52000 556.520
22.53000 570.024
22.54000 579.333
22.55000 571.615
22.56000 562.088
22.57000 555.018
22.58000 555.748
22.59000 556.658
22.60000 556.533
22.61000 554.505
22.62000 552.436
22.63000 550.677
22.64000 549.296
22.65000 547.919
22.66000 546.403
22.67000 544.786
22.68000 543.117
22.69000 539.284
22.70000 534.317
22.71000 529.296
22.72000 523.369
22.73000 517.122
22.74000 511.393
22.75000 511.117
22.76000 512.023
22.77000 513.940
22.78000 521.420
22.79000 529.747
22.80000 537.866
22.81000 545.236
22.82000 552.537
22.83000 557.776
22.84000 546.130
22.85000 536.646
22.86000 529.611
22.87000 526.593
22.88000 523.634
22.89000 524.554
22.90000 529.653
22.91000 534.729
22.92000 541.014
22.93000 548.062
22.94000 554.687
22.95000 548.646
22.96000 536.689
22.97000 525.380
22.98000 522.875
22.99000 523.151
23.00000 523.400
23.01000 527.137
23.02000 531.063
23.03000 533.736
23.04000 530.331
23.05000 526.123
23.06000 522.281
23.07000 519.616
23.08000 517.040
23.09000 515.257
23.10000 520.287
23.11000 524.247
23.12000 528.829
23.13000 534.318
23.14000 539.813
23.15000 536.580
23.16000 525.111
23.17000 513.738
23.18000 514.228
23.19000 521.913
23.20000 529.373
23.21000 531.694
23.22000 531.871
23.23000 532.439
23.24000 537.444
23.25000 543.698
23.26000 549.249
23.27000 535.655
23.28000 520.808
23.29000 508.577
23.30000 507.549
23.31000 507.799
23.32000 508.530
23.33000 510.642
23.34000 512.840
23.35000 514.302
23.36000 513.934
23.37000 513.627
23.38000 517.310
23.39000 526.146
23.40000 534.979
23.41000 532.790
23.42000 521.445
23.43000 510.251
23.44000 504.332
23.45000 501.399
23.46000 498.972
23.47000 505.721
23.48000 515.888
23.49000 525.773
23.50000 532.952
23.51000 539.454
23.52000 545.119
23.53000 539.717
23.54000 533.569
23.55000 527.637
23.56000 522.521
23.57000 517.485
23.58000 514.569
23.59000 517.073
23.60000 519.848
23.61000 521.616
23.62000 519.307
23.63000 517.575
23.64000 520.146
23.65000 527.623
23.66000 535.052
23.67000 533.412
23.68000 525.110
23.69000 516.967
23.70000 518.556
23.71000 524.693
23.72000 530.530
23.73000 531.935
23.74000 531.868
23.75000 531.601
23.76000 529.700
23.77000 527.438
23.78000 525.505
23.79000 511.148
23.80000 497.580
23.81000 488.140
23.82000 492.658
23.83000 498.319
23.84000 505.901
23.85000 517.872
23.86000 530.013
23.87000 537.401
23.88000 533.246
23.89000 530.187
23.90000 520.748
23.91000 504.922
23.92000 489.254
23.93000 488.083
23.94000 496.360
23.95000 504.419
23.96000 507.390
23.97000 508.092
23.98000 509.283
23.99000 516.450
24.00000 525.388
24.01000 532.393
24.02000 525.664
24.03000 516.250
24.04000 508.385
24.05000 509.313
24.06000 510.974
24.07000 511.516
24.08000 508.688
24.09000 505.631
24.10000 503.886
24.11000 504.814
24.12000 505.820
24.13000 506.402
24.14000 518.627
24.15000 527.237
24.16000 529.375
24.17000 525.825
24.18000 522.264
24.19000 518.083
24.20000 513.543
24.21000 509.159
24.22000 502.102
24.23000 494.466
24.24000 487.673
24.25000 489.568
24.26000 493.754
24.27000 497.569
24.28000 499.085
24.29000 500.206
24.30000 501.120
24.31000 507.643
24.32000 513.456
24.33000 516.662
24.34000 512.856
24.35000 508.664
24.36000 506.825
24.37000 509.269
24.38000 511.802
24.39000 513.188
24.40000 517.662
24.41000 520.724
24.42000 519.457
24.43000 514.833
24.44000 510.159
24.45000 503.491
24.46000 495.794
24.47000 488.433
24.48000 486.647
24.49000 486.800
24.50000 487.584
24.51000 493.922
24.52000 501.559
24.53000 507.484
24.54000 504.117
24.55000 499.355
24.56000 495.569
24.57000 500.065
24.58000 504.278
24.59000 505.202
24.60000 498.230
24.61000 490.913
24.62000 485.882
24.63000 484.556
24.64000 483.281
24.65000 482.624
24.66000 487.904
24.67000 491.459
24.68000 494.968
24.69000 498.446
24.70000 501.764
24.71000 500.425
24.72000 496.938
24.73000 493.640
24.74000 500.781
24.75000 510.337
24.76000 519.141
24.77000 522.245
24.78000 524.169
24.79000 523.518
24.80000 510.559
24.81000 495.996
24.82000 484.738
24.83000 492.461
24.84000 499.700
24.85000 502.575
24.86000 496.091
24.87000 489.294
24.88000 486.025
24.89000 487.834
24.90000 489.682
24.91000 496.631
24.92000 508.322
24.93000 519.810
24.94000 517.219
24.95000 506.029
24.96000 495.119
24.97000 490.470
24.98000 488.400
24.99000 486.466
25.00000 494.507
25.01000 504.316
25.02000 512.100
25.03000 506.574
25.04000 498.623
25.05000 492.933
25.06000 496.802
25.07000 501.742
25.08000 505.447
25.09000 507.313
25.10000 508.683
25.11000 509.597
25.12000 509.637
25.13000 509.656
25.14000 506.313
25.15000 498.686
25.16000 491.053
25.17000 490.796
25.18000 496.562
25.19000 502.200
25.20000 501.939
25.21000 498.469
25.22000 495.419
25.23000 499.847
25.24000 507.026
25.25000 513.642
25.26000 505.706
25.27000 495.387
25.28000 486.761
25.29000 487.864
25.30000 490.521
25.31000 493.273
25.32000 496.382
25.33000 499.525
25.34000 501.807
25.35000 495.356
25.36000 490.070
25.37000 487.835
25.38000 490.805
25.39000 493.863
25.40000 494.087
25.41000 491.122
25.42000 488.166
25.43000 482.406
25.44000 474.680
25.45000 467.384
25.46000 474.313
25.47000 488.146
25.48000 500.854
25.49000 497.275
25.50000 488.349
25.51000 480.245
25.52000 484.303
25.53000 490.234
25.54000 495.514
25.55000 497.508
25.56000 499.045
25.57000 500.097
25.58000 499.531
25.59000 498.835
25.60000 498.347
25.61000 491.367
25.62000 485.901
25.63000 483.639
25.64000 486.238
25.65000 488.888
25.66000 491.779
25.67000 494.908
25.68000 498.015
25.69000 497.007
25.70000 493.409
25.71000 489.849
25.72000 487.235
25.73000 485.032
25.74000 482.838
25.75000 480.760
25.76000 478.715
25.77000 476.890
25.78000 474.850
25.79000 473.039
25.80000 472.444
25.81000 477.280
25.82000 482.768
25.83000 486.228
25.84000 483.652
25.85000 480.675
25.86000 478.667
25.87000 474.791
25.88000 471.868
25.89000 476.628
25.90000 491.730
25.91000 506.871
25.92000 508.613
25.93000 498.740
25.94000 488.980
25.95000 484.651
25.96000 483.463
25.97000 482.543
25.98000 486.881
25.99000 493.256
26.00000 498.724
26.01000 495.004
26.02000 488.893
26.03000 483.533
26.04000 490.086
26.05000 497.446
26.06000 501.423
26.07000 492.015
26.08000 481.233
26.09000 476.630
26.10000 488.438
26.11000 501.130
26.12000 509.341
26.13000 500.710
26.14000 494.151
26.15000 489.872
26.16000 488.305
26.17000 486.738
26.18000 483.779
26.19000 479.753
26.20000 475.796
26.21000 484.499
26.22000 499.161
26.23000 512.775
26.24000 509.809
26.25000 501.114
26.26000 493.142
26.27000 491.420
26.28000 491.141
26.29000 490.900
26.30000 491.598
26.31000 492.305
26.32000 491.526
26.33000 485.515
26.34000 479.050
26.35000 472.838
26.36000 467.226
26.37000 461.640
26.38000 458.186
26.39000 470.443
26.40000 479.398
26.41000 485.153
26.42000 487.558
26.43000 489.941
26.44000 489.936
26.45000 488.311
26.46000 486.725
26.47000 481.115
26.48000 473.996
26.49000 467.200
26.50000 464.605
26.51000 463.305
26.52000 462.930
26.53000 469.453
26.54000 477.383
26.55000 484.059
26.56000 487.044
26.57000 489.139
26.58000 488.943
26.59000 481.572
26.60000 473.680
26.61000 466.933
26.62000 462.609
26.63000 458.363
26.64000 455.864
26.65000 465.813
26.66000 472.894
26.67000 473.019
26.68000 466.760
26.69000 460.596
26.70000 460.797
26.71000 464.835
26.72000 468.746
26.73000 470.685
26.74000 471.759
26.75000 473.181
26.76000 478.410
26.77000 484.684
26.78000 489.129
26.79000 481.725
26.80000 472.194
26.81000 464.354
26.82000 464.685
26.83000 465.698
26.84000 464.966
26.85000 459.364
26.86000 453.473
26.87000 452.899
26.88000 462.378
26.89000 472.094
26.90000 477.515
26.91000 467.177
26.92000 460.011
26.93000 461.127
26.94000 468.939
26.95000 476.628
26.96000 478.848
26.97000 478.129
26.98000 477.440
26.99000 478.571
27.00000 480.247
27.01000 482.022
27.02000 484.717
27.03000 487.637
27.04000 489.252
27.05000 483.479
27.06000 476.543
27.07000 470.980
27.08000 477.494
27.09000 483.686
27.10000 486.848
27.11000 482.454
27.12000 477.700
27.13000 475.035
27.14000 475.887
27.15000 476.796
27.16000 477.274
27.17000 483.563
27.18000 487.785
27.19000 485.220
27.20000 477.799
27.21000 470.373
27.22000 462.776
27.23000 455.097
27.24000 447.807
27.25000 453.472
27.26000 462.579
27.27000 470.171
27.28000 465.704
27.29000 458.637
27.30000 452.871
27.31000 453.601
27.32000 455.219
27.33000 456.482
27.34000 467.824
27.35000 477.502
27.36000 480.994
27.37000 470.706
27.38000 459.911
27.39000 457.748
27.40000 468.521
27.41000 479.419
27.42000 483.395
27.43000 480.638
27.44000 477.875
27.45000 474.615
27.46000 471.040
27.47000 467.543
27.48000 465.949
27.49000 465.169
27.50000 464.437
27.51000 462.429
27.52000 460.263
27.53000 458.484
27.54000 459.369
27.55000 460.760
27.56000 463.152
27.57000 469.952
27.58000 477.272
27.59000 482.820
27.60000 471.807
27.61000 462.314
27.62000 459.040
27.63000 468.134
27.64000 477.567
27.65000 481.370
27.66000 477.692
27.67000 473.980
27.68000 470.309
27.69000 466.681
27.70000 463.194
27.71000 467.071
27.72000 475.113
27.73000 482.674
27.74000 481.033
27.75000 475.874
27.76000 471.096
27.77000 461.007
27.78000 450.707
27.79000 442.217
27.80000 444.614
27.81000 448.828
27.82000 451.587
27.83000 448.661
27.84000 445.161
27.85000 442.592
27.86000 450.411
27.87000 456.877
27.88000 459.866
27.89000 456.687
27.90000 453.389
27.91000 456.461
27.92000 467.010
27.93000 477.542
27.94000 475.195
27.95000 463.202
27.96000 451.549
27.97000 452.441
27.98000 459.660
27.99000 466.244
28.00000 462.988
28.01000 456.375
28.02000 450.339
28.03000 452.032
28.04000 455.097
28.05000 459.024
28.06000 467.505
28.07000 476.649
28.08000 481.424
28.09000 471.031
28.10000 459.344
28.11000 451.054
28.12000 453.080
28.13000 454.945
28.14000 458.843
28.15000 465.950
28.16000 473.097
28.17000 472.398
28.18000 463.602
28.19000 454.856
28.20000 453.212
28.21000 456.283
28.22000 459.252
28.23000 459.393
28.24000 458.261
28.25000 457.237
28.26000 457.576
28.27000 458.331
28.28000 459.009
28.29000 462.370
28.30000 465.784
28.31000 467.260
28.32000 459.722
28.33000 451.046
28.34000 445.964
28.35000 451.996
28.36000 458.817
28.37000 463.479
28.38000 458.997
28.39000 455.429
28.40000 453.501
28.41000 453.874
28.42000 454.264
28.43000 457.954
28.44000 464.631
28.45000 471.242
28.46000 466.335
28.47000 454.816
28.48000 443.870
28.49000 445.087
28.50000 451.196
28.51000 456.348
28.52000 451.249
28.53000 443.373
28.54000 436.421
28.55000 441.313
28.56000 447.344
28.57000 451.067
28.58000 445.285
28.59000 438.473
28.60000 434.355
28.61000 437.677
28.62000 441.430
28.63000 443.894
28.64000 438.364
28.65000 434.163
28.66000 435.612
28.67000 444.074
28.68000 452.535
28.69000 454.014
28.70000 449.921
28.71000 445.890
28.72000 446.045
28.73000 448.349
28.74000 450.107
28.75000 442.611
28.76000 431.792
28.77000 422.448
28.78000 426.541
28.79000 433.867
28.80000 440.210
28.81000 441.471
28.82000 441.874
28.83000 442.861
28.84000 445.988
28.85000 449.311
28.86000 451.063
28.87000 448.941
28.88000 446.641
28.89000 445.196
28.90000 442.229
28.91000 440.066
28.92000 440.917
28.93000 445.063
28.94000 449.172
28.95000 447.945
28.96000 442.949
28.97000 438.060
28.98000 438.290
28.99000 440.840
29.00000 443.573
29.01000 448.863
29.02000 454.971
29.03000 460.323
29.04000 459.753
29.05000 457.922
29.06000 456.370
29.07000 447.342
29.08000 438.930
29.09000 433.276
29.10000 436.606
29.11000 440.629
29.12000 443.605
29.13000 444.276
29.14000 444.864
29.15000 445.217
29.16000 433.446
29.17000 425.012
29.18000 427.712
29.19000 441.090
29.20000 454.286
29.21000 453.272
29.22000 443.344
29.23000 433.703
29.24000 434.556
29.25000 439.582
29.26000 443.912
29.27000 440.196
29.28000 434.183
29.29000 428.340
29.30000 423.655
29.31000 419.186
29.32000 415.481
29.33000 425.765
29.34000 435.603
29.35000 443.349
29.36000 445.023
29.37000 446.310
29.38000 445.468
29.39000 440.439
29.40000 435.300
29.41000 432.379
29.42000 440.551
29.43000 446.271
29.44000 447.840
29.45000 445.907
29.46000 443.961
29.47000 441.387
29.48000 438.462
29.49000 435.647
29.50000 437.943
29.51000 441.910
29.52000 444.835
29.53000 437.567
29.54000 427.713
29.55000 420.017
29.56000 425.108
29.57000 432.304
29.58000 438.127
29.59000 443.823
29.60000 448.448
29.61000 451.988
29.62000 452.714
29.63000 453.296
29.64000 452.648
29.65000 449.846
29.66000 447.004
29.67000 445.478
29.68000 445.845
29.69000 446.096
29.70000 446.203
29.71000 446.204
29.72000 446.289
29.73000 449.365
29.74000 453.931
29.75000 458.283
29.76000 456.904
29.77000 453.836
29.78000 452.348
29.79000 464.087
29.80000 478.799
29.81000 490.988
29.82000 490.048
29.83000 487.223
29.84000 484.998
29.85000 470.565
29.86000 458.177
29.87000 453.641
29.88000 467.279
29.89000 481.650
29.90000 489.680
29.91000 487.820
29.92000 485.845
29.93000 484.848
29.94000 484.160
29.95000 483.692
29.96000 482.418
29.97000 480.611
29.98000 478.929
29.99000 480.583
30.00000 483.721
30.01000 486.678
30.02000 478.712
30.03000 468.417
30.04000 459.934
30.05000 464.551
30.06000 471.770
30.07000 478.341
30.08000 481.939
30.09000 485.167
30.10000 487.638
30.11000 465.794
30.12000 447.217
30.13000 439.412
30.14000 453.871
30.15000 469.008
30.16000 476.269
30.17000 472.623
30.18000 468.910
30.19000 461.924
30.20000 452.028
30.21000 442.265
30.22000 440.544
30.23000 443.553
30.24000 446.555
30.25000 449.400
30.26000 452.182
30.27000 454.770
30.28000 453.844
30.29000 452.159
30.30000 450.369
30.31000 447.921
30.32000 445.358
30.33000 445.252
30.34000 455.132
30.35000 466.075
30.36000 474.199
30.37000 473.082
30.38000 471.807
30.39000 473.022
30.40000 478.827
30.41000 484.733
30.42000 479.767
30.43000 461.484
30.44000 443.203
30.45000 447.133
30.46000 468.441
30.47000 489.258
30.48000 489.839
30.49000 479.809
30.50000 470.443
30.51000 472.079
30.52000 477.616
30.53000 482.696
30.54000 480.335
30.55000 476.657
30.56000 473.643
30.57000 474.287
30.58000 475.490
30.59000 478.175
30.60000 486.218
30.61000 494.746
30.62000 500.867
30.63000 505.679
30.64000 509.314
30.65000 510.461
30.66000 507.520
30.67000 504.520
30.68000 502.644
30.69000 501.981
30.70000 501.322
30.71000 501.820
30.72000 503.111
30.73000 504.582
30.74000 511.470
30.75000 520.893
30.76000 530.167
30.77000 537.416
30.78000 544.025
30.79000 549.994
30.80000 556.814
30.81000 562.967
30.82000 568.623
30.83000 571.867
30.84000 574.792
30.85000 578.799
30.86000 586.291
30.87000 594.046
30.88000 599.414
30.89000 646.050
30.90000 682.217
30.91000 710.296
30.92000 726.567
30.93000 742.739
30.94000 776.124
30.95000 825.787
30.96000 875.037
30.97000 935.539
30.98000 1001.781
30.99000 1068.154
31.00000 1137.574
31.01000 1208.268
31.02000 1282.358
31.03000 1395.022
31.04000 1518.556
31.05000 1628.249
31.06000 1789.162
31.07000 1936.879
31.08000 2085.252
31.09000 2236.443
31.10000 2387.956
31.11000 2542.621
31.12000 2706.327
31.13000 2870.595
31.14000 2979.930
31.15000 3175.579
31.16000 3321.976
31.17000 3457.651
31.18000 3579.452
31.19000 3701.174
31.20000 3812.320
31.21000 3914.664
31.22000 4015.660
31.23000 4055.554
31.24000 4061.565
31.25000 4067.087
31.26000 4063.691
31.27000 4056.968
31.28000 4045.367
31.29000 3986.862
31.30000 3916.610
31.31000 3855.376
31.32000 3732.845
31.33000 3619.619
31.34000 3497.771
31.35000 3343.095
31.36000 3185.221
31.37000 3022.712
31.38000 2848.335
31.39000 2673.365
31.40000 2561.770
31.41000 2361.656
31.42000 2214.982
31.43000 2069.669
31.44000 1925.911
31.45000 1782.262
31.46000 1657.476
31.47000 1546.569
31.48000 1437.783
31.49000 1330.558
31.50000 1227.994
31.51000 1127.509
31.52000 1057.835
31.53000 998.422
31.54000 941.032
31.55000 900.296
31.56000 863.255
31.57000 831.616
31.58000 793.069
31.59000 759.774
31.60000 727.055
31.61000 696.288
31.62000 665.682
31.63000 637.925
31.64000 616.683
31.65000 595.696
31.66000 582.918
31.67000 584.035
31.68000 584.943
31.69000 577.980
31.70000 563.123
31.71000 548.334
31.72000 539.890
31.73000 535.589
31.74000 531.400
31.75000 523.220
31.76000 513.751
31.77000 504.350
31.78000 495.785
31.79000 487.469
31.80000 480.285
31.81000 481.164
31.82000 483.623
31.83000 485.678
31.84000 469.900
31.85000 454.991
31.86000 443.581
31.87000 442.732
31.88000 442.601
31.89000 442.952
31.90000 444.287
31.91000 445.651
31.92000 446.440
31.93000 456.786
31.94000 464.075
31.95000 465.470
31.96000 461.677
31.97000 457.861
31.98000 452.727
31.99000 446.826
32.00000 441.128
32.01000 440.183
32.02000 441.050
32.03000 441.366
32.04000 435.986
32.05000 429.102
32.06000 422.882
32.07000 420.781
32.08000 419.389
32.09000 418.253
32.10000 419.977
32.11000 421.632
32.12000 425.542
32.13000 435.527
32.14000 445.849
32.15000 446.813
32.16000 430.735
32.17000 414.299
32.18000 405.296
32.19000 419.090
32.20000 428.590
32.21000 432.939
32.22000 433.287
32.23000 433.528
32.24000 429.538
32.25000 423.358
32.26000 417.448
32.27000 414.025
32.28000 411.649
32.29000 408.990
32.30000 403.833
32.31000 398.090
32.32000 394.768
32.33000 404.599
32.34000 416.408
32.35000 425.800
32.36000 414.914
32.37000 404.693
32.38000 399.831
32.39000 407.857
32.40000 416.448
32.41000 420.580
32.42000 417.477
32.43000 414.274
32.44000 412.623
32.45000 414.277
32.46000 415.328
32.47000 408.793
32.48000 397.035
32.49000 385.798
32.50000 389.744
32.51000 400.710
32.52000 411.082
32.53000 405.493
32.54000 395.771
32.55000 387.722
32.56000 392.366
32.57000 399.641
32.58000 404.069
32.59000 394.865
32.60000 383.882
32.61000 375.388
32.62000 381.263
32.63000 386.770
32.64000 391.390
32.65000 394.108
32.66000 396.762
32.67000 399.005
32.68000 400.654
32.69000 402.298
32.70000 400.472
32.71000 395.413
32.72000 390.375
32.73000 386.858
32.74000 384.273
32.75000 381.934
32.76000 385.109
32.77000 390.562
32.78000 395.656
32.79000 397.359
32.80000 398.048
32.81000 398.321
32.82000 395.856
32.83000 392.891
32.84000 393.081
32.85000 406.634
32.86000 421.688
32.87000 432.984
32.88000 437.609
32.89000 440.904
32.90000 446.683
32.91000 457.224
32.92000 467.882
32.93000 476.221
32.94000 481.600
32.95000 486.960
32.96000 493.721
32.97000 501.604
32.98000 509.460
32.99000 516.013
33.00000 521.858
33.01000 526.816
33.02000 515.992
33.03000 499.350
33.04000 484.009
33.05000 480.743
33.06000 480.492
33.07000 479.859
33.08000 477.022
33.09000 473.833
33.10000 469.952
33.11000 463.474
33.12000 456.746
33.13000 451.860
33.14000 430.613
33.15000 413.661
33.16000 401.776
33.17000 398.548
33.18000 395.467
33.19000 392.498
33.20000 389.656
33.21000 386.823
33.22000 384.226
33.23000 381.820
33.24000 379.361
33.25000 375.116
33.26000 370.004
33.27000 365.143
33.28000 363.932
33.29000 363.920
33.30000 363.910
33.31000 362.694
33.32000 361.386
33.33000 359.735
33.34000 356.344
33.35000 352.711
33.36000 350.053
33.37000 350.655
33.38000 351.520
33.39000 352.125
33.40000 357.180
33.41000 361.133
33.42000 364.358
33.43000 366.478
33.44000 368.586
33.45000 366.520
33.46000 360.328
33.47000 354.178
33.48000 355.017
33.49000 360.278
33.50000 365.347
33.51000 365.609
33.52000 363.783
33.53000 361.818
33.54000 358.182
33.55000 354.056
33.56000 350.371
33.57000 349.202
33.58000 348.607
33.59000 347.947
33.60000 346.994
33.61000 346.006
33.62000 345.993
33.63000 348.888
33.64000 351.977
33.65000 354.061
33.66000 351.660
33.67000 349.778
33.68000 349.159
33.69000 350.244
33.70000 351.341
33.71000 354.590
33.72000 359.708
33.73000 364.767
33.74000 359.051
33.75000 347.437
33.76000 336.500
33.77000 338.896
33.78000 346.461
33.79000 353.834
33.80000 359.253
33.81000 364.162
33.82000 368.469
33.83000 362.522
33.84000 355.920
33.85000 351.418
33.86000 355.244
33.87000 359.927
33.88000 362.874
33.89000 361.207
33.90000 359.290
33.91000 358.049
33.92000 347.541
33.93000 339.716
33.94000 337.641
33.95000 342.418
33.96000 347.184
33.97000 346.091
33.98000 340.507
33.99000 335.017
34.00000 338.576
34.01000 346.492
34.02000 354.000
34.03000 355.028
34.04000 353.812
34.05000 352.808
34.06000 353.632
34.07000 354.878
34.08000 355.951
34.09000 348.340
34.10000 340.807
34.11000 334.560
34.12000 332.840
34.13000 331.515
34.14000 330.686
34.15000 331.036
34.16000 331.436
34.17000 331.683
34.18000 338.274
34.19000 343.072
34.20000 345.309
34.21000 344.860
34.22000 344.415
34.23000 344.353
34.24000 344.550
34.25000 344.743
34.26000 340.339
34.27000 334.118
34.28000 328.641
34.29000 332.877
34.30000 340.111
34.31000 346.970
34.32000 351.023
34.33000 354.502
34.34000 357.431
34.35000 350.334
34.36000 343.337
34.37000 338.077
34.38000 338.265
34.39000 338.850
34.40000 340.128
34.41000 342.877
34.42000 345.674
34.43000 347.322
34.44000 343.745
34.45000 341.193
34.46000 340.528
34.47000 341.598
34.48000 342.626
34.49000 340.770
34.50000 337.173
34.51000 333.689
34.52000 334.085
34.53000 335.957
34.54000 337.424
34.55000 334.464
34.56000 330.288
34.57000 327.421
34.58000 333.058
34.59000 340.225
34.60000 346.122
34.61000 333.145
34.62000 320.763
34.63000 313.829
34.64000 322.146
34.65000 331.370
34.66000 335.217
34.67000 328.880
34.68000 322.302
34.69000 318.628
34.70000 334.962
34.71000 346.297
34.72000 350.888
34.73000 350.018
34.74000 349.108
34.75000 346.448
34.76000 342.846
34.77000 339.390
34.78000 336.911
34.79000 334.927
34.80000 333.266
34.81000 334.610
34.82000 336.687
34.83000 337.738
34.84000 332.961
34.85000 327.265
34.86000 322.695
34.87000 329.767
34.88000 336.381
34.89000 340.653
34.90000 339.071
34.91000 337.211
34.92000 337.715
34.93000 342.208
34.94000 346.766
34.95000 349.165
34.96000 328.734
34.97000 314.911
34.98000 308.301
34.99000 306.859
35.00000 305.646
35.01000 311.750
35.02000 321.369
35.03000 330.503
35.04000 331.502
35.05000 329.984
35.06000 328.734
35.07000 329.611
35.08000 330.948
35.09000 332.077
35.10000 332.163
35.11000 332.106
35.12000 332.062
35.13000 325.560
35.14000 319.968
35.15000 318.069
35.16000 324.415
35.17000 331.066
35.18000 331.408
35.19000 322.280
35.20000 313.059
35.21000 310.045
35.22000 313.082
35.23000 316.092
35.24000 316.959
35.25000 316.462
35.26000 315.980
35.27000 315.878
35.28000 315.939
35.29000 315.995
35.30000 318.922
35.31000 322.346
35.32000 324.495
35.33000 317.844
35.34000 309.515
35.35000 303.908
35.36000 310.308
35.37000 318.130
35.38000 324.061
35.39000 328.572
35.40000 332.042
35.41000 332.974
35.42000 328.847
35.43000 324.582
35.44000 320.115
35.45000 315.381
35.46000 310.649
35.47000 313.913
35.48000 324.006
35.49000 333.923
35.50000 334.593
35.51000 330.024
35.52000 325.780
35.53000 327.780
35.54000 332.173
35.55000 336.242
35.56000 335.521
35.57000 333.764
35.58000 331.797
35.59000 328.568
35.60000 325.128
35.61000 322.994
35.62000 325.970
35.63000 329.464
35.64000 332.031
35.65000 325.633
35.66000 320.321
35.67000 318.637
35.68000 323.400
35.69000 328.287
35.70000 328.512
35.71000 323.253
35.72000 318.000
35.73000 316.848
35.74000 318.788
35.75000 320.742
35.76000 323.206
35.77000 325.926
35.78000 328.539
35.79000 329.481
35.80000 329.852
35.81000 330.190
35.82000 324.447
35.83000 318.120
35.84000 312.854
35.85000 313.203
35.86000 314.372
35.87000 316.571
35.88000 322.354
35.89000 328.444
35.90000 332.766
35.91000 320.912
35.92000 311.382
35.93000 308.984
35.94000 317.868
35.95000 326.893
35.96000 328.462
35.97000 322.320
35.98000 316.213
35.99000 313.854
36.00000 314.008
36.01000 314.096
36.02000 312.368
36.03000 309.821
36.04000 307.615
36.05000 309.782
36.06000 313.282
36.07000 316.426
36.08000 317.445
36.09000 317.961
36.10000 317.821
36.11000 314.623
36.12000 311.038
36.13000 308.779
36.14000 310.630
36.15000 312.773
36.16000 314.238
36.17000 316.689
36.18000 318.546
36.19000 318.885
36.20000 317.090
36.21000 315.280
36.22000 313.537
36.23000 311.854
36.24000 310.187
36.25000 311.151
36.26000 313.632
36.27000 316.162
36.28000 319.750
36.29000 323.763
36.30000 326.592
36.31000 316.695
36.32000 303.345
36.33000 291.560
36.34000 292.836
36.35000 295.937
36.36000 298.982
36.37000 301.795
36.38000 304.583
36.39000 307.856
36.40000 312.469
36.41000 317.159
36.42000 320.240
36.43000 317.115
36.44000 314.712
36.45000 314.092
36.46000 315.689
36.47000 317.284
36.48000 315.682
36.49000 311.525
36.50000 307.431
36.51000 306.101
36.52000 306.236
36.53000 306.297
36.54000 305.097
36.55000 303.443
36.56000 302.097
36.57000 303.567
36.58000 305.715
36.59000 307.575
36.60000 306.706
36.61000 305.607
36.62000 304.625
36.63000 304.073
36.64000 303.560
36.65000 302.458
36.66000 299.901
36.67000 297.276
36.68000 295.627
36.69000 304.226
36.70000 310.559
36.71000 315.040
36.72000 317.491
36.73000 319.927
36.74000 320.460
36.75000 319.645
36.76000 318.848
36.77000 321.685
36.78000 326.065
36.79000 329.537
36.80000 320.368
36.81000 307.142
36.82000 296.131
36.83000 302.499
36.84000 312.574
36.85000 321.120
36.86000 314.549
36.87000 307.328
36.88000 302.631
36.89000 306.166
36.90000 310.337
36.91000 314.710
36.92000 319.524
36.93000 324.354
36.94000 327.249
36.95000 318.903
36.96000 312.902
36.97000 310.584
36.98000 311.804
36.99000 313.053
37.00000 316.599
37.01000 321.590
37.02000 326.437
37.03000 324.731
37.04000 320.475
37.05000 316.711
37.06000 318.647
37.07000 322.213
37.08000 324.584
37.09000 318.834
37.10000 311.556
37.11000 305.519
37.12000 302.134
37.13000 299.592
37.14000 297.703
37.15000 297.716
37.16000 297.851
37.17000 299.856
37.18000 305.543
37.19000 311.327
37.20000 314.618
37.21000 305.444
37.22000 299.023
37.23000 298.818
37.24000 303.866
37.25000 308.897
37.26000 313.093
37.27000 316.822
37.28000 320.411
37.29000 313.948
37.30000 304.311
37.31000 295.976
37.32000 300.403
37.33000 308.073
37.34000 314.677
37.35000 314.949
37.36000 314.177
37.37000 313.552
37.38000 304.280
37.39000 296.034
37.40000 291.089
37.41000 294.719
37.42000 298.791
37.43000 302.151
37.44000 304.264
37.45000 306.354
37.46000 307.476
37.47000 302.344
37.48000 298.843
37.49000 297.450
37.50000 297.630
37.51000 297.805
37.52000 297.816
37.53000 297.745
37.54000 297.677
37.55000 305.527
37.56000 315.284
37.57000 323.538
37.58000 319.179
37.59000 311.978
37.60000 306.060
37.61000 306.828
37.62000 308.558
37.63000 309.922
37.64000 304.173
37.65000 299.085
37.66000 296.721
37.67000 300.671
37.68000 304.876
37.69000 307.476
37.70000 307.567
37.71000 307.629
37.72000 307.660
37.73000 296.465
37.74000 289.082
37.75000 292.043
37.76000 301.856
37.77000 311.204
37.78000 308.128
37.79000 299.515
37.80000 291.398
37.81000 298.793
37.82000 309.837
37.83000 319.706
37.84000 321.065
37.85000 320.730
37.86000 319.988
37.87000 317.372
37.88000 314.523
37.89000 312.340
37.90000 310.311
37.91000 308.717
37.92000 309.887
37.93000 316.780
37.94000 323.847
37.95000 323.694
37.96000 313.529
37.97000 303.303
37.98000 299.156
37.99000 300.445
38.00000 301.715
38.01000 301.881
38.02000 301.397
38.03000 301.024
38.04000 302.944
38.05000 305.778
38.06000 308.414
38.07000 308.781
38.08000 308.564
38.09000 308.703
38.10000 311.089
38.11000 313.867
38.12000 316.585
38.13000 319.062
38.14000 321.513
38.15000 323.333
38.16000 319.933
38.17000 317.060
38.18000 316.386
38.19000 319.774
38.20000 323.251
38.21000 327.587
38.22000 332.977
38.23000 338.359
38.24000 339.447
38.25000 337.158
38.26000 335.004
38.27000 338.413
38.28000 344.745
38.29000 350.985
38.30000 355.696
38.31000 359.863
38.32000 363.687
38.33000 369.158
38.34000 374.384
38.35000 380.352
38.36000 390.407
38.37000 401.089
38.38000 410.574
38.39000 415.729
38.40000 420.493
38.41000 423.914
38.42000 432.345
38.43000 438.967
38.44000 445.348
38.45000 451.333
38.46000 457.312
38.47000 461.036
38.48000 462.321
38.49000 463.600
38.50000 468.763
38.51000 476.555
38.52000 484.240
38.53000 488.722
38.54000 491.702
38.55000 494.676
38.56000 497.552
38.57000 500.398
38.58000 502.969
38.59000 497.499
38.60000 491.202
38.61000 485.774
38.62000 484.575
38.63000 483.937
38.64000 481.934
38.65000 475.532
38.66000 468.796
38.67000 464.130
38.68000 446.214
38.69000 432.384
38.70000 423.283
38.71000 421.100
38.72000 418.977
38.73000 414.136
38.74000 406.719
38.75000 399.363
38.76000 393.792
38.77000 389.410
38.78000 385.104
38.79000 382.567
38.80000 380.770
38.81000 378.497
38.82000 370.803
38.83000 361.580
38.84000 353.387
38.85000 347.351
38.86000 342.463
38.87000 338.544
38.88000 338.783
38.89000 339.500
38.90000 340.127
38.91000 340.500
38.92000 340.857
38.93000 341.094
38.94000 331.647
38.95000 324.471
38.96000 319.757
38.97000 318.236
38.98000 316.724
38.99000 313.200
39.00000 308.001
39.01000 302.869
39.02000 302.872
39.03000 305.637
39.04000 308.305
39.05000 309.216
39.06000 309.470
39.07000 309.420
39.08000 306.438
39.09000 302.720
39.10000 299.478
39.11000 296.277
39.12000 293.546
39.13000 291.250
39.14000 290.610
39.15000 290.132
39.16000 290.706
39.17000 293.976
39.18000 297.383
39.19000 299.556
39.20000 292.694
39.21000 287.585
39.22000 284.807
39.23000 284.696
39.24000 284.590
39.25000 284.785
39.26000 285.201
39.27000 285.611
39.28000 280.847
39.29000 273.800
39.30000 267.544
39.31000 273.057
39.32000 282.496
39.33000 290.573
39.34000 287.408
39.35000 281.743
39.36000 276.903
39.37000 279.522
39.38000 282.619
39.39000 284.123
39.40000 280.220
39.41000 275.872
39.42000 276.842
39.43000 289.989
39.44000 303.616
39.45000 311.919
39.46000 293.105
39.47000 279.445
39.48000 272.591
39.49000 272.577
39.50000 272.609
39.51000 277.007
39.52000 284.259
39.53000 291.322
39.54000 287.777
39.55000 279.946
39.56000 272.464
39.57000 269.279
39.58000 267.372
39.59000 266.110
39.60000 269.444
39.61000 273.680
39.62000 277.222
39.63000 270.398
39.64000 263.677
39.65000 258.986
39.66000 260.433
39.67000 262.298
39.68000 265.010
39.69000 269.455
39.70000 273.951
39.71000 276.556
39.72000 279.269
39.73000 281.170
39.74000 280.035
39.75000 276.223
39.76000 272.468
39.77000 271.960
39.78000 273.342
39.79000 274.677
39.80000 276.085
39.81000 277.438
39.82000 278.722
39.83000 279.287
39.84000 279.662
39.85000 279.460
39.86000 275.675
39.87000 271.272
39.88000 267.678
39.89000 266.726
39.90000 266.175
39.91000 267.311
39.92000 272.996
39.93000 278.934
39.94000 280.125
39.95000 272.652
39.96000 264.996
39.97000 260.799
39.98000 265.268
39.99000 268.370
40.00000 275.063
40.01000 284.553
40.02000 293.806
40.03000 293.644
40.04000 288.597
40.05000 283.769
40.06000 273.145
40.07000 261.360
40.08000 251.387
40.09000 257.422
40.10000 267.215
40.11000 276.349
40.12000 281.892
40.13000 286.895
40.14000 290.875
40.15000 281.489
40.16000 272.967
40.17000 265.526
40.18000 260.689
40.19000 255.966
40.20000 255.062
40.21000 260.364
40.22000 265.752
40.23000 268.532
40.24000 266.020
40.25000 264.329
40.26000 262.851
40.27000 261.520
40.28000 260.226
40.29000 259.985
40.30000 260.233
40.31000 260.468
40.32000 254.596
40.33000 247.439
40.34000 242.039
40.35000 249.993
40.36000 260.719
40.37000 269.771
40.38000 270.790
40.39000 270.758
40.40000 270.733
40.41000 264.870
40.42000 259.872
40.43000 257.432
40.44000 260.492
40.45000 263.739
40.46000 265.166
40.47000 263.964
40.48000 262.742
40.49000 263.779
40.50000 266.925
40.51000 270.010
40.52000 268.811
40.53000 264.987
40.54000 261.214
40.55000 258.613
40.56000 256.495
40.57000 254.515
40.58000 253.817
40.59000 253.508
40.60000 253.330
40.61000 254.016
40.62000 254.861
40.63000 256.028
40.64000 258.559
40.65000 261.245
40.66000 263.261
40.67000 265.343
40.68000 266.973
40.69000 265.956
40.70000 259.855
40.71000 253.629
40.72000 250.560
40.73000 251.530
40.74000 252.514
40.75000 254.637
40.76000 257.689
40.77000 260.668
40.78000 260.303
40.79000 258.112
40.80000 256.048
40.81000 256.272
40.82000 257.341
40.83000 258.326
40.84000 259.979
40.85000 261.609
40.86000 262.613
40.87000 260.012
40.88000 256.833
40.89000 254.205
40.90000 253.646
40.91000 253.285
40.92000 253.023
40.93000 255.179
40.94000 256.928
40.95000 257.865
40.96000 257.412
40.97000 256.936
40.98000 258.427
40.99000 262.141
41.00000 265.843
41.01000 269.221
41.02000 272.336
41.03000 275.201
41.04000 269.723
41.05000 260.181
41.06000 250.907
41.07000 245.535
41.08000 241.449
41.09000 237.737
41.10000 242.437
41.11000 248.220
41.12000 254.059
41.13000 260.188
41.14000 266.357
41.15000 269.014
41.16000 259.910
41.17000 249.857
41.18000 242.805
41.19000 254.748
41.20000 264.336
41.21000 269.731
41.22000 268.743
41.23000 267.688
41.24000 263.972
41.25000 257.620
41.26000 251.311
41.27000 247.454
41.28000 245.215
41.29000 243.158
41.30000 245.669
41.31000 250.166
41.32000 253.964
41.33000 249.299
41.34000 242.149
41.35000 235.761
41.36000 243.735
41.37000 253.105
41.38000 260.801
41.39000 260.997
41.40000 260.290
41.41000 259.850
41.42000 260.211
41.43000 260.625
41.44000 260.904
41.45000 258.868
41.46000 257.304
41.47000 253.556
41.48000 246.858
41.49000 240.152
41.50000 240.792
41.51000 247.822
41.52000 254.772
41.53000 255.204
41.54000 251.969
41.55000 248.929
41.56000 249.740
41.57000 252.046
41.58000 254.373
41.59000 256.907
41.60000 259.496
41.61000 261.768
41.62000 254.625
41.63000 247.113
41.64000 241.578
41.65000 243.891
41.66000 247.013
41.67000 248.413
41.68000 245.225
41.69000 241.788
41.70000 239.561
41.71000 237.428
41.72000 235.869
41.73000 233.809
41.74000 231.151
41.75000 228.531
41.76000 235.019
41.77000 248.504
41.78000 261.761
41.79000 260.338
41.80000 251.689
41.81000 243.463
41.82000 241.990
41.83000 242.856
41.84000 244.016
41.85000 247.722
41.86000 252.017
41.87000 255.713
41.88000 252.043
41.89000 248.010
41.90000 245.293
41.91000 247.224
41.92000 249.561
41.93000 250.936
41.94000 250.025
41.95000 249.015
41.96000 248.390
41.97000 255.139
41.98000 260.062
41.99000 263.536
42.00000 265.488
42.01000 267.403
42.02000 265.135
42.03000 260.021
42.04000 255.028
42.05000 251.124
42.06000 247.866
42.07000 244.534
42.08000 240.236
42.09000 235.641
42.10000 231.938
42.11000 234.918
42.12000 239.268
42.13000 242.932
42.14000 249.193
42.15000 254.696
42.16000 257.026
42.17000 249.382
42.18000 241.012
42.19000 236.984
42.20000 242.186
42.21000 247.691
42.22000 250.936
42.23000 248.935
42.24000 247.494
42.25000 246.248
42.26000 245.181
42.27000 244.109
42.28000 242.706
42.29000 241.102
42.30000 239.548
42.31000 241.646
42.32000 245.042
42.33000 248.148
42.34000 248.072
42.35000 247.119
42.36000 246.864
42.37000 251.150
42.38000 256.256
42.39000 260.458
42.40000 252.595
42.41000 245.030
42.42000 239.641
42.43000 240.348
42.44000 241.419
42.45000 241.218
42.46000 238.602
42.47000 235.928
42.48000 234.434
42.49000 233.627
42.50000 233.072
42.51000 233.459
42.52000 234.612
42.53000 235.834
42.54000 240.203
42.55000 246.270
42.56000 252.092
42.57000 253.130
42.58000 252.470
42.59000 252.026
42.60000 253.598
42.61000 255.664
42.62000 256.906
42.63000 253.459
42.64000 249.272
42.65000 245.912
42.66000 246.748
42.67000 247.745
42.68000 248.183
42.69000 247.221
42.70000 246.192
42.71000 244.766
42.72000 242.670
42.73000 240.563
42.74000 239.452
42.75000 246.077
42.76000 250.577
42.77000 255.369
42.78000 260.369
42.79000 265.083
42.80000 260.518
42.81000 251.490
42.82000 242.916
42.83000 242.810
42.84000 245.256
42.85000 247.233
42.86000 245.453
42.87000 242.861
42.88000 240.306
42.89000 237.940
42.90000 235.600
42.91000 233.771
42.92000 241.182
42.93000 247.677
42.94000 250.874
42.95000 246.696
42.96000 242.244
42.97000 241.852
42.98000 247.566
42.99000 253.341
43.00000 253.043
43.01000 246.817
43.02000 240.597
43.03000 234.891
43.04000 229.514
43.05000 224.630
43.06000 231.826
43.07000 244.213
43.08000 255.839
43.09000 251.240
43.10000 242.759
43.11000 235.431
43.12000 236.079
43.13000 238.251
43.14000 239.692
43.15000 237.902
43.16000 235.729
43.17000 234.080
43.18000 238.229
43.19000 241.787
43.20000 245.295
43.21000 248.704
43.22000 252.111
43.23000 250.983
43.24000 243.810
43.25000 236.612
43.26000 234.322
43.27000 236.241
43.28000 238.085
43.29000 235.944
43.30000 231.543
43.31000 227.517
43.32000 230.751
43.33000 236.770
43.34000 242.345
43.35000 240.176
43.36000 236.429
43.37000 233.309
43.38000 233.982
43.39000 235.291
43.40000 236.455
43.41000 237.049
43.42000 237.586
43.43000 237.980
43.44000 239.286
43.45000 240.334
43.46000 239.892
43.47000 236.799
43.48000 233.655
43.49000 229.912
43.50000 225.464
43.51000 221.027
43.52000 222.786
43.53000 229.200
43.54000 235.437
43.55000 235.089
43.56000 231.409
43.57000 227.942
43.58000 227.798
43.59000 228.792
43.60000 229.699
43.61000 233.132
43.62000 236.692
43.63000 239.713
43.64000 239.880
43.65000 239.629
43.66000 238.299
43.67000 233.211
43.68000 227.801
43.69000 223.959
43.70000 227.895
43.71000 231.138
43.72000 232.134
43.73000 229.571
43.74000 226.962
43.75000 226.143
43.76000 227.178
43.77000 228.207
43.78000 229.408
43.79000 230.709
43.80000 232.134
43.81000 236.999
43.82000 243.419
43.83000 249.456
43.84000 250.585
43.85000 250.216
43.86000 249.883
43.87000 251.244
43.88000 252.734
43.89000 253.646
43.90000 251.855
43.91000 249.721
43.92000 246.583
43.93000 240.327
43.94000 233.848
43.95000 229.416
43.96000 239.589
43.97000 247.551
43.98000 249.642
43.99000 243.470
44.00000 237.243
44.01000 234.834
44.02000 235.894
44.03000 236.944
44.04000 238.388
44.05000 240.034
44.06000 241.709
44.07000 244.001
44.08000 246.544
44.09000 248.587
44.10000 245.265
44.11000 240.484
44.12000 236.262
44.13000 248.815
44.14000 262.225
44.15000 271.267
44.16000 262.256
44.17000 251.278
44.18000 243.805
44.19000 246.039
44.20000 248.838
44.21000 250.678
44.22000 253.304
44.23000 255.250
44.24000 253.988
44.25000 248.728
44.26000 243.464
44.27000 241.119
44.28000 241.110
44.29000 241.102
44.30000 243.203
44.31000 246.332
44.32000 249.608
44.33000 255.395
44.34000 262.086
44.35000 268.144
44.36000 268.398
44.37000 267.252
44.38000 266.260
44.39000 271.388
44.40000 276.563
44.41000 281.105
44.42000 283.325
44.43000 285.331
44.44000 288.764
44.45000 295.726
44.46000 302.853
44.47000 307.335
44.48000 311.813
44.49000 315.052
44.50000 318.657
44.51000 322.663
44.52000 326.700
44.53000 335.126
44.54000 346.664
44.55000 357.958
44.56000 368.900
44.57000 379.249
44.58000 389.395
44.59000 396.722
44.60000 403.142
44.61000 410.937
44.62000 429.552
44.63000 450.478
44.64000 468.236
44.65000 483.808
44.66000 496.620
44.67000 508.698
44.68000 518.377
44.69000 527.871
44.70000 540.234
44.71000 558.934
44.72000 577.863
44.73000 589.215
44.74000 598.943
44.75000 605.842
44.76000 618.706
44.77000 637.311
44.78000 655.846
44.79000 668.757
44.80000 678.127
44.81000 687.230
44.82000 693.272
44.83000 697.777
44.84000 702.708
44.85000 712.586
44.86000 723.881
44.87000 732.337
44.88000 721.439
44.89000 706.894
44.90000 694.827
44.91000 686.502
44.92000 679.983
44.93000 676.574
44.94000 682.226
44.95000 688.457
44.96000 687.007
44.97000 670.414
44.98000 653.415
44.99000 643.737
45.00000 626.723
45.01000 614.835
45.02000 599.553
45.03000 581.397
45.04000 563.315
45.05000 548.912
45.06000 536.573
45.07000 524.692
45.08000 514.557
45.09000 505.664
45.10000 496.736
45.11000 487.467
45.12000 478.111
45.13000 468.119
45.14000 454.346
45.15000 439.949
45.16000 428.292
45.17000 406.064
45.18000 387.109
45.19000 373.172
45.20000 372.286
45.21000 372.074
45.22000 368.607
45.23000 359.418
45.24000 350.123
45.25000 345.123
45.26000 336.177
45.27000 330.073
45.28000 326.345
45.29000 324.397
45.30000 322.296
45.31000 314.735
45.32000 304.444
45.33000 294.635
45.34000 291.326
45.35000 290.297
45.36000 288.534
45.37000 280.603
45.38000 271.280
45.39000 263.794
45.40000 265.905
45.41000 269.400
45.42000 272.155
45.43000 267.262
45.44000 262.822
45.45000 259.675
45.46000 259.531
45.47000 259.509
45.48000 257.483
45.49000 252.319
45.50000 247.117
45.51000 244.489
45.52000 232.872
45.53000 225.190
45.54000 226.502
45.55000 233.781
45.56000 240.700
45.57000 237.973
45.58000 230.939
45.59000 224.309
45.60000 225.075
45.61000 227.817
45.62000 230.147
45.63000 229.483
45.64000 228.222
45.65000 226.976
45.66000 225.801
45.67000 224.634
45.68000 223.740
45.69000 231.213
45.70000 237.576
45.71000 241.445
45.72000 240.141
45.73000 238.677
45.74000 236.824
45.75000 234.428
45.76000 232.029
45.77000 229.630
45.78000 227.233
45.79000 224.886
45.80000 225.573
45.81000 228.051
45.82000 230.330
45.83000 228.465
45.84000 224.948
45.85000 221.675
45.86000 224.931
45.87000 229.457
45.88000 233.106
45.89000 231.213
45.90000 228.349
45.91000 226.048
45.92000 226.051
45.93000 226.299
45.94000 226.484
45.95000 221.803
45.96000 217.948
45.97000 216.923
45.98000 221.132
45.99000 225.458
46.00000 224.841
46.01000 218.148
46.02000 211.452
46.03000 210.618
46.04000 214.398
46.05000 218.070
46.06000 217.215
46.07000 213.980
46.08000 210.749
46.09000 207.598
46.10000 204.476
46.11000 201.610
46.12000 203.983
46.13000 207.212
46.14000 210.304
46.15000 212.641
46.16000 214.863
46.17000 217.606
46.18000 222.240
46.19000 227.046
46.20000 230.500
46.21000 226.138
46.22000 222.529
46.23000 220.619
46.24000 221.511
46.25000 222.444
46.26000 218.159
46.27000 208.223
46.28000 198.329
46.29000 196.407
46.30000 200.025
46.31000 203.658
46.32000 207.782
46.33000 212.135
46.34000 216.009
46.35000 213.330
46.36000 208.572
46.37000 204.272
46.38000 205.191
46.39000 206.967
46.40000 208.669
46.41000 210.009
46.42000 211.302
46.43000 213.156
46.44000 216.825
46.45000 220.632
46.46000 223.270
46.47000 222.186
46.48000 221.272
46.49000 218.737
46.50000 213.828
46.51000 208.899
46.52000 208.860
46.53000 213.465
46.54000 218.031
46.55000 219.417
46.56000 218.835
46.57000 218.183
46.58000 215.885
46.59000 212.897
46.60000 210.293
46.61000 212.065
46.62000 215.074
46.63000 217.747
46.64000 217.091
46.65000 215.986
46.66000 214.764
46.67000 213.045
46.68000 211.268
46.69000 209.950
46.70000 209.954
46.71000 210.040
46.72000 210.097
46.73000 214.564
46.74000 217.956
46.75000 217.139
46.76000 210.857
46.77000 204.561
46.78000 202.986
46.79000 205.353
46.80000 207.689
46.81000 205.902
46.82000 201.939
46.83000 198.410
46.84000 202.846
46.85000 210.263
46.86000 216.621
46.87000 212.737
46.88000 206.279
46.89000 200.647
46.90000 201.114
46.91000 202.362
46.92000 203.656
46.93000 205.121
46.94000 206.603
46.95000 209.090
46.96000 214.158
46.97000 219.356
46.98000 222.676
46.99000 212.322
47.00000 204.610
47.01000 201.454
47.02000 203.524
47.03000 205.588
47.04000 205.676
47.05000 204.306
47.06000 202.962
47.07000 204.096
47.08000 206.367
47.09000 208.423
47.10000 207.250
47.11000 204.999
47.12000 203.005
47.13000 203.136
47.14000 203.740
47.15000 204.257
47.16000 205.961
47.17000 207.539
47.18000 208.574
47.19000 207.764
47.20000 206.802
47.21000 205.087
47.22000 201.647
47.23000 198.137
47.24000 195.998
47.25000 202.015
47.26000 206.382
47.27000 204.946
47.28000 197.669
47.29000 190.451
47.30000 188.751
47.31000 190.666
47.32000 192.532
47.33000 194.123
47.34000 195.525
47.35000 197.132
47.36000 201.275
47.37000 206.174
47.38000 210.219
47.39000 208.159
47.40000 204.899
47.41000 202.172
47.42000 199.432
47.43000 197.155
47.44000 196.141
47.45000 198.957
47.46000 202.034
47.47000 204.386
47.48000 205.254
47.49000 206.077
47.50000 206.555
47.51000 205.553
47.52000 204.845
47.53000 205.463
47.54000 207.252
47.55000 208.975
47.56000 206.794
47.57000 202.337
47.58000 198.032
47.59000 200.295
47.60000 204.865
47.61000 208.624
47.62000 203.951
47.63000 197.044
47.64000 190.278
47.65000 184.386
47.66000 178.645
47.67000 173.958
47.68000 175.178
47.69000 176.686
47.70000 179.404
47.71000 185.394
47.72000 191.567
47.73000 197.774
47.74000 204.043
47.75000 210.313
47.76000 213.753
47.77000 203.785
47.78000 196.921
47.79000 194.097
47.80000 194.424
47.81000 194.779
47.82000 196.278
47.83000 198.372
47.84000 200.375
47.85000 199.285
47.86000 197.256
47.87000 195.598
47.88000 197.210
47.89000 199.591
47.90000 201.436
47.91000 200.351
47.92000 198.824
47.93000 197.609
47.94000 198.375
47.95000 199.135
47.96000 198.776
47.97000 195.717
47.98000 192.538
47.99000 190.108
48.00000 188.893
48.01000 187.696
48.02000 187.078
48.03000 185.930
48.04000 185.206
48.05000 190.597
48.06000 200.211
48.07000 209.605
48.08000 212.532
48.09000 212.458
48.10000 212.389
48.11000 208.281
48.12000 203.339
48.13000 198.707
48.14000 196.447
48.15000 194.681
48.16000 193.868
48.17000 197.638
48.18000 202.010
48.19000 205.393
48.20000 200.187
48.21000 195.545
48.22000 193.364
48.23000 196.483
48.24000 199.782
48.25000 201.684
48.26000 201.565
48.27000 201.429
48.28000 201.779
48.29000 202.583
48.30000 203.328
48.31000 199.873
48.32000 193.839
48.33000 188.157
48.34000 190.450
48.35000 196.045
48.36000 201.276
48.37000 199.018
48.38000 195.070
48.39000 191.250
48.40000 188.274
48.41000 185.452
48.42000 184.629
48.43000 192.294
48.44000 200.918
48.45000 207.395
48.46000 201.405
48.47000 196.127
48.48000 192.767
48.49000 193.096
48.50000 193.517
48.51000 194.697
48.52000 196.850
48.53000 199.004
48.54000 198.464
48.55000 195.715
48.56000 192.993
48.57000 191.546
48.58000 190.798
48.59000 190.074
48.60000 189.806
48.61000 189.706
48.62000 189.613
48.63000 191.087
48.64000 192.755
48.65000 193.976
48.66000 192.611
48.67000 190.830
48.68000 190.746
48.69000 197.061
48.70000 203.991
48.71000 209.029
48.72000 200.759
48.73000 193.892
48.74000 190.526
48.75000 193.161
48.76000 195.899
48.77000 196.427
48.78000 194.457
48.79000 192.491
48.80000 194.518
48.81000 199.413
48.82000 204.138
48.83000 203.143
48.84000 199.358
48.85000 195.960
48.86000 198.216
48.87000 202.339
48.88000 206.084
48.89000 207.588
48.90000 208.482
48.91000 207.869
48.92000 199.594
48.93000 190.248
48.94000 183.641
48.95000 186.220
48.96000 189.542
48.97000 191.874
48.98000 186.843
48.99000 182.821
49.00000 180.478
49.01000 180.695
49.02000 180.940
49.03000 180.828
49.04000 180.361
49.05000 179.898
49.06000 180.997
49.07000 183.073
49.08000 185.181
49.09000 188.111
49.10000 191.400
49.11000 194.183
49.12000 190.847
49.13000 185.711
49.14000 181.121
49.15000 183.232
49.16000 186.205
49.17000 188.158
49.18000 185.538
49.19000 182.365
49.20000 180.978
49.21000 184.933
49.22000 189.246
49.23000 192.160
49.24000 195.013
49.25000 197.136
49.26000 196.038
49.27000 190.580
49.28000 185.102
49.29000 183.077
49.30000 184.063
49.31000 185.038
49.32000 185.405
49.33000 185.423
49.34000 185.518
49.35000 187.143
49.36000 189.364
49.37000 191.018
49.38000 186.892
49.39000 181.255
49.40000 176.307
49.41000 175.310
49.42000 175.032
49.43000 175.211
49.44000 177.204
49.45000 179.385
49.46000 182.182
49.47000 186.626
49.48000 191.159
49.49000 194.097
49.50000 191.585
49.51000 189.664
49.52000 188.952
49.53000 189.687
49.54000 190.412
49.55000 188.060
49.56000 183.342
49.57000 178.704
49.58000 177.084
49.59000 177.016
49.60000 177.127
49.61000 180.100
49.62000 184.067
49.63000 187.983
49.64000 191.466
49.65000 194.847
49.66000 197.757
49.67000 191.765
49.68000 185.567
49.69000 180.697
49.70000 180.517
49.71000 180.748
49.72000 182.964
49.73000 189.913
49.74000 197.065
49.75000 201.497
49.76000 197.377
49.77000 194.332
49.78000 190.986
49.79000 187.323
49.80000 183.690
49.81000 183.531
49.82000 185.741
49.83000 187.899
49.84000 186.833
49.85000 184.399
49.86000 182.234
49.87000 183.592
49.88000 186.041
49.89000 187.660
49.90000 183.058
49.91000 177.180
49.92000 172.226
49.93000 174.402
49.94000 176.987
49.95000 179.090
49.96000 179.681
49.97000 180.161
49.98000 182.770
49.99000 189.912
50.00000 197.203
50.01000 201.505
50.02000 207.163
50.03000 211.163
50.04000 211.521
50.05000 208.517
50.06000 205.504
50.07000 201.907
50.08000 197.955
50.09000 194.126
50.10000 191.205
50.11000 188.792
50.12000 186.906
50.13000 190.818
50.14000 196.328
50.15000 201.361
50.16000 203.277
50.17000 204.631
50.18000 205.745
50.19000 207.856
50.20000 209.682
50.21000 212.149
50.22000 216.413
50.23000 220.785
50.24000 225.033
50.25000 229.046
50.26000 233.054
50.27000 235.295
50.28000 228.110
50.29000 223.129
50.30000 225.073
50.31000 232.648
50.32000 240.195
50.33000 246.532
50.34000 252.214
50.35000 257.668
50.36000 261.893
50.37000 265.423
50.38000 268.615
50.39000 268.654
50.40000 267.921
50.41000 267.090
50.42000 265.708
50.43000 264.238
50.44000 263.058
50.45000 268.830
50.46000 274.039
50.47000 279.322
50.48000 284.791
50.49000 290.268
50.50000 292.296
50.51000 288.483
50.52000 284.574
50.53000 282.513
50.54000 287.825
50.55000 291.423
50.56000 293.244
50.57000 293.786
50.58000 294.295
50.59000 293.754
50.60000 292.707
50.61000 291.712
50.62000 289.345
50.63000 286.746
50.64000 283.581
50.65000 275.887
50.66000 267.211
50.67000 260.255
50.68000 261.921
50.69000 264.774
50.70000 267.003
50.71000 256.669
50.72000 247.626
50.73000 240.985
50.74000 239.718
50.75000 238.652
50.76000 236.152
50.77000 231.493
50.78000 226.811
50.79000 223.423
50.80000 221.299
50.81000 219.140
50.82000 213.976
50.83000 206.894
50.84000 200.151
50.85000 201.770
50.86000 206.987
50.87000 211.885
50.88000 212.588
50.89000 212.118
50.90000 211.234
50.91000 207.477
50.92000 203.170
50.93000 198.894
50.94000 194.752
50.95000 190.627
50.96000 187.496
50.97000 190.657
50.98000 193.465
50.99000 195.334
51.00000 195.328
51.01000 195.270
51.02000 193.317
51.03000 188.835
51.04000 184.344
51.05000 183.491
51.06000 185.762
51.07000 187.974
51.08000 187.048
51.09000 184.338
51.10000 181.537
51.11000 176.990
51.12000 171.772
51.13000 166.936
51.14000 171.153
51.15000 177.051
51.16000 182.162
51.17000 182.514
51.18000 182.068
51.19000 180.955
51.20000 177.228
51.21000 173.235
51.22000 170.300
51.23000 172.618
51.24000 174.628
51.25000 174.995
51.26000 172.437
51.27000 169.821
51.28000 168.917
51.29000 170.034
51.30000 171.152
51.31000 172.724
51.32000 174.627
51.33000 176.452
51.34000 175.351
51.35000 172.766
51.36000 170.524
51.37000 173.650
51.38000 178.617
51.39000 183.153
51.40000 180.108
51.41000 175.863
51.42000 172.546
51.43000 174.150
51.44000 176.475
51.45000 177.177
51.46000 172.213
51.47000 166.763
51.48000 162.891
51.49000 164.775
51.50000 166.392
51.51000 168.272
51.52000 170.566
51.53000 172.866
51.54000 173.849
51.55000 173.465
51.56000 173.082
51.57000 174.187
51.58000 176.266
51.59000 178.255
51.60000 177.749
51.61000 176.115
51.62000 174.812
51.63000 177.760
51.64000 182.008
51.65000 185.826
51.66000 184.869
51.67000 183.184
51.68000 181.203
51.69000 177.831
51.70000 174.283
51.71000 171.753
51.72000 172.387
51.73000 173.247
51.74000 173.836
51.75000 174.512
51.76000 175.020
51.77000 175.129
51.78000 174.674
51.79000 174.215
51.80000 171.902
51.81000 167.902
51.82000 163.940
51.83000 163.326
51.84000 164.687
51.85000 166.053
51.86000 167.528
51.87000 169.047
51.88000 170.458
51.89000 170.706
51.90000 170.639
51.91000 170.579
51.92000 168.464
51.93000 166.322
51.94000 164.932
51.95000 166.655
51.96000 168.717
51.97000 170.094
51.98000 169.566
51.99000 168.927
52.00000 168.506
52.01000 166.486
52.02000 164.971
52.03000 166.119
52.04000 170.588
52.05000 175.066
52.06000 179.017
52.07000 182.545
52.08000 186.021
52.09000 185.169
52.10000 182.102
52.11000 178.872
52.12000 172.834
52.13000 165.783
52.14000 159.272
52.15000 157.717
52.16000 157.360
52.17000 157.051
52.18000 161.257
52.19000 165.437
52.20000 169.011
52.21000 170.361
52.22000 171.504
52.23000 171.809
52.24000 170.038
52.25000 168.170
52.26000 166.994
52.27000 167.434
52.28000 167.770
52.29000 168.619
52.30000 170.032
52.31000 171.417
52.32000 168.751
52.33000 163.207
52.34000 157.780
52.35000 161.548
52.36000 169.371
52.37000 176.770
52.38000 178.233
52.39000 177.784
52.40000 177.055
52.41000 174.119
52.42000 170.710
52.43000 167.817
52.44000 168.159
52.45000 168.814
52.46000 169.030
52.47000 167.804
52.48000 166.466
52.49000 166.388
52.50000 169.095
52.51000 171.903
52.52000 173.589
52.53000 165.002
52.54000 158.832
52.55000 159.509
52.56000 166.789
52.57000 173.991
52.58000 175.030
52.59000 172.182
52.60000 169.415
52.61000 169.026
52.62000 169.616
52.63000 169.936
52.64000 167.112
52.65000 163.386
52.66000 160.308
52.67000 161.648
52.68000 163.823
52.69000 165.627
52.70000 168.181
52.71000 170.363
52.72000 170.554
52.73000 164.931
52.74000 158.935
52.75000 156.343
52.76000 160.473
52.77000 164.783
52.78000 167.239
52.79000 162.399
52.80000 159.006
52.81000 158.924
52.82000 161.649
52.83000 164.339
52.84000 165.182
52.85000 164.988
52.86000 164.801
52.87000 163.836
52.88000 162.653
52.89000 161.661
52.90000 162.564
52.91000 163.949
52.92000 165.199
52.93000 165.648
52.94000 165.963
52.95000 166.219
52.96000 164.134
52.97000 162.246
52.98000 160.553
52.99000 159.372
53.00000 158.216
53.01000 158.930
53.02000 162.936
53.03000 167.004
53.04000 169.194
53.05000 166.046
53.06000 163.899
53.07000 163.909
53.08000 165.536
53.09000 167.147
53.10000 168.181
53.11000 168.927
53.12000 169.638
53.13000 165.552
53.14000 160.256
53.15000 156.068
53.16000 161.222
53.17000 168.488
53.18000 174.172
53.19000 171.570
53.20000 167.771
53.21000 164.774
53.22000 161.295
53.23000 158.472
53.24000 157.726
53.25000 161.811
53.26000 166.093
53.27000 169.419
53.28000 171.248
53.29000 173.058
53.30000 173.974
53.31000 172.280
53.32000 171.114
53.33000 166.802
53.34000 160.399
53.35000 154.266
53.36000 155.418
53.37000 159.827
53.38000 163.984
53.39000 165.579
53.40000 166.331
53.41000 166.867
53.42000 165.829
53.43000 164.478
53.44000 162.824
53.45000 159.777
53.46000 156.556
53.47000 154.086
53.48000 157.426
53.49000 160.386
53.50000 162.129
53.51000 161.342
53.52000 160.478
53.53000 159.885
53.54000 159.670
53.55000 159.458
53.56000 160.347
53.57000 162.222
53.58000 164.098
53.59000 166.003
53.60000 167.927
53.61000 169.711
53.62000 168.592
53.63000 166.314
53.64000 164.194
53.65000 160.854
53.66000 157.539
53.67000 154.636
53.68000 154.340
53.69000 154.502
53.70000 154.993
53.71000 156.823
53.72000 158.796
53.73000 160.264
53.74000 163.254
53.75000 165.647
53.76000 168.029
53.77000 170.390
53.78000 172.750
53.79000 173.037
53.80000 170.771
53.81000 168.501
53.82000 163.491
53.83000 156.344
53.84000 149.385
53.85000 150.274
53.86000 155.299
53.87000 160.251
53.88000 163.977
53.89000 167.266
53.90000 170.285
53.91000 169.524
53.92000 168.041
53.93000 166.386
53.94000 163.780
53.95000 161.027
53.96000 158.640
53.97000 157.580
53.98000 156.641
53.99000 155.966
54.00000 160.848
54.01000 164.778
54.02000 164.977
54.03000 159.014
54.04000 152.960
54.05000 150.583
54.06000 152.195
54.07000 153.802
54.08000 156.358
54.09000 159.546
54.10000 162.636
54.11000 162.749
54.12000 161.461
54.13000 160.146
54.14000 158.460
54.15000 156.655
54.16000 155.024
54.17000 161.615
54.18000 168.940
54.19000 174.733
54.20000 173.049
54.21000 170.367
54.22000 167.677
54.23000 164.964
54.24000 162.249
54.25000 160.366
54.26000 155.946
54.27000 152.550
54.28000 151.532
54.29000 154.007
54.30000 156.513
54.31000 157.837
54.32000 158.038
54.33000 158.237
54.34000 155.141
54.35000 150.086
54.36000 145.393
54.37000 149.129
54.38000 156.406
54.39000 163.083
54.40000 162.907
54.41000 160.789
54.42000 158.906
54.43000 160.676
54.44000 162.801
54.45000 164.989
54.46000 167.451
54.47000 169.944
54.48000 171.190
54.49000 168.840
54.50000 166.264
54.51000 164.546
54.52000 162.901
54.53000 161.685
54.54000 161.853
54.55000 163.821
54.56000 165.793
54.57000 166.050
54.58000 164.872
54.59000 163.709
54.60000 163.953
54.61000 164.950
54.62000 165.879
54.63000 165.546
54.64000 164.739
54.65000 163.634
54.66000 159.633
54.67000 154.902
54.68000 150.775
54.69000 154.062
54.70000 157.908
54.71000 161.454
54.72000 163.852
54.73000 166.137
54.74000 165.842
54.75000 158.909
54.76000 151.639
54.77000 146.993
54.78000 150.315
54.79000 152.837
54.80000 153.637
54.81000 152.458
54.82000 151.308
54.83000 155.849
54.84000 164.600
54.85000 173.186
54.86000 173.705
54.87000 170.358
54.88000 167.171
54.89000 166.363
54.90000 166.351
54.91000 166.363
54.92000 166.577
54.93000 166.836
54.94000 167.057
54.95000 168.191
54.96000 169.256
54.97000 170.306
54.98000 171.302
54.99000 172.293
55.00000 173.143
55.01000 173.669
55.02000 174.182
55.03000 174.496
55.04000 170.132
55.05000 166.975
55.06000 168.213
55.07000 173.887
55.08000 179.524
55.09000 181.734
55.10000 181.694
55.11000 181.655
55.12000 181.089
55.13000 180.328
55.14000 179.250
55.15000 174.250
55.16000 168.080
55.17000 163.473
55.18000 170.068
55.19000 178.869
55.20000 186.231
55.21000 189.027
55.22000 190.883
55.23000 191.204
55.24000 186.867
55.25000 182.210
55.26000 182.178
55.27000 191.637
55.28000 201.379
55.29000 207.032
55.30000 208.462
55.31000 209.449
55.32000 213.380
55.33000 219.916
55.34000 226.388
55.35000 229.096
55.36000 229.605
55.37000 230.098
55.38000 236.137
55.39000 243.892
55.40000 252.013
55.41000 263.939
55.42000 276.874
55.43000 288.796
55.44000 294.390
55.45000 298.889
55.46000 302.563
55.47000 314.822
55.48000 325.596
55.49000 338.049
55.50000 355.045
55.51000 372.296
55.52000 386.305
55.53000 394.380
55.54000 402.328
55.55000 406.692
55.56000 426.013
55.57000 439.329
55.58000 451.255
55.59000 462.095
55.60000 472.889
55.61000 481.830
55.62000 489.806
55.63000 497.438
55.64000 498.147
55.65000 496.538
55.66000 496.450
55.67000 509.863
55.68000 526.458
55.69000 541.822
55.70000 550.457
55.71000 558.074
55.72000 564.139
55.73000 555.662
55.74000 547.779
55.75000 540.168
55.76000 533.217
55.77000 526.295
55.78000 521.128
55.79000 518.823
55.80000 516.559
55.81000 515.388
55.82000 507.141
55.83000 501.542
55.84000 491.451
55.85000 478.249
55.86000 465.101
55.87000 453.524
55.88000 442.678
55.89000 432.413
55.90000 426.194
55.91000 421.642
55.92000 416.144
55.93000 403.421
55.94000 389.192
55.95000 375.246
55.96000 362.660
55.97000 350.253
55.98000 340.646
55.99000 330.209
56.00000 321.873
56.01000 313.096
56.02000 303.368
56.03000 293.607
56.04000 283.352
56.05000 272.378
56.06000 261.400
56.07000 254.573
56.08000 251.641
56.09000 248.704
56.10000 245.385
56.11000 241.832
56.12000 238.145
56.13000 231.436
56.14000 223.472
56.15000 216.027
56.16000 212.348
56.17000 209.964
56.18000 207.762
56.19000 206.762
56.20000 205.983
56.21000 204.860
56.22000 202.271
56.23000 199.516
56.24000 197.446
56.25000 192.595
56.26000 188.669
56.27000 185.325
56.28000 183.102
56.29000 180.907
56.30000 179.794
56.31000 180.071
56.32000 180.353
56.33000 177.557
56.34000 172.238
56.35000 167.115
56.36000 171.277
56.37000 180.525
56.38000 189.216
56.39000 187.872
56.40000 182.809
56.41000 178.140
56.42000 172.179
56.43000 166.550
56.44000 161.729
56.45000 161.583
56.46000 162.190
56.47000 163.553
56.48000 167.778
56.49000 172.278
56.50000 175.551
56.51000 172.599
56.52000 170.092
56.53000 168.799
56.54000 169.592
56.55000 170.421
56.56000 170.803
56.57000 170.679
56.58000 170.555
56.59000 168.739
56.60000 165.713
56.61000 162.701
56.62000 160.139
56.63000 157.796
56.64000 155.671
56.65000 156.722
56.66000 158.823
56.67000 160.732
56.68000 157.701
56.69000 154.061
56.70000 150.763
56.71000 149.209
56.72000 147.899
56.73000 147.756
56.74000 151.531
56.75000 155.625
56.76000 158.500
56.77000 156.205
56.78000 154.317
56.79000 155.257
56.80000 160.517
56.81000 165.824
56.82000 164.958
56.83000 157.955
56.84000 150.999
56.85000 150.491
56.86000 154.106
56.87000 157.689
56.88000 160.468
56.89000 162.895
56.90000 164.919
56.91000 162.036
56.92000 157.707
56.93000 153.837
56.94000 152.514
56.95000 151.792
56.96000 151.402
56.97000 152.508
56.98000 153.794
56.99000 156.016
57.00000 161.044
57.01000 166.261
57.02000 169.787
57.03000 154.939
57.04000 143.486
57.05000 137.826
57.06000 140.023
57.07000 142.264
57.08000 145.427
57.09000 149.396
57.10000 153.320
57.11000 154.536
57.12000 154.198
57.13000 153.942
57.14000 155.293
57.15000 157.271
57.16000 159.166
57.17000 160.206
57.18000 161.023
57.19000 161.740
57.20000 155.494
57.21000 149.105
57.22000 144.241
57.23000 145.452
57.24000 147.293
57.25000 149.051
57.26000 150.589
57.27000 152.115
57.28000 153.104
57.29000 149.689
57.30000 147.123
57.31000 145.924
57.32000 146.365
57.33000 146.801
57.34000 145.104
57.35000 141.762
57.36000 138.475
57.37000 139.288
57.38000 142.111
57.39000 145.005
57.40000 149.024
57.41000 153.433
57.42000 157.499
57.43000 158.555
57.44000 158.912
57.45000 159.220
57.46000 156.088
57.47000 153.001
57.48000 150.564
57.49000 150.427
57.50000 150.493
57.51000 149.014
57.52000 143.847
57.53000 138.519
57.54000 135.216
57.55000 142.135
57.56000 147.211
57.57000 146.795
57.58000 140.586
57.59000 134.435
57.60000 135.060
57.61000 140.314
57.62000 145.446
57.63000 151.194
57.64000 156.967
57.65000 162.042
57.66000 157.936
57.67000 150.980
57.68000 145.045
57.69000 146.781
57.70000 150.094
57.71000 152.886
57.72000 148.041
57.73000 143.171
57.74000 139.794
57.75000 141.125
57.76000 142.801
57.77000 144.749
57.78000 147.279
57.79000 149.829
57.80000 151.334
57.81000 150.322
57.82000 149.593
57.83000 149.953
57.84000 151.321
57.85000 152.673
57.86000 153.020
57.87000 152.757
57.88000 152.501
57.89000 151.156
57.90000 149.460
57.91000 147.976
57.92000 148.840
57.93000 150.353
57.94000 151.263
57.95000 148.240
57.96000 144.505
57.97000 141.428
57.98000 145.108
57.99000 148.754
58.00000 151.011
58.01000 149.362
58.02000 147.478
58.03000 146.601
58.04000 147.639
58.05000 148.724
58.06000 149.331
58.07000 144.373
58.08000 140.928
58.09000 138.856
58.10000 137.903
58.11000 136.985
58.12000 137.676
58.13000 139.236
58.14000 140.735
58.15000 143.856
58.16000 147.331
58.17000 150.126
58.18000 146.571
58.19000 141.458
58.20000 137.686
58.21000 141.576
58.22000 146.681
58.23000 150.781
58.24000 147.753
58.25000 144.752
58.26000 142.486
58.27000 142.066
58.28000 141.734
58.29000 142.113
58.30000 143.695
58.31000 145.296
58.32000 146.142
58.33000 140.339
58.34000 136.423
58.35000 136.860
58.36000 140.434
58.37000 143.876
58.38000 142.992
58.39000 140.021
58.40000 137.198
58.41000 136.624
58.42000 136.771
58.43000 136.891
58.44000 136.797
58.45000 136.656
58.46000 136.191
58.47000 134.097
58.48000 131.779
58.49000 129.967
58.50000 139.700
58.51000 148.202
58.52000 152.428
58.53000 147.062
58.54000 141.337
58.55000 139.481
58.56000 143.465
58.57000 147.507
58.58000 149.055
58.59000 148.158
58.60000 147.240
58.61000 144.668
58.62000 141.037
58.63000 137.473
58.64000 135.575
58.65000 134.395
58.66000 133.286
58.67000 134.913
58.68000 137.122
58.69000 139.092
58.70000 139.406
58.71000 139.402
58.72000 139.292
58.73000 138.711
58.74000 138.074
58.75000 137.590
58.76000 138.997
58.77000 140.201
58.78000 142.061
58.79000 145.237
58.80000 148.449
58.81000 149.869
58.82000 148.889
58.83000 147.897
58.84000 145.225
58.85000 141.113
58.86000 137.071
58.87000 136.832
58.88000 138.759
58.89000 140.616
58.90000 141.138
58.91000 141.145
58.92000 141.152
58.93000 140.195
58.94000 139.108
58.95000 138.660
58.96000 142.083
58.97000 146.157
58.98000 148.743
58.99000 145.473
59.00000 141.606
59.01000 138.762
59.02000 144.947
59.03000 150.104
59.04000 152.095
59.05000 148.431
59.06000 144.656
59.07000 139.947
59.08000 134.134
59.09000 128.333
59.10000 127.644
59.11000 130.822
59.12000 133.982
59.13000 136.465
59.14000 138.604
59.15000 140.520
59.16000 138.946
59.17000 136.172
59.18000 133.639
59.19000 135.700
59.20000 138.467
59.21000 140.373
59.22000 137.709
59.23000 134.373
59.24000 131.948
59.25000 132.708
59.26000 133.743
59.27000 134.478
59.28000 130.131
59.29000 126.659
59.30000 125.969
59.31000 129.703
59.32000 133.494
59.33000 135.372
59.34000 135.260
59.35000 135.149
59.36000 135.012
59.37000 134.859
59.38000 134.727
59.39000 135.193
59.40000 135.930
59.41000 136.653
59.42000 137.206
59.43000 137.707
59.44000 138.157
59.45000 139.613
59.46000 141.067
59.47000 141.970
59.48000 140.294
59.49000 138.289
59.50000 137.755
59.51000 141.801
59.52000 146.176
59.53000 149.173
59.54000 144.621
59.55000 141.031
59.56000 139.557
59.57000 141.070
59.58000 142.604
59.59000 144.026
59.60000 145.347
59.61000 146.655
59.62000 145.324
59.63000 142.472
59.64000 139.677
59.65000 138.140
59.66000 137.111
59.67000 136.272
59.68000 137.484
59.69000 139.255
59.70000 140.819
59.71000 138.545
59.72000 135.989
59.73000 133.798
59.74000 133.118
59.75000 132.603
59.76000 132.693
59.77000 134.460
59.78000 136.326
59.79000 137.553
59.80000 137.957
59.81000 138.240
59.82000 139.099
59.83000 140.676
59.84000 142.251
59.85000 142.111
59.86000 140.593
59.87000 139.097
59.88000 139.794
59.89000 141.607
59.90000 143.192
59.91000 140.864
59.92000 137.122
59.93000 133.644
59.94000 132.588
59.95000 132.119
59.96000 131.712
59.97000 131.190
59.98000 130.730
59.99000 130.571
60.00000 131.520
60.01000 132.571
60.02000 134.610
60.03000 139.097
60.04000 143.700
60.05000 146.598
60.06000 139.189
60.07000 133.710
60.08000 131.828
60.09000 133.911
60.10000 135.981
60.11000 136.027
60.12000 134.633
60.13000 133.268
60.14000 131.673
60.15000 130.036
60.16000 128.739
60.17000 132.215
60.18000 137.232
60.19000 141.574
60.20000 140.588
60.21000 138.460
60.22000 136.654
60.23000 136.887
60.24000 137.315
60.25000 137.818
60.26000 138.565
60.27000 139.331
60.28000 140.538
60.29000 142.720
60.30000 144.938
60.31000 146.271
60.32000 140.163
60.33000 135.772
60.34000 133.354
60.35000 132.843
60.36000 132.337
60.37000 132.216
60.38000 132.339
60.39000 132.458
60.40000 131.045
60.41000 129.083
60.42000 127.398
60.43000 128.960
60.44000 131.454
60.45000 133.741
60.46000 134.603
60.47000 135.197
60.48000 135.690
60.49000 137.992
60.50000 140.071
60.51000 140.802
60.52000 137.591
60.53000 134.126
60.54000 133.320
60.55000 137.774
60.56000 142.370
60.57000 144.991
60.58000 142.989
60.59000 141.580
60.60000 141.783
60.61000 143.356
60.62000 144.878
60.63000 143.776
60.64000 141.197
60.65000 138.714
60.66000 136.473
60.67000 134.457
60.68000 132.696
60.69000 133.467
60.70000 134.886
60.71000 136.015
60.72000 135.423
60.73000 134.545
60.74000 133.834
60.75000 134.424
60.76000 135.011
60.77000 135.037
60.78000 133.602
60.79000 132.091
60.80000 130.653
60.81000 129.345
60.82000 128.040
60.83000 127.336
60.84000 128.332
60.85000 129.019
60.86000 130.638
60.87000 132.957
60.88000 135.212
60.89000 135.166
60.90000 133.967
60.91000 132.823
60.92000 134.084
60.93000 136.011
60.94000 137.821
60.95000 138.645
60.96000 139.246
60.97000 140.115
60.98000 142.389
60.99000 144.866
61.00000 146.822
61.01000 143.003
61.02000 139.547
61.03000 137.144
61.04000 137.192
61.05000 137.341
61.06000 138.937
61.07000 142.806
61.08000 146.702
61.09000 148.675
61.10000 138.092
61.11000 131.045
61.12000 127.852
61.13000 127.226
61.14000 126.696
61.15000 128.769
61.16000 132.008
61.17000 135.061
61.18000 141.250
61.19000 147.789
61.20000 152.716
61.21000 145.902
61.22000 136.739
61.23000 130.074
61.24000 134.961
61.25000 141.295
61.26000 146.153
61.27000 146.532
61.28000 146.582
61.29000 145.668
61.30000 142.746
61.31000 139.762
61.32000 137.323
61.33000 135.644
61.34000 133.971
61.35000 134.348
61.36000 136.567
61.37000 138.762
61.38000 139.482
61.39000 139.329
61.40000 139.352
61.41000 143.096
61.42000 148.329
61.43000 153.200
61.44000 149.611
61.45000 144.307
61.46000 140.393
61.47000 145.303
61.48000 151.765
61.49000 159.720
61.50000 173.792
61.51000 188.521
61.52000 199.475
61.53000 203.085
61.54000 205.565
61.55000 214.326
61.56000 234.747
61.57000 255.429
61.58000 271.162
61.59000 280.790
61.60000 290.384
61.61000 299.079
61.62000 307.025
61.63000 314.967
61.64000 322.708
61.65000 330.342
61.66000 337.354
61.67000 333.893
61.68000 326.693
61.69000 320.082
61.70000 328.134
61.71000 338.442
61.72000 347.058
61.73000 346.280
61.74000 344.056
61.75000 338.867
61.76000 322.893
61.77000 305.935
61.78000 293.737
61.79000 271.785
61.80000 254.640
61.81000 238.998
61.82000 225.842
61.83000 212.724
61.84000 200.950
61.85000 190.639
61.86000 180.373
61.87000 172.086
61.88000 165.260
61.89000 158.601
61.90000 157.066
61.91000 157.943
61.92000 158.644
61.93000 156.907
61.94000 154.393
61.95000 152.120
61.96000 147.419
61.97000 142.831
61.98000 138.943
61.99000 138.475
62.00000 138.465
62.01000 138.961
62.02000 141.098
62.03000 143.361
62.04000 144.931
62.05000 144.348
62.06000 143.851
62.07000 144.611
62.08000 147.218
62.09000 149.841
62.10000 151.161
62.11000 151.241
62.12000 151.320
62.13000 154.365
62.14000 159.174
62.15000 163.678
62.16000 161.055
62.17000 155.433
62.18000 150.539
62.19000 153.991
62.20000 159.812
62.21000 164.985
62.22000 159.763
62.23000 153.551
62.24000 148.176
62.25000 146.420
62.26000 145.081
62.27000 144.416
62.28000 145.694
62.29000 147.095
62.30000 148.030
62.31000 144.577
62.32000 141.935
62.33000 141.823
62.34000 145.007
62.35000 148.201
62.36000 149.429
62.37000 149.010
62.38000 148.596
62.39000 149.761
62.40000 151.750
62.41000 153.435
62.42000 149.520
62.43000 143.501
62.44000 138.055
62.45000 138.174
62.46000 139.696
62.47000 141.024
62.48000 141.931
62.49000 142.648
62.50000 143.061
62.51000 142.310
62.52000 141.444
62.53000 141.341
62.54000 143.204
62.55000 145.168
62.56000 146.423
62.57000 149.258
62.58000 151.342
62.59000 149.634
62.60000 143.560
62.61000 137.528
62.62000 140.350
62.63000 149.733
62.64000 158.940
62.65000 156.874
62.66000 149.497
62.67000 142.588
62.68000 142.705
62.69000 145.178
62.70000 147.433
62.71000 147.876
62.72000 147.914
62.73000 147.947
62.74000 147.637
62.75000 147.335
62.76000 146.929
62.77000 146.167
62.78000 145.376
62.79000 144.528
62.80000 143.548
62.81000 142.563
62.82000 141.961
62.83000 144.416
62.84000 146.197
62.85000 145.453
62.86000 142.158
62.87000 138.921
62.88000 141.262
62.89000 147.269
62.90000 153.122
62.91000 155.851
62.92000 157.134
62.93000 158.157
62.94000 155.942
62.95000 152.759
62.96000 149.696
62.97000 147.500
62.98000 145.474
62.99000 143.780
63.00000 144.495
63.01000 145.336
63.02000 145.672
63.03000 144.476
63.04000 143.174
63.05000 144.249
63.06000 150.213
63.07000 156.323
63.08000 159.871
63.09000 152.313
63.10000 146.963
63.11000 145.738
63.12000 148.171
63.13000 150.580
63.14000 151.536
63.15000 151.642
63.16000 151.745
63.17000 151.774
63.18000 151.773
63.19000 151.615
63.20000 149.811
63.21000 147.570
63.22000 145.714
63.23000 146.263
63.24000 147.230
63.25000 148.021
63.26000 150.172
63.27000 152.051
63.28000 153.904
63.29000 155.682
63.30000 157.457
63.31000 159.662
63.32000 162.655
63.33000 165.666
63.34000 167.321
63.35000 160.266
63.36000 155.401
63.37000 152.537
63.38000 151.237
63.39000 149.930
63.40000 148.333
63.41000 146.585
63.42000 144.911
63.43000 143.621
63.44000 142.544
63.45000 141.756
63.46000 143.538
63.47000 145.927
63.48000 148.411
63.49000 151.413
63.50000 154.494
63.51000 156.947
63.52000 157.509
63.53000 157.825
63.54000 159.208
63.55000 163.174
63.56000 167.255
63.57000 166.930
63.58000 159.407
63.59000 151.783
63.60000 147.837
63.61000 150.967
63.62000 153.073
63.63000 154.488
63.64000 155.424
63.65000 156.318
63.66000 155.980
63.67000 155.069
63.68000 154.206
63.69000 153.957
63.70000 153.906
63.71000 153.799
63.72000 153.263
63.73000 152.637
63.74000 153.136
63.75000 159.059
63.76000 165.697
63.77000 170.839
63.78000 163.956
63.79000 157.774
63.80000 153.438
63.81000 153.093
63.82000 152.884
63.83000 153.626
63.84000 155.749
63.85000 157.883
63.86000 156.659
63.87000 152.282
63.88000 147.958
63.89000 147.473
63.90000 149.351
63.91000 151.379
63.92000 156.783
63.93000 163.591
63.94000 169.957
63.95000 165.102
63.96000 157.838
63.97000 151.887
63.98000 154.661
63.99000 159.039
64.00000 162.248
64.01000 160.468
64.02000 158.122
64.03000 156.359
64.04000 165.038
64.05000 172.328
64.06000 175.580
64.07000 171.040
64.08000 166.304
64.09000 162.925
64.10000 161.292
64.11000 159.668
64.12000 160.261
64.13000 162.680
64.14000 165.061
64.15000 165.666
64.16000 165.297
64.17000 164.753
64.18000 161.034
64.19000 156.137
64.20000 151.619
64.21000 156.576
64.22000 163.133
64.23000 168.904
64.24000 170.123
64.25000 170.609
64.26000 170.808
64.27000 169.929
64.28000 168.945
64.29000 168.229
64.30000 167.122
64.31000 166.255
64.32000 166.663
64.33000 169.263
64.34000 171.902
64.35000 172.940
64.36000 172.162
64.37000 171.385
64.38000 172.890
64.39000 176.038
64.40000 179.134
64.41000 180.446
64.42000 180.885
64.43000 181.300
64.44000 181.349
64.45000 181.277
64.46000 181.212
64.47000 177.208
64.48000 172.901
64.49000 169.447
64.50000 170.346
64.51000 171.855
64.52000 173.060
64.53000 173.241
64.54000 173.338
64.55000 173.407
64.56000 173.784
64.57000 174.079
64.58000 176.064
64.59000 180.634
64.60000 185.233
64.61000 186.364
64.62000 184.039
64.63000 181.730
64.64000 181.399
64.65000 182.339
64.66000 183.279
64.67000 184.219
64.68000 185.160
64.69000 186.177
64.70000 188.125
64.71000 190.348
64.72000 192.335
64.73000 191.686
64.74000 190.672
64.75000 189.978
64.76000 190.719
64.77000 191.635
64.78000 192.637
64.79000 193.896
64.80000 195.173
64.81000 196.037
64.82000 199.666
64.83000 202.430
64.84000 203.821
64.85000 203.348
64.86000 202.867
64.87000 204.335
64.88000 207.509
64.89000 210.647
64.90000 215.653
64.91000 221.595
64.92000 227.442
64.93000 231.395
64.94000 234.609
64.95000 238.389
64.96000 247.976
64.97000 259.088
64.98000 268.847
64.99000 268.143
65.00000 266.000
65.01000 264.884
65.02000 267.866
65.03000 271.275
65.04000 275.967
65.05000 284.098
65.06000 292.416
65.07000 297.815
65.08000 319.522
65.09000 335.665
65.10000 343.347
65.11000 340.869
65.12000 338.407
65.13000 345.233
65.14000 359.232
65.15000 372.999
65.16000 374.098
65.17000 368.851
65.18000 364.404
65.19000 372.812
65.20000 385.700
65.21000 398.055
65.22000 405.740
65.23000 412.338
65.24000 418.020
65.25000 423.048
65.26000 427.226
65.27000 430.684
65.28000 431.591
65.29000 432.273
65.30000 434.209
65.31000 439.143
65.32000 444.207
65.33000 447.349
65.34000 437.153
65.35000 429.687
65.36000 424.428
65.37000 421.504
65.38000 418.604
65.39000 418.602
65.40000 420.582
65.41000 422.517
65.42000 418.275
65.43000 411.496
65.44000 404.851
65.45000 399.980
65.46000 395.661
65.47000 391.844
65.48000 391.815
65.49000 392.567
65.50000 393.200
65.51000 378.167
65.52000 363.917
65.53000 352.742
65.54000 351.281
65.55000 350.534
65.56000 352.529
65.57000 360.382
65.58000 368.430
65.59000 373.185
65.60000 371.897
65.61000 370.955
65.62000 374.848
65.63000 383.221
65.64000 391.721
65.65000 408.900
65.66000 431.358
65.67000 453.121
65.68000 492.562
65.69000 536.766
65.70000 582.078
65.71000 639.645
65.72000 700.604
65.73000 763.332
65.74000 837.648
65.75000 914.064
65.76000 977.027
65.77000 1050.950
65.78000 1112.781
65.79000 1170.497
65.80000 1216.618
65.81000 1262.040
65.82000 1299.557
65.83000 1322.003
65.84000 1344.084
65.85000 1356.454
65.86000 1383.634
65.87000 1402.468
65.88000 1405.656
65.89000 1396.077
65.90000 1386.021
65.91000 1354.209
65.92000 1310.607
65.93000 1268.742
65.94000 1210.502
65.95000 1150.408
65.96000 1088.988
65.97000 1015.134
65.98000 938.223
65.99000 860.874
66.00000 781.020
66.01000 700.767
66.02000 636.276
66.03000 565.827
66.04000 508.264
66.05000 461.219
66.06000 440.635
66.07000 421.329
66.08000 405.245
66.09000 394.632
66.10000 384.111
66.11000 378.551
66.12000 368.477
66.13000 361.624
66.14000 353.393
66.15000 344.168
66.16000 335.095
66.17000 331.014
66.18000 329.346
66.19000 327.761
66.20000 330.387
66.21000 334.085
66.22000 338.234
66.23000 346.019
66.24000 354.596
66.25000 363.144
66.26000 371.549
66.27000 379.935
66.28000 386.494
66.29000 399.460
66.30000 410.220
66.31000 421.276
66.32000 432.998
66.33000 444.746
66.34000 458.776
66.35000 476.257
66.36000 493.772
66.37000 510.728
66.38000 527.133
66.39000 543.401
66.40000 548.076
66.41000 545.321
66.42000 542.447
66.43000 536.656
66.44000 529.604
66.45000 522.982
66.46000 515.976
66.47000 509.484
66.48000 503.180
66.49000 498.184
66.50000 493.440
66.51000 485.863
66.52000 465.697
66.53000 444.029
66.54000 427.569
66.55000 408.483
66.56000 393.344
66.57000 381.023
66.58000 374.359
66.59000 367.852
66.60000 363.875
66.61000 363.287
66.62000 362.718
66.63000 357.178
66.64000 347.367
66.65000 337.651
66.66000 333.088
66.67000 331.466
66.68000 329.999
66.69000 331.569
66.70000 334.309
66.71000 336.850
66.72000 340.742
66.73000 344.560
66.74000 348.431
66.75000 352.616
66.76000 356.854
66.77000 359.857
66.78000 357.994
66.79000 355.634
66.80000 353.897
66.81000 358.131
66.82000 361.656
66.83000 361.435
66.84000 354.517
66.85000 347.465
66.86000 346.112
66.87000 351.509
66.88000 356.905
66.89000 358.073
66.90000 356.031
66.91000 354.089
66.92000 355.923
66.93000 359.678
66.94000 363.302
66.95000 364.864
66.96000 365.716
66.97000 366.495
66.98000 370.856
66.99000 375.460
67.00000 379.475
67.01000 380.346
67.02000 380.755
67.03000 380.949
67.04000 380.386
67.05000 379.758
67.06000 379.311
67.07000 381.919
67.08000 384.003
67.09000 387.945
67.10000 394.846
67.11000 401.784
67.12000 405.648
67.13000 406.307
67.14000 406.962
67.15000 406.606
67.16000 405.581
67.17000 404.558
67.18000 403.615
67.19000 402.708
67.20000 401.531
67.21000 396.849
67.22000 391.091
67.23000 385.913
67.24000 398.839
67.25000 413.383
67.26000 425.072
67.27000 423.354
67.28000 419.924
67.29000 418.593
67.30000 423.810
67.31000 429.497
67.32000 433.395
67.33000 438.093
67.34000 441.632
67.35000 441.641
67.36000 436.655
67.37000 431.635
67.38000 432.156
67.39000 437.738
67.40000 443.268
67.41000 450.145
67.42000 457.675
67.43000 464.799
67.44000 463.170
67.45000 457.992
67.46000 453.305
67.47000 453.955
67.48000 456.062
67.49000 457.925
67.50000 459.026
67.51000 459.860
67.52000 460.844
67.53000 462.454
67.54000 464.132
67.55000 466.029
67.56000 468.534
67.57000 471.074
67.58000 472.746
67.59000 485.241
67.60000 494.630
67.61000 495.577
67.62000 485.949
67.63000 476.313
67.64000 475.488
67.65000 481.757
67.66000 487.935
67.67000 494.044
67.68000 499.937
67.69000 505.945
67.70000 513.926
67.71000 522.621
67.72000 530.314
67.73000 528.768
67.74000 524.981
67.75000 521.697
67.76000 527.945
67.77000 534.536
67.78000 539.752
67.79000 539.897
67.80000 539.569
67.81000 539.132
67.82000 538.421
67.83000 537.697
67.84000 537.241
67.85000 540.808
67.86000 543.436
67.87000 546.442
67.88000 549.865
67.89000 553.271
67.90000 554.258
67.91000 553.522
67.92000 552.801
67.93000 554.097
67.94000 556.268
67.95000 558.894
67.96000 567.917
67.97000 579.005
67.98000 589.314
67.99000 593.441
68.00000 596.240
68.01000 598.618
68.02000 594.369
68.03000 590.046
68.04000 588.162
68.05000 594.289
68.06000 601.043
68.07000 605.250
68.08000 603.804
68.09000 602.152
68.10000 601.159
68.11000 620.403
68.12000 634.221
68.13000 643.032
68.14000 646.992
68.15000 650.860
68.16000 647.364
68.17000 639.207
68.18000 631.280
68.19000 638.564
68.20000 651.649
68.21000 664.093
68.22000 669.012
68.23000 671.765
68.24000 675.860
68.25000 689.163
68.26000 704.209
68.27000 716.706
68.28000 728.395
68.29000 737.983
68.30000 744.920
68.31000 744.092
68.32000 742.764
68.33000 744.472
68.34000 752.196
68.35000 760.083
68.36000 764.585
68.37000 763.316
68.38000 762.415
68.39000 763.770
68.40000 767.045
68.41000 770.531
68.42000 784.932
68.43000 805.483
68.44000 825.280
68.45000 841.445
68.46000 855.329
68.47000 869.027
68.48000 880.887
68.49000 892.276
68.50000 903.716
68.51000 915.460
68.52000 927.255
68.53000 936.816
68.54000 974.828
68.55000 1008.124
68.56000 1039.319
68.57000 1065.020
68.58000 1090.434
68.59000 1124.018
68.60000 1172.039
68.61000 1220.334
68.62000 1246.379
68.63000 1329.996
68.64000 1387.311
68.65000 1457.961
68.66000 1538.641
68.67000 1618.929
68.68000 1684.928
68.69000 1743.746
68.70000 1799.841
68.71000 1879.811
68.72000 1961.538
68.73000 2040.330
68.74000 2094.271
68.75000 2142.573
68.76000 2197.492
68.77000 2287.167
68.78000 2381.883
68.79000 2456.666
68.80000 2540.437
68.81000 2608.274
68.82000 2698.539
68.83000 2841.155
68.84000 2985.920
68.85000 3178.011
68.86000 3444.541
68.87000 3711.978
68.88000 3847.505
68.89000 4830.272
68.90000 5494.512
68.91000 6781.004
68.92000 8482.582
68.93000 10232.674
68.94000 13298.168
68.95000 16953.756
68.96000 20400.961
68.97000 26119.803
68.98000 31989.764
68.99000 37937.086
69.00000 44449.527
69.01000 51075.262
69.02000 57476.727
69.03000 62839.145
69.04000 68071.063
69.05000 72085.922
69.06000 75416.328
69.07000 78010.055
69.08000 80082.609
69.09000 81068.844
69.10000 82021.227
69.11000 82745.078
69.12000 83149.742
69.13000 83552.109
69.14000 84229.172
69.15000 85152.844
69.16000 86066.406
69.17000 86351.008
69.18000 86262.445
69.19000 86092.617
69.20000 84212.219
69.21000 81646.508
69.22000 79257.336
69.23000 74804.430
69.24000 70274.633
69.25000 65847.844
69.26000 62075.602
69.27000 58418.777
69.28000 54941.547
69.29000 52201.070
69.30000 49540.020
69.31000 47559.938
69.32000 45613.145
69.33000 44100.047
69.34000 42678.445
69.35000 41427.012
69.36000 40179.402
69.37000 38603.176
69.38000 36620.766
69.39000 34640.797
69.40000 31995.797
69.41000 28837.078
69.42000 25678.527
69.43000 22526.992
69.44000 19379.166
69.45000 16267.587
69.46000 13766.534
69.47000 11483.870
69.48000 9387.753
69.49000 7685.347
69.50000 6250.650
69.51000 4926.358
69.52000 4216.346
69.53000 3601.088
69.54000 3057.831
69.55000 2776.914
69.56000 2520.011
69.57000 2335.116
69.58000 2133.514
69.59000 1978.562
69.60000 1847.893
69.61000 1757.463
69.62000 1667.639
69.63000 1587.891
69.64000 1519.114
69.65000 1450.641
69.66000 1404.347
69.67000 1373.973
69.68000 1343.288
69.69000 1303.028
69.70000 1258.251
69.71000 1215.143
69.72000 1195.053
69.73000 1182.310
69.74000 1170.786
69.75000 1147.083
69.76000 1123.953
69.77000 1101.465
69.78000 1082.126
69.79000 1063.210
69.80000 1043.832
69.81000 1022.962
69.82000 1001.977
69.83000 987.409
69.84000 962.297
69.85000 943.098
69.86000 923.000
69.87000 901.580
69.88000 880.149
69.89000 871.151
69.90000 874.023
69.91000 876.872
69.92000 869.682
69.93000 856.454
69.94000 843.255
69.95000 830.710
69.96000 818.442
69.97000 806.161
69.98000 793.734
69.99000 781.265
70.00000 770.179
