20.00000 541.767
20.01000 541.324
20.02000 540.818
20.03000 542.630
20.04000 553.476
20.05000 565.231
20.06000 573.858
20.07000 568.955
20.08000 564.618
20.09000 560.973
20.10000 558.551
20.11000 556.152
20.12000 558.900
20.13000 567.678
20.14000 576.442
20.15000 579.042
20.16000 577.009
20.17000 575.066
20.18000 576.390
20.19000 579.361
20.20000 582.055
20.21000 580.484
20.22000 577.460
20.23000 574.701
20.24000 571.991
20.25000 569.597
20.26000 566.211
20.27000 557.602
20.28000 548.232
20.29000 542.131
20.30000 547.360
20.31000 553.552
20.32000 557.941
20.33000 567.409
20.34000 574.767
20.35000 576.982
20.36000 571.090
20.37000 565.097
20.38000 563.774
20.39000 567.260
20.40000 570.727
20.41000 569.604
20.42000 565.470
20.43000 561.647
20.44000 566.304
20.45000 574.775
20.46000 581.618
20.47000 567.716
20.48000 547.513
20.49000 529.371
20.50000 534.415
20.51000 542.904
20.52000 550.938
20.53000 556.857
20.54000 562.509
20.55000 567.864
20.56000 572.300
20.57000 576.671
20.58000 579.657
20.59000 581.281
20.60000 582.464
20.61000 580.282
20.62000 573.390
20.63000 566.468
20.64000 561.078
20.65000 557.072
20.66000 553.105
20.67000 551.654
20.68000 551.696
20.69000 551.875
20.70000 554.948
20.71000 559.184
20.72000 562.898
20.73000 561.051
20.74000 557.699
20.75000 554.742
20.76000 551.261
20.77000 548.179
20.78000 545.445
20.79000 544.144
20.80000 542.999
20.81000 544.650
20.82000 554.007
20.83000 563.810
20.84000 570.239
20.85000 555.343
20.86000 544.033
20.87000 539.818
20.88000 544.395
20.89000 548.993
20.90000 552.529
20.91000 555.220
20.92000 557.871
20.93000 562.928
20.94000 569.069
20.95000 574.621
20.96000 570.218
20.97000 562.246
20.98000 555.129
20.99000 555.797
21.00000 558.333
21.01000 560.528
21.02000 551.097
21.03000 541.549
21.04000 534.444
21.05000 536.265
21.06000 538.905
21.07000 541.423
21.08000 543.642
21.09000 545.847
21.10000 547.231
21.11000 554.358
21.12000 559.571
21.13000 561.310
21.14000 559.255
21.15000 557.161
21.16000 549.943
21.17000 539.111
21.18000 528.511
21.19000 526.302
21.20000 527.990
21.21000 530.008
21.22000 536.601
21.23000 544.656
21.24000 552.059
21.25000 554.368
21.26000 555.596
21.27000 556.636
21.28000 551.181
21.29000 545.877
21.30000 543.041
21.31000 548.232
21.32000 554.041
21.33000 558.119
21.34000 558.397
21.35000 558.539
21.36000 558.625
21.37000 548.433
21.38000 541.133
21.39000 541.170
21.40000 548.229
21.41000 555.154
21.42000 551.755
21.43000 541.892
21.44000 532.313
21.45000 541.029
21.46000 556.635
21.47000 570.566
21.48000 565.151
21.49000 554.224
21.50000 544.844
21.51000 545.933
21.52000 548.983
21.53000 551.512
21.54000 549.964
21.55000 548.295
21.56000 546.124
21.57000 542.494
21.58000 538.771
21.59000 539.269
21.60000 548.044
21.61000 557.037
21.62000 562.145
21.63000 551.269
21.64000 543.659
21.65000 544.100
21.66000 551.319
21.67000 558.404
21.68000 558.733
21.69000 555.295
21.70000 551.986
21.71000 552.077
21.72000 553.366
21.73000 554.917
21.74000 559.033
21.75000 563.798
21.76000 568.912
21.77000 576.097
21.78000 583.622
21.79000 589.707
21.80000 585.486
21.81000 581.221
21.82000 579.246
21.83000 583.199
21.84000 587.454
21.85000 593.050
21.86000 600.989
21.87000 608.972
21.88000 613.255
21.89000 612.298
21.90000 611.680
21.91000 618.616
21.92000 631.172
21.93000 643.538
21.94000 649.165
21.95000 651.440
21.96000 653.607
21.97000 653.590
21.98000 652.894
21.99000 652.335
22.00000 652.926
22.01000 653.775
22.02000 654.737
22.03000 656.286
22.04000 657.920
22.05000 659.207
22.06000 673.021
22.07000 684.929
22.08000 693.570
22.09000 694.662
22.10000 695.451
22.11000 694.268
22.12000 690.015
22.13000 685.725
22.14000 683.564
22.15000 680.650
22.16000 678.723
22.17000 678.848
22.18000 680.328
22.19000 681.469
22.20000 673.636
22.21000 661.817
22.22000 650.683
22.23000 644.107
22.24000 639.341
22.25000 633.948
22.26000 624.043
22.27000 613.242
22.28000 604.594
22.29000 605.809
22.30000 608.246
22.31000 610.111
22.32000 596.871
22.33000 585.596
22.34000 578.416
22.35000 579.688
22.36000 581.217
22.37000 578.423
22.38000 569.656
22.39000 560.856
22.40000 556.124
22.41000 555.018
22.42000 553.963
22.43000 555.890
22.44000 559.569
22.45000 562.767
22.46000 556.042
22.47000 545.381
22.48000 535.465
22.49000 531.941
22.50000 530.300
22.51000 528.268
22.52000 523.786
22.53000 518.876
22.54000 517.423
22.55000 530.004
22.56000 544.076
22.57000 554.517
22.58000 557.918
22.59000 560.251
22.60000 557.130
22.61000 543.968
22.62000 530.586
22.63000 521.699
22.64000 518.306
22.65000 514.934
22.66000 516.527
22.67000 521.996
22.68000 527.446
22.69000 532.109
22.70000 536.361
22.71000 540.276
22.72000 538.603
22.73000 534.952
22.74000 531.603
22.75000 529.428
22.76000 527.738
22.77000 526.216
22.78000 525.622
22.79000 525.170
22.80000 525.231
22.81000 527.144
22.82000 529.225
22.83000 530.718
22.84000 521.797
22.85000 514.619
22.86000 510.966
22.87000 513.096
22.88000 515.309
22.89000 515.442
22.90000 513.336
22.91000 511.240
22.92000 514.449
22.93000 521.277
22.94000 527.776
22.95000 524.423
22.96000 516.467
22.97000 509.244
22.98000 511.954
22.99000 517.803
23.00000 523.084
23.01000 526.265
23.02000 528.674
23.03000 530.469
23.04000 529.293
23.05000 527.724
23.06000 524.266
23.07000 514.743
23.08000 504.763
23.09000 497.858
23.10000 504.632
23.11000 510.083
23.12000 514.111
23.13000 516.066
23.14000 518.003
23.15000 518.024
23.16000 516.235
23.17000 514.462
23.18000 513.251
23.19000 512.404
23.20000 511.878
23.21000 518.732
23.22000 528.663
23.23000 537.016
23.24000 527.483
23.25000 512.919
23.26000 499.990
23.27000 501.048
23.28000 504.204
23.29000 507.500
23.30000 511.396
23.31000 515.359
23.32000 518.365
23.33000 518.626
23.34000 518.718
23.35000 518.778
23.36000 517.238
23.37000 516.068
23.38000 514.644
23.39000 512.892
23.40000 511.150
23.41000 514.677
23.42000 522.581
23.43000 530.381
23.44000 527.485
23.45000 518.935
23.46000 510.858
23.47000 511.392
23.48000 515.133
23.49000 518.634
23.50000 519.836
23.51000 520.463
23.52000 521.010
23.53000 523.032
23.54000 524.964
23.55000 524.619
23.56000 515.620
23.57000 505.779
23.58000 499.812
23.59000 503.746
23.60000 508.174
23.61000 510.997
23.62000 519.182
23.63000 525.202
23.64000 527.207
23.65000 524.632
23.66000 522.053
23.67000 519.378
23.68000 516.632
23.69000 513.940
23.70000 512.734
23.71000 512.276
23.72000 512.125
23.73000 516.512
23.74000 522.409
23.75000 528.712
23.76000 538.357
23.77000 548.743
23.78000 557.611
23.79000 551.455
23.80000 544.486
23.81000 539.121
23.82000 539.181
23.83000 539.686
23.84000 538.339
23.85000 532.767
23.86000 527.029
23.87000 523.538
23.88000 524.617
23.89000 525.424
23.90000 529.134
23.91000 535.750
23.92000 542.311
23.93000 543.772
23.94000 541.909
23.95000 540.096
23.96000 539.698
23.97000 539.910
23.98000 540.238
23.99000 541.976
24.00000 544.133
24.01000 545.921
24.02000 545.096
24.03000 543.760
24.04000 542.644
24.05000 547.757
24.06000 552.631
24.07000 554.874
24.08000 549.189
24.09000 542.966
24.10000 541.677
24.11000 550.445
24.12000 559.509
24.13000 564.751
24.14000 550.847
24.15000 541.022
24.16000 531.359
24.17000 521.838
24.18000 512.336
24.19000 503.949
24.20000 496.208
24.21000 488.733
24.22000 491.375
24.23000 497.598
24.24000 503.486
24.25000 505.913
24.26000 507.429
24.27000 508.717
24.28000 508.602
24.29000 508.246
24.30000 507.956
24.31000 504.467
24.32000 501.340
24.33000 499.183
24.34000 499.631
24.35000 500.224
24.36000 502.551
24.37000 508.033
24.38000 513.582
24.39000 516.618
24.40000 506.965
24.41000 500.316
24.42000 495.269
24.43000 491.464
24.44000 487.605
24.45000 481.622
24.46000 474.541
24.47000 467.769
24.48000 481.465
24.49000 500.875
24.50000 517.886
24.51000 513.805
24.52000 504.790
24.53000 496.460
24.54000 491.843
24.55000 487.784
24.56000 484.556
24.57000 484.615
24.58000 484.897
24.59000 485.462
24.60000 486.709
24.61000 487.985
24.62000 487.105
24.63000 482.731
24.64000 478.308
24.65000 476.031
24.66000 490.690
24.67000 500.491
24.68000 501.821
24.69000 497.330
24.70000 492.683
24.71000 483.481
24.72000 472.177
24.73000 461.487
24.74000 467.901
24.75000 478.701
24.76000 487.506
24.77000 481.213
24.78000 471.796
24.79000 465.112
24.80000 471.485
24.81000 479.559
24.82000 485.800
24.83000 488.236
24.84000 489.944
24.85000 491.161
24.86000 491.324
24.87000 491.452
24.88000 489.474
24.89000 484.468
24.90000 479.438
24.91000 477.236
24.92000 477.664
24.93000 478.074
24.94000 477.162
24.95000 475.443
24.96000 473.754
24.97000 472.723
24.98000 471.963
24.99000 471.254
25.00000 476.914
25.01000 483.654
25.02000 489.013
25.03000 485.284
25.04000 479.901
25.05000 475.685
25.06000 476.405
25.07000 477.679
25.08000 478.634
25.09000 481.832
25.10000 484.436
25.11000 487.327
25.12000 490.765
25.13000 494.218
25.14000 495.345
25.15000 493.510
25.16000 491.667
25.17000 488.628
25.18000 484.623
25.19000 480.624
25.20000 476.878
25.21000 473.270
25.22000 469.927
25.23000 471.274
25.24000 474.347
25.25000 477.179
25.26000 479.250
25.27000 480.936
25.28000 482.372
25.29000 482.375
25.30000 482.149
25.31000 480.492
25.32000 473.466
25.33000 465.928
25.34000 460.456
25.35000 460.731
25.36000 461.157
25.37000 463.193
25.38000 467.977
25.39000 472.807
25.40000 472.396
25.41000 466.090
25.42000 459.802
25.43000 459.722
25.44000 464.103
25.45000 468.452
25.46000 471.728
25.47000 474.483
25.48000 477.312
25.49000 481.204
25.50000 485.445
25.51000 489.296
25.52000 480.693
25.53000 470.693
25.54000 462.383
25.55000 462.613
25.56000 464.028
25.57000 464.312
25.58000 460.814
25.59000 457.014
25.60000 454.350
25.61000 455.729
25.62000 456.888
25.63000 456.466
25.64000 453.645
25.65000 450.799
25.66000 452.777
25.67000 459.515
25.68000 466.206
25.69000 468.661
25.70000 468.396
25.71000 468.221
25.72000 470.304
25.73000 473.365
25.74000 475.558
25.75000 467.317
25.76000 456.023
25.77000 445.937
25.78000 445.994
25.79000 447.746
25.80000 449.681
25.81000 452.427
25.82000 455.271
25.83000 459.598
25.84000 468.336
25.85000 477.368
25.86000 483.459
25.87000 470.646
25.88000 460.714
25.89000 457.987
25.90000 464.959
25.91000 471.976
25.92000 472.856
25.93000 468.416
25.94000 464.028
25.95000 460.063
25.96000 456.430
25.97000 453.064
25.98000 454.930
25.99000 458.822
26.00000 462.324
26.01000 461.880
26.02000 460.408
26.03000 459.117
26.04000 463.927
26.05000 468.944
26.06000 472.484
26.07000 470.179
26.08000 467.274
26.09000 466.738
26.10000 472.494
26.11000 478.589
26.12000 482.531
26.13000 471.690
26.14000 463.544
26.15000 458.724
26.16000 457.862
26.17000 457.030
26.18000 461.183
26.19000 469.154
26.20000 476.988
26.21000 475.255
26.22000 468.857
26.23000 462.332
26.24000 453.790
26.25000 444.551
26.26000 436.696
26.27000 440.806
26.28000 447.678
26.29000 453.588
26.30000 450.332
26.31000 446.430
26.32000 445.378
26.33000 454.350
26.34000 464.194
26.35000 469.139
26.36000 462.466
26.37000 455.299
26.38000 450.867
26.39000 456.980
26.40000 461.473
26.41000 458.971
26.42000 449.150
26.43000 439.444
26.44000 442.715
26.45000 454.791
26.46000 466.580
26.47000 467.180
26.48000 462.874
26.49000 458.921
26.50000 459.548
26.51000 461.588
26.52000 463.157
26.53000 461.215
26.54000 458.557
26.55000 456.320
26.56000 450.652
26.57000 445.558
26.58000 441.760
26.59000 442.021
26.60000 442.577
26.61000 444.274
26.62000 448.387
26.63000 452.579
26.64000 455.047
26.65000 462.219
26.66000 467.300
26.67000 464.543
26.68000 454.594
26.69000 444.748
26.70000 441.814
26.71000 443.048
26.72000 444.243
26.73000 446.613
26.74000 449.306
26.75000 451.563
26.76000 449.055
26.77000 445.241
26.78000 442.516
26.79000 446.854
26.80000 452.461
26.81000 457.073
26.82000 455.211
26.83000 453.095
26.84000 452.182
26.85000 454.633
26.86000 457.284
26.87000 457.559
26.88000 453.343
26.89000 449.020
26.90000 446.609
26.91000 449.722
26.92000 451.882
26.93000 451.337
26.94000 448.604
26.95000 445.896
26.96000 444.304
26.97000 443.312
26.98000 442.361
26.99000 440.938
27.00000 439.449
27.01000 438.846
27.02000 446.453
27.03000 456.060
27.04000 463.080
27.05000 455.434
27.06000 445.482
27.07000 437.500
27.08000 435.057
27.09000 433.500
27.10000 432.452
27.11000 432.674
27.12000 432.956
27.13000 434.334
27.14000 437.558
27.15000 440.812
27.16000 442.523
27.17000 443.827
27.18000 444.751
27.19000 451.507
27.20000 462.436
27.21000 472.901
27.22000 468.514
27.23000 457.005
27.24000 446.077
27.25000 444.035
27.26000 444.809
27.27000 445.627
27.28000 446.784
27.29000 448.014
27.30000 448.357
27.31000 444.280
27.32000 439.598
27.33000 435.944
27.34000 435.520
27.35000 435.384
27.36000 439.559
27.37000 453.336
27.38000 467.467
27.39000 468.936
27.40000 451.432
27.41000 433.743
27.42000 428.289
27.43000 434.737
27.44000 441.083
27.45000 439.179
27.46000 432.032
27.47000 425.267
27.48000 427.781
27.49000 434.269
27.50000 440.356
27.51000 442.578
27.52000 443.586
27.53000 444.479
27.54000 444.586
27.55000 444.544
27.56000 443.643
27.57000 438.958
27.58000 433.826
27.59000 429.936
27.60000 431.662
27.61000 433.304
27.62000 436.179
27.63000 441.507
27.64000 446.901
27.65000 447.999
27.66000 443.389
27.67000 438.754
27.68000 437.599
27.69000 439.417
27.70000 441.246
27.71000 443.679
27.72000 446.454
27.73000 448.946
27.74000 446.018
27.75000 441.016
27.76000 436.385
27.77000 442.172
27.78000 449.784
27.79000 455.553
27.80000 450.241
27.81000 443.078
27.82000 436.569
27.83000 432.611
27.84000 428.911
27.85000 426.194
27.86000 422.639
27.87000 419.857
27.88000 421.326
27.89000 430.336
27.90000 439.491
27.91000 443.188
27.92000 440.480
27.93000 437.769
27.94000 432.119
27.95000 424.303
27.96000 416.694
27.97000 416.705
27.98000 420.558
27.99000 424.328
28.00000 426.801
28.01000 428.832
28.02000 430.685
28.03000 427.529
28.04000 423.716
28.05000 420.539
28.06000 420.712
28.07000 421.375
28.08000 422.335
28.09000 424.333
28.10000 426.420
28.11000 427.900
28.12000 433.840
28.13000 438.498
28.14000 441.259
28.15000 441.022
28.16000 440.749
28.17000 439.479
28.18000 437.183
28.19000 434.899
28.20000 437.046
28.21000 442.093
28.22000 446.837
28.23000 443.280
28.24000 435.986
28.25000 429.097
28.26000 427.381
28.27000 427.240
28.28000 427.114
28.29000 428.356
28.30000 429.684
28.31000 430.560
28.32000 429.333
28.33000 427.841
28.34000 427.174
28.35000 429.059
28.36000 431.125
28.37000 432.537
28.38000 437.394
28.39000 441.110
28.40000 442.054
28.41000 439.110
28.42000 436.141
28.43000 433.396
28.44000 430.855
28.45000 428.339
28.46000 428.027
28.47000 429.007
28.48000 429.877
28.49000 428.432
28.50000 426.055
28.51000 424.326
28.52000 429.537
28.53000 436.628
28.54000 442.886
28.55000 443.276
28.56000 442.717
28.57000 440.675
28.58000 432.527
28.59000 423.718
28.60000 416.497
28.61000 413.660
28.62000 411.077
28.63000 409.382
28.64000 423.073
28.65000 433.402
28.66000 437.009
28.67000 432.273
28.68000 427.508
28.69000 421.383
28.70000 414.174
28.71000 407.073
28.72000 407.257
28.73000 411.186
28.74000 414.937
28.75000 415.673
28.76000 415.326
28.77000 414.675
28.78000 411.250
28.79000 407.157
28.80000 403.613
28.81000 407.445
28.82000 411.676
28.83000 414.738
28.84000 413.527
28.85000 411.923
28.86000 410.713
28.87000 410.476
28.88000 410.285
28.89000 410.165
28.90000 422.014
28.91000 430.712
28.92000 429.722
28.93000 418.135
28.94000 406.613
28.95000 404.655
28.96000 409.455
28.97000 414.152
28.98000 414.129
28.99000 411.961
29.00000 410.314
29.01000 415.904
29.02000 423.812
29.03000 430.179
29.04000 424.470
29.05000 416.190
29.06000 409.169
29.07000 413.858
29.08000 419.110
29.09000 423.560
29.10000 425.395
29.11000 427.028
29.12000 426.976
29.13000 423.216
29.14000 419.322
29.15000 416.990
29.16000 412.450
29.17000 409.212
29.18000 410.063
29.19000 414.836
29.20000 419.511
29.21000 416.540
29.22000 408.771
29.23000 401.227
29.24000 398.171
29.25000 397.073
29.26000 396.569
29.27000 402.954
29.28000 411.304
29.29000 418.314
29.30000 416.230
29.31000 412.440
29.32000 409.297
29.33000 405.780
29.34000 402.839
29.35000 402.086
29.36000 407.687
29.37000 413.692
29.38000 417.748
29.39000 417.974
29.40000 418.099
29.41000 418.169
29.42000 414.015
29.43000 411.105
29.44000 407.293
29.45000 402.720
29.46000 398.236
29.47000 398.235
29.48000 400.739
29.49000 403.149
29.50000 408.407
29.51000 414.350
29.52000 419.862
29.53000 421.158
29.54000 421.383
29.55000 422.209
29.56000 426.588
29.57000 431.553
29.58000 435.570
29.59000 426.066
29.60000 417.240
29.61000 410.561
29.62000 409.448
29.63000 408.620
29.64000 409.377
29.65000 412.908
29.66000 416.490
29.67000 418.413
29.68000 397.615
29.69000 383.478
29.70000 385.980
29.71000 400.886
29.72000 415.536
29.73000 421.068
29.74000 422.058
29.75000 423.001
29.76000 416.990
29.77000 409.245
29.78000 402.575
29.79000 404.906
29.80000 409.260
29.81000 411.781
29.82000 404.768
29.83000 396.386
29.84000 389.782
29.85000 404.684
29.86000 418.072
29.87000 425.638
29.88000 419.729
29.89000 413.278
29.90000 410.212
29.91000 412.428
29.92000 414.705
29.93000 415.854
29.94000 414.800
29.95000 414.099
29.96000 413.656
29.97000 413.386
29.98000 413.079
29.99000 411.813
30.00000 410.121
30.01000 408.527
30.02000 413.944
30.03000 420.831
30.04000 426.033
30.05000 419.058
30.06000 409.664
30.07000 402.778
30.08000 407.408
30.09000 413.468
30.10000 418.109
30.11000 422.579
30.12000 426.098
30.13000 428.983
30.14000 430.556
30.15000 432.089
30.16000 428.367
30.17000 417.368
30.18000 406.328
30.19000 407.493
30.20000 419.539
30.21000 431.375
30.22000 430.575
30.23000 422.341
30.24000 413.963
30.25000 402.600
30.26000 390.052
30.27000 378.378
30.28000 387.551
30.29000 400.874
30.30000 412.249
30.31000 411.377
30.32000 408.365
30.33000 407.448
30.34000 415.051
30.35000 423.561
30.36000 429.879
30.37000 420.349
30.38000 412.245
30.39000 406.446
30.40000 404.896
30.41000 403.439
30.42000 402.446
30.43000 402.022
30.44000 401.600
30.45000 400.731
30.46000 399.514
30.47000 398.440
30.48000 403.211
30.49000 411.047
30.50000 418.598
30.51000 421.438
30.52000 422.606
30.53000 423.677
30.54000 418.702
30.55000 412.988
30.56000 408.497
30.57000 410.747
30.58000 414.026
30.59000 416.484
30.60000 415.977
30.61000 415.202
30.62000 414.645
30.63000 419.061
30.64000 422.610
30.65000 427.145
30.66000 433.303
30.67000 439.484
30.68000 441.267
30.69000 438.308
30.70000 435.360
30.71000 432.188
30.72000 428.894
30.73000 425.697
30.74000 425.416
30.75000 426.498
30.76000 427.397
30.77000 425.807
30.78000 423.429
30.79000 421.282
30.80000 426.706
30.81000 432.872
30.82000 438.271
30.83000 439.947
30.84000 441.129
30.85000 441.706
30.86000 440.333
30.87000 438.813
30.88000 437.761
30.89000 441.241
30.90000 443.978
30.91000 444.740
30.92000 442.616
30.93000 440.469
30.94000 442.958
30.95000 449.831
30.96000 456.646
30.97000 465.198
30.98000 474.650
30.99000 484.070
31.00000 492.754
31.01000 501.131
31.02000 509.048
31.03000 511.732
31.04000 512.942
31.05000 514.017
31.06000 524.503
31.07000 535.104
31.08000 546.321
31.09000 560.180
31.10000 574.340
31.11000 589.731
31.12000 608.652
31.13000 627.792
31.14000 640.532
31.15000 688.555
31.16000 724.755
31.17000 759.392
31.18000 792.005
31.19000 824.620
31.20000 862.657
31.21000 905.204
31.22000 947.191
31.23000 998.611
31.24000 1053.711
31.25000 1108.903
31.26000 1165.766
31.27000 1223.251
31.28000 1281.560
31.29000 1347.784
31.30000 1415.989
31.31000 1475.440
31.32000 1509.712
31.33000 1535.513
31.34000 1566.668
31.35000 1618.205
31.36000 1671.727
31.37000 1716.717
31.38000 1739.855
31.39000 1761.900
31.40000 1775.960
31.41000 1778.164
31.42000 1779.615
31.43000 1770.571
31.44000 1749.540
31.45000 1728.456
31.46000 1700.443
31.47000 1667.333
31.48000 1634.855
31.49000 1583.304
31.50000 1524.593
31.51000 1466.991
31.52000 1425.839
31.53000 1390.165
31.54000 1351.162
31.55000 1284.750
31.56000 1212.255
31.57000 1150.331
31.58000 1087.176
31.59000 1033.825
31.60000 979.678
31.61000 922.834
31.62000 865.768
31.63000 812.428
31.64000 767.608
31.65000 723.122
31.66000 696.035
31.67000 671.785
31.68000 654.483
31.69000 634.467
31.70000 611.728
31.71000 589.002
31.72000 567.476
31.73000 546.734
31.74000 526.535
31.75000 520.633
31.76000 520.996
31.77000 519.881
31.78000 500.611
31.79000 475.952
31.80000 453.724
31.81000 448.801
31.82000 447.268
31.83000 445.988
31.84000 445.840
31.85000 445.833
31.86000 444.171
31.87000 437.515
31.88000 430.519
31.89000 424.817
31.90000 421.759
31.91000 418.780
31.92000 417.055
31.93000 425.059
31.94000 430.703
31.95000 428.304
31.96000 418.822
31.97000 409.488
31.98000 408.631
31.99000 412.698
32.00000 416.626
32.01000 418.324
32.02000 419.099
32.03000 419.210
32.04000 412.444
32.05000 403.861
32.06000 397.113
32.07000 401.736
32.08000 408.318
32.09000 413.688
32.10000 416.329
32.11000 418.255
32.12000 418.419
32.13000 413.838
32.14000 408.995
32.15000 404.701
32.16000 401.410
32.17000 398.140
32.18000 396.349
32.19000 394.573
32.20000 393.365
32.21000 395.615
32.22000 400.551
32.23000 405.263
32.24000 401.119
32.25000 392.387
32.26000 384.037
32.27000 383.545
32.28000 385.650
32.29000 387.477
32.30000 386.850
32.31000 385.649
32.32000 385.778
32.33000 393.143
32.34000 401.596
32.35000 408.319
32.36000 402.984
32.37000 397.824
32.38000 391.490
32.39000 382.333
32.40000 373.053
32.41000 369.804
32.42000 376.341
32.43000 383.014
32.44000 386.453
32.45000 396.540
32.46000 403.280
32.47000 403.563
32.48000 399.400
32.49000 395.228
32.50000 390.794
32.51000 386.239
32.52000 381.930
32.53000 382.327
32.54000 384.044
32.55000 384.358
32.56000 374.014
32.57000 361.463
32.58000 353.517
32.59000 367.620
32.60000 384.602
32.61000 397.736
32.62000 380.030
32.63000 364.166
32.64000 355.378
32.65000 361.786
32.66000 368.705
32.67000 372.078
32.68000 370.339
32.69000 368.558
32.70000 367.554
32.71000 367.273
32.72000 367.024
32.73000 369.004
32.74000 372.348
32.75000 375.465
32.76000 373.489
32.77000 369.411
32.78000 365.601
32.79000 364.150
32.80000 363.431
32.81000 362.892
32.82000 363.552
32.83000 364.431
32.84000 364.496
32.85000 361.119
32.86000 357.354
32.87000 354.529
32.88000 353.987
32.89000 353.672
32.90000 355.077
32.91000 359.779
32.92000 364.562
32.93000 371.401
32.94000 380.866
32.95000 390.329
32.96000 396.141
32.97000 398.946
32.98000 401.708
32.99000 402.444
33.00000 402.076
33.01000 401.592
33.02000 399.037
33.03000 395.717
33.04000 392.657
33.05000 390.831
33.06000 389.468
33.07000 388.320
33.08000 388.412
33.09000 388.702
33.10000 388.330
33.11000 385.469
33.12000 382.370
33.13000 380.119
33.14000 373.594
33.15000 368.417
33.16000 364.769
33.17000 363.733
33.18000 362.741
33.19000 361.387
33.20000 359.624
33.21000 357.866
33.22000 354.900
33.23000 351.090
33.24000 347.440
33.25000 349.141
33.26000 353.444
33.27000 357.273
33.28000 354.219
33.29000 348.902
33.30000 344.074
33.31000 352.877
33.32000 363.289
33.33000 371.220
33.34000 366.591
33.35000 360.213
33.36000 353.977
33.37000 348.216
33.38000 342.493
33.39000 338.481
33.40000 343.960
33.41000 348.380
33.42000 351.354
33.43000 352.129
33.44000 352.882
33.45000 353.925
33.46000 355.256
33.47000 356.578
33.48000 356.878
33.49000 356.524
33.50000 356.233
33.51000 357.493
33.52000 359.426
33.53000 360.996
33.54000 358.176
33.55000 354.069
33.56000 350.400
33.57000 346.783
33.58000 343.640
33.59000 340.539
33.60000 337.624
33.61000 334.732
33.62000 333.902
33.63000 339.223
33.64000 344.954
33.65000 348.821
33.66000 349.377
33.67000 349.720
33.68000 345.634
33.69000 335.574
33.70000 325.495
33.71000 325.254
33.72000 333.556
33.73000 341.765
33.74000 347.116
33.75000 350.740
33.76000 354.384
33.77000 358.427
33.78000 362.624
33.79000 366.233
33.80000 363.857
33.81000 359.921
33.82000 356.468
33.83000 355.620
33.84000 355.271
33.85000 355.335
33.86000 357.038
33.87000 358.910
33.88000 359.584
33.89000 357.070
33.90000 354.383
33.91000 352.644
33.92000 350.495
33.93000 348.916
33.94000 346.663
33.95000 343.604
33.96000 340.572
33.97000 343.971
33.98000 352.300
33.99000 360.487
34.00000 363.381
34.01000 363.561
34.02000 363.459
34.03000 358.886
34.04000 352.767
34.05000 347.107
34.06000 345.435
34.07000 344.685
34.08000 344.039
34.09000 343.887
34.10000 343.821
34.11000 345.779
34.12000 354.868
34.13000 364.579
34.14000 371.133
34.15000 370.185
34.16000 368.917
34.17000 368.132
34.18000 356.225
34.19000 347.562
34.20000 349.994
34.21000 364.063
34.22000 378.034
34.23000 380.882
34.24000 376.170
34.25000 371.570
34.26000 365.046
34.27000 357.963
34.28000 351.570
34.29000 354.177
34.30000 359.563
34.31000 363.955
34.32000 360.930
34.33000 356.389
34.34000 352.564
34.35000 363.385
34.36000 373.983
34.37000 379.597
34.38000 369.574
34.39000 358.415
34.40000 350.347
34.41000 348.836
34.42000 347.539
34.43000 346.775
34.44000 356.652
34.45000 363.676
34.46000 365.815
34.47000 363.460
34.48000 361.202
34.49000 365.325
34.50000 373.305
34.51000 381.033
34.52000 379.756
34.53000 375.075
34.54000 369.938
34.55000 359.815
34.56000 348.323
34.57000 339.677
34.58000 349.510
34.59000 362.669
34.60000 373.495
34.61000 369.037
34.62000 363.984
34.63000 359.467
34.64000 356.449
34.65000 353.521
34.66000 351.682
34.67000 351.907
34.68000 352.181
34.69000 352.334
34.70000 348.586
34.71000 345.983
34.72000 343.632
34.73000 341.484
34.74000 339.298
34.75000 335.357
34.76000 330.471
34.77000 325.784
34.78000 325.570
34.79000 326.893
34.80000 328.486
34.81000 332.588
34.82000 337.301
34.83000 341.287
34.84000 341.141
34.85000 340.344
34.86000 339.704
34.87000 339.033
34.88000 338.488
34.89000 337.580
34.90000 335.769
34.91000 333.914
34.92000 331.775
34.93000 329.156
34.94000 326.529
34.95000 325.146
34.96000 329.105
34.97000 331.778
34.98000 332.273
34.99000 331.206
35.00000 330.087
35.01000 327.314
35.02000 323.746
35.03000 320.359
35.04000 323.430
35.05000 328.202
35.06000 332.386
35.07000 331.881
35.08000 330.363
35.09000 329.043
35.10000 328.706
35.11000 328.504
35.12000 328.346
35.13000 323.673
35.14000 319.663
35.15000 319.353
35.16000 327.306
35.17000 335.563
35.18000 335.943
35.19000 324.499
35.20000 312.939
35.21000 311.796
35.22000 320.806
35.23000 329.716
35.24000 330.474
35.25000 326.042
35.26000 321.904
35.27000 324.963
35.28000 331.108
35.29000 336.875
35.30000 332.310
35.31000 325.422
35.32000 319.418
35.33000 319.514
35.34000 320.772
35.35000 321.313
35.36000 318.685
35.37000 315.683
35.38000 313.406
35.39000 312.236
35.40000 311.373
35.41000 310.664
35.42000 310.257
35.43000 309.859
35.44000 311.461
35.45000 315.724
35.46000 319.996
35.47000 323.654
35.48000 326.778
35.49000 329.819
35.50000 328.481
35.51000 324.663
35.52000 320.899
35.53000 318.178
35.54000 315.856
35.55000 313.706
35.56000 317.624
35.57000 322.553
35.58000 326.226
35.59000 322.329
35.60000 317.166
35.61000 313.276
35.62000 314.365
35.63000 315.958
35.64000 317.128
35.65000 313.329
35.66000 310.190
35.67000 310.145
35.68000 315.597
35.69000 321.156
35.70000 321.143
35.71000 314.577
35.72000 308.019
35.73000 307.800
35.74000 312.348
35.75000 316.788
35.76000 317.231
35.77000 315.654
35.78000 314.097
35.79000 312.845
35.80000 311.697
35.81000 310.650
35.82000 308.452
35.83000 306.269
35.84000 304.088
35.85000 301.914
35.86000 299.742
35.87000 299.077
35.88000 303.660
35.89000 308.691
35.90000 312.262
35.91000 310.689
35.92000 309.329
35.93000 308.503
35.94000 308.521
35.95000 308.549
35.96000 307.422
35.97000 305.101
35.98000 302.793
35.99000 303.273
36.00000 305.594
36.01000 307.769
36.02000 305.941
36.03000 302.306
36.04000 299.285
36.05000 304.111
36.06000 311.329
36.07000 317.814
36.08000 319.369
36.09000 319.860
36.10000 319.478
36.11000 315.028
36.12000 310.064
36.13000 306.544
36.14000 307.499
36.15000 308.773
36.16000 309.644
36.17000 304.700
36.18000 300.864
36.19000 297.990
36.20000 296.470
36.21000 294.963
36.22000 298.450
36.23000 306.466
36.24000 314.404
36.25000 314.033
36.26000 308.815
36.27000 303.762
36.28000 302.211
36.29000 302.072
36.30000 301.995
36.31000 302.593
36.32000 303.373
36.33000 304.061
36.34000 301.558
36.35000 298.909
36.36000 298.571
36.37000 307.769
36.38000 318.003
36.39000 322.413
36.40000 310.721
36.41000 298.093
36.42000 289.799
36.43000 294.562
36.44000 298.286
36.45000 301.947
36.46000 305.529
36.47000 309.100
36.48000 309.022
36.49000 306.027
36.50000 303.076
36.51000 299.536
36.52000 295.797
36.53000 292.283
36.54000 292.614
36.55000 294.327
36.56000 295.986
36.57000 297.149
36.58000 298.192
36.59000 299.096
36.60000 303.588
36.61000 307.883
36.62000 312.100
36.63000 316.032
36.64000 319.937
36.65000 320.697
36.66000 313.694
36.67000 306.330
36.68000 301.702
36.69000 305.731
36.70000 308.741
36.71000 306.410
36.72000 298.225
36.73000 290.085
36.74000 288.596
36.75000 291.813
36.76000 294.961
36.77000 294.849
36.78000 293.257
36.79000 291.685
36.80000 290.402
36.81000 289.211
36.82000 288.699
36.83000 293.516
36.84000 299.468
36.85000 304.518
36.86000 300.758
36.87000 296.607
36.88000 294.332
36.89000 298.173
36.90000 302.487
36.91000 303.751
36.92000 298.290
36.93000 292.589
36.94000 289.172
36.95000 295.257
36.96000 299.641
36.97000 301.906
36.98000 302.135
36.99000 302.352
37.00000 301.636
37.01000 300.334
37.02000 299.070
37.03000 296.598
37.04000 293.765
37.05000 291.305
37.06000 293.182
37.07000 296.298
37.08000 299.363
37.09000 302.085
37.10000 304.743
37.11000 306.948
37.12000 304.417
37.13000 301.870
37.14000 299.624
37.15000 298.249
37.16000 296.931
37.17000 295.774
37.18000 294.936
37.19000 294.105
37.20000 293.633
37.21000 293.514
37.22000 293.436
37.23000 295.880
37.24000 300.456
37.25000 304.912
37.26000 303.370
37.27000 298.471
37.28000 293.754
37.29000 293.746
37.30000 295.411
37.31000 296.844
37.32000 295.998
37.33000 294.572
37.34000 292.963
37.35000 290.258
37.36000 287.374
37.37000 285.039
37.38000 281.940
37.39000 279.356
37.40000 277.367
37.41000 276.925
37.42000 276.563
37.43000 277.571
37.44000 280.986
37.45000 284.446
37.46000 286.305
37.47000 292.183
37.48000 296.184
37.49000 296.643
37.50000 294.457
37.51000 292.274
37.52000 290.184
37.53000 288.142
37.54000 286.196
37.55000 289.205
37.56000 293.546
37.57000 297.368
37.58000 296.840
37.59000 295.332
37.60000 293.009
37.61000 286.437
37.62000 279.255
37.63000 273.593
37.64000 287.820
37.65000 300.564
37.66000 307.612
37.67000 301.451
37.68000 294.757
37.69000 289.023
37.70000 284.791
37.71000 280.576
37.72000 278.448
37.73000 304.040
37.74000 320.992
37.75000 321.638
37.76000 311.482
37.77000 301.395
37.78000 293.130
37.79000 285.677
37.80000 278.653
37.81000 278.827
37.82000 280.969
37.83000 283.221
37.84000 286.273
37.85000 289.484
37.86000 292.906
37.87000 297.302
37.88000 301.819
37.89000 305.280
37.90000 299.002
37.91000 293.510
37.92000 288.607
37.93000 284.924
37.94000 281.277
37.95000 282.277
37.96000 289.721
37.97000 297.203
37.98000 297.204
37.99000 290.522
38.00000 283.899
38.01000 280.849
38.02000 279.904
38.03000 279.284
38.04000 285.393
38.05000 294.181
38.06000 302.358
38.07000 299.727
38.08000 294.735
38.09000 290.441
38.10000 290.554
38.11000 291.438
38.12000 291.358
38.13000 287.347
38.14000 282.916
38.15000 279.626
38.16000 283.782
38.17000 287.342
38.18000 290.654
38.19000 293.507
38.20000 296.350
38.21000 298.873
38.22000 301.004
38.23000 303.129
38.24000 305.804
38.25000 308.897
38.26000 312.000
38.27000 315.525
38.28000 319.272
38.29000 322.205
38.30000 311.592
38.31000 296.166
38.32000 282.013
38.33000 292.281
38.34000 306.612
38.35000 319.028
38.36000 320.875
38.37000 321.105
38.38000 321.752
38.39000 323.909
38.40000 326.203
38.41000 327.851
38.42000 335.504
38.43000 341.566
38.44000 350.016
38.45000 362.396
38.46000 374.832
38.47000 385.063
38.48000 392.909
38.49000 400.719
38.50000 412.635
38.51000 427.261
38.52000 441.862
38.53000 455.687
38.54000 469.149
38.55000 483.216
38.56000 505.544
38.57000 530.491
38.58000 553.028
38.59000 583.269
38.60000 611.285
38.61000 637.811
38.62000 657.092
38.63000 675.411
38.64000 694.975
38.65000 718.549
38.66000 742.427
38.67000 758.967
38.68000 804.902
38.69000 840.243
38.70000 869.040
38.71000 888.262
38.72000 907.401
38.73000 921.079
38.74000 929.585
38.75000 938.020
38.76000 947.969
38.77000 958.659
38.78000 968.473
38.79000 958.018
38.80000 939.080
38.81000 920.789
38.82000 909.864
38.83000 901.019
38.84000 893.163
38.85000 868.101
38.86000 843.603
38.87000 818.308
38.88000 789.590
38.89000 760.480
38.90000 732.729
38.91000 708.884
38.92000 685.283
38.93000 669.565
38.94000 631.398
38.95000 602.723
38.96000 573.364
38.97000 543.118
38.98000 512.876
38.99000 486.327
39.00000 462.859
39.01000 439.697
39.02000 423.337
39.03000 411.073
39.04000 398.592
39.05000 382.143
39.06000 364.210
39.07000 347.131
39.08000 338.276
39.09000 331.485
39.10000 325.565
39.11000 327.461
39.12000 330.169
39.13000 330.023
39.14000 318.993
39.15000 306.900
39.16000 298.982
39.17000 301.771
39.18000 305.099
39.19000 307.223
39.20000 307.584
39.21000 307.824
39.22000 305.452
39.23000 300.092
39.24000 294.738
39.25000 291.211
39.26000 289.031
39.27000 286.892
39.28000 280.386
39.29000 272.044
39.30000 264.566
39.31000 269.946
39.32000 279.614
39.33000 287.997
39.34000 285.765
39.35000 281.173
39.36000 277.249
39.37000 282.584
39.38000 288.184
39.39000 291.460
39.40000 286.850
39.41000 281.592
39.42000 278.441
39.43000 280.117
39.44000 281.982
39.45000 283.119
39.46000 279.847
39.47000 277.474
39.48000 277.176
39.49000 278.961
39.50000 280.687
39.51000 276.885
39.52000 269.467
39.53000 262.243
39.54000 262.241
39.55000 265.270
39.56000 268.251
39.57000 270.631
39.58000 272.832
39.59000 274.576
39.60000 273.052
39.61000 270.887
39.62000 269.078
39.63000 277.142
39.64000 284.844
39.65000 288.980
39.66000 282.342
39.67000 274.967
39.68000 270.293
39.69000 271.140
39.70000 272.151
39.71000 272.737
39.72000 272.593
39.73000 272.489
39.74000 272.728
39.75000 273.267
39.76000 273.788
39.77000 273.212
39.78000 271.999
39.79000 270.827
39.80000 268.878
39.81000 266.753
39.82000 264.760
39.83000 264.136
39.84000 263.874
39.85000 264.779
39.86000 272.934
39.87000 282.341
39.88000 290.019
39.89000 283.244
39.90000 276.459
39.91000 271.062
39.92000 269.412
39.93000 267.970
39.94000 266.103
39.95000 263.463
39.96000 260.806
39.97000 259.349
39.98000 259.548
39.99000 259.695
40.00000 261.693
40.01000 265.131
40.02000 268.411
40.03000 265.385
40.04000 259.088
40.05000 253.064
40.06000 258.290
40.07000 266.831
40.08000 273.969
40.09000 268.712
40.10000 260.545
40.11000 253.029
40.12000 249.052
40.13000 245.608
40.14000 242.869
40.15000 247.368
40.16000 251.513
40.17000 255.574
40.18000 259.432
40.19000 263.282
40.20000 263.972
40.21000 259.525
40.22000 255.007
40.23000 252.676
40.24000 252.807
40.25000 252.909
40.26000 254.735
40.27000 257.750
40.28000 260.715
40.29000 262.232
40.30000 263.079
40.31000 263.880
40.32000 262.349
40.33000 260.271
40.34000 258.635
40.35000 260.363
40.36000 262.789
40.37000 264.226
40.38000 260.922
40.39000 256.998
40.40000 253.962
40.41000 249.996
40.42000 246.793
40.43000 244.711
40.44000 245.041
40.45000 245.452
40.46000 247.140
40.47000 250.672
40.48000 254.219
40.49000 257.678
40.50000 261.053
40.51000 264.349
40.52000 262.010
40.53000 256.218
40.54000 250.805
40.55000 253.914
40.56000 260.546
40.57000 266.746
40.58000 267.303
40.59000 266.382
40.60000 265.030
40.61000 260.826
40.62000 256.101
40.63000 251.718
40.64000 248.786
40.65000 246.018
40.66000 243.940
40.67000 249.285
40.68000 253.815
40.69000 255.942
40.70000 253.455
40.71000 250.854
40.72000 251.267
40.73000 255.536
40.74000 259.814
40.75000 258.399
40.76000 252.321
40.77000 246.341
40.78000 244.905
40.79000 245.951
40.80000 247.275
40.81000 253.586
40.82000 261.737
40.83000 269.253
40.84000 265.267
40.85000 259.146
40.86000 253.524
40.87000 250.776
40.88000 248.489
40.89000 247.000
40.90000 248.515
40.91000 250.319
40.92000 251.630
40.93000 249.337
40.94000 247.438
40.95000 246.594
40.96000 247.556
40.97000 248.549
40.98000 247.595
40.99000 244.444
41.00000 241.301
41.01000 241.383
41.02000 243.789
41.03000 246.175
41.04000 247.893
41.05000 249.286
41.06000 250.744
41.07000 253.150
41.08000 255.868
41.09000 258.337
41.10000 260.055
41.11000 261.427
41.12000 261.834
41.13000 257.344
41.14000 252.171
41.15000 247.953
41.16000 246.936
41.17000 246.176
41.18000 245.644
41.19000 245.179
41.20000 244.829
41.21000 246.562
41.22000 251.464
41.23000 256.401
41.24000 258.749
41.25000 258.534
41.26000 258.321
41.27000 257.697
41.28000 256.822
41.29000 255.844
41.30000 252.254
41.31000 247.530
41.32000 243.302
41.33000 245.074
41.34000 248.607
41.35000 251.764
41.36000 256.597
41.37000 261.090
41.38000 264.149
41.39000 260.788
41.40000 256.652
41.41000 252.905
41.42000 250.320
41.43000 247.812
41.44000 246.119
41.45000 246.568
41.46000 246.949
41.47000 246.752
41.48000 245.776
41.49000 244.795
41.50000 243.029
41.51000 240.581
41.52000 238.160
41.53000 239.160
41.54000 242.054
41.55000 244.680
41.56000 242.005
41.57000 237.272
41.58000 233.039
41.59000 233.897
41.60000 236.086
41.61000 238.006
41.62000 242.925
41.63000 247.589
41.64000 251.787
41.65000 254.134
41.66000 256.289
41.67000 256.697
41.68000 252.447
41.69000 247.943
41.70000 245.026
41.71000 242.293
41.72000 240.296
41.73000 238.618
41.74000 237.322
41.75000 236.034
41.76000 236.413
41.77000 238.072
41.78000 239.703
41.79000 238.134
41.80000 235.031
41.81000 232.116
41.82000 232.183
41.83000 233.283
41.84000 234.143
41.85000 232.919
41.86000 231.212
41.87000 229.743
41.88000 231.199
41.89000 232.799
41.90000 233.907
41.91000 233.279
41.92000 232.499
41.93000 233.500
41.94000 238.738
41.95000 244.158
41.96000 247.514
41.97000 246.652
41.98000 245.993
41.99000 244.997
42.00000 243.649
42.01000 242.281
42.02000 238.677
42.03000 233.550
42.04000 228.544
42.05000 233.321
42.06000 242.174
42.07000 250.105
42.08000 245.961
42.09000 238.085
42.10000 231.606
42.11000 235.596
42.12000 241.729
42.13000 246.896
42.14000 242.807
42.15000 238.400
42.16000 236.389
42.17000 241.904
42.18000 247.968
42.19000 249.706
42.20000 242.250
42.21000 234.492
42.22000 229.918
42.23000 236.066
42.24000 240.463
42.25000 243.547
42.26000 245.421
42.27000 247.281
42.28000 248.228
42.29000 248.622
42.30000 249.004
42.31000 249.565
42.32000 250.164
42.33000 250.554
42.34000 248.656
42.35000 246.129
42.36000 243.960
42.37000 244.123
42.38000 244.707
42.39000 245.188
42.40000 245.527
42.41000 245.793
42.42000 245.662
42.43000 244.415
42.44000 243.102
42.45000 240.735
42.46000 236.370
42.47000 231.958
42.48000 229.492
42.49000 235.765
42.50000 240.125
42.51000 243.065
42.52000 244.852
42.53000 246.605
42.54000 246.782
42.55000 246.110
42.56000 245.465
42.57000 247.336
42.58000 249.944
42.59000 251.597
42.60000 244.348
42.61000 234.922
42.62000 226.835
42.63000 226.363
42.64000 227.093
42.65000 227.679
42.66000 236.081
42.67000 243.485
42.68000 248.003
42.69000 245.302
42.70000 242.256
42.71000 241.191
42.72000 243.476
42.73000 245.816
42.74000 247.048
42.75000 240.001
42.76000 235.251
42.77000 235.930
42.78000 240.510
42.79000 244.943
42.80000 244.656
42.81000 242.098
42.82000 239.669
42.83000 236.881
42.84000 234.199
42.85000 232.053
42.86000 234.181
42.87000 237.236
42.88000 238.732
42.89000 232.431
42.90000 225.059
42.91000 219.300
42.92000 225.427
42.93000 231.065
42.94000 233.891
42.95000 230.431
42.96000 226.737
42.97000 225.997
42.98000 229.697
42.99000 233.441
43.00000 233.970
43.01000 231.360
43.02000 228.739
43.03000 225.131
43.04000 220.895
43.05000 217.040
43.06000 222.514
43.07000 231.996
43.08000 240.896
43.09000 239.771
43.10000 236.096
43.11000 232.705
43.12000 231.280
43.13000 230.230
43.14000 229.577
43.15000 230.679
43.16000 231.988
43.17000 232.981
43.18000 233.081
43.19000 233.114
43.20000 233.485
43.21000 234.535
43.22000 235.603
43.23000 237.325
43.24000 239.918
43.25000 242.514
43.26000 240.947
43.27000 235.818
43.28000 230.724
43.29000 227.463
43.30000 225.244
43.31000 223.181
43.32000 224.128
43.33000 226.230
43.34000 228.176
43.35000 229.293
43.36000 230.104
43.37000 230.183
43.38000 225.841
43.39000 220.757
43.40000 217.417
43.41000 220.908
43.42000 225.092
43.43000 228.167
43.44000 220.886
43.45000 214.832
43.46000 212.392
43.47000 216.385
43.48000 220.503
43.49000 221.927
43.50000 220.177
43.51000 218.427
43.52000 221.572
43.53000 228.382
43.54000 234.889
43.55000 230.143
43.56000 219.700
43.57000 210.273
43.58000 216.668
43.59000 228.481
43.60000 239.266
43.61000 232.690
43.62000 223.331
43.63000 216.174
43.64000 220.683
43.65000 226.898
43.66000 231.397
43.67000 229.912
43.68000 227.915
43.69000 226.497
43.70000 229.842
43.71000 232.540
43.72000 234.181
43.73000 234.151
43.74000 234.099
43.75000 231.985
43.76000 227.734
43.77000 223.507
43.78000 223.952
43.79000 227.492
43.80000 230.760
43.81000 226.532
43.82000 218.916
43.83000 212.209
43.84000 217.176
43.85000 225.708
43.86000 233.375
43.87000 234.746
43.88000 234.834
43.89000 234.512
43.90000 232.279
43.91000 229.804
43.92000 226.953
43.93000 222.935
43.94000 218.833
43.95000 216.027
43.96000 219.607
43.97000 222.439
43.98000 223.901
43.99000 223.435
44.00000 222.956
44.01000 222.694
44.02000 222.628
44.03000 222.562
44.04000 222.033
44.05000 221.243
44.06000 220.598
44.07000 223.051
44.08000 226.754
44.09000 229.883
44.10000 226.819
44.11000 222.073
44.12000 217.881
44.13000 221.438
44.14000 225.697
44.15000 228.822
44.16000 227.258
44.17000 225.183
44.18000 222.622
44.19000 218.715
44.20000 214.730
44.21000 212.111
44.22000 209.072
44.23000 206.829
44.24000 208.499
44.25000 215.045
44.26000 221.597
44.27000 225.409
44.28000 227.026
44.29000 228.619
44.30000 230.660
44.31000 232.871
44.32000 234.760
44.33000 231.129
44.34000 225.511
44.35000 220.553
44.36000 221.649
44.37000 224.206
44.38000 226.421
44.39000 223.018
44.40000 219.379
44.41000 218.117
44.42000 225.577
44.43000 233.846
44.44000 239.564
44.45000 238.980
44.46000 238.101
44.47000 237.549
44.48000 236.405
44.49000 235.571
44.50000 235.030
44.51000 234.809
44.52000 234.587
44.53000 234.057
44.54000 233.310
44.55000 232.578
44.56000 233.743
44.57000 235.727
44.58000 237.555
44.59000 237.192
44.60000 236.126
44.61000 234.679
44.62000 230.245
44.63000 225.172
44.64000 220.867
44.65000 231.598
44.66000 242.303
44.67000 250.485
44.68000 250.421
44.69000 249.718
44.70000 246.353
44.71000 237.113
44.72000 227.661
44.73000 221.993
44.74000 236.701
44.75000 247.285
44.76000 253.832
44.77000 256.495
44.78000 259.141
44.79000 260.542
44.80000 261.157
44.81000 261.756
44.82000 264.605
44.83000 268.220
44.84000 271.591
44.85000 272.141
44.86000 271.882
44.87000 271.422
44.88000 269.590
44.89000 267.500
44.90000 265.765
44.91000 283.271
44.92000 299.593
44.93000 310.235
44.94000 304.326
44.95000 297.358
44.96000 294.618
44.97000 300.214
44.98000 306.033
44.99000 309.346
45.00000 302.153
45.01000 297.122
45.02000 301.589
45.03000 314.097
45.04000 326.473
45.05000 332.092
45.06000 333.924
45.07000 335.688
45.08000 341.116
45.09000 347.514
45.10000 353.522
45.11000 355.684
45.12000 356.868
45.13000 357.476
45.14000 354.660
45.15000 351.279
45.16000 348.541
45.17000 344.520
45.18000 341.141
45.19000 337.185
45.20000 331.725
45.21000 326.187
45.22000 321.763
45.23000 319.298
45.24000 316.869
45.25000 315.562
45.26000 312.038
45.27000 309.635
45.28000 308.613
45.29000 308.625
45.30000 308.567
45.31000 306.024
45.32000 302.238
45.33000 298.629
45.34000 290.992
45.35000 282.647
45.36000 275.018
45.37000 273.412
45.38000 273.166
45.39000 272.466
45.40000 269.393
45.41000 265.979
45.42000 263.286
45.43000 259.168
45.44000 255.770
45.45000 253.516
45.46000 253.917
45.47000 254.427
45.48000 254.534
45.49000 254.011
45.50000 253.480
45.51000 253.212
45.52000 247.562
45.53000 243.833
45.54000 245.248
45.55000 250.075
45.56000 254.528
45.57000 248.937
45.58000 238.863
45.59000 229.369
45.60000 226.402
45.61000 225.488
45.62000 224.903
45.63000 226.716
45.64000 229.006
45.65000 231.381
45.66000 234.147
45.67000 236.961
45.68000 239.118
45.69000 229.247
45.70000 220.788
45.71000 217.022
45.72000 222.991
45.73000 229.260
45.74000 229.306
45.75000 220.708
45.76000 212.056
45.77000 208.135
45.78000 208.452
45.79000 208.794
45.80000 210.737
45.81000 213.624
45.82000 216.256
45.83000 213.576
45.84000 208.779
45.85000 204.315
45.86000 213.310
45.87000 224.703
45.88000 234.105
45.89000 230.926
45.90000 225.542
45.91000 219.641
45.92000 211.628
45.93000 203.390
45.94000 197.268
45.95000 197.984
45.96000 198.844
45.97000 199.838
45.98000 201.079
45.99000 202.325
46.00000 203.828
46.01000 205.646
46.02000 207.461
46.03000 207.883
46.04000 207.208
46.05000 206.531
46.06000 205.788
46.07000 205.012
46.08000 204.267
46.09000 204.051
46.10000 204.023
46.11000 203.997
46.12000 209.740
46.13000 216.086
46.14000 220.380
46.15000 213.317
46.16000 204.513
46.17000 197.241
46.18000 195.519
46.19000 194.302
46.20000 193.428
46.21000 203.074
46.22000 210.820
46.23000 215.700
46.24000 215.855
46.25000 215.940
46.26000 213.409
46.27000 208.043
46.28000 202.700
46.29000 200.878
46.30000 201.513
46.31000 202.185
46.32000 204.000
46.33000 206.351
46.34000 208.400
46.35000 206.321
46.36000 202.932
46.37000 199.869
46.38000 204.913
46.39000 210.853
46.40000 215.400
46.41000 213.168
46.42000 210.033
46.43000 207.633
46.44000 207.609
46.45000 207.766
46.46000 207.874
46.47000 203.152
46.48000 199.471
46.49000 200.050
46.50000 206.876
46.51000 213.755
46.52000 215.485
46.53000 212.328
46.54000 209.196
46.55000 206.212
46.56000 203.371
46.57000 200.686
46.58000 201.594
46.59000 204.010
46.60000 206.072
46.61000 204.098
46.62000 200.982
46.63000 198.214
46.64000 200.685
46.65000 203.672
46.66000 206.104
46.67000 206.148
46.68000 205.917
46.69000 205.367
46.70000 203.898
46.71000 202.371
46.72000 201.354
46.73000 201.103
46.74000 200.932
46.75000 201.140
46.76000 201.839
46.77000 202.543
46.78000 204.944
46.79000 208.763
46.80000 212.532
46.81000 209.078
46.82000 201.825
46.83000 194.838
46.84000 192.744
46.85000 192.481
46.86000 192.610
46.87000 196.533
46.88000 201.408
46.89000 205.660
46.90000 202.611
46.91000 198.987
46.92000 196.140
46.93000 196.262
46.94000 196.675
46.95000 197.207
46.96000 198.043
46.97000 198.895
46.98000 199.439
46.99000 203.009
47.00000 205.646
47.01000 205.813
47.02000 203.147
47.03000 200.485
47.04000 199.034
47.05000 198.479
47.06000 197.934
47.07000 197.990
47.08000 198.330
47.09000 198.500
47.10000 196.132
47.11000 192.915
47.12000 190.347
47.13000 193.148
47.14000 197.145
47.15000 200.561
47.16000 196.635
47.17000 192.447
47.18000 188.791
47.19000 186.937
47.20000 185.233
47.21000 185.257
47.22000 189.248
47.23000 193.395
47.24000 195.924
47.25000 197.173
47.26000 198.056
47.27000 197.795
47.28000 196.384
47.29000 194.968
47.30000 193.169
47.31000 191.119
47.32000 189.123
47.33000 191.016
47.34000 194.455
47.35000 197.654
47.36000 197.870
47.37000 197.199
47.38000 196.544
47.39000 196.002
47.40000 195.483
47.41000 195.049
47.42000 193.111
47.43000 191.348
47.44000 191.239
47.45000 196.135
47.46000 201.374
47.47000 202.794
47.48000 196.387
47.49000 189.747
47.50000 185.898
47.51000 190.188
47.52000 193.231
47.53000 195.216
47.54000 196.265
47.55000 197.268
47.56000 195.514
47.57000 192.154
47.58000 188.909
47.59000 187.839
47.60000 187.638
47.61000 187.505
47.62000 188.079
47.63000 188.839
47.64000 189.255
47.65000 187.518
47.66000 185.409
47.67000 183.687
47.68000 184.974
47.69000 186.287
47.70000 187.652
47.71000 189.159
47.72000 190.674
47.73000 193.555
47.74000 198.932
47.75000 204.363
47.76000 207.342
47.77000 206.313
47.78000 205.586
47.79000 201.554
47.80000 194.945
47.81000 188.449
47.82000 186.528
47.83000 186.984
47.84000 187.420
47.85000 185.587
47.86000 183.138
47.87000 180.841
47.88000 179.883
47.89000 179.240
47.90000 178.260
47.91000 175.437
47.92000 172.336
47.93000 169.868
47.94000 172.250
47.95000 174.519
47.96000 176.885
47.97000 179.486
47.98000 182.097
47.99000 182.882
48.00000 180.694
48.01000 178.464
48.02000 177.312
48.03000 183.480
48.04000 187.608
48.05000 188.053
48.06000 185.954
48.07000 183.855
48.08000 181.737
48.09000 179.610
48.10000 177.597
48.11000 179.001
48.12000 181.277
48.13000 183.114
48.14000 181.605
48.15000 179.399
48.16000 177.578
48.17000 177.604
48.18000 177.873
48.19000 178.080
48.20000 183.044
48.21000 187.265
48.22000 189.155
48.23000 186.020
48.24000 182.715
48.25000 181.669
48.26000 183.890
48.27000 186.137
48.28000 187.181
48.29000 187.098
48.30000 187.032
48.31000 188.163
48.32000 190.030
48.33000 191.712
48.34000 189.217
48.35000 184.993
48.36000 181.045
48.37000 183.605
48.38000 187.579
48.39000 190.950
48.40000 190.335
48.41000 188.989
48.42000 187.286
48.43000 184.064
48.44000 180.670
48.45000 178.121
48.46000 182.947
48.47000 187.072
48.48000 188.086
48.49000 183.117
48.50000 178.000
48.51000 175.917
48.52000 177.725
48.53000 179.545
48.54000 181.667
48.55000 184.029
48.56000 186.375
48.57000 187.967
48.58000 189.147
48.59000 190.383
48.60000 192.616
48.61000 195.219
48.62000 197.618
48.63000 195.252
48.64000 192.073
48.65000 189.269
48.66000 188.632
48.67000 188.344
48.68000 188.170
48.69000 188.431
48.70000 188.732
48.71000 188.952
48.72000 181.220
48.73000 174.971
48.74000 172.066
48.75000 174.896
48.76000 177.825
48.77000 180.624
48.78000 183.277
48.79000 185.920
48.80000 186.253
48.81000 184.914
48.82000 183.641
48.83000 184.581
48.84000 186.602
48.85000 188.381
48.86000 186.636
48.87000 183.729
48.88000 181.087
48.89000 177.331
48.90000 173.795
48.91000 171.533
48.92000 175.744
48.93000 180.860
48.94000 184.659
48.95000 184.037
48.96000 183.057
48.97000 182.369
48.98000 185.380
48.99000 187.767
49.00000 187.887
49.01000 184.548
49.02000 181.172
49.03000 178.555
49.04000 176.690
49.05000 174.837
49.06000 175.230
49.07000 177.046
49.08000 178.877
49.09000 181.076
49.10000 183.436
49.11000 185.349
49.12000 181.843
49.13000 176.745
49.14000 172.188
49.15000 173.974
49.16000 176.602
49.17000 179.145
49.18000 181.304
49.19000 183.418
49.20000 184.502
49.21000 182.507
49.22000 180.306
49.23000 178.819
49.24000 178.112
49.25000 177.603
49.26000 178.226
49.27000 180.380
49.28000 182.541
49.29000 183.412
49.30000 183.159
49.31000 182.909
49.32000 183.278
49.33000 183.987
49.34000 184.729
49.35000 186.126
49.36000 187.778
49.37000 189.442
49.38000 191.224
49.39000 193.037
49.40000 194.629
49.41000 188.066
49.42000 181.234
49.43000 176.064
49.44000 177.502
49.45000 179.624
49.46000 181.918
49.47000 184.668
49.48000 187.444
49.49000 189.242
49.50000 185.997
49.51000 183.546
49.52000 181.413
49.53000 179.661
49.54000 177.915
49.55000 177.473
49.56000 178.034
49.57000 178.586
49.58000 177.189
49.59000 174.872
49.60000 172.812
49.61000 174.852
49.62000 178.316
49.63000 181.369
49.64000 180.847
49.65000 179.495
49.66000 178.331
49.67000 182.662
49.68000 187.023
49.69000 189.743
49.70000 186.660
49.71000 183.069
49.72000 178.528
49.73000 171.720
49.74000 164.814
49.75000 160.535
49.76000 168.499
49.77000 174.343
49.78000 177.436
49.79000 177.633
49.80000 177.823
49.81000 177.299
49.82000 176.288
49.83000 175.301
49.84000 174.107
49.85000 172.874
49.86000 171.912
49.87000 174.499
49.88000 178.186
49.89000 181.723
49.90000 184.139
49.91000 186.324
49.92000 188.166
49.93000 179.242
49.94000 170.634
49.95000 165.045
49.96000 168.962
49.97000 173.573
49.98000 176.399
49.99000 175.427
50.00000 174.329
50.01000 173.681
50.02000 177.202
50.03000 179.710
50.04000 181.563
50.05000 182.809
50.06000 184.032
50.07000 183.671
50.08000 182.348
50.09000 181.067
50.10000 179.871
50.11000 178.771
50.12000 177.555
50.13000 175.056
50.14000 172.202
50.15000 169.352
50.16000 166.521
50.17000 163.693
50.18000 161.365
50.19000 165.436
50.20000 169.368
50.21000 173.069
50.22000 176.118
50.23000 179.129
50.24000 179.239
50.25000 173.837
50.26000 168.303
50.27000 165.208
50.28000 181.569
50.29000 192.919
50.30000 193.587
50.31000 185.571
50.32000 177.714
50.33000 177.052
50.34000 180.275
50.35000 183.370
50.36000 183.438
50.37000 182.468
50.38000 181.865
50.39000 184.683
50.40000 188.338
50.41000 192.068
50.42000 196.225
50.43000 200.450
50.44000 203.842
50.45000 197.299
50.46000 191.238
50.47000 186.282
50.48000 184.097
50.49000 182.045
50.50000 183.149
50.51000 189.596
50.52000 196.131
50.53000 199.578
50.54000 199.341
50.55000 199.178
50.56000 198.985
50.57000 198.771
50.58000 198.713
50.59000 203.718
50.60000 211.164
50.61000 218.236
50.62000 217.059
50.63000 213.489
50.64000 210.866
50.65000 215.830
50.66000 222.441
50.67000 228.156
50.68000 229.384
50.69000 229.995
50.70000 230.472
50.71000 228.671
50.72000 227.090
50.73000 226.272
50.74000 227.162
50.75000 228.115
50.76000 225.625
50.77000 217.947
50.78000 210.217
50.79000 206.813
50.80000 207.641
50.81000 208.448
50.82000 207.519
50.83000 205.481
50.84000 203.543
50.85000 204.056
50.86000 205.623
50.87000 207.094
50.88000 207.011
50.89000 206.524
50.90000 205.449
50.91000 200.297
50.92000 194.366
50.93000 189.400
50.94000 188.712
50.95000 188.533
50.96000 188.397
50.97000 189.189
50.98000 189.858
50.99000 188.094
51.00000 181.462
51.01000 174.695
51.02000 172.794
51.03000 177.395
51.04000 182.024
51.05000 182.003
51.06000 177.993
51.07000 174.068
51.08000 174.750
51.09000 178.050
51.10000 180.991
51.11000 176.973
51.12000 170.280
51.13000 164.078
51.14000 166.582
51.15000 170.858
51.16000 174.879
51.17000 177.352
51.18000 179.565
51.19000 179.592
51.20000 171.032
51.21000 161.599
51.22000 154.664
51.23000 162.032
51.24000 168.318
51.25000 171.567
51.26000 169.400
51.27000 167.127
51.28000 165.438
51.29000 164.439
51.30000 163.444
51.31000 162.230
51.32000 160.859
51.33000 159.581
51.34000 161.799
51.35000 165.789
51.36000 169.311
51.37000 165.527
51.38000 159.237
51.39000 153.493
51.40000 159.494
51.41000 167.208
51.42000 173.105
51.43000 169.356
51.44000 164.193
51.45000 160.925
51.46000 164.275
51.47000 168.194
51.48000 170.978
51.49000 164.881
51.50000 159.957
51.51000 157.387
51.52000 158.552
51.53000 159.765
51.54000 159.063
51.55000 156.373
51.56000 153.698
51.57000 154.253
51.58000 156.947
51.59000 159.656
51.60000 162.777
51.61000 166.084
51.62000 168.948
51.63000 166.118
51.64000 161.547
51.65000 157.438
51.66000 158.984
51.67000 161.340
51.68000 163.333
51.69000 163.627
51.70000 163.705
51.71000 163.894
51.72000 164.429
51.73000 164.988
51.74000 165.371
51.75000 169.037
51.76000 171.861
51.77000 171.283
51.78000 165.907
51.79000 160.500
51.80000 157.769
51.81000 157.475
51.82000 157.184
51.83000 156.962
51.84000 156.786
51.85000 156.714
51.86000 158.877
51.87000 161.945
51.88000 165.121
51.89000 169.473
51.90000 174.146
51.91000 178.273
51.92000 168.924
51.93000 158.780
51.94000 151.598
51.95000 156.681
51.96000 163.102
51.97000 167.285
51.98000 165.261
51.99000 162.873
52.00000 161.303
52.01000 164.672
52.02000 167.237
52.03000 169.025
52.04000 169.845
52.05000 170.662
52.06000 171.620
52.07000 172.692
52.08000 173.748
52.09000 169.654
52.10000 163.016
52.11000 156.550
52.12000 153.022
52.13000 150.555
52.14000 148.546
52.15000 150.743
52.16000 153.958
52.17000 156.745
52.18000 158.553
52.19000 159.962
52.20000 160.772
52.21000 159.380
52.22000 157.783
52.23000 156.982
52.24000 158.152
52.25000 159.414
52.26000 160.208
52.27000 158.254
52.28000 156.810
52.29000 157.573
52.30000 160.764
52.31000 163.947
52.32000 165.732
52.33000 166.525
52.34000 167.302
52.35000 164.449
52.36000 160.051
52.37000 155.980
52.38000 156.497
52.39000 158.491
52.40000 160.588
52.41000 163.498
52.42000 166.581
52.43000 169.198
52.44000 163.529
52.45000 157.832
52.46000 153.259
52.47000 152.371
52.48000 151.769
52.49000 151.459
52.50000 151.797
52.51000 152.159
52.52000 152.376
52.53000 156.993
52.54000 160.303
52.55000 161.233
52.56000 159.869
52.57000 158.485
52.58000 155.580
52.59000 151.714
52.60000 147.958
52.61000 150.830
52.62000 156.235
52.63000 161.206
52.64000 161.130
52.65000 159.606
52.66000 158.445
52.67000 159.764
52.68000 161.551
52.69000 163.034
52.70000 164.016
52.71000 164.779
52.72000 165.293
52.73000 165.081
52.74000 164.823
52.75000 164.227
52.76000 162.963
52.77000 161.681
52.78000 160.950
52.79000 157.956
52.80000 155.864
52.81000 155.299
52.82000 156.029
52.83000 156.813
52.84000 160.361
52.85000 165.460
52.86000 170.371
52.87000 171.031
52.88000 170.135
52.89000 169.080
52.90000 166.456
52.91000 163.433
52.92000 160.792
52.93000 160.432
52.94000 160.449
52.95000 160.463
52.96000 158.054
52.97000 155.894
52.98000 155.498
52.99000 159.696
53.00000 164.133
53.01000 164.381
53.02000 157.256
53.03000 149.992
53.04000 146.081
53.05000 155.379
53.06000 161.716
53.07000 161.991
53.08000 157.721
53.09000 153.537
53.10000 152.440
53.11000 152.889
53.12000 153.317
53.13000 158.346
53.14000 164.456
53.15000 169.689
53.16000 167.530
53.17000 163.699
53.18000 160.875
53.19000 163.316
53.20000 166.517
53.21000 169.043
53.22000 167.912
53.23000 166.757
53.24000 164.375
53.25000 159.136
53.26000 153.780
53.27000 153.058
53.28000 159.602
53.29000 166.232
53.30000 169.586
53.31000 168.516
53.32000 167.797
53.33000 166.695
53.34000 165.340
53.35000 164.034
53.36000 164.076
53.37000 164.719
53.38000 165.326
53.39000 160.692
53.40000 154.999
53.41000 149.724
53.42000 147.491
53.43000 145.867
53.44000 145.834
53.45000 153.148
53.46000 161.382
53.47000 167.694
53.48000 165.057
53.49000 162.479
53.50000 162.288
53.51000 167.056
53.52000 171.977
53.53000 172.623
53.54000 167.320
53.55000 161.980
53.56000 159.586
53.57000 159.835
53.58000 160.079
53.59000 159.981
53.60000 159.682
53.61000 159.313
53.62000 157.492
53.63000 155.090
53.64000 152.855
53.65000 156.015
53.66000 160.183
53.67000 163.541
53.68000 161.775
53.69000 159.109
53.70000 157.439
53.71000 159.838
53.72000 162.673
53.73000 164.780
53.74000 161.455
53.75000 158.627
53.76000 157.645
53.77000 160.087
53.78000 162.605
53.79000 163.442
53.80000 162.208
53.81000 160.972
53.82000 158.694
53.83000 155.607
53.84000 152.640
53.85000 154.694
53.86000 159.393
53.87000 163.661
53.88000 160.700
53.89000 155.164
53.90000 150.081
53.91000 158.959
53.92000 169.847
53.93000 178.161
53.94000 172.209
53.95000 164.066
53.96000 156.871
53.97000 153.122
53.98000 149.686
53.99000 147.216
54.00000 154.539
54.01000 160.485
54.02000 165.368
54.03000 168.497
54.04000 171.599
54.05000 171.121
54.06000 166.760
54.07000 162.416
54.08000 162.527
54.09000 165.728
54.10000 168.779
54.11000 167.288
54.12000 163.661
54.13000 160.087
54.14000 157.247
54.15000 154.640
54.16000 152.284
54.17000 153.950
54.18000 156.163
54.19000 157.429
54.20000 154.069
54.21000 150.092
54.22000 148.059
54.23000 152.306
54.24000 157.033
54.25000 160.311
54.26000 154.946
54.27000 150.678
54.28000 148.746
54.29000 150.241
54.30000 151.767
54.31000 153.252
54.32000 154.698
54.33000 156.132
54.34000 157.566
54.35000 158.973
54.36000 160.350
54.37000 161.026
54.38000 161.408
54.39000 161.774
54.40000 161.964
54.41000 162.104
54.42000 162.229
54.43000 165.081
54.44000 167.995
54.45000 169.839
54.46000 167.073
54.47000 163.776
54.48000 160.900
54.49000 159.238
54.50000 157.651
54.51000 156.594
54.52000 153.884
54.53000 151.845
54.54000 150.597
54.55000 150.375
54.56000 150.160
54.57000 151.001
54.58000 152.727
54.59000 154.429
54.60000 155.407
54.61000 155.967
54.62000 156.403
54.63000 154.558
54.64000 151.857
54.65000 149.661
54.66000 152.347
54.67000 156.262
54.68000 159.678
54.69000 162.767
54.70000 165.362
54.71000 166.810
54.72000 163.862
54.73000 160.483
54.74000 157.455
54.75000 155.332
54.76000 153.255
54.77000 151.928
54.78000 151.121
54.79000 150.540
54.80000 150.582
54.81000 151.338
54.82000 152.093
54.83000 152.262
54.84000 151.999
54.85000 151.741
54.86000 153.470
54.87000 156.085
54.88000 158.692
54.89000 161.197
54.90000 163.667
54.91000 165.594
54.92000 163.020
54.93000 159.441
54.94000 156.381
54.95000 153.955
54.96000 151.987
54.97000 150.319
54.98000 149.676
54.99000 149.118
55.00000 149.325
55.01000 151.290
55.02000 153.325
55.03000 154.566
55.04000 153.322
55.05000 152.412
55.06000 149.566
55.07000 144.766
55.08000 140.045
55.09000 142.769
55.10000 150.380
55.11000 157.794
55.12000 163.949
55.13000 169.287
55.14000 174.145
55.15000 173.064
55.16000 170.212
55.17000 167.258
55.18000 163.583
55.19000 159.766
55.20000 156.573
55.21000 163.604
55.22000 170.491
55.23000 174.874
55.24000 171.664
55.25000 167.933
55.26000 166.485
55.27000 169.722
55.28000 173.099
55.29000 175.058
55.30000 170.548
55.31000 167.357
55.32000 166.029
55.33000 166.351
55.34000 166.619
55.35000 163.774
55.36000 159.112
55.37000 154.608
55.38000 158.281
55.39000 164.783
55.40000 171.074
55.41000 175.160
55.42000 178.660
55.43000 181.120
55.44000 177.093
55.45000 171.942
55.46000 167.735
55.47000 169.596
55.48000 171.644
55.49000 174.644
55.50000 180.225
55.51000 185.950
55.52000 189.439
55.53000 188.835
55.54000 188.144
55.55000 187.765
55.56000 195.587
55.57000 200.981
55.58000 205.781
55.59000 210.117
55.60000 214.438
55.61000 218.127
55.62000 221.488
55.63000 224.703
55.64000 233.190
55.65000 242.823
55.66000 251.935
55.67000 256.422
55.68000 259.819
55.69000 264.687
55.70000 277.594
55.71000 291.717
55.72000 302.962
55.73000 302.150
55.74000 300.626
55.75000 303.905
55.76000 318.796
55.77000 334.201
55.78000 350.396
55.79000 367.877
55.80000 385.377
55.81000 394.423
55.82000 409.572
55.83000 419.789
55.84000 430.309
55.85000 441.040
55.86000 451.840
55.87000 464.692
55.88000 478.499
55.89000 491.566
55.90000 506.055
55.91000 519.793
55.92000 533.095
55.93000 543.067
55.94000 552.344
55.95000 559.933
55.96000 559.389
55.97000 557.776
55.98000 556.527
55.99000 554.248
56.00000 552.376
56.01000 551.739
56.02000 553.767
56.03000 555.885
56.04000 550.890
56.05000 535.585
56.06000 520.198
56.07000 507.936
56.08000 498.611
56.09000 489.329
56.10000 483.218
56.11000 479.056
56.12000 474.386
56.13000 458.165
56.14000 437.153
56.15000 417.507
56.16000 398.443
56.17000 381.283
56.18000 365.326
56.19000 357.354
56.20000 350.846
56.21000 343.176
56.22000 330.550
56.23000 317.365
56.24000 307.457
56.25000 300.562
56.26000 295.317
56.27000 290.538
56.28000 286.660
56.29000 282.803
56.30000 273.403
56.31000 256.883
56.32000 240.357
56.33000 231.499
56.34000 228.981
56.35000 226.329
56.36000 217.373
56.37000 204.964
56.38000 193.024
56.39000 189.519
56.40000 189.140
56.41000 188.790
56.42000 188.122
56.43000 187.453
56.44000 186.887
56.45000 186.916
56.46000 187.041
56.47000 187.035
56.48000 186.536
56.49000 185.989
56.50000 185.592
56.51000 181.558
56.52000 178.315
56.53000 175.803
56.54000 174.545
56.55000 173.308
56.56000 172.072
56.57000 170.838
56.58000 169.608
56.59000 167.261
56.60000 164.126
56.61000 161.103
56.62000 161.903
56.63000 164.570
56.64000 166.907
56.65000 164.397
56.66000 160.286
56.67000 156.550
56.68000 155.831
56.69000 155.783
56.70000 155.562
56.71000 154.460
56.72000 153.235
56.73000 151.849
56.74000 149.922
56.75000 147.951
56.76000 146.567
56.77000 151.924
56.78000 156.177
56.79000 158.692
56.80000 158.550
56.81000 158.380
56.82000 158.828
56.83000 159.891
56.84000 160.946
56.85000 160.540
56.86000 159.208
56.87000 157.790
56.88000 154.191
56.89000 149.642
56.90000 145.737
56.91000 149.673
56.92000 155.918
56.93000 161.501
56.94000 160.836
56.95000 159.198
56.96000 157.073
56.97000 152.754
56.98000 148.169
56.99000 144.639
57.00000 144.269
57.01000 144.112
57.02000 144.006
57.03000 141.952
57.04000 140.381
57.05000 141.527
57.06000 146.359
57.07000 151.206
57.08000 151.568
57.09000 148.014
57.10000 144.500
57.11000 145.794
57.12000 149.765
57.13000 153.481
57.14000 152.109
57.15000 148.755
57.16000 145.889
57.17000 148.010
57.18000 151.438
57.19000 154.448
57.20000 152.749
57.21000 150.598
57.22000 148.933
57.23000 149.204
57.24000 149.675
57.25000 150.150
57.26000 150.634
57.27000 151.118
57.28000 151.432
57.29000 145.861
57.30000 141.695
57.31000 139.480
57.32000 139.605
57.33000 139.746
57.34000 142.479
57.35000 147.211
57.36000 151.863
57.37000 150.534
57.38000 146.274
57.39000 142.210
57.40000 141.303
57.41000 141.492
57.42000 141.857
57.43000 143.744
57.44000 145.986
57.45000 147.916
57.46000 149.872
57.47000 151.532
57.48000 152.839
57.49000 152.897
57.50000 152.845
57.51000 151.267
57.52000 146.044
57.53000 140.664
57.54000 137.328
57.55000 132.454
57.56000 128.934
57.57000 130.337
57.58000 136.934
57.59000 143.508
57.60000 147.310
57.61000 149.219
57.62000 151.084
57.63000 152.082
57.64000 152.657
57.65000 153.060
57.66000 151.195
57.67000 148.627
57.68000 146.615
57.69000 148.779
57.70000 151.801
57.71000 154.349
57.72000 149.302
57.73000 144.268
57.74000 141.184
57.75000 144.252
57.76000 147.770
57.77000 150.734
57.78000 152.516
57.79000 154.260
57.80000 155.289
57.81000 146.666
57.82000 140.525
57.83000 140.133
57.84000 145.056
57.85000 149.906
57.86000 149.750
57.87000 146.554
57.88000 143.458
57.89000 139.921
57.90000 136.402
57.91000 133.531
57.92000 137.802
57.93000 144.045
57.94000 148.730
57.95000 143.234
57.96000 135.894
57.97000 129.850
57.98000 134.361
57.99000 139.038
58.00000 142.301
58.01000 141.585
58.02000 140.630
58.03000 140.438
58.04000 141.700
58.05000 142.998
58.06000 143.724
58.07000 142.922
58.08000 142.360
58.09000 140.785
58.10000 138.384
58.11000 136.143
58.12000 141.145
58.13000 150.068
58.14000 158.633
58.15000 156.190
58.16000 150.137
58.17000 144.544
58.18000 143.263
58.19000 143.040
58.20000 142.850
58.21000 142.853
58.22000 142.886
58.23000 142.913
58.24000 141.368
58.25000 139.996
58.26000 139.935
58.27000 143.167
58.28000 146.558
58.29000 149.277
58.30000 150.856
58.31000 152.415
58.32000 153.238
58.33000 143.534
58.34000 136.974
58.35000 135.820
58.36000 138.561
58.37000 141.266
58.38000 142.766
58.39000 143.684
58.40000 144.557
58.41000 145.441
58.42000 146.261
58.43000 147.197
58.44000 149.054
58.45000 151.112
58.46000 152.455
58.47000 150.207
58.48000 147.463
58.49000 145.318
58.50000 146.015
58.51000 146.751
58.52000 146.678
58.53000 144.787
58.54000 142.829
58.55000 141.961
58.56000 142.736
58.57000 143.528
58.58000 142.479
58.59000 139.624
58.60000 136.761
58.61000 133.173
58.62000 129.122
58.63000 125.383
58.64000 129.355
58.65000 136.650
58.66000 143.500
58.67000 145.234
58.68000 145.458
58.69000 145.435
58.70000 143.693
58.71000 141.622
58.72000 139.955
58.73000 140.082
58.74000 140.423
58.75000 140.682
58.76000 140.148
58.77000 139.688
58.78000 139.482
58.79000 139.783
58.80000 140.098
58.81000 139.498
58.82000 137.671
58.83000 135.840
58.84000 135.413
58.85000 136.193
58.86000 136.978
58.87000 138.054
58.88000 139.295
58.89000 140.567
58.90000 142.446
58.91000 144.558
58.92000 146.515
58.93000 141.007
58.94000 134.311
58.95000 128.485
58.96000 127.928
58.97000 128.257
58.98000 129.442
58.99000 133.994
59.00000 138.889
59.01000 142.490
59.02000 146.874
59.03000 150.297
59.04000 149.417
59.05000 140.850
59.06000 132.131
59.07000 128.293
59.08000 130.227
59.09000 132.166
59.10000 132.801
59.11000 132.445
59.12000 132.140
59.13000 133.709
59.14000 136.230
59.15000 138.684
59.16000 140.100
59.17000 141.159
59.18000 142.126
59.19000 140.575
59.20000 138.686
59.21000 136.874
59.22000 135.474
59.23000 134.135
59.24000 133.468
59.25000 135.151
59.26000 137.036
59.27000 138.375
59.28000 141.693
59.29000 144.282
59.30000 143.714
59.31000 138.126
59.32000 132.475
59.33000 131.966
59.34000 136.807
59.35000 141.622
59.36000 144.009
59.37000 144.749
59.38000 145.405
59.39000 143.748
59.40000 141.041
59.41000 138.270
59.42000 134.669
59.43000 130.815
59.44000 127.350
59.45000 130.545
59.46000 134.526
59.47000 137.756
59.48000 137.461
59.49000 136.717
59.50000 135.643
59.51000 133.538
59.52000 131.360
59.53000 129.867
59.54000 132.835
59.55000 135.165
59.56000 136.755
59.57000 137.301
59.58000 137.838
59.59000 135.033
59.60000 129.179
59.61000 123.382
59.62000 125.540
59.63000 132.327
59.64000 138.760
59.65000 137.593
59.66000 133.347
59.67000 129.440
59.68000 129.189
59.69000 129.936
59.70000 130.595
59.71000 133.246
59.72000 135.843
59.73000 137.816
59.74000 137.207
59.75000 136.315
59.76000 135.669
59.77000 135.704
59.78000 135.779
59.79000 135.829
59.80000 127.216
59.81000 120.725
59.82000 120.981
59.83000 129.674
59.84000 138.376
59.85000 141.512
59.86000 140.175
59.87000 138.858
59.88000 137.992
59.89000 137.386
59.90000 136.554
59.91000 131.850
59.92000 125.745
59.93000 120.347
59.94000 121.445
59.95000 124.116
59.96000 126.431
59.97000 133.162
59.98000 139.480
59.99000 143.295
60.00000 137.892
60.01000 131.632
60.02000 128.140
60.03000 131.516
60.04000 135.215
60.05000 137.545
60.06000 132.283
60.07000 128.389
60.08000 127.754
60.09000 130.711
60.10000 133.637
60.11000 131.782
60.12000 126.525
60.13000 121.379
60.14000 124.555
60.15000 131.418
60.16000 137.745
60.17000 136.529
60.18000 132.881
60.19000 129.740
60.20000 130.602
60.21000 132.323
60.22000 133.784
60.23000 131.352
60.24000 128.868
60.25000 128.789
60.26000 136.594
60.27000 145.014
60.28000 148.674
60.29000 141.789
60.30000 134.520
60.31000 130.154
60.32000 133.622
60.33000 136.140
60.34000 136.280
60.35000 134.122
60.36000 131.984
60.37000 131.465
60.38000 131.970
60.39000 132.460
60.40000 132.637
60.41000 132.678
60.42000 132.834
60.43000 134.344
60.44000 136.242
60.45000 138.448
60.46000 142.756
60.47000 147.461
60.48000 151.368
60.49000 144.541
60.50000 137.856
60.51000 132.401
60.52000 130.543
60.53000 128.916
60.54000 129.705
60.55000 135.274
60.56000 140.972
60.57000 144.221
60.58000 141.909
60.59000 140.279
60.60000 139.481
60.61000 139.389
60.62000 139.286
60.63000 138.543
60.64000 137.441
60.65000 136.380
60.66000 132.481
60.67000 127.807
60.68000 123.603
60.69000 124.033
60.70000 125.647
60.71000 127.498
60.72000 130.759
60.73000 134.254
60.74000 137.085
60.75000 135.383
60.76000 133.627
60.77000 133.280
60.78000 136.610
60.79000 140.131
60.80000 142.377
60.81000 142.376
60.82000 142.331
60.83000 142.307
60.84000 133.508
60.85000 127.516
60.86000 128.027
60.87000 133.421
60.88000 138.714
60.89000 140.326
60.90000 140.093
60.91000 139.870
60.92000 137.296
60.93000 134.168
60.94000 131.531
60.95000 133.049
60.96000 135.507
60.97000 136.766
60.98000 131.733
60.99000 125.790
61.00000 121.100
61.01000 124.046
61.02000 126.927
61.03000 129.372
61.04000 130.802
61.05000 132.189
61.06000 132.839
61.07000 132.332
61.08000 131.811
61.09000 131.547
61.10000 131.818
61.11000 132.011
61.12000 133.411
61.13000 135.613
61.14000 137.820
61.15000 140.139
61.16000 142.509
61.17000 144.743
61.18000 142.376
61.19000 138.932
61.20000 135.612
61.21000 133.195
61.22000 130.959
61.23000 130.269
61.24000 136.733
61.25000 144.093
61.26000 149.739
61.27000 145.476
61.28000 141.558
61.29000 138.896
61.30000 138.849
61.31000 138.882
61.32000 139.209
61.33000 139.942
61.34000 140.679
61.35000 141.222
61.36000 141.592
61.37000 141.952
61.38000 141.719
61.39000 141.135
61.40000 140.525
61.41000 139.368
61.42000 137.992
61.43000 136.711
61.44000 134.628
61.45000 132.549
61.46000 131.139
61.47000 133.969
61.48000 137.546
61.49000 140.697
61.50000 142.108
61.51000 143.331
61.52000 144.241
61.53000 146.470
61.54000 148.264
61.55000 151.637
61.56000 157.944
61.57000 164.316
61.58000 174.515
61.59000 189.435
61.60000 204.339
61.61000 212.173
61.62000 214.387
61.63000 216.697
61.64000 223.049
61.65000 231.534
61.66000 239.821
61.67000 244.787
61.68000 248.566
61.69000 252.035
61.70000 253.030
61.71000 253.390
61.72000 253.883
61.73000 255.117
61.74000 256.465
61.75000 256.352
61.76000 250.924
61.77000 245.011
61.78000 240.758
61.79000 227.603
61.80000 217.221
61.81000 210.946
61.82000 211.464
61.83000 212.084
61.84000 206.173
61.85000 193.164
61.86000 180.209
61.87000 171.611
61.88000 166.129
61.89000 160.616
61.90000 154.122
61.91000 147.168
61.92000 140.777
61.93000 142.144
61.94000 145.982
61.95000 149.452
61.96000 146.825
61.97000 143.378
61.98000 140.821
61.99000 142.611
62.00000 144.983
62.01000 145.664
62.02000 140.870
62.03000 135.657
62.04000 132.040
62.05000 139.358
62.06000 145.160
62.07000 148.424
62.08000 147.955
62.09000 147.452
62.10000 144.146
62.11000 138.170
62.12000 132.241
62.13000 130.076
62.14000 130.254
62.15000 130.449
62.16000 131.025
62.17000 131.760
62.18000 132.805
62.19000 137.396
62.20000 142.993
62.21000 147.969
62.22000 142.336
62.23000 135.732
62.24000 131.432
62.25000 137.085
62.26000 143.886
62.27000 148.736
62.28000 147.954
62.29000 146.817
62.30000 146.059
62.31000 142.586
62.32000 139.962
62.33000 136.997
62.34000 133.589
62.35000 130.189
62.36000 131.381
62.37000 136.424
62.38000 141.402
62.39000 141.517
62.40000 138.997
62.41000 136.582
62.42000 136.099
62.43000 136.340
62.44000 137.029
62.45000 142.064
62.46000 148.195
62.47000 153.545
62.48000 151.369
62.49000 148.454
62.50000 146.061
62.51000 145.668
62.52000 145.472
62.53000 143.926
62.54000 138.899
62.55000 133.696
62.56000 130.368
62.57000 136.357
62.58000 140.839
62.59000 141.625
62.60000 138.155
62.61000 134.701
62.62000 135.123
62.63000 138.417
62.64000 141.650
62.65000 143.403
62.66000 144.386
62.67000 145.313
62.68000 145.388
62.69000 145.178
62.70000 144.985
62.71000 144.928
62.72000 144.901
62.73000 144.878
62.74000 147.255
62.75000 149.549
62.76000 151.683
62.77000 153.275
62.78000 154.821
62.79000 154.385
62.80000 149.383
62.81000 144.199
62.82000 141.034
62.83000 143.765
62.84000 145.766
62.85000 148.373
62.86000 151.592
62.87000 154.752
62.88000 152.325
62.89000 146.225
62.90000 140.282
62.91000 136.564
62.92000 133.958
62.93000 131.774
62.94000 134.827
62.95000 139.445
62.96000 143.479
62.97000 143.314
62.98000 142.321
62.99000 141.489
63.00000 142.161
63.01000 142.873
63.02000 143.174
63.03000 142.223
63.04000 141.185
63.05000 140.615
63.06000 141.005
63.07000 141.423
63.08000 141.666
63.09000 141.283
63.10000 141.011
63.11000 141.710
63.12000 143.270
63.13000 144.824
63.14000 146.015
63.15000 146.995
63.16000 147.941
63.17000 149.254
63.18000 150.629
63.19000 151.745
63.20000 150.151
63.21000 147.836
63.22000 146.043
63.23000 147.512
63.24000 149.546
63.25000 151.208
63.26000 146.025
63.27000 141.190
63.28000 137.983
63.29000 139.193
63.30000 140.650
63.31000 142.417
63.32000 144.751
63.33000 147.097
63.34000 148.387
63.35000 143.712
63.36000 140.495
63.37000 140.248
63.38000 142.323
63.39000 144.371
63.40000 145.260
63.41000 145.546
63.42000 145.820
63.43000 144.420
63.44000 142.566
63.45000 141.044
63.46000 142.482
63.47000 144.618
63.48000 146.271
63.49000 145.274
63.50000 143.876
63.51000 142.762
63.52000 145.960
63.53000 148.852
63.54000 151.303
63.55000 152.687
63.56000 154.023
63.57000 153.689
63.58000 150.623
63.59000 147.519
63.60000 145.913
63.61000 146.507
63.62000 146.906
63.63000 147.090
63.64000 147.124
63.65000 147.119
63.66000 145.932
63.67000 144.195
63.68000 142.550
63.69000 145.364
63.70000 149.243
63.71000 152.830
63.72000 154.183
63.73000 155.070
63.74000 155.612
63.75000 154.489
63.76000 153.147
63.77000 152.108
63.78000 154.066
63.79000 155.799
63.80000 155.452
63.81000 150.605
63.82000 145.604
63.83000 143.069
63.84000 144.113
63.85000 145.187
63.86000 148.318
63.87000 153.379
63.88000 158.347
63.89000 156.601
63.90000 150.717
63.91000 145.252
63.92000 149.318
63.93000 157.345
63.94000 164.850
63.95000 161.159
63.96000 154.959
63.97000 149.874
63.98000 152.202
63.99000 155.893
64.00000 159.166
64.01000 160.655
64.02000 161.942
64.03000 162.909
64.04000 162.304
64.05000 161.756
64.06000 161.137
64.07000 160.384
64.08000 159.628
64.09000 158.581
64.10000 157.162
64.11000 155.742
64.12000 153.855
64.13000 151.588
64.14000 149.344
64.15000 148.166
64.16000 147.572
64.17000 147.330
64.18000 153.429
64.19000 161.882
64.20000 169.680
64.21000 169.172
64.22000 166.864
64.23000 165.269
64.24000 167.814
64.25000 171.027
64.26000 172.757
64.27000 168.873
64.28000 164.447
64.29000 161.226
64.30000 157.073
64.31000 153.840
64.32000 154.095
64.33000 160.350
64.34000 166.708
64.35000 169.611
64.36000 168.590
64.37000 167.570
64.38000 163.833
64.39000 158.157
64.40000 152.703
64.41000 154.797
64.42000 160.585
64.43000 166.088
64.44000 167.397
64.45000 167.318
64.46000 167.246
64.47000 166.002
64.48000 164.673
64.49000 163.341
64.50000 161.990
64.51000 160.636
64.52000 160.281
64.53000 163.291
64.54000 166.576
64.55000 168.883
64.56000 157.936
64.57000 149.258
64.58000 145.399
64.59000 148.919
64.60000 152.519
64.61000 155.887
64.62000 159.023
64.63000 162.138
64.64000 165.774
64.65000 169.687
64.66000 173.439
64.67000 173.081
64.68000 170.927
64.69000 168.850
64.70000 167.700
64.71000 166.823
64.72000 166.040
64.73000 166.984
64.74000 168.100
64.75000 168.918
64.76000 168.393
64.77000 167.705
64.78000 167.254
64.79000 167.513
64.80000 167.821
64.81000 168.029
64.82000 167.236
64.83000 166.624
64.84000 166.265
64.85000 166.250
64.86000 166.239
64.87000 167.499
64.88000 169.871
64.89000 172.218
64.90000 173.993
64.91000 175.405
64.92000 176.854
64.93000 179.054
64.94000 181.545
64.95000 183.906
64.96000 184.921
64.97000 185.584
64.98000 186.166
64.99000 181.745
65.00000 177.210
65.01000 173.608
65.02000 173.734
65.03000 174.247
65.04000 175.592
65.05000 179.165
65.06000 182.860
65.07000 185.258
65.08000 187.881
65.09000 189.806
65.10000 190.771
65.11000 190.583
65.12000 190.385
65.13000 188.148
65.14000 184.337
65.15000 180.588
65.16000 182.814
65.17000 187.942
65.18000 192.965
65.19000 196.289
65.20000 199.020
65.21000 201.868
65.22000 205.737
65.23000 209.843
65.24000 213.379
65.25000 212.812
65.26000 211.812
65.27000 212.186
65.28000 217.434
65.29000 223.111
65.30000 227.174
65.31000 227.379
65.32000 227.417
65.33000 227.441
65.34000 227.214
65.35000 227.049
65.36000 229.441
65.37000 234.537
65.38000 239.640
65.39000 245.465
65.40000 251.784
65.41000 257.957
65.42000 259.972
65.43000 260.072
65.44000 260.509
65.45000 265.389
65.46000 271.651
65.47000 276.731
65.48000 272.912
65.49000 267.261
65.50000 262.495
65.51000 272.905
65.52000 283.241
65.53000 291.635
65.54000 293.899
65.55000 295.713
65.56000 298.190
65.57000 302.084
65.58000 306.024
65.59000 308.353
65.60000 317.868
65.61000 324.627
65.62000 327.149
65.63000 325.743
65.64000 324.428
65.65000 329.299
65.66000 337.933
65.67000 346.299
65.68000 362.951
65.69000 381.932
65.70000 400.781
65.71000 418.166
65.72000 435.146
65.73000 454.286
65.74000 487.568
65.75000 523.414
65.76000 552.949
65.77000 607.943
65.78000 655.529
65.79000 700.028
65.80000 735.825
65.81000 771.098
65.82000 799.146
65.83000 813.422
65.84000 827.364
65.85000 835.175
65.86000 856.501
65.87000 871.314
65.88000 886.260
65.89000 901.313
65.90000 916.147
65.91000 920.944
65.92000 920.303
65.93000 919.687
65.94000 894.836
65.95000 863.281
65.96000 831.194
65.97000 794.107
65.98000 755.792
65.99000 714.935
66.00000 659.529
66.01000 601.813
66.02000 555.431
66.03000 512.260
66.04000 477.513
66.05000 442.471
66.06000 406.686
66.07000 370.864
66.08000 346.175
66.09000 340.401
66.10000 334.940
66.11000 332.054
66.12000 318.706
66.13000 309.633
66.14000 300.395
66.15000 291.036
66.16000 281.802
66.17000 276.626
66.18000 273.413
66.19000 270.359
66.20000 269.108
66.21000 268.497
66.22000 267.902
66.23000 267.438
66.24000 267.001
66.25000 268.042
66.26000 276.518
66.27000 286.022
66.28000 293.455
66.29000 304.613
66.30000 313.758
66.31000 322.904
66.32000 332.053
66.33000 341.202
66.34000 349.210
66.35000 355.493
66.36000 361.758
66.37000 365.942
66.38000 368.080
66.39000 370.285
66.40000 378.078
66.41000 389.452
66.42000 400.429
66.43000 401.561
66.44000 398.441
66.45000 395.511
66.46000 397.634
66.47000 400.913
66.48000 403.462
66.49000 400.931
66.50000 397.424
66.51000 393.944
66.52000 390.584
66.53000 387.239
66.54000 384.698
66.55000 366.961
66.56000 352.230
66.57000 338.103
66.58000 325.184
66.59000 312.300
66.60000 301.882
66.61000 294.771
66.62000 287.682
66.63000 287.715
66.64000 293.880
66.65000 299.928
66.66000 299.571
66.67000 295.562
66.68000 291.732
66.69000 291.396
66.70000 292.408
66.71000 293.346
66.72000 292.866
66.73000 292.104
66.74000 291.472
66.75000 291.631
66.76000 291.923
66.77000 293.628
66.78000 300.902
66.79000 308.745
66.80000 314.517
66.81000 313.452
66.82000 312.344
66.83000 310.641
66.84000 307.874
66.85000 305.085
66.86000 305.837
66.87000 310.783
66.88000 315.724
66.89000 319.129
66.90000 321.351
66.91000 323.539
66.92000 324.456
66.93000 324.726
66.94000 324.868
66.95000 322.997
66.96000 320.433
66.97000 318.090
66.98000 318.429
66.99000 319.277
67.00000 321.184
67.01000 328.733
67.02000 337.112
67.03000 342.276
67.04000 336.185
67.05000 329.121
67.06000 324.098
67.07000 326.432
67.08000 328.447
67.09000 329.420
67.10000 328.737
67.11000 328.032
67.12000 328.768
67.13000 331.005
67.14000 333.230
67.15000 339.124
67.16000 347.392
67.17000 355.301
67.18000 353.211
67.19000 346.579
67.20000 340.510
67.21000 341.711
67.22000 345.143
67.23000 348.230
67.24000 350.064
67.25000 351.447
67.26000 353.402
67.27000 358.045
67.28000 363.031
67.29000 366.314
67.30000 364.284
67.31000 361.871
67.32000 360.218
67.33000 367.718
67.34000 373.557
67.35000 377.795
67.36000 379.768
67.37000 381.722
67.38000 379.721
67.39000 374.106
67.40000 368.545
67.41000 374.067
67.42000 386.000
67.43000 397.719
67.44000 404.831
67.45000 410.075
67.46000 414.188
67.47000 406.020
67.48000 394.496
67.49000 384.312
67.50000 392.165
67.51000 401.735
67.52000 409.145
67.53000 407.583
67.54000 405.037
67.55000 404.053
67.56000 407.415
67.57000 411.034
67.58000 413.416
67.59000 413.213
67.60000 413.020
67.61000 412.472
67.62000 411.482
67.63000 410.497
67.64000 411.805
67.65000 414.961
67.66000 418.071
67.67000 422.387
67.68000 427.204
67.69000 431.679
67.70000 430.281
67.71000 426.756
67.72000 423.868
67.73000 426.862
67.74000 431.283
67.75000 435.116
67.76000 436.313
67.77000 436.980
67.78000 437.736
67.79000 438.821
67.80000 439.937
67.81000 441.875
67.82000 445.859
67.83000 449.938
67.84000 452.509
67.85000 458.469
67.86000 462.823
67.87000 467.779
67.88000 473.401
67.89000 478.982
67.90000 478.452
67.91000 473.567
67.92000 468.785
67.93000 471.399
67.94000 477.305
67.95000 482.998
67.96000 485.697
67.97000 487.430
67.98000 489.062
67.99000 489.906
68.00000 490.580
68.01000 491.153
68.02000 487.169
68.03000 483.305
68.04000 481.124
68.05000 484.466
68.06000 488.241
68.07000 495.764
68.08000 511.604
68.09000 527.749
68.10000 537.452
68.11000 530.619
68.12000 525.648
68.13000 524.930
68.14000 528.330
68.15000 531.697
68.16000 532.490
68.17000 531.652
68.18000 530.837
68.19000 538.896
68.20000 550.151
68.21000 561.454
68.22000 573.336
68.23000 585.385
68.24000 595.986
68.25000 596.663
68.26000 595.460
68.27000 594.461
68.28000 585.085
68.29000 576.518
68.30000 571.245
68.31000 575.622
68.32000 580.620
68.33000 589.154
68.34000 604.691
68.35000 620.418
68.36000 629.394
68.37000 630.888
68.38000 631.912
68.39000 637.378
68.40000 646.625
68.41000 655.717
68.42000 656.733
68.43000 653.198
68.44000 649.793
68.45000 659.840
68.46000 674.088
68.47000 687.090
68.48000 687.757
68.49000 685.267
68.50000 684.158
68.51000 691.317
68.52000 699.850
68.53000 706.768
68.54000 732.385
68.55000 754.785
68.56000 774.258
68.57000 786.080
68.58000 797.502
68.59000 812.549
68.60000 834.000
68.61000 855.572
68.62000 867.206
68.63000 906.510
68.64000 933.501
68.65000 976.944
68.66000 1032.761
68.67000 1088.042
68.68000 1123.809
68.69000 1149.770
68.70000 1174.528
68.71000 1209.422
68.72000 1244.995
68.73000 1281.328
68.74000 1324.101
68.75000 1368.336
68.76000 1413.425
68.77000 1463.005
68.78000 1513.236
68.79000 1552.895
68.80000 1615.941
68.81000 1668.124
68.82000 1718.098
68.83000 1762.916
68.84000 1807.523
68.85000 1857.504
68.86000 1915.938
68.87000 1974.475
68.88000 2004.140
68.89000 2225.593
68.90000 2374.790
68.91000 2615.159
68.92000 2916.345
68.93000 3233.502
68.94000 3983.662
68.95000 4928.068
68.96000 5818.640
68.97000 7892.601
68.98000 10121.218
68.99000 12510.849
69.00000 16076.669
69.01000 19878.279
69.02000 23756.779
69.03000 27991.527
69.04000 32271.018
69.05000 35555.000
69.06000 39259.848
69.07000 42211.055
69.08000 44625.945
69.09000 45922.941
69.10000 47185.102
69.11000 47966.418
69.12000 48076.133
69.13000 48181.305
69.14000 48486.266
69.15000 48970.781
69.16000 49456.750
69.17000 50033.207
69.18000 50663.348
69.19000 51266.066
69.20000 51291.699
69.21000 51086.129
69.22000 50894.703
69.23000 49177.184
69.24000 47251.910
69.25000 45259.234
69.26000 42838.234
69.27000 40341.711
69.28000 37865.016
69.29000 35469.668
69.30000 33083.090
69.31000 31307.246
69.32000 29306.598
69.33000 27740.041
69.34000 26513.107
69.35000 25917.811
69.36000 25336.715
69.37000 24731.840
69.38000 24097.570
69.39000 23464.357
69.40000 22494.201
69.41000 21262.061
69.42000 20017.844
69.43000 18263.600
69.44000 16239.679
69.45000 14221.735
69.46000 12304.471
69.47000 10423.220
69.48000 8695.710
69.49000 7176.543
69.50000 5865.716
69.51000 4635.716
69.52000 3855.428
69.53000 3144.510
69.54000 2524.299
69.55000 2234.584
69.56000 1975.121
69.57000 1788.384
69.58000 1653.415
69.59000 1551.890
69.60000 1458.197
69.61000 1377.484
69.62000 1296.967
69.63000 1245.050
69.64000 1224.278
69.65000 1203.611
69.66000 1160.889
69.67000 1103.254
69.68000 1046.489
69.69000 1016.444
69.70000 999.008
69.71000 981.545
69.72000 963.720
69.73000 945.779
69.74000 929.556
69.75000 912.880
69.76000 898.121
69.77000 882.704
69.78000 864.069
69.79000 845.002
69.80000 828.030
69.81000 817.857
69.82000 808.205
69.83000 801.504
69.84000 774.143
69.85000 752.980
69.86000 734.607
69.87000 720.346
69.88000 706.122
69.89000 700.327
69.90000 702.579
69.91000 704.813
69.92000 697.759
69.93000 685.130
69.94000 672.926
69.95000 670.733
69.96000 672.756
69.97000 673.721
69.98000 662.499
69.99000 647.814
70.00000 634.756
