20.00000 565.529
20.01000 557.267
20.02000 547.824
20.03000 542.251
20.04000 551.767
20.05000 562.802
20.06000 570.899
20.07000 554.604
20.08000 541.024
20.09000 533.076
20.10000 535.102
20.11000 537.319
20.12000 544.753
20.13000 558.299
20.14000 571.818
20.15000 574.969
20.16000 570.335
20.17000 565.764
20.18000 563.495
20.19000 562.385
20.20000 561.585
20.21000 565.564
20.22000 571.172
20.23000 576.288
20.24000 569.324
20.25000 560.711
20.26000 553.755
20.27000 555.531
20.28000 558.577
20.29000 563.533
20.30000 575.110
20.31000 587.251
20.32000 595.858
20.33000 586.112
20.34000 578.124
20.35000 569.796
20.36000 560.930
20.37000 552.057
20.38000 550.188
20.39000 555.532
20.40000 560.846
20.41000 562.042
20.42000 560.505
20.43000 558.987
20.44000 557.971
20.45000 557.181
20.46000 556.186
20.47000 552.570
20.48000 548.157
20.49000 544.195
20.50000 547.202
20.51000 551.057
20.52000 554.843
20.53000 558.308
20.54000 561.732
20.55000 564.216
20.56000 563.795
20.57000 563.169
20.58000 562.741
20.59000 557.943
20.60000 554.251
20.61000 549.464
20.62000 543.142
20.63000 536.818
20.64000 542.751
20.65000 559.755
20.66000 576.591
20.67000 578.902
20.68000 572.710
20.69000 566.554
20.70000 561.161
20.71000 556.074
20.72000 551.869
20.73000 557.089
20.74000 564.858
20.75000 571.713
20.76000 580.786
20.77000 588.951
20.78000 593.802
20.79000 585.023
20.80000 574.771
20.81000 567.904
20.82000 570.365
20.83000 573.365
20.84000 575.333
20.85000 574.796
20.86000 574.359
20.87000 573.528
20.88000 572.207
20.89000 570.884
20.90000 569.469
20.91000 567.981
20.92000 566.515
20.93000 564.885
20.94000 563.220
20.95000 561.453
20.96000 557.966
20.97000 553.862
20.98000 550.311
20.99000 551.784
21.00000 554.464
21.01000 556.784
21.02000 555.481
21.03000 553.896
21.04000 553.853
21.05000 559.440
21.06000 565.543
21.07000 569.402
21.08000 567.740
21.09000 565.823
21.10000 564.620
21.11000 553.149
21.12000 544.746
21.13000 539.955
21.14000 539.108
21.15000 538.288
21.16000 541.017
21.17000 546.249
21.18000 551.368
21.19000 551.503
21.20000 549.370
21.21000 547.619
21.22000 551.157
21.23000 556.386
21.24000 560.676
21.25000 557.627
21.26000 553.019
21.27000 549.113
21.28000 543.822
21.29000 539.232
21.30000 535.813
21.31000 536.198
21.32000 536.876
21.33000 540.325
21.34000 549.862
21.35000 559.616
21.36000 565.453
21.37000 557.653
21.38000 552.028
21.39000 548.441
21.40000 546.804
21.41000 545.293
21.42000 553.425
21.43000 567.597
21.44000 581.358
21.45000 583.438
21.46000 580.730
21.47000 577.821
21.48000 572.594
21.49000 566.706
21.50000 561.269
21.51000 558.878
21.52000 557.058
21.53000 555.549
21.54000 562.705
21.55000 569.443
21.56000 573.175
21.57000 568.188
21.58000 562.648
21.59000 560.029
21.60000 563.141
21.61000 566.404
21.62000 568.258
21.63000 557.542
21.64000 550.052
21.65000 548.518
21.66000 551.999
21.67000 555.532
21.68000 561.639
21.69000 569.183
21.70000 576.443
21.71000 579.409
21.72000 580.672
21.73000 581.032
21.74000 572.570
21.75000 561.875
21.76000 553.784
21.77000 561.096
21.78000 570.938
21.79000 578.899
21.80000 590.426
21.81000 600.091
21.82000 606.103
21.83000 602.659
21.84000 598.731
21.85000 598.621
21.86000 605.187
21.87000 611.875
21.88000 615.463
21.89000 641.712
21.90000 659.593
21.91000 666.199
21.92000 664.415
21.93000 662.713
21.94000 663.921
21.95000 666.576
21.96000 669.106
21.97000 669.406
21.98000 668.988
21.99000 668.541
22.00000 667.848
22.01000 667.101
22.02000 667.525
22.03000 674.032
22.04000 681.411
22.05000 687.222
22.06000 689.896
22.07000 691.829
22.08000 690.947
22.09000 683.557
22.10000 675.907
22.11000 673.950
22.12000 680.857
22.13000 687.867
22.14000 691.399
22.15000 684.431
22.16000 679.744
22.17000 672.199
22.18000 662.767
22.19000 653.331
22.20000 643.774
22.21000 634.164
22.22000 625.111
22.23000 619.913
22.24000 616.214
22.25000 611.944
22.26000 603.555
22.27000 594.348
22.28000 585.381
22.29000 577.510
22.30000 569.775
22.31000 563.854
22.32000 570.493
22.33000 576.418
22.34000 576.683
22.35000 565.268
22.36000 553.498
22.37000 545.231
22.38000 541.803
22.39000 538.407
22.40000 540.353
22.41000 547.048
22.42000 553.701
22.43000 557.735
22.44000 560.232
22.45000 562.477
22.46000 559.526
22.47000 554.514
22.48000 549.852
22.49000 548.736
22.50000 548.582
22.51000 547.114
22.52000 537.396
22.53000 526.241
22.54000 519.455
22.55000 530.403
22.56000 543.236
22.57000 552.758
22.58000 539.626
22.59000 528.430
22.60000 522.932
22.61000 527.925
22.62000 533.147
22.63000 536.255
22.64000 536.781
22.65000 537.298
22.66000 535.494
22.67000 531.884
22.68000 528.289
22.69000 525.312
22.70000 522.659
22.71000 520.292
22.72000 522.681
22.73000 526.754
22.74000 530.489
22.75000 527.405
22.76000 523.216
22.77000 520.133
22.78000 523.130
22.79000 527.054
22.80000 529.607
22.81000 527.213
22.82000 524.373
22.83000 522.336
22.84000 523.203
22.85000 523.965
22.86000 526.655
22.87000 532.505
22.88000 538.401
22.89000 537.139
22.90000 528.171
22.91000 519.242
22.92000 517.542
22.93000 520.838
22.94000 523.761
22.95000 515.538
22.96000 502.108
22.97000 489.959
22.98000 495.188
22.99000 505.905
23.00000 515.582
23.01000 526.932
23.02000 537.216
23.03000 544.251
23.04000 535.550
23.05000 524.767
23.06000 515.093
23.07000 508.984
23.08000 503.144
23.09000 499.103
23.10000 502.145
23.11000 504.618
23.12000 503.860
23.13000 498.395
23.14000 492.890
23.15000 493.007
23.16000 498.431
23.17000 503.808
23.18000 507.526
23.19000 510.168
23.20000 512.713
23.21000 513.050
23.22000 512.465
23.23000 511.517
23.24000 506.465
23.25000 500.258
23.26000 494.747
23.27000 500.812
23.28000 507.922
23.29000 513.640
23.30000 513.396
23.31000 512.472
23.32000 514.127
23.33000 523.169
23.34000 532.669
23.35000 538.989
23.36000 523.455
23.37000 511.552
23.38000 507.463
23.39000 513.467
23.40000 519.494
23.41000 517.808
23.42000 509.715
23.43000 501.730
23.44000 500.154
23.45000 502.057
23.46000 503.748
23.47000 501.588
23.48000 497.994
23.49000 495.388
23.50000 502.251
23.51000 511.482
23.52000 519.526
23.53000 519.883
23.54000 519.125
23.55000 518.159
23.56000 516.409
23.57000 514.582
23.58000 513.719
23.59000 515.323
23.60000 517.050
23.61000 518.151
23.62000 511.913
23.63000 507.283
23.64000 505.405
23.65000 506.664
23.66000 507.944
23.67000 512.465
23.68000 519.367
23.69000 526.136
23.70000 530.548
23.71000 533.681
23.72000 536.328
23.73000 531.789
23.74000 524.862
23.75000 518.150
23.76000 513.215
23.77000 508.674
23.78000 504.796
23.79000 511.846
23.80000 519.082
23.81000 527.381
23.82000 539.273
23.83000 551.459
23.84000 557.703
23.85000 550.382
23.86000 542.531
23.87000 537.754
23.88000 552.821
23.89000 563.737
23.90000 567.475
23.91000 564.028
23.92000 560.516
23.93000 551.072
23.94000 537.759
23.95000 524.798
23.96000 521.069
23.97000 521.376
23.98000 522.016
23.99000 526.740
24.00000 532.673
24.01000 538.646
24.02000 544.907
24.03000 551.224
24.04000 556.501
24.05000 554.224
24.06000 551.569
24.07000 549.344
24.08000 548.411
24.09000 547.566
24.10000 544.877
24.11000 538.431
24.12000 531.874
24.13000 528.082
24.14000 532.826
24.15000 536.186
24.16000 539.105
24.17000 541.636
24.18000 544.037
24.19000 538.952
24.20000 529.526
24.21000 520.425
24.22000 517.750
24.23000 517.602
24.24000 517.560
24.25000 518.618
24.26000 519.966
24.27000 521.242
24.28000 522.073
24.29000 522.827
24.30000 523.442
24.31000 521.068
24.32000 518.871
24.33000 519.582
24.34000 528.112
24.35000 537.074
24.36000 537.141
24.37000 521.036
24.38000 504.592
24.39000 495.594
24.40000 500.401
24.41000 503.710
24.42000 502.966
24.43000 499.078
24.44000 495.282
24.45000 495.082
24.46000 496.741
24.47000 498.328
24.48000 495.637
24.49000 491.740
24.50000 488.718
24.51000 493.395
24.52000 499.873
24.53000 504.073
24.54000 495.915
24.55000 485.900
24.56000 477.940
24.57000 486.247
24.58000 494.099
24.59000 499.130
24.60000 497.385
24.61000 495.345
24.62000 492.286
24.63000 487.578
24.64000 482.848
24.65000 480.412
24.66000 477.510
24.67000 475.612
24.68000 480.337
24.69000 489.613
24.70000 498.800
24.71000 505.391
24.72000 510.783
24.73000 515.884
24.74000 509.599
24.75000 500.558
24.76000 492.217
24.77000 489.176
24.78000 487.230
24.79000 484.616
24.80000 478.806
24.81000 472.580
24.82000 467.767
24.83000 468.919
24.84000 470.183
24.85000 472.771
24.86000 478.199
24.87000 483.723
24.88000 486.500
24.89000 485.326
24.90000 484.120
24.91000 481.959
24.92000 478.909
24.93000 475.868
24.94000 473.434
24.95000 471.370
24.96000 469.477
24.97000 471.419
24.98000 474.941
24.99000 478.231
25.00000 477.879
25.01000 476.641
25.02000 475.780
25.03000 477.400
25.04000 479.472
25.05000 479.930
25.06000 473.561
25.07000 466.427
25.08000 461.077
25.09000 472.446
25.10000 482.118
25.11000 487.432
25.12000 484.404
25.13000 481.172
25.14000 480.032
25.15000 481.561
25.16000 483.097
25.17000 484.443
25.18000 485.630
25.19000 486.758
25.20000 485.154
25.21000 482.063
25.22000 479.282
25.23000 482.003
25.24000 486.749
25.25000 491.123
25.26000 487.510
25.27000 482.511
25.28000 478.880
25.29000 483.112
25.30000 488.599
25.31000 492.219
25.32000 488.835
25.33000 484.783
25.34000 481.842
25.35000 484.819
25.36000 487.330
25.37000 488.181
25.38000 486.202
25.39000 484.176
25.40000 482.104
25.41000 479.981
25.42000 477.865
25.43000 475.907
25.44000 474.080
25.45000 472.255
25.46000 470.503
25.47000 468.787
25.48000 467.251
25.49000 468.329
25.50000 470.264
25.51000 472.021
25.52000 467.926
25.53000 463.180
25.54000 460.326
25.55000 467.032
25.56000 475.065
25.57000 480.817
25.58000 478.953
25.59000 476.478
25.60000 474.744
25.61000 471.797
25.62000 469.534
25.63000 469.040
25.64000 471.232
25.65000 473.452
25.66000 475.903
25.67000 478.582
25.68000 481.242
25.69000 476.244
25.70000 466.474
25.71000 457.116
25.72000 458.067
25.73000 463.487
25.74000 468.809
25.75000 472.974
25.76000 476.800
25.77000 480.216
25.78000 474.561
25.79000 468.113
25.80000 463.736
25.81000 468.600
25.82000 474.574
25.83000 477.483
25.84000 471.275
25.85000 464.461
25.86000 459.866
25.87000 457.945
25.88000 456.572
25.89000 457.115
25.90000 460.239
25.91000 463.376
25.92000 467.087
25.93000 471.294
25.94000 475.453
25.95000 474.965
25.96000 471.890
25.97000 468.565
25.98000 460.321
25.99000 450.173
26.00000 441.519
26.01000 448.002
26.02000 458.424
26.03000 467.565
26.04000 457.801
26.05000 446.667
26.06000 438.953
26.07000 444.768
26.08000 451.973
26.09000 456.166
26.10000 452.357
26.11000 448.117
26.12000 445.375
26.13000 451.583
26.14000 456.255
26.15000 459.587
26.16000 461.324
26.17000 463.064
26.18000 466.151
26.19000 470.268
26.20000 474.316
26.21000 467.582
26.22000 455.750
26.23000 444.428
26.24000 441.165
26.25000 440.686
26.26000 441.012
26.27000 448.296
26.28000 457.186
26.29000 464.832
26.30000 455.090
26.31000 444.667
26.32000 438.225
26.33000 445.779
26.34000 454.548
26.35000 461.133
26.36000 462.533
26.37000 463.712
26.38000 464.442
26.39000 464.842
26.40000 465.128
26.41000 464.773
26.42000 463.750
26.43000 462.671
26.44000 455.350
26.45000 443.794
26.46000 432.514
26.47000 436.174
26.48000 446.190
26.49000 455.313
26.50000 452.804
26.51000 446.712
26.52000 442.128
26.53000 448.790
26.54000 457.747
26.55000 465.287
26.56000 460.462
26.57000 455.114
26.58000 451.084
26.59000 451.181
26.60000 451.576
26.61000 450.859
26.62000 447.784
26.63000 444.633
26.64000 442.778
26.65000 456.655
26.66000 466.524
26.67000 468.559
26.68000 463.405
26.69000 458.345
26.70000 459.524
26.71000 464.465
26.72000 469.251
26.73000 468.239
26.74000 465.051
26.75000 461.762
26.76000 457.384
26.77000 452.706
26.78000 448.180
26.79000 444.634
26.80000 441.265
26.81000 438.493
26.82000 447.152
26.83000 455.305
26.84000 457.911
26.85000 445.017
26.86000 431.204
26.87000 426.770
26.88000 440.064
26.89000 453.778
26.90000 461.429
26.91000 457.717
26.92000 455.113
26.93000 449.275
26.94000 440.822
26.95000 432.434
26.96000 426.961
26.97000 423.056
26.98000 419.308
26.99000 426.008
27.00000 435.819
27.01000 445.013
27.02000 448.482
27.03000 450.557
27.04000 452.116
27.05000 450.754
27.06000 448.932
27.07000 447.471
27.08000 448.938
27.09000 450.347
27.10000 450.076
27.11000 445.613
27.12000 440.951
27.13000 440.185
27.14000 445.985
27.15000 451.890
27.16000 454.996
27.17000 456.938
27.18000 458.222
27.19000 454.656
27.20000 447.620
27.21000 440.654
27.22000 435.940
27.23000 432.306
27.24000 428.855
27.25000 431.309
27.26000 435.342
27.27000 439.226
27.28000 441.929
27.29000 444.376
27.30000 445.793
27.31000 442.073
27.32000 437.649
27.33000 434.197
27.34000 449.402
27.35000 462.698
27.36000 467.892
27.37000 455.034
27.38000 441.510
27.39000 435.479
27.40000 440.674
27.41000 445.978
27.42000 443.680
27.43000 433.986
27.44000 424.445
27.45000 427.308
27.46000 438.055
27.47000 448.309
27.48000 446.588
27.49000 439.739
27.50000 433.313
27.51000 431.007
27.52000 429.990
27.53000 428.732
27.54000 425.817
27.55000 422.586
27.56000 420.773
27.57000 425.203
27.58000 430.369
27.59000 434.285
27.60000 441.420
27.61000 447.186
27.62000 451.518
27.63000 452.996
27.64000 454.396
27.65000 453.004
27.66000 447.902
27.67000 442.787
27.68000 444.859
27.69000 453.058
27.70000 461.003
27.71000 455.609
27.72000 442.670
27.73000 430.358
27.74000 430.031
27.75000 434.288
27.76000 438.230
27.77000 438.239
27.78000 437.339
27.79000 437.065
27.80000 440.559
27.81000 444.682
27.82000 446.372
27.83000 438.563
27.84000 429.795
27.85000 423.358
27.86000 428.489
27.87000 432.924
27.88000 437.466
27.89000 442.195
27.90000 446.928
27.91000 447.743
27.92000 443.957
27.93000 440.173
27.94000 438.984
27.95000 439.748
27.96000 440.442
27.97000 438.581
27.98000 435.431
27.99000 432.135
28.00000 426.588
28.01000 420.274
28.02000 414.511
28.03000 423.651
28.04000 434.772
28.05000 443.082
28.06000 436.561
28.07000 427.878
28.08000 421.787
28.09000 424.695
28.10000 428.369
28.11000 430.976
28.12000 440.378
28.13000 447.744
28.14000 451.823
28.15000 450.712
28.16000 449.537
28.17000 443.138
28.18000 431.346
28.19000 419.621
28.20000 417.897
28.21000 422.806
28.22000 427.643
28.23000 430.511
28.24000 432.491
28.25000 434.403
28.26000 435.446
28.27000 436.225
28.28000 436.925
28.29000 429.322
28.30000 421.207
28.31000 414.422
28.32000 413.825
28.33000 414.008
28.34000 416.507
28.35000 426.169
28.36000 436.340
28.37000 443.290
28.38000 438.707
28.39000 435.006
28.40000 434.132
28.41000 437.224
28.42000 440.341
28.43000 439.220
28.44000 434.266
28.45000 429.360
28.46000 425.555
28.47000 422.474
28.48000 419.691
28.49000 423.251
28.50000 429.361
28.51000 434.576
28.52000 430.193
28.53000 423.209
28.54000 417.046
28.55000 415.981
28.56000 415.841
28.57000 416.601
28.58000 421.068
28.59000 425.937
28.60000 428.980
28.61000 426.984
28.62000 424.696
28.63000 423.195
28.64000 422.635
28.65000 422.239
28.66000 420.896
28.67000 418.377
28.68000 415.858
28.69000 414.085
28.70000 412.907
28.71000 411.748
28.72000 409.715
28.73000 407.293
28.74000 405.471
28.75000 413.827
28.76000 425.839
28.77000 436.138
28.78000 430.833
28.79000 421.775
28.80000 413.933
28.81000 418.786
28.82000 424.588
28.83000 427.000
28.84000 417.016
28.85000 405.889
28.86000 399.023
28.87000 402.656
28.88000 406.774
28.89000 409.361
28.90000 407.294
28.91000 405.747
28.92000 407.177
28.93000 411.863
28.94000 416.533
28.95000 418.840
28.96000 419.478
28.97000 420.103
28.98000 419.995
28.99000 419.559
29.00000 418.922
29.01000 415.495
29.02000 411.173
29.03000 407.506
29.04000 408.959
29.05000 411.503
29.06000 413.660
29.07000 414.108
29.08000 414.291
29.09000 414.012
29.10000 412.228
29.11000 410.327
29.12000 407.510
29.13000 402.675
29.14000 397.767
29.15000 394.828
29.16000 395.350
29.17000 395.744
29.18000 400.541
29.19000 409.561
29.20000 418.463
29.21000 418.152
29.22000 412.061
29.23000 406.146
29.24000 407.855
29.25000 412.539
29.26000 416.415
29.27000 410.945
29.28000 402.807
29.29000 395.702
29.30000 395.609
29.31000 396.831
29.32000 397.844
29.33000 399.165
29.34000 400.286
29.35000 402.236
29.36000 406.599
29.37000 411.115
29.38000 412.507
29.39000 407.762
29.40000 402.855
29.41000 400.065
29.42000 405.554
29.43000 409.399
29.44000 410.565
29.45000 409.472
29.46000 408.470
29.47000 412.019
29.48000 418.110
29.49000 423.974
29.50000 421.206
29.51000 415.550
29.52000 409.584
29.53000 400.590
29.54000 390.827
29.55000 383.935
29.56000 394.055
29.57000 406.975
29.58000 417.429
29.59000 413.135
29.60000 408.451
29.61000 406.225
29.62000 410.368
29.63000 414.838
29.64000 416.280
29.65000 412.415
29.66000 408.452
29.67000 406.324
29.68000 406.343
29.69000 406.389
29.70000 412.357
29.71000 422.741
29.72000 432.834
29.73000 432.622
29.74000 427.273
29.75000 422.177
29.76000 416.299
29.77000 410.607
29.78000 405.841
29.79000 408.821
29.80000 413.544
29.81000 417.715
29.82000 419.017
29.83000 419.907
29.84000 420.608
29.85000 412.747
29.86000 405.872
29.87000 404.885
29.88000 417.528
29.89000 430.721
29.90000 438.271
29.91000 437.023
29.92000 435.672
29.93000 434.991
29.94000 429.530
29.95000 425.874
29.96000 421.843
29.97000 417.562
29.98000 413.503
29.99000 415.328
30.00000 419.770
30.01000 423.956
30.02000 425.274
30.03000 425.692
30.04000 425.540
30.05000 421.273
30.06000 416.189
30.07000 412.933
30.08000 418.069
30.09000 424.248
30.10000 428.979
30.11000 431.161
30.12000 432.744
30.13000 432.342
30.14000 427.836
30.15000 423.205
30.16000 423.381
30.17000 430.213
30.18000 437.084
30.19000 438.101
30.20000 433.897
30.21000 429.710
30.22000 426.488
30.23000 423.835
30.24000 421.302
30.25000 421.278
30.26000 422.250
30.27000 423.155
30.28000 419.983
30.29000 416.133
30.30000 412.123
30.31000 407.107
30.32000 401.916
30.33000 398.096
30.34000 399.854
30.35000 402.206
30.36000 403.952
30.37000 411.483
30.38000 417.590
30.39000 421.461
30.40000 421.211
30.41000 420.871
30.42000 421.745
30.43000 424.107
30.44000 426.469
30.45000 423.532
30.46000 416.460
30.47000 409.426
30.48000 403.963
30.49000 399.324
30.50000 395.170
30.51000 399.044
30.52000 405.765
30.53000 411.930
30.54000 406.601
30.55000 399.419
30.56000 394.292
30.57000 400.484
30.58000 408.405
30.59000 414.518
30.60000 414.103
30.61000 413.098
30.62000 412.377
30.63000 414.075
30.64000 415.457
30.65000 418.455
30.66000 424.109
30.67000 429.802
30.68000 428.838
30.69000 420.695
30.70000 412.587
30.71000 409.204
30.72000 409.117
30.73000 409.139
30.74000 412.452
30.75000 417.305
30.76000 422.185
30.77000 427.421
30.78000 432.771
30.79000 437.603
30.80000 432.961
30.81000 427.130
30.82000 422.682
30.83000 424.937
30.84000 428.081
30.85000 430.925
30.86000 432.806
30.87000 434.613
30.88000 435.864
30.89000 435.818
30.90000 435.750
30.91000 438.006
30.92000 443.658
30.93000 449.339
30.94000 456.218
30.95000 464.228
30.96000 472.171
30.97000 478.669
30.98000 484.168
30.99000 489.627
31.00000 494.150
31.01000 498.282
31.02000 502.593
31.03000 508.935
31.04000 515.849
31.05000 521.988
31.06000 539.814
31.07000 557.143
31.08000 576.662
31.09000 605.581
31.10000 635.574
31.11000 663.499
31.12000 685.494
31.13000 707.121
31.14000 721.515
31.15000 757.806
31.16000 785.073
31.17000 821.977
31.18000 871.352
31.19000 920.780
31.20000 971.640
31.21000 1023.691
31.22000 1075.057
31.23000 1130.647
31.24000 1187.008
31.25000 1243.414
31.26000 1300.634
31.27000 1358.158
31.28000 1415.924
31.29000 1476.013
31.30000 1536.684
31.31000 1589.567
31.32000 1638.224
31.33000 1679.225
31.34000 1716.164
31.35000 1737.642
31.36000 1757.615
31.37000 1776.668
31.38000 1793.369
31.39000 1809.953
31.40000 1820.529
31.41000 1795.120
31.42000 1776.177
31.43000 1757.201
31.44000 1738.186
31.45000 1719.073
31.46000 1682.724
31.47000 1633.695
31.48000 1585.603
31.49000 1531.436
31.50000 1476.369
31.51000 1421.270
31.52000 1365.698
31.53000 1309.968
31.54000 1253.645
31.55000 1192.447
31.56000 1130.167
31.57000 1076.967
31.58000 1023.984
31.59000 979.375
31.60000 932.076
31.61000 875.670
31.62000 818.516
31.63000 770.080
31.64000 741.576
31.65000 713.853
31.66000 696.973
31.67000 662.439
31.68000 637.629
31.69000 613.170
31.70000 589.063
31.71000 565.017
31.72000 546.631
31.73000 531.940
31.74000 517.633
31.75000 501.275
31.76000 484.825
31.77000 469.047
31.78000 461.526
31.79000 456.456
31.80000 451.501
31.81000 447.365
31.82000 443.390
31.83000 440.068
31.84000 433.330
31.85000 427.389
31.86000 421.904
31.87000 417.791
31.88000 413.772
31.89000 412.420
31.90000 416.511
31.91000 420.763
31.92000 423.225
31.93000 419.862
31.94000 417.479
31.95000 414.529
31.96000 411.079
31.97000 407.713
31.98000 409.204
31.99000 413.516
32.00000 417.679
32.01000 414.156
32.02000 407.994
32.03000 402.333
32.04000 401.854
32.05000 402.743
32.06000 403.816
32.07000 406.030
32.08000 408.440
32.09000 410.406
32.10000 408.464
32.11000 406.540
32.12000 405.209
32.13000 405.473
32.14000 405.825
32.15000 403.498
32.16000 396.287
32.17000 388.974
32.18000 384.969
32.19000 394.382
32.20000 400.859
32.21000 403.390
32.22000 402.854
32.23000 402.251
32.24000 398.968
32.25000 394.297
32.26000 389.830
32.27000 391.031
32.28000 393.996
32.29000 396.296
32.30000 392.730
32.31000 387.789
32.32000 383.187
32.33000 380.427
32.34000 377.946
32.35000 375.972
32.36000 382.817
32.37000 388.962
32.38000 391.985
32.39000 387.496
32.40000 382.677
32.41000 380.023
32.42000 380.882
32.43000 381.789
32.44000 382.257
32.45000 395.759
32.46000 404.772
32.47000 403.845
32.48000 396.077
32.49000 388.472
32.50000 385.661
32.51000 385.065
32.52000 384.501
32.53000 382.601
32.54000 380.471
32.55000 378.600
32.56000 378.698
32.57000 379.204
32.58000 380.376
32.59000 384.736
32.60000 389.513
32.61000 393.208
32.62000 391.617
32.63000 390.044
32.64000 386.936
32.65000 380.534
32.66000 374.021
32.67000 369.934
32.68000 369.345
32.69000 368.784
32.70000 367.158
32.71000 364.541
32.72000 361.941
32.73000 360.583
32.74000 359.985
32.75000 359.310
32.76000 356.911
32.77000 353.799
32.78000 350.892
32.79000 352.121
32.80000 354.280
32.81000 356.304
32.82000 357.436
32.83000 358.405
32.84000 359.450
32.85000 360.815
32.86000 362.216
32.87000 363.267
32.88000 369.588
32.89000 374.776
32.90000 375.119
32.91000 366.171
32.92000 356.995
32.93000 355.314
32.94000 363.207
32.95000 371.123
32.96000 374.956
32.97000 375.434
32.98000 376.070
32.99000 384.084
33.00000 396.117
33.01000 407.307
33.02000 403.441
33.03000 394.026
33.04000 385.348
33.05000 385.407
33.06000 387.395
33.07000 389.689
33.08000 393.749
33.09000 398.091
33.10000 400.103
33.11000 393.358
33.12000 385.775
33.13000 380.268
33.14000 373.671
33.15000 368.557
33.16000 364.287
33.17000 361.460
33.18000 358.657
33.19000 358.500
33.20000 361.324
33.21000 364.140
33.22000 363.875
33.23000 361.394
33.24000 359.026
33.25000 360.401
33.26000 363.597
33.27000 366.184
33.28000 359.929
33.29000 350.766
33.30000 342.445
33.31000 345.357
33.32000 350.102
33.33000 353.478
33.34000 349.918
33.35000 345.393
33.36000 343.183
33.37000 348.715
33.38000 354.871
33.39000 359.186
33.40000 349.639
33.41000 342.017
33.42000 336.765
33.43000 335.116
33.44000 333.505
33.45000 334.649
33.46000 338.515
33.47000 342.354
33.48000 343.745
33.49000 343.560
33.50000 343.417
33.51000 344.317
33.52000 345.671
33.53000 346.808
33.54000 345.331
33.55000 343.088
33.56000 341.085
33.57000 343.676
33.58000 346.707
33.59000 348.754
33.60000 346.405
33.61000 343.527
33.62000 341.142
33.63000 340.224
33.64000 339.404
33.65000 338.850
33.66000 338.071
33.67000 337.486
33.68000 341.883
33.69000 353.000
33.70000 364.141
33.71000 364.857
33.72000 356.521
33.73000 348.279
33.74000 345.736
33.75000 346.446
33.76000 347.013
33.77000 344.780
33.78000 341.462
33.79000 338.507
33.80000 339.255
33.81000 340.967
33.82000 342.469
33.83000 337.550
33.84000 332.388
33.85000 330.641
33.86000 342.425
33.87000 355.601
33.88000 363.119
33.89000 355.580
33.90000 347.227
33.91000 341.820
33.92000 344.619
33.93000 346.787
33.94000 349.219
33.95000 351.965
33.96000 354.707
33.97000 356.344
33.98000 357.135
33.99000 357.912
34.00000 355.577
34.01000 351.781
34.02000 348.620
34.03000 355.521
34.04000 365.905
34.05000 375.121
34.06000 374.210
34.07000 370.957
34.08000 368.158
34.09000 362.987
34.10000 358.311
34.11000 355.864
34.12000 361.266
34.13000 367.352
34.14000 371.861
34.15000 372.624
34.16000 373.228
34.17000 373.601
34.18000 377.060
34.19000 379.575
34.20000 379.509
34.21000 376.735
34.22000 373.956
34.23000 370.669
34.24000 367.036
34.25000 363.489
34.26000 363.390
34.27000 364.801
34.28000 366.005
34.29000 364.498
34.30000 362.154
34.31000 360.188
34.32000 361.044
34.33000 362.477
34.34000 363.684
34.35000 364.825
34.36000 365.770
34.37000 366.550
34.38000 366.812
34.39000 367.036
34.40000 367.304
34.41000 367.663
34.42000 368.025
34.43000 368.238
34.44000 363.359
34.45000 359.890
34.46000 360.352
34.47000 364.428
34.48000 368.458
34.49000 369.505
34.50000 368.748
34.51000 368.014
34.52000 364.413
34.53000 359.899
34.54000 355.685
34.55000 354.756
34.56000 354.729
34.57000 354.386
34.58000 351.986
34.59000 349.217
34.60000 346.938
34.61000 351.188
34.62000 355.275
34.63000 356.612
34.64000 350.253
34.65000 343.435
34.66000 339.135
34.67000 339.598
34.68000 340.175
34.69000 340.498
34.70000 346.407
34.71000 350.496
34.72000 349.095
34.73000 343.245
34.74000 337.467
34.75000 334.904
34.76000 334.071
34.77000 333.272
34.78000 333.391
34.79000 333.814
34.80000 333.998
34.81000 331.963
34.82000 329.385
34.83000 326.962
34.84000 325.415
34.85000 324.007
34.86000 322.878
34.87000 326.820
34.88000 330.400
34.89000 333.532
34.90000 335.548
34.91000 337.511
34.92000 338.037
34.93000 336.137
34.94000 334.198
34.95000 333.177
34.96000 340.733
34.97000 345.808
34.98000 342.707
34.99000 333.743
35.00000 325.062
35.01000 325.480
35.02000 330.268
35.03000 334.815
35.04000 337.790
35.05000 340.065
35.06000 341.350
35.07000 334.734
35.08000 326.412
35.09000 319.200
35.10000 317.533
35.11000 316.627
35.12000 315.919
35.13000 320.347
35.14000 324.202
35.15000 326.363
35.16000 324.741
35.17000 322.978
35.18000 319.774
35.19000 314.406
35.20000 309.016
35.21000 309.940
35.22000 317.017
35.23000 323.995
35.24000 322.712
35.25000 316.171
35.26000 309.798
35.27000 307.500
35.28000 306.951
35.29000 306.435
35.30000 302.835
35.31000 298.741
35.32000 295.961
35.33000 302.260
35.34000 310.290
35.35000 316.676
35.36000 315.807
35.37000 314.080
35.38000 312.771
35.39000 316.648
35.40000 319.959
35.41000 319.099
35.42000 309.929
35.43000 300.531
35.44000 296.937
35.45000 301.070
35.46000 305.239
35.47000 305.616
35.48000 302.752
35.49000 300.028
35.50000 304.735
35.51000 313.651
35.52000 321.986
35.53000 319.145
35.54000 312.023
35.55000 305.427
35.56000 308.080
35.57000 312.607
35.58000 315.920
35.59000 311.914
35.60000 306.684
35.61000 303.704
35.62000 309.531
35.63000 316.249
35.64000 321.184
35.65000 315.601
35.66000 310.856
35.67000 309.085
35.68000 312.598
35.69000 316.213
35.70000 316.886
35.71000 314.096
35.72000 311.309
35.73000 312.961
35.74000 317.938
35.75000 322.738
35.76000 321.012
35.77000 315.988
35.78000 311.388
35.79000 313.366
35.80000 317.591
35.81000 321.449
35.82000 313.040
35.83000 303.094
35.84000 294.917
35.85000 296.088
35.86000 298.625
35.87000 300.800
35.88000 301.719
35.89000 302.531
35.90000 303.107
35.91000 301.655
35.92000 300.486
35.93000 300.181
35.94000 301.241
35.95000 302.318
35.96000 303.485
35.97000 304.744
35.98000 305.997
35.99000 309.065
36.00000 313.295
36.01000 317.244
36.02000 313.456
36.03000 306.177
36.04000 299.578
36.05000 301.684
36.06000 306.443
36.07000 310.719
36.08000 306.966
36.09000 302.264
36.10000 298.069
36.11000 296.242
36.12000 294.714
36.13000 296.010
36.14000 306.057
36.15000 316.727
36.16000 324.023
36.17000 321.806
36.18000 319.921
36.19000 316.469
36.20000 310.813
36.21000 305.143
36.22000 300.900
36.23000 297.952
36.24000 295.032
36.25000 296.878
36.26000 301.468
36.27000 305.787
36.28000 304.325
36.29000 300.534
36.30000 297.212
36.31000 298.921
36.32000 301.994
36.33000 304.708
36.34000 302.657
36.35000 300.158
36.36000 297.987
36.37000 297.169
36.38000 296.497
36.39000 296.141
36.40000 296.659
36.41000 297.227
36.42000 297.600
36.43000 296.730
36.44000 296.068
36.45000 296.765
36.46000 299.151
36.47000 301.529
36.48000 299.871
36.49000 294.986
36.50000 290.174
36.51000 292.986
36.52000 299.644
36.53000 305.779
36.54000 302.996
36.55000 297.005
36.56000 291.540
36.57000 290.876
36.58000 291.368
36.59000 291.794
36.60000 293.161
36.61000 294.449
36.62000 295.946
36.63000 298.211
36.64000 300.547
36.65000 303.349
36.66000 307.302
36.67000 311.308
36.68000 313.826
36.69000 300.937
36.70000 291.445
36.71000 289.407
36.72000 295.538
36.73000 301.624
36.74000 300.897
36.75000 295.348
36.76000 289.917
36.77000 287.956
36.78000 287.653
36.79000 287.509
36.80000 289.566
36.81000 292.329
36.82000 294.745
36.83000 294.431
36.84000 293.535
36.85000 292.775
36.86000 296.570
36.87000 300.268
36.88000 302.133
36.89000 298.018
36.90000 293.441
36.91000 291.021
36.92000 293.356
36.93000 295.863
36.94000 297.365
36.95000 308.757
36.96000 316.912
36.97000 319.243
36.98000 315.979
36.99000 312.741
37.00000 311.501
37.01000 311.516
37.02000 311.531
37.03000 307.980
37.04000 303.173
37.05000 299.227
37.06000 305.273
37.07000 314.176
37.08000 320.989
37.09000 313.587
37.10000 303.513
37.11000 295.157
37.12000 291.091
37.13000 288.144
37.14000 286.025
37.15000 286.315
37.16000 286.758
37.17000 288.664
37.18000 293.448
37.19000 298.309
37.20000 301.074
37.21000 294.271
37.22000 289.512
37.23000 291.557
37.24000 299.351
37.25000 306.943
37.26000 304.272
37.27000 295.858
37.28000 287.756
37.29000 290.606
37.30000 297.170
37.31000 302.989
37.32000 301.505
37.33000 298.166
37.34000 294.025
37.35000 285.121
37.36000 275.431
37.37000 267.588
37.38000 278.757
37.39000 289.388
37.40000 297.393
37.41000 298.581
37.42000 299.419
37.43000 300.843
37.44000 303.295
37.45000 305.766
37.46000 307.094
37.47000 304.210
37.48000 302.216
37.49000 296.296
37.50000 287.446
37.51000 278.812
37.52000 277.924
37.53000 280.902
37.54000 283.741
37.55000 287.463
37.56000 291.190
37.57000 294.364
37.58000 292.905
37.59000 290.402
37.60000 287.797
37.61000 284.660
37.62000 281.445
37.63000 278.912
37.64000 275.199
37.65000 272.143
37.66000 273.680
37.67000 285.864
37.68000 298.478
37.69000 305.770
37.70000 304.746
37.71000 303.623
37.72000 303.057
37.73000 294.728
37.74000 289.155
37.75000 283.322
37.76000 277.317
37.77000 271.710
37.78000 276.734
37.79000 286.496
37.80000 295.695
37.81000 294.098
37.82000 289.660
37.83000 286.403
37.84000 291.699
37.85000 298.696
37.86000 304.045
37.87000 301.816
37.88000 298.643
37.89000 296.212
37.90000 297.894
37.91000 299.449
37.92000 298.643
37.93000 292.950
37.94000 287.108
37.95000 287.973
37.96000 298.140
37.97000 308.362
37.98000 314.258
37.99000 316.282
38.00000 318.279
38.01000 318.647
38.02000 318.054
38.03000 317.284
38.04000 312.821
38.05000 306.888
38.06000 301.368
38.07000 295.814
38.08000 290.788
38.09000 286.705
38.10000 288.569
38.11000 291.474
38.12000 293.612
38.13000 292.622
38.14000 291.299
38.15000 290.316
38.16000 295.328
38.17000 299.489
38.18000 302.977
38.19000 305.224
38.20000 307.443
38.21000 307.189
38.22000 303.903
38.23000 300.615
38.24000 297.599
38.25000 294.810
38.26000 292.176
38.27000 295.932
38.28000 303.042
38.29000 309.884
38.30000 312.254
38.31000 313.036
38.32000 313.752
38.33000 311.775
38.34000 309.440
38.35000 309.382
38.36000 321.892
38.37000 336.325
38.38000 348.444
38.39000 352.191
38.40000 355.180
38.41000 357.327
38.42000 349.881
38.43000 343.854
38.44000 346.705
38.45000 364.169
38.46000 381.848
38.47000 397.912
38.48000 412.232
38.49000 426.487
38.50000 442.365
38.51000 459.195
38.52000 476.147
38.53000 496.772
38.54000 519.118
38.55000 541.473
38.56000 563.956
38.57000 586.480
38.58000 606.827
38.59000 639.380
38.60000 670.261
38.61000 702.032
38.62000 738.130
38.63000 774.803
38.64000 805.547
38.65000 817.190
38.66000 827.384
38.67000 834.446
38.68000 880.414
38.69000 916.030
38.70000 945.836
38.71000 967.141
38.72000 988.369
38.73000 988.658
38.74000 969.108
38.75000 949.720
38.76000 947.294
38.77000 955.247
38.78000 962.233
38.79000 946.836
38.80000 922.070
38.81000 897.706
38.82000 877.904
38.83000 859.390
38.84000 842.946
38.85000 818.004
38.86000 795.011
38.87000 771.195
38.88000 743.847
38.89000 716.093
38.90000 686.584
38.91000 652.030
38.92000 617.161
38.93000 593.939
38.94000 560.450
38.95000 535.471
38.96000 508.643
38.97000 479.421
38.98000 450.208
38.99000 431.042
39.00000 420.250
39.01000 409.600
39.02000 400.743
39.03000 393.089
39.04000 384.802
39.05000 364.943
39.06000 340.759
39.07000 318.838
39.08000 318.732
39.09000 324.098
39.10000 328.777
39.11000 325.113
39.12000 320.821
39.13000 314.707
39.14000 301.643
39.15000 287.900
39.16000 280.391
39.17000 288.868
39.18000 298.150
39.19000 304.073
39.20000 296.629
39.21000 291.041
39.22000 288.431
39.23000 289.230
39.24000 290.026
39.25000 289.613
39.26000 288.311
39.27000 287.032
39.28000 284.456
39.29000 281.357
39.30000 278.326
39.31000 276.307
39.32000 274.624
39.33000 273.290
39.34000 274.831
39.35000 277.010
39.36000 278.872
39.37000 285.675
39.38000 291.997
39.39000 295.258
39.40000 288.135
39.41000 280.157
39.42000 275.648
39.43000 279.085
39.44000 282.835
39.45000 285.119
39.46000 279.745
39.47000 275.844
39.48000 273.201
39.49000 271.825
39.50000 270.513
39.51000 275.275
39.52000 284.009
39.53000 292.515
39.54000 291.126
39.55000 285.650
39.56000 280.667
39.57000 281.761
39.58000 284.660
39.59000 286.578
39.60000 281.488
39.61000 275.024
39.62000 269.620
39.63000 274.036
39.64000 278.701
39.65000 281.064
39.66000 276.466
39.67000 271.392
39.68000 268.343
39.69000 269.435
39.70000 270.649
39.71000 271.353
39.72000 275.296
39.73000 278.071
39.74000 276.019
39.75000 269.711
39.76000 263.502
39.77000 263.109
39.78000 266.098
39.79000 268.986
39.80000 268.036
39.81000 265.720
39.82000 263.968
39.83000 268.068
39.84000 273.717
39.85000 277.535
39.86000 269.973
39.87000 260.448
39.88000 252.673
39.89000 256.227
39.90000 260.107
39.91000 264.519
39.92000 270.365
39.93000 276.291
39.94000 278.475
39.95000 273.835
39.96000 269.050
39.97000 266.427
39.98000 265.493
39.99000 264.862
40.00000 266.543
40.01000 270.023
40.02000 273.386
40.03000 272.065
40.04000 268.315
40.05000 264.728
40.06000 257.883
40.07000 250.445
40.08000 244.205
40.09000 248.553
40.10000 255.386
40.11000 260.722
40.12000 257.900
40.13000 253.849
40.14000 250.626
40.15000 257.747
40.16000 264.228
40.17000 267.051
40.18000 261.063
40.19000 254.687
40.20000 250.821
40.21000 251.034
40.22000 251.305
40.23000 251.445
40.24000 253.506
40.25000 254.911
40.26000 258.256
40.27000 262.939
40.28000 267.380
40.29000 264.729
40.30000 258.794
40.31000 253.179
40.32000 255.158
40.33000 259.162
40.34000 262.514
40.35000 260.904
40.36000 258.265
40.37000 256.064
40.38000 255.970
40.39000 256.152
40.40000 256.292
40.41000 250.155
40.42000 244.914
40.43000 242.263
40.44000 245.187
40.45000 248.299
40.46000 252.459
40.47000 258.132
40.48000 263.817
40.49000 261.057
40.50000 250.411
40.51000 239.919
40.52000 240.278
40.53000 247.288
40.54000 254.135
40.55000 257.335
40.56000 259.025
40.57000 260.606
40.58000 258.085
40.59000 254.759
40.60000 252.093
40.61000 253.777
40.62000 256.257
40.63000 257.797
40.64000 255.351
40.65000 252.455
40.66000 250.282
40.67000 251.731
40.68000 253.036
40.69000 254.452
40.70000 256.080
40.71000 257.713
40.72000 255.742
40.73000 249.161
40.74000 242.572
40.75000 240.277
40.76000 241.511
40.77000 242.730
40.78000 243.266
40.79000 243.428
40.80000 243.565
40.81000 243.236
40.82000 242.736
40.83000 242.274
40.84000 241.661
40.85000 241.078
40.86000 241.245
40.87000 245.743
40.88000 250.934
40.89000 253.858
40.90000 248.244
40.91000 241.811
40.92000 237.137
40.93000 244.541
40.94000 250.692
40.95000 253.395
40.96000 250.195
40.97000 246.895
40.98000 246.377
40.99000 248.998
41.00000 251.613
41.01000 253.310
41.02000 254.330
41.03000 255.339
41.04000 255.989
41.05000 256.464
41.06000 256.715
41.07000 253.719
41.08000 249.653
41.09000 245.960
41.10000 247.669
41.11000 250.226
41.12000 252.148
41.13000 250.846
41.14000 249.095
41.15000 248.730
41.16000 253.008
41.17000 257.662
41.18000 260.926
41.19000 253.921
41.20000 248.323
41.21000 244.926
41.22000 244.879
41.23000 244.868
41.24000 242.332
41.25000 237.293
41.26000 232.290
41.27000 232.090
41.28000 234.949
41.29000 237.993
41.30000 245.711
41.31000 255.462
41.32000 264.104
41.33000 259.356
41.34000 250.676
41.35000 242.920
41.36000 244.450
41.37000 247.349
41.38000 249.534
41.39000 248.522
41.40000 247.125
41.41000 245.471
41.42000 243.053
41.43000 240.584
41.44000 238.917
41.45000 242.649
41.46000 245.543
41.47000 247.316
41.48000 247.576
41.49000 247.826
41.50000 247.457
41.51000 246.549
41.52000 245.651
41.53000 246.647
41.54000 248.683
41.55000 250.540
41.56000 248.862
41.57000 245.810
41.58000 242.905
41.59000 241.500
41.60000 240.487
41.61000 239.598
41.62000 243.737
41.63000 248.028
41.64000 251.065
41.65000 249.126
41.66000 246.674
41.67000 243.380
41.68000 237.845
41.69000 232.189
41.70000 228.525
41.71000 231.511
41.72000 233.795
41.73000 235.944
41.74000 237.931
41.75000 239.899
41.76000 237.376
41.77000 231.404
41.78000 225.533
41.79000 229.550
41.80000 238.334
41.81000 246.532
41.82000 245.415
41.83000 241.070
41.84000 237.011
41.85000 235.447
41.86000 234.461
41.87000 233.613
41.88000 234.260
41.89000 234.997
41.90000 235.063
41.91000 232.766
41.92000 230.262
41.93000 229.310
41.94000 232.048
41.95000 234.944
41.96000 236.737
41.97000 242.520
41.98000 246.716
41.99000 246.550
42.00000 241.803
42.01000 237.085
42.02000 235.793
42.03000 236.833
42.04000 237.848
42.05000 239.063
42.06000 240.313
42.07000 241.584
42.08000 243.136
42.09000 244.774
42.10000 246.051
42.11000 244.627
42.12000 242.650
42.13000 240.985
42.14000 242.709
42.15000 244.512
42.16000 244.703
42.17000 239.828
42.18000 234.584
42.19000 233.336
42.20000 240.581
42.21000 248.103
42.22000 252.539
42.23000 258.097
42.24000 262.023
42.25000 258.632
42.26000 248.499
42.27000 238.496
42.28000 237.221
42.29000 241.227
42.30000 245.107
42.31000 245.615
42.32000 244.792
42.33000 243.697
42.34000 239.620
42.35000 234.723
42.36000 230.929
42.37000 234.317
42.38000 239.000
42.39000 242.855
42.40000 241.152
42.41000 239.246
42.42000 239.650
42.43000 246.529
42.44000 253.795
42.45000 256.022
42.46000 248.692
42.47000 241.134
42.48000 236.910
42.49000 231.878
42.50000 228.404
42.51000 229.884
42.52000 235.385
42.53000 240.788
42.54000 241.805
42.55000 240.456
42.56000 239.162
42.57000 237.637
42.58000 236.131
42.59000 234.730
42.60000 234.294
42.61000 234.094
42.62000 234.389
42.63000 237.497
42.64000 241.050
42.65000 243.902
42.66000 243.949
42.67000 243.774
42.68000 243.347
42.69000 242.288
42.70000 241.198
42.71000 241.194
42.72000 243.024
42.73000 244.883
42.74000 245.863
42.75000 238.420
42.76000 233.398
42.77000 233.285
42.78000 236.699
42.79000 240.007
42.80000 239.917
42.81000 238.193
42.82000 236.556
42.83000 239.712
42.84000 244.067
42.85000 247.334
42.86000 241.905
42.87000 234.594
42.88000 228.791
42.89000 230.535
42.90000 233.317
42.91000 235.490
42.92000 231.014
42.93000 227.024
42.94000 225.756
42.95000 230.571
42.96000 235.612
42.97000 238.756
42.98000 239.048
42.99000 239.311
43.00000 236.852
43.01000 231.735
43.02000 226.701
43.03000 228.638
43.04000 235.019
43.05000 241.202
43.06000 242.528
43.07000 241.767
43.08000 241.053
43.09000 242.087
43.10000 243.491
43.11000 244.362
43.12000 241.545
43.13000 238.025
43.14000 235.029
43.15000 234.356
43.16000 233.958
43.17000 233.656
43.18000 233.748
43.19000 233.840
43.20000 233.625
43.21000 232.798
43.22000 231.954
43.23000 228.748
43.24000 222.391
43.25000 216.023
43.26000 215.859
43.27000 221.008
43.28000 226.069
43.29000 226.485
43.30000 224.263
43.31000 222.352
43.32000 226.443
43.33000 232.837
43.34000 238.760
43.35000 234.978
43.36000 229.323
43.37000 224.496
43.38000 224.665
43.39000 225.671
43.40000 227.321
43.41000 231.500
43.42000 235.935
43.43000 239.194
43.44000 235.475
43.45000 232.313
43.46000 229.421
43.47000 227.009
43.48000 224.607
43.49000 222.791
43.50000 221.665
43.51000 220.544
43.52000 221.276
43.53000 223.400
43.54000 225.396
43.55000 222.667
43.56000 217.547
43.57000 212.736
43.58000 212.727
43.59000 214.364
43.60000 215.858
43.61000 223.728
43.62000 232.006
43.63000 238.282
43.64000 233.955
43.65000 228.076
43.66000 223.713
43.67000 224.634
43.68000 226.008
43.69000 226.983
43.70000 230.391
43.71000 233.061
43.72000 233.566
43.73000 230.638
43.74000 227.668
43.75000 224.683
43.76000 221.684
43.77000 218.702
43.78000 217.312
43.79000 216.998
43.80000 216.715
43.81000 217.326
43.82000 218.339
43.83000 219.290
43.84000 219.440
43.85000 219.345
43.86000 219.260
43.87000 222.268
43.88000 225.449
43.89000 227.421
43.90000 223.753
43.91000 219.369
43.92000 217.114
43.93000 221.467
43.94000 226.292
43.95000 229.593
43.96000 226.778
43.97000 224.525
43.98000 223.016
43.99000 222.553
44.00000 222.098
44.01000 223.063
44.02000 225.318
44.03000 227.551
44.04000 224.895
44.05000 219.433
44.06000 214.055
44.07000 210.481
44.08000 207.634
44.09000 205.270
44.10000 208.110
44.11000 212.364
44.12000 216.121
44.13000 214.667
44.14000 212.612
44.15000 210.849
44.16000 210.288
44.17000 209.858
44.18000 211.734
44.19000 219.995
44.20000 228.629
44.21000 234.302
44.22000 228.257
44.23000 223.609
44.24000 219.988
44.25000 217.645
44.26000 215.310
44.27000 214.404
44.28000 214.642
44.29000 214.877
44.30000 220.503
44.31000 228.749
44.32000 236.450
44.33000 234.859
44.34000 229.921
44.35000 225.707
44.36000 228.131
44.37000 232.157
44.38000 235.645
44.39000 237.406
44.40000 238.676
44.41000 239.346
44.42000 237.810
44.43000 236.071
44.44000 235.773
44.45000 239.040
44.46000 242.473
44.47000 244.632
44.48000 236.728
44.49000 230.897
44.50000 229.727
44.51000 233.674
44.52000 237.618
44.53000 240.607
44.54000 242.921
44.55000 245.186
44.56000 244.539
44.57000 242.589
44.58000 240.635
44.59000 238.622
44.60000 236.591
44.61000 234.559
44.62000 232.529
44.63000 230.499
44.64000 228.777
44.65000 235.126
44.66000 241.366
44.67000 245.897
44.68000 244.848
44.69000 243.365
44.70000 244.433
44.71000 251.135
44.72000 258.039
44.73000 262.180
44.74000 264.484
44.75000 266.108
44.76000 268.063
44.77000 270.335
44.78000 272.558
44.79000 270.891
44.80000 266.776
44.81000 262.778
44.82000 263.362
44.83000 265.764
44.84000 268.018
44.85000 268.556
44.86000 268.602
44.87000 268.565
44.88000 267.956
44.89000 267.238
44.90000 266.643
44.91000 276.534
44.92000 285.719
44.93000 292.825
44.94000 293.872
44.95000 294.532
44.96000 297.961
44.97000 306.850
44.98000 315.886
44.99000 321.030
45.00000 324.429
45.01000 326.789
45.02000 326.783
45.03000 324.775
45.04000 322.887
45.05000 327.099
45.06000 334.731
45.07000 342.080
45.08000 347.165
45.09000 351.132
45.10000 353.710
45.11000 342.618
45.12000 328.047
45.13000 316.422
45.14000 322.332
45.15000 331.140
45.16000 338.271
45.17000 338.569
45.18000 338.258
45.19000 337.791
45.20000 336.921
45.21000 336.030
45.22000 334.800
45.23000 332.973
45.24000 331.135
45.25000 330.146
45.26000 314.216
45.27000 303.359
45.28000 300.911
45.29000 304.756
45.30000 308.437
45.31000 306.274
45.32000 301.189
45.33000 296.341
45.34000 289.249
45.35000 281.968
45.36000 275.103
45.37000 271.730
45.38000 269.145
45.39000 265.912
45.40000 259.299
45.41000 252.198
45.42000 246.598
45.43000 241.169
45.44000 236.827
45.45000 234.232
45.46000 235.694
45.47000 237.322
45.48000 239.542
45.49000 242.692
45.50000 245.852
45.51000 247.449
45.52000 238.499
45.53000 232.526
45.54000 228.021
45.55000 224.491
45.56000 221.128
45.57000 222.248
45.58000 225.370
45.59000 228.312
45.60000 233.401
45.61000 238.653
45.62000 243.007
45.63000 240.835
45.64000 237.364
45.65000 233.289
45.66000 226.436
45.67000 219.236
45.68000 213.718
45.69000 214.448
45.70000 215.368
45.71000 216.541
45.72000 218.236
45.73000 219.947
45.74000 220.239
45.75000 218.557
45.76000 216.864
45.77000 215.514
45.78000 214.472
45.79000 213.448
45.80000 213.538
45.81000 214.285
45.82000 215.014
45.83000 215.352
45.84000 215.533
45.85000 215.703
45.86000 213.887
45.87000 211.764
45.88000 210.350
45.89000 213.407
45.90000 217.249
45.91000 220.126
45.92000 219.069
45.93000 217.591
45.94000 216.492
45.95000 218.074
45.96000 219.422
45.97000 220.223
45.98000 220.010
45.99000 219.775
46.00000 219.160
46.01000 218.079
46.02000 216.998
46.03000 214.879
46.04000 211.955
46.05000 209.115
46.06000 209.793
46.07000 212.323
46.08000 214.594
46.09000 212.555
46.10000 208.981
46.11000 205.701
46.12000 210.819
46.13000 217.166
46.14000 221.507
46.15000 214.753
46.16000 206.297
46.17000 199.547
46.18000 198.978
46.19000 198.971
46.20000 198.965
46.21000 204.029
46.22000 208.080
46.23000 209.309
46.24000 205.886
46.25000 202.395
46.26000 199.072
46.27000 195.930
46.28000 192.803
46.29000 194.662
46.30000 199.954
46.31000 205.053
46.32000 204.295
46.33000 200.788
46.34000 197.874
46.35000 203.075
46.36000 210.852
46.37000 217.880
46.38000 213.441
46.39000 207.412
46.40000 202.461
46.41000 202.762
46.42000 203.763
46.43000 205.245
46.44000 208.281
46.45000 211.435
46.46000 213.621
46.47000 208.663
46.48000 204.742
46.49000 201.825
46.50000 200.381
46.51000 198.949
46.52000 199.369
46.53000 201.548
46.54000 203.709
46.55000 206.562
46.56000 209.787
46.57000 212.783
46.58000 210.460
46.59000 205.906
46.60000 201.538
46.61000 199.304
46.62000 197.673
46.63000 196.224
46.64000 194.366
46.65000 192.688
46.66000 192.130
46.67000 196.394
46.68000 201.211
46.69000 204.902
46.70000 205.351
46.71000 205.597
46.72000 205.761
46.73000 199.384
46.74000 194.537
46.75000 195.264
46.76000 203.230
46.77000 211.214
46.78000 213.658
46.79000 211.476
46.80000 209.322
46.81000 208.989
46.82000 209.648
46.83000 210.208
46.84000 208.960
46.85000 207.035
46.86000 204.710
46.87000 198.528
46.88000 191.376
46.89000 185.139
46.90000 191.972
46.91000 199.634
46.92000 204.798
46.93000 200.412
46.94000 195.092
46.95000 191.313
46.96000 191.492
46.97000 191.870
46.98000 192.111
46.99000 201.324
47.00000 208.144
47.01000 209.258
47.02000 203.830
47.03000 198.408
47.04000 195.491
47.05000 194.423
47.06000 193.376
47.07000 194.295
47.08000 196.118
47.09000 197.696
47.10000 195.628
47.11000 192.343
47.12000 189.827
47.13000 193.667
47.14000 198.924
47.15000 203.416
47.16000 199.577
47.17000 195.344
47.18000 191.696
47.19000 190.034
47.20000 188.537
47.21000 188.644
47.22000 192.433
47.23000 196.368
47.24000 198.767
47.25000 195.995
47.26000 193.972
47.27000 194.951
47.28000 198.954
47.29000 202.885
47.30000 200.052
47.31000 192.787
47.32000 185.711
47.33000 187.206
47.34000 192.233
47.35000 196.874
47.36000 196.739
47.37000 195.181
47.38000 193.592
47.39000 191.782
47.40000 189.929
47.41000 188.379
47.42000 187.559
47.43000 186.951
47.44000 186.524
47.45000 186.643
47.46000 186.799
47.47000 186.244
47.48000 184.233
47.49000 182.179
47.50000 180.988
47.51000 189.249
47.52000 195.078
47.53000 193.560
47.54000 185.548
47.55000 177.680
47.56000 178.217
47.57000 183.653
47.58000 188.905
47.59000 190.269
47.60000 190.113
47.61000 190.310
47.62000 194.177
47.63000 199.018
47.64000 203.075
47.65000 202.255
47.66000 200.592
47.67000 199.234
47.68000 193.800
47.69000 189.001
47.70000 185.386
47.71000 184.971
47.72000 184.733
47.73000 184.950
47.74000 185.995
47.75000 187.059
47.76000 187.642
47.77000 189.165
47.78000 190.217
47.79000 192.320
47.80000 195.241
47.81000 198.059
47.82000 196.743
47.83000 193.279
47.84000 189.966
47.85000 190.057
47.86000 191.258
47.87000 192.433
47.88000 193.388
47.89000 194.292
47.90000 194.561
47.91000 191.370
47.92000 187.655
47.93000 184.699
47.94000 183.272
47.95000 182.232
47.96000 181.537
47.97000 181.674
47.98000 181.848
47.99000 185.687
48.00000 195.494
48.01000 205.384
48.02000 210.492
48.03000 198.299
48.04000 190.119
48.05000 186.902
48.06000 187.114
48.07000 187.416
48.08000 190.369
48.09000 194.551
48.10000 198.508
48.11000 196.313
48.12000 192.521
48.13000 188.794
48.14000 185.565
48.15000 182.441
48.16000 179.667
48.17000 178.581
48.18000 177.716
48.19000 177.046
48.20000 172.661
48.21000 168.960
48.22000 168.559
48.23000 175.271
48.24000 182.224
48.25000 185.596
48.26000 183.787
48.27000 181.935
48.28000 182.410
48.29000 185.062
48.30000 187.719
48.31000 190.728
48.32000 193.954
48.33000 196.981
48.34000 195.524
48.35000 192.209
48.36000 189.111
48.37000 190.917
48.38000 193.799
48.39000 195.522
48.40000 189.573
48.41000 182.219
48.42000 177.374
48.43000 183.194
48.44000 190.219
48.45000 195.495
48.46000 190.115
48.47000 185.400
48.48000 182.773
48.49000 184.162
48.50000 185.652
48.51000 186.551
48.52000 186.695
48.53000 186.835
48.54000 186.446
48.55000 185.624
48.56000 184.847
48.57000 186.202
48.58000 188.722
48.59000 190.954
48.60000 188.002
48.61000 183.134
48.62000 178.644
48.63000 182.577
48.64000 187.971
48.65000 192.368
48.66000 190.999
48.67000 188.705
48.68000 186.894
48.69000 186.905
48.70000 187.092
48.71000 187.228
48.72000 182.763
48.73000 179.154
48.74000 177.676
48.75000 179.853
48.76000 182.092
48.77000 183.205
48.78000 183.043
48.79000 182.881
48.80000 180.870
48.81000 177.542
48.82000 174.362
48.83000 176.167
48.84000 180.405
48.85000 184.563
48.86000 187.570
48.87000 190.196
48.88000 192.583
48.89000 186.837
48.90000 180.181
48.91000 175.370
48.92000 179.934
48.93000 185.808
48.94000 189.186
48.95000 184.184
48.96000 178.503
48.97000 174.517
48.98000 179.477
48.99000 183.492
49.00000 184.547
49.01000 181.088
49.02000 177.580
49.03000 175.122
49.04000 173.706
49.05000 172.300
49.06000 172.625
49.07000 174.048
49.08000 175.481
49.09000 177.162
49.10000 178.951
49.11000 180.537
49.12000 179.652
49.13000 178.040
49.14000 176.600
49.15000 178.568
49.16000 180.859
49.17000 182.275
49.18000 179.766
49.19000 176.782
49.20000 175.185
49.21000 177.737
49.22000 180.567
49.23000 182.478
49.24000 185.123
49.25000 187.108
49.26000 186.578
49.27000 182.645
49.28000 178.697
49.29000 178.094
49.30000 180.406
49.31000 182.692
49.32000 183.519
49.33000 183.507
49.34000 183.514
49.35000 183.896
49.36000 184.425
49.37000 184.851
49.38000 184.238
49.39000 183.353
49.40000 182.576
49.41000 180.267
49.42000 178.058
49.43000 176.479
49.44000 177.401
49.45000 178.582
49.46000 179.297
49.47000 178.771
49.48000 178.178
49.49000 177.794
49.50000 181.469
49.51000 184.220
49.52000 183.441
49.53000 178.439
49.54000 173.450
49.55000 173.698
49.56000 177.975
49.57000 182.180
49.58000 185.202
49.59000 187.538
49.60000 189.696
49.61000 189.035
49.62000 187.395
49.63000 185.903
49.64000 185.707
49.65000 185.812
49.66000 185.903
49.67000 178.403
49.68000 171.094
49.69000 167.100
49.70000 174.819
49.71000 183.564
49.72000 187.343
49.73000 179.283
49.74000 170.714
49.75000 165.404
49.76000 167.801
49.77000 169.600
49.78000 172.239
49.79000 175.764
49.80000 179.232
49.81000 176.087
49.82000 168.432
49.83000 160.957
49.84000 162.137
49.85000 167.062
49.86000 171.878
49.87000 175.263
49.88000 178.205
49.89000 180.394
49.90000 176.930
49.91000 172.305
49.92000 168.409
49.93000 171.833
49.94000 175.480
49.95000 178.901
49.96000 181.611
49.97000 184.269
49.98000 185.524
49.99000 183.792
50.00000 181.961
50.01000 180.881
50.02000 174.713
50.03000 170.331
50.04000 167.329
50.05000 165.603
50.06000 163.925
50.07000 165.576
50.08000 169.246
50.09000 172.800
50.10000 177.421
50.11000 182.207
50.12000 186.277
50.13000 182.478
50.14000 176.509
50.15000 170.928
50.16000 167.876
50.17000 165.280
50.18000 163.143
50.19000 166.199
50.20000 169.187
50.21000 172.639
50.22000 177.392
50.23000 182.222
50.24000 184.443
50.25000 181.704
50.26000 178.846
50.27000 177.247
50.28000 177.411
50.29000 177.525
50.30000 175.767
50.31000 172.490
50.32000 169.293
50.33000 169.747
50.34000 172.173
50.35000 174.501
50.36000 181.313
50.37000 189.213
50.38000 196.469
50.39000 197.702
50.40000 197.461
50.41000 196.947
50.42000 194.882
50.43000 192.571
50.44000 190.716
50.45000 185.941
50.46000 181.849
50.47000 181.070
50.48000 188.599
50.49000 196.526
50.50000 200.406
50.51000 197.434
50.52000 194.350
50.53000 192.723
50.54000 203.881
50.55000 211.446
50.56000 216.796
50.57000 220.553
50.58000 224.062
50.59000 219.531
50.60000 211.125
50.61000 203.140
50.62000 207.745
50.63000 215.788
50.64000 223.044
50.65000 223.997
50.66000 223.582
50.67000 222.927
50.68000 221.072
50.69000 219.050
50.70000 217.471
50.71000 212.025
50.72000 207.435
50.73000 205.913
50.74000 211.259
50.75000 216.862
50.76000 218.852
50.77000 215.403
50.78000 211.898
50.79000 211.164
50.80000 213.139
50.81000 215.081
50.82000 214.246
50.83000 211.636
50.84000 209.108
50.85000 208.596
50.86000 208.951
50.87000 209.284
50.88000 205.320
50.89000 200.567
50.90000 196.851
50.91000 200.325
50.92000 205.175
50.93000 208.689
50.94000 206.285
50.95000 203.179
50.96000 200.821
50.97000 198.422
50.98000 196.534
50.99000 193.245
51.00000 187.155
51.01000 180.987
51.02000 178.232
51.03000 180.035
51.04000 181.861
51.05000 182.451
51.06000 181.981
51.07000 181.526
51.08000 181.831
51.09000 182.569
51.10000 183.114
51.11000 179.921
51.12000 175.291
51.13000 171.002
51.14000 173.889
51.15000 178.154
51.16000 181.539
51.17000 179.598
51.18000 176.763
51.19000 174.800
51.20000 176.268
51.21000 178.084
51.22000 179.419
51.23000 176.179
51.24000 173.485
51.25000 168.726
51.26000 160.287
51.27000 151.775
51.28000 148.415
51.29000 151.136
51.30000 153.860
51.31000 157.653
51.32000 162.229
51.33000 166.676
51.34000 166.326
51.35000 163.543
51.36000 160.969
51.37000 161.661
51.38000 163.474
51.39000 165.129
51.40000 166.430
51.41000 167.514
51.42000 167.879
51.43000 164.439
51.44000 160.441
51.45000 157.979
51.46000 160.876
51.47000 164.234
51.48000 166.620
51.49000 167.267
51.50000 167.705
51.51000 170.666
51.52000 177.635
51.53000 184.654
51.54000 184.410
51.55000 176.626
51.56000 168.885
51.57000 165.537
51.58000 165.152
51.59000 164.798
51.60000 165.320
51.61000 166.239
51.62000 166.777
51.63000 162.422
51.64000 156.571
51.65000 151.311
51.66000 153.701
51.67000 157.150
51.68000 160.331
51.69000 162.266
51.70000 164.042
51.71000 165.098
51.72000 163.918
51.73000 162.578
51.74000 161.661
51.75000 157.947
51.76000 155.100
51.77000 156.722
51.78000 164.646
51.79000 172.612
51.80000 175.494
51.81000 173.750
51.82000 172.022
51.83000 169.774
51.84000 167.268
51.85000 164.881
51.86000 165.056
51.87000 166.266
51.88000 167.476
51.89000 168.685
51.90000 169.895
51.91000 170.964
51.92000 178.342
51.93000 185.683
51.94000 189.582
51.95000 179.227
51.96000 167.318
51.97000 159.397
51.98000 162.544
51.99000 166.338
52.00000 168.833
52.01000 169.791
52.02000 170.471
52.03000 169.666
52.04000 167.008
52.05000 164.352
52.06000 163.831
52.07000 165.023
52.08000 166.198
52.09000 163.295
52.10000 158.368
52.11000 153.826
52.12000 155.877
52.13000 160.307
52.14000 164.022
52.15000 161.177
52.16000 156.745
52.17000 152.904
52.18000 157.825
52.19000 163.176
52.20000 167.695
52.21000 169.160
52.22000 170.340
52.23000 170.843
52.24000 169.665
52.25000 168.409
52.26000 167.619
52.27000 163.994
52.28000 161.340
52.29000 162.090
52.30000 166.583
52.31000 171.040
52.32000 170.026
52.33000 165.126
52.34000 160.330
52.35000 163.156
52.36000 169.354
52.37000 175.178
52.38000 175.764
52.39000 174.664
52.40000 172.924
52.41000 166.145
52.42000 158.288
52.43000 151.618
52.44000 149.280
52.45000 147.812
52.46000 147.261
52.47000 149.711
52.48000 152.394
52.49000 154.818
52.50000 156.668
52.51000 158.497
52.52000 159.595
52.53000 163.092
52.54000 165.593
52.55000 165.862
52.56000 163.979
52.57000 162.115
52.58000 161.764
52.59000 162.367
52.60000 162.954
52.61000 160.702
52.62000 157.417
52.63000 154.484
52.64000 155.647
52.65000 157.985
52.66000 160.229
52.67000 161.826
52.68000 163.301
52.69000 164.525
52.70000 160.465
52.71000 156.599
52.72000 153.573
52.73000 153.002
52.74000 152.588
52.75000 152.703
52.76000 153.860
52.77000 155.045
52.78000 155.720
52.79000 155.607
52.80000 155.526
52.81000 155.895
52.82000 156.646
52.83000 157.425
52.84000 159.615
52.85000 162.598
52.86000 165.471
52.87000 165.821
52.88000 165.251
52.89000 164.422
52.90000 161.046
52.91000 157.021
52.92000 154.086
52.93000 157.653
52.94000 162.296
52.95000 166.057
52.96000 165.279
52.97000 164.277
52.98000 164.367
52.99000 167.300
53.00000 170.381
53.01000 169.818
53.02000 162.840
53.03000 155.742
53.04000 151.920
53.05000 156.465
53.06000 159.572
53.07000 160.990
53.08000 161.144
53.09000 161.320
53.10000 162.330
53.11000 163.757
53.12000 165.118
53.13000 161.618
53.14000 156.844
53.15000 152.619
53.16000 153.014
53.17000 154.453
53.18000 155.381
53.19000 153.635
53.20000 151.502
53.21000 149.819
53.22000 148.246
53.23000 146.992
53.24000 147.995
53.25000 154.248
53.26000 160.716
53.27000 164.656
53.28000 164.636
53.29000 164.568
53.30000 164.534
53.31000 160.940
53.32000 158.571
53.33000 159.786
53.34000 163.385
53.35000 166.788
53.36000 164.917
53.37000 160.690
53.38000 156.704
53.39000 157.614
53.40000 159.802
53.41000 162.012
53.42000 164.382
53.43000 166.785
53.44000 168.559
53.45000 167.431
53.46000 165.940
53.47000 164.797
53.48000 168.564
53.49000 171.812
53.50000 172.445
53.51000 167.644
53.52000 162.676
53.53000 159.720
53.54000 159.567
53.55000 159.432
53.56000 159.187
53.57000 158.843
53.58000 158.501
53.59000 158.300
53.60000 158.183
53.61000 158.081
53.62000 158.299
53.63000 158.646
53.64000 158.968
53.65000 159.597
53.66000 160.240
53.67000 160.628
53.68000 159.405
53.69000 157.899
53.70000 157.233
53.71000 160.000
53.72000 163.135
53.73000 165.466
53.74000 160.397
53.75000 156.126
53.76000 154.638
53.77000 158.306
53.78000 162.089
53.79000 164.458
53.80000 165.086
53.81000 165.709
53.82000 164.475
53.83000 161.785
53.84000 159.129
53.85000 157.881
53.86000 157.374
53.87000 156.963
53.88000 158.163
53.89000 159.937
53.90000 161.565
53.91000 161.906
53.92000 161.936
53.93000 161.537
53.94000 158.762
53.95000 155.622
53.96000 152.898
53.97000 151.688
53.98000 150.616
53.99000 149.846
54.00000 157.287
54.01000 163.268
54.02000 165.026
54.03000 159.808
54.04000 154.486
54.05000 152.153
54.06000 153.062
54.07000 153.969
54.08000 155.759
54.09000 158.143
54.10000 160.416
54.11000 159.305
54.12000 156.603
54.13000 154.159
54.14000 155.254
54.15000 157.474
54.16000 159.481
54.17000 157.872
54.18000 155.785
54.19000 154.610
54.20000 157.883
54.21000 161.750
54.22000 163.338
54.23000 157.561
54.24000 151.222
54.25000 146.826
54.26000 152.690
54.27000 157.376
54.28000 160.746
54.29000 162.180
54.30000 163.598
54.31000 163.263
54.32000 161.261
54.33000 159.276
54.34000 161.207
54.35000 165.499
54.36000 169.483
54.37000 166.304
54.38000 160.115
54.39000 154.335
54.40000 153.221
54.41000 153.429
54.42000 153.614
54.43000 154.128
54.44000 154.626
54.45000 154.453
54.46000 151.386
54.47000 147.985
54.48000 146.050
54.49000 148.340
54.50000 150.896
54.51000 152.600
54.52000 152.478
54.53000 152.352
54.54000 152.937
54.55000 154.446
54.56000 155.957
54.57000 156.675
54.58000 156.730
54.59000 156.784
54.60000 155.828
54.61000 154.352
54.62000 153.053
54.63000 155.008
54.64000 158.183
54.65000 161.223
54.66000 162.948
54.67000 164.343
54.68000 165.560
54.69000 157.512
54.70000 149.336
54.71000 142.948
54.72000 143.403
54.73000 144.529
54.74000 146.618
54.75000 151.186
54.76000 155.880
54.77000 158.879
54.78000 160.199
54.79000 161.137
54.80000 160.663
54.81000 158.568
54.82000 156.477
54.83000 155.535
54.84000 155.441
54.85000 155.349
54.86000 158.648
54.87000 163.444
54.88000 167.749
54.89000 164.715
54.90000 159.225
54.91000 154.255
54.92000 153.604
54.93000 153.916
54.94000 154.183
54.95000 155.655
54.96000 157.040
54.97000 158.565
54.98000 160.566
54.99000 162.607
55.00000 162.795
55.01000 158.723
55.02000 154.482
55.03000 151.894
55.04000 156.896
55.05000 160.534
55.06000 161.578
55.07000 160.005
55.08000 158.436
55.09000 157.263
55.10000 156.350
55.11000 155.461
55.12000 157.069
55.13000 159.655
55.14000 162.250
55.15000 164.962
55.16000 167.709
55.17000 169.703
55.18000 166.298
55.19000 161.830
55.20000 158.092
55.21000 158.013
55.22000 158.321
55.23000 158.374
55.24000 157.651
55.25000 156.874
55.26000 156.386
55.27000 156.489
55.28000 156.611
55.29000 156.681
55.30000 165.297
55.31000 171.376
55.32000 173.261
55.33000 171.432
55.34000 169.579
55.35000 166.319
55.36000 162.237
55.37000 158.294
55.38000 162.764
55.39000 170.107
55.40000 177.105
55.41000 180.513
55.42000 182.967
55.43000 184.936
55.44000 183.873
55.45000 182.286
55.46000 180.989
55.47000 182.448
55.48000 183.881
55.49000 185.494
55.50000 187.595
55.51000 189.723
55.52000 192.058
55.53000 194.772
55.54000 197.495
55.55000 198.990
55.56000 202.997
55.57000 205.768
55.58000 211.058
55.59000 218.316
55.60000 225.563
55.61000 232.337
55.62000 238.865
55.63000 245.112
55.64000 249.425
55.65000 252.807
55.66000 256.775
55.67000 265.933
55.68000 276.315
55.69000 286.930
55.70000 298.827
55.71000 310.918
55.72000 320.544
55.73000 324.323
55.74000 326.949
55.75000 335.718
55.76000 359.337
55.77000 383.616
55.78000 407.999
55.79000 432.555
55.80000 457.112
55.81000 469.807
55.82000 460.681
55.83000 454.657
55.84000 464.981
55.85000 486.617
55.86000 507.781
55.87000 514.962
55.88000 515.649
55.89000 516.299
55.90000 525.484
55.91000 536.398
55.92000 546.807
55.93000 553.367
55.94000 559.125
55.95000 564.825
55.96000 570.243
55.97000 575.624
55.98000 579.791
55.99000 573.370
56.00000 567.643
56.01000 559.992
56.02000 548.187
56.03000 536.241
56.04000 524.617
56.05000 513.460
56.06000 502.309
56.07000 491.403
56.08000 480.730
56.09000 470.047
56.10000 458.540
56.11000 446.526
56.12000 434.753
56.13000 428.429
56.14000 424.366
56.15000 420.566
56.16000 402.979
56.17000 383.510
56.18000 364.274
56.19000 346.588
56.20000 329.186
56.21000 313.092
56.22000 302.567
56.23000 292.672
56.24000 285.237
56.25000 290.282
56.26000 294.825
56.27000 293.828
56.28000 282.157
56.29000 270.219
56.30000 259.378
56.31000 249.948
56.32000 240.534
56.33000 234.030
56.34000 229.939
56.35000 225.808
56.36000 219.748
56.37000 212.632
56.38000 205.516
56.39000 198.425
56.40000 191.342
56.41000 184.809
56.42000 183.844
56.43000 184.220
56.44000 184.302
56.45000 182.682
56.46000 180.789
56.47000 178.846
56.48000 176.715
56.49000 174.566
56.50000 173.003
56.51000 167.294
56.52000 162.744
56.53000 160.655
56.54000 162.792
56.55000 165.002
56.56000 165.968
56.57000 165.523
56.58000 165.078
56.59000 165.928
56.60000 167.708
56.61000 169.446
56.62000 169.785
56.63000 169.439
56.64000 168.844
56.65000 164.603
56.66000 159.156
56.67000 154.207
56.68000 157.606
56.69000 162.234
56.70000 165.495
56.71000 161.791
56.72000 157.111
56.73000 154.109
56.74000 156.743
56.75000 159.834
56.76000 162.005
56.77000 151.111
56.78000 142.481
56.79000 137.980
56.80000 139.789
56.81000 141.666
56.82000 145.870
56.83000 152.387
56.84000 158.860
56.85000 158.266
56.86000 153.172
56.87000 148.214
56.88000 146.743
56.89000 146.793
56.90000 146.966
56.91000 148.634
56.92000 150.743
56.93000 152.627
56.94000 153.496
56.95000 154.081
56.96000 154.578
56.97000 154.680
56.98000 154.735
56.99000 154.838
57.00000 155.086
57.01000 155.343
57.02000 155.517
57.03000 156.295
57.04000 156.888
57.05000 156.921
57.06000 156.194
57.07000 155.465
57.08000 156.161
57.09000 158.102
57.10000 160.021
57.11000 156.298
57.12000 149.485
57.13000 142.892
57.14000 140.674
57.15000 140.161
57.16000 140.174
57.17000 145.580
57.18000 152.398
57.19000 158.384
57.20000 152.230
57.21000 145.161
57.22000 139.742
57.23000 140.903
57.24000 142.747
57.25000 144.027
57.26000 143.803
57.27000 143.497
57.28000 143.299
57.29000 138.683
57.30000 135.236
57.31000 134.825
57.32000 138.051
57.33000 141.283
57.34000 144.192
57.35000 146.853
57.36000 149.468
57.37000 148.728
57.38000 146.344
57.39000 144.051
57.40000 143.236
57.41000 142.935
57.42000 142.297
57.43000 138.724
57.44000 134.468
57.45000 130.803
57.46000 137.799
57.47000 145.072
57.48000 150.761
57.49000 150.844
57.50000 150.434
57.51000 150.628
57.52000 152.263
57.53000 153.960
57.54000 155.012
57.55000 150.851
57.56000 147.807
57.57000 147.828
57.58000 151.082
57.59000 154.290
57.60000 152.060
57.61000 146.117
57.62000 140.313
57.63000 139.723
57.64000 141.449
57.65000 143.024
57.66000 142.608
57.67000 141.575
57.68000 140.607
57.69000 140.136
57.70000 139.768
57.71000 139.457
57.72000 139.676
57.73000 139.917
57.74000 140.525
57.75000 142.294
57.76000 144.148
57.77000 145.196
57.78000 144.528
57.79000 143.803
57.80000 143.375
57.81000 142.663
57.82000 142.159
57.83000 141.229
57.84000 139.905
57.85000 138.588
57.86000 137.671
57.87000 136.998
57.88000 136.346
57.89000 139.660
57.90000 144.335
57.91000 148.846
57.92000 151.554
57.93000 153.765
57.94000 154.991
57.95000 149.789
57.96000 143.424
57.97000 138.181
57.98000 140.435
57.99000 142.974
58.00000 144.825
58.01000 144.736
58.02000 144.530
58.03000 143.915
58.04000 142.522
58.05000 141.109
58.06000 140.318
58.07000 139.946
58.08000 139.692
58.09000 140.376
58.10000 141.825
58.11000 143.273
58.12000 144.713
58.13000 146.148
58.14000 147.525
58.15000 145.696
58.16000 142.887
58.17000 140.499
58.18000 142.048
58.19000 144.563
58.20000 146.755
58.21000 147.103
58.22000 147.158
58.23000 147.202
58.24000 147.114
58.25000 147.032
58.26000 146.183
58.27000 143.408
58.28000 140.540
58.29000 138.267
58.30000 137.001
58.31000 135.751
58.32000 135.091
58.33000 139.037
58.34000 141.699
58.35000 141.294
58.36000 138.679
58.37000 136.084
58.38000 134.149
58.39000 132.533
58.40000 130.998
58.41000 131.667
58.42000 132.949
58.43000 134.472
58.44000 137.923
58.45000 141.792
58.46000 144.499
58.47000 141.361
58.48000 137.416
58.49000 134.332
58.50000 135.869
58.51000 137.389
58.52000 138.740
58.53000 139.714
58.54000 140.674
58.55000 139.100
58.56000 133.704
58.57000 128.269
58.58000 125.903
58.59000 126.545
58.60000 127.217
58.61000 130.394
58.62000 135.174
58.63000 139.715
58.64000 138.359
58.65000 134.463
58.66000 130.804
58.67000 132.036
58.68000 134.456
58.69000 136.243
58.70000 133.630
58.71000 130.173
58.72000 128.225
58.73000 132.970
58.74000 138.512
58.75000 142.721
58.76000 139.752
58.77000 137.047
58.78000 133.951
58.79000 130.070
58.80000 126.168
58.81000 125.774
58.82000 130.078
58.83000 134.403
58.84000 137.548
58.85000 139.671
58.86000 141.713
58.87000 139.328
58.88000 134.423
58.89000 129.716
58.90000 128.871
58.91000 129.511
58.92000 130.104
58.93000 129.958
58.94000 129.655
58.95000 129.385
58.96000 129.318
58.97000 129.286
58.98000 129.565
58.99000 131.069
59.00000 132.698
59.01000 133.896
59.02000 129.672
59.03000 126.180
59.04000 125.473
59.05000 129.737
59.06000 134.100
59.07000 138.138
59.08000 141.791
59.09000 145.434
59.10000 143.309
59.11000 136.837
59.12000 130.437
59.13000 126.748
59.14000 124.436
59.15000 122.452
59.16000 125.602
59.17000 130.517
59.18000 135.006
59.19000 132.690
59.20000 129.247
59.21000 126.894
59.22000 130.339
59.23000 134.635
59.24000 137.903
59.25000 137.576
59.26000 136.939
59.27000 136.487
59.28000 134.077
59.29000 132.179
59.30000 133.296
59.31000 139.207
59.32000 145.179
59.33000 147.093
59.34000 144.787
59.35000 142.494
59.36000 139.471
59.37000 136.000
59.38000 132.565
59.39000 130.133
59.40000 128.156
59.41000 126.216
59.42000 124.761
59.43000 123.455
59.44000 122.281
59.45000 127.035
59.46000 132.250
59.47000 136.715
59.48000 137.662
59.49000 138.161
59.50000 138.596
59.51000 138.828
59.52000 139.045
59.53000 139.194
59.54000 136.753
59.55000 134.863
59.56000 133.808
59.57000 133.934
59.58000 134.069
59.59000 136.227
59.60000 140.231
59.61000 144.196
59.62000 142.212
59.63000 136.775
59.64000 131.615
59.65000 132.402
59.66000 135.598
59.67000 138.283
59.68000 135.449
59.69000 131.110
59.70000 127.277
59.71000 128.152
59.72000 129.633
59.73000 131.435
59.74000 134.562
59.75000 137.834
59.76000 139.367
59.77000 136.067
59.78000 132.484
59.79000 130.126
59.80000 137.720
59.81000 143.483
59.82000 143.743
59.83000 137.125
59.84000 130.503
59.85000 129.654
59.86000 133.445
59.87000 137.180
59.88000 137.843
59.89000 136.893
59.90000 135.895
59.91000 134.070
59.92000 131.946
59.93000 129.916
59.94000 128.746
59.95000 127.784
59.96000 126.951
59.97000 131.897
59.98000 136.876
59.99000 140.783
60.00000 140.737
60.01000 140.324
60.02000 139.356
60.03000 137.009
60.04000 134.598
60.05000 133.080
60.06000 136.481
60.07000 138.998
60.08000 139.440
60.09000 137.594
60.10000 135.753
60.11000 134.813
60.12000 134.515
60.13000 134.224
60.14000 131.380
60.15000 127.478
60.16000 124.061
60.17000 127.435
60.18000 132.999
60.19000 138.066
60.20000 139.212
60.21000 139.516
60.22000 139.775
60.23000 136.435
60.24000 133.223
60.25000 130.510
60.26000 129.430
60.27000 128.477
60.28000 128.617
60.29000 131.177
60.30000 133.825
60.31000 135.415
60.32000 136.841
60.33000 137.853
60.34000 137.333
60.35000 135.334
60.36000 133.320
60.37000 130.191
60.38000 126.357
60.39000 122.631
60.40000 125.261
60.41000 130.330
60.42000 134.999
60.43000 134.990
60.44000 133.636
60.45000 132.705
60.46000 134.663
60.47000 137.168
60.48000 139.247
60.49000 136.633
60.50000 134.016
60.51000 132.416
60.52000 133.786
60.53000 135.347
60.54000 136.551
60.55000 137.046
60.56000 137.522
60.57000 137.794
60.58000 133.015
60.59000 129.667
60.60000 127.591
60.61000 126.597
60.62000 125.646
60.63000 126.928
60.64000 129.467
60.65000 131.913
60.66000 135.097
60.67000 138.352
60.68000 141.281
60.69000 141.005
60.70000 139.910
60.71000 138.783
60.72000 137.464
60.73000 136.112
60.74000 135.017
60.75000 138.302
60.76000 141.335
60.77000 141.377
60.78000 133.616
60.79000 125.450
60.80000 122.275
60.81000 127.906
60.82000 133.703
60.83000 136.826
60.84000 138.812
60.85000 140.160
60.86000 139.985
60.87000 138.666
60.88000 137.354
60.89000 136.334
60.90000 135.459
60.91000 134.625
60.92000 135.105
60.93000 135.964
60.94000 136.614
60.95000 135.501
60.96000 133.989
60.97000 132.971
60.98000 134.551
60.99000 136.506
61.00000 138.049
61.01000 136.090
61.02000 134.281
61.03000 133.196
61.04000 133.800
61.05000 134.473
61.06000 136.198
61.07000 139.575
61.08000 142.973
61.09000 144.693
61.10000 141.490
61.11000 139.349
61.12000 137.534
61.13000 135.937
61.14000 134.365
61.15000 133.463
61.16000 132.860
61.17000 132.293
61.18000 135.732
61.19000 139.994
61.20000 143.319
61.21000 139.820
61.22000 134.956
61.23000 131.350
61.24000 133.560
61.25000 136.499
61.26000 138.753
61.27000 136.533
61.28000 134.530
61.29000 132.894
61.30000 132.021
61.31000 131.171
61.32000 130.659
61.33000 130.618
61.34000 130.579
61.35000 131.865
61.36000 134.338
61.37000 136.780
61.38000 137.317
61.39000 136.724
61.40000 136.169
61.41000 136.408
61.42000 136.964
61.43000 137.481
61.44000 137.376
61.45000 137.130
61.46000 137.652
61.47000 143.043
61.48000 149.292
61.49000 153.893
61.50000 151.742
61.51000 148.866
61.52000 146.727
61.53000 157.430
61.54000 166.329
61.55000 177.566
61.56000 193.143
61.57000 208.818
61.58000 217.702
61.59000 218.210
61.60000 218.693
61.61000 224.069
61.62000 233.281
61.63000 242.324
61.64000 244.258
61.65000 242.441
61.66000 240.936
61.67000 244.683
61.68000 250.306
61.69000 255.467
61.70000 253.587
61.71000 250.409
61.72000 247.948
61.73000 249.470
61.74000 251.605
61.75000 250.753
61.76000 239.031
61.77000 226.316
61.78000 217.170
61.79000 212.364
61.80000 208.836
61.81000 202.790
61.82000 192.576
61.83000 182.300
61.84000 175.062
61.85000 171.127
61.86000 167.210
61.87000 161.970
61.88000 155.867
61.89000 149.851
61.90000 146.526
61.91000 144.468
61.92000 142.329
61.93000 139.067
61.94000 135.447
61.95000 132.175
61.96000 136.800
61.97000 142.339
61.98000 146.787
61.99000 145.901
62.00000 144.301
62.01000 142.179
62.02000 138.366
62.03000 134.424
62.04000 131.689
62.05000 135.269
62.06000 138.134
62.07000 141.413
62.08000 145.302
62.09000 149.196
62.10000 153.595
62.11000 158.474
62.12000 163.314
62.13000 161.681
62.14000 156.109
62.15000 150.707
62.16000 149.262
62.17000 149.483
62.18000 149.451
62.19000 146.518
62.20000 142.762
62.21000 139.423
62.22000 141.334
62.23000 143.841
62.24000 145.908
62.25000 146.072
62.26000 146.016
62.27000 145.960
62.28000 145.900
62.29000 145.841
62.30000 145.801
62.31000 141.319
62.32000 137.914
62.33000 137.078
62.34000 139.592
62.35000 142.114
62.36000 141.782
62.37000 139.057
62.38000 136.367
62.39000 133.937
62.40000 131.712
62.41000 129.647
62.42000 130.528
62.43000 132.516
62.44000 134.395
62.45000 135.227
62.46000 135.794
62.47000 136.288
62.48000 141.769
62.49000 147.155
62.50000 150.477
62.51000 145.886
62.52000 140.516
62.53000 137.107
62.54000 138.752
62.55000 140.655
62.56000 141.871
62.57000 142.925
62.58000 143.690
62.59000 143.289
62.60000 141.548
62.61000 139.810
62.62000 139.076
62.63000 139.086
62.64000 139.096
62.65000 140.294
62.66000 142.018
62.67000 143.441
62.68000 140.354
62.69000 135.756
62.70000 132.107
62.71000 136.351
62.72000 142.360
62.73000 147.499
62.74000 147.014
62.75000 145.930
62.76000 144.988
62.77000 144.530
62.78000 144.112
62.79000 145.437
62.80000 150.772
62.81000 156.267
62.82000 159.622
62.83000 149.027
62.84000 141.336
62.85000 139.250
62.86000 142.830
62.87000 146.369
62.88000 145.936
62.89000 142.891
62.90000 139.925
62.91000 138.178
62.92000 137.027
62.93000 136.073
62.94000 137.571
62.95000 139.802
62.96000 141.801
62.97000 142.139
62.98000 142.148
62.99000 142.157
63.00000 140.714
63.01000 139.366
63.02000 138.522
63.03000 139.209
63.04000 140.002
63.05000 140.683
63.06000 141.136
63.07000 141.583
63.08000 141.842
63.09000 147.429
63.10000 151.372
63.11000 152.397
63.12000 150.836
63.13000 149.338
63.14000 151.608
63.15000 156.081
63.16000 160.402
63.17000 159.623
63.18000 156.989
63.19000 154.405
63.20000 152.350
63.21000 150.436
63.22000 148.432
63.23000 145.866
63.24000 143.201
63.25000 141.025
63.26000 142.920
63.27000 144.824
63.28000 145.334
63.29000 142.065
63.30000 138.584
63.31000 137.032
63.32000 139.018
63.33000 141.080
63.34000 142.213
63.35000 145.197
63.36000 147.254
63.37000 149.069
63.38000 150.694
63.39000 152.248
63.40000 150.936
63.41000 148.129
63.42000 145.442
63.43000 144.435
63.44000 144.049
63.45000 143.393
63.46000 140.332
63.47000 136.704
63.48000 133.998
63.49000 136.346
63.50000 139.461
63.51000 141.941
63.52000 143.027
63.53000 143.802
63.54000 143.920
63.55000 142.446
63.56000 140.901
63.57000 141.766
63.58000 146.567
63.59000 151.424
63.60000 153.937
63.61000 155.254
63.62000 156.120
63.63000 154.256
63.64000 150.500
63.65000 146.824
63.66000 145.514
63.67000 145.306
63.68000 145.109
63.69000 146.117
63.70000 147.393
63.71000 148.665
63.72000 149.903
63.73000 151.134
63.74000 152.223
63.75000 152.632
63.76000 152.951
63.77000 153.199
63.78000 146.822
63.79000 141.364
63.80000 139.098
63.81000 143.735
63.82000 148.609
63.83000 152.899
63.84000 156.342
63.85000 159.778
63.86000 159.546
63.87000 155.871
63.88000 152.239
63.89000 151.724
63.90000 153.130
63.91000 154.548
63.92000 156.218
63.93000 157.994
63.94000 159.654
63.95000 158.517
63.96000 156.772
63.97000 155.118
63.98000 154.067
63.99000 153.127
64.00000 152.762
64.01000 154.849
64.02000 157.214
64.03000 158.992
64.04000 155.735
64.05000 152.946
64.06000 152.306
64.07000 155.814
64.08000 159.425
64.09000 160.330
64.10000 157.753
64.11000 155.166
64.12000 154.988
64.13000 156.797
64.14000 158.571
64.15000 158.642
64.16000 157.778
64.17000 156.871
64.18000 155.198
64.19000 153.239
64.20000 151.432
64.21000 155.483
64.22000 160.420
64.23000 164.222
64.24000 161.435
64.25000 157.586
64.26000 153.977
64.27000 151.272
64.28000 148.654
64.29000 146.749
64.30000 149.819
64.31000 152.371
64.32000 153.601
64.33000 152.556
64.34000 151.471
64.35000 153.408
64.36000 158.775
64.37000 164.128
64.38000 163.796
64.39000 159.343
64.40000 154.988
64.41000 153.954
64.42000 154.546
64.43000 155.113
64.44000 155.320
64.45000 155.407
64.46000 155.486
64.47000 158.000
64.48000 160.697
64.49000 163.255
64.50000 165.103
64.51000 166.851
64.52000 166.934
64.53000 161.408
64.54000 155.425
64.55000 151.222
64.56000 157.371
64.57000 162.332
64.58000 164.648
64.59000 162.914
64.60000 161.137
64.61000 159.790
64.62000 158.872
64.63000 157.960
64.64000 162.568
64.65000 170.635
64.66000 178.337
64.67000 176.733
64.68000 171.060
64.69000 165.817
64.70000 165.813
64.71000 167.356
64.72000 168.735
64.73000 169.270
64.74000 169.594
64.75000 169.513
64.76000 167.610
64.77000 165.485
64.78000 164.600
64.79000 167.434
64.80000 170.518
64.81000 172.604
64.82000 174.876
64.83000 176.572
64.84000 177.557
64.85000 177.576
64.86000 177.590
64.87000 178.291
64.88000 179.593
64.89000 180.881
64.90000 180.760
64.91000 179.846
64.92000 178.943
64.93000 178.235
64.94000 177.604
64.95000 177.048
64.96000 177.264
64.97000 177.683
64.98000 178.050
64.99000 176.596
65.00000 175.079
65.01000 175.839
65.02000 185.691
65.03000 196.489
65.04000 204.080
65.05000 203.083
65.06000 201.616
65.07000 200.664
65.08000 198.730
65.09000 197.298
65.10000 197.194
65.11000 198.682
65.12000 200.177
65.13000 202.507
65.14000 205.480
65.15000 208.403
65.16000 210.512
65.17000 212.146
65.18000 213.372
65.19000 208.047
65.20000 200.439
65.21000 193.987
65.22000 197.647
65.23000 203.661
65.24000 208.842
65.25000 213.241
65.26000 216.869
65.27000 219.415
65.28000 218.123
65.29000 216.493
65.30000 218.435
65.31000 228.917
65.32000 239.770
65.33000 246.504
65.34000 241.687
65.35000 238.108
65.36000 239.610
65.37000 246.480
65.38000 253.340
65.39000 258.878
65.40000 263.513
65.41000 268.040
65.42000 267.524
65.43000 264.811
65.44000 262.320
65.45000 262.755
65.46000 264.099
65.47000 266.026
65.48000 272.339
65.49000 279.556
65.50000 285.641
65.51000 299.649
65.52000 312.205
65.53000 319.872
65.54000 312.095
65.55000 303.184
65.56000 297.658
65.57000 299.359
65.58000 301.300
65.59000 302.447
65.60000 303.356
65.61000 303.999
65.62000 312.513
65.63000 328.317
65.64000 344.126
65.65000 360.186
65.66000 376.400
65.67000 392.111
65.68000 405.377
65.69000 416.983
65.70000 429.906
65.71000 457.378
65.72000 488.876
65.73000 522.521
65.74000 570.213
65.75000 620.453
65.76000 661.847
65.77000 722.904
65.78000 774.946
65.79000 816.115
65.80000 826.646
65.81000 835.331
65.82000 846.864
65.83000 863.829
65.84000 880.924
65.85000 890.502
65.86000 890.727
65.87000 890.883
65.88000 899.892
65.89000 916.125
65.90000 931.643
65.91000 914.518
65.92000 879.701
65.93000 846.272
65.94000 815.633
65.95000 787.929
65.96000 758.486
65.97000 712.718
65.98000 662.938
65.99000 613.675
66.00000 567.370
66.01000 521.535
66.02000 484.702
66.03000 438.370
66.04000 400.082
66.05000 368.030
66.06000 351.661
66.07000 336.050
66.08000 323.713
66.09000 316.938
66.10000 310.255
66.11000 306.724
66.12000 293.214
66.13000 284.084
66.14000 283.127
66.15000 288.068
66.16000 292.640
66.17000 285.101
66.18000 271.706
66.19000 258.978
66.20000 261.773
66.21000 269.047
66.22000 276.033
66.23000 280.710
66.24000 284.884
66.25000 290.919
66.26000 306.322
66.27000 323.019
66.28000 336.080
66.29000 335.372
66.30000 333.930
66.31000 338.347
66.32000 355.929
66.33000 374.005
66.34000 383.478
66.35000 379.946
66.36000 376.282
66.37000 377.641
66.38000 383.935
66.39000 390.229
66.40000 396.524
66.41000 402.820
66.42000 408.826
66.43000 407.619
66.44000 403.297
66.45000 399.239
66.46000 399.165
66.47000 400.157
66.48000 400.459
66.49000 395.961
66.50000 390.541
66.51000 383.437
66.52000 368.850
66.53000 353.369
66.54000 341.610
66.55000 339.727
66.56000 338.760
66.57000 335.219
66.58000 326.516
66.59000 317.668
66.60000 311.660
66.61000 309.461
66.62000 307.284
66.63000 306.197
66.64000 306.054
66.65000 305.975
66.66000 309.392
66.67000 314.805
66.68000 319.945
66.69000 319.772
66.70000 317.550
66.71000 315.491
66.72000 314.904
66.73000 314.718
66.74000 314.570
66.75000 314.651
66.76000 314.771
66.77000 314.324
66.78000 311.646
66.79000 308.741
66.80000 306.602
66.81000 306.364
66.82000 306.259
66.83000 306.952
66.84000 309.076
66.85000 311.228
66.86000 312.385
66.87000 312.364
66.88000 312.340
66.89000 316.296
66.90000 323.242
66.91000 330.051
66.92000 331.712
66.93000 330.756
66.94000 329.901
66.95000 330.656
66.96000 331.964
66.97000 333.159
66.98000 330.598
66.99000 327.557
67.00000 324.518
67.01000 321.495
67.02000 318.475
67.03000 317.677
67.04000 324.663
67.05000 332.322
67.06000 337.769
67.07000 325.131
67.08000 314.926
67.09000 313.068
67.10000 324.506
67.11000 336.115
67.12000 340.161
67.13000 336.324
67.14000 332.507
67.15000 336.527
67.16000 345.724
67.17000 354.692
67.18000 357.230
67.19000 356.849
67.20000 356.674
67.21000 359.172
67.22000 362.489
67.23000 365.473
67.24000 363.118
67.25000 360.105
67.26000 357.137
67.27000 354.384
67.28000 351.658
67.29000 351.157
67.30000 357.595
67.31000 364.534
67.32000 369.289
67.33000 364.881
67.34000 361.359
67.35000 359.429
67.36000 359.751
67.37000 360.092
67.38000 363.418
67.39000 369.473
67.40000 375.470
67.41000 379.359
67.42000 381.927
67.43000 384.372
67.44000 384.142
67.45000 382.828
67.46000 381.584
67.47000 381.085
67.48000 380.790
67.49000 380.529
67.50000 383.047
67.51000 385.651
67.52000 389.547
67.53000 398.807
67.54000 408.655
67.55000 417.504
67.56000 423.572
67.57000 429.476
67.58000 433.363
67.59000 415.486
67.60000 401.943
67.61000 398.009
67.62000 406.110
67.63000 414.240
67.64000 419.491
67.65000 422.425
67.66000 425.316
67.67000 432.683
67.68000 442.157
67.69000 451.117
67.70000 451.206
67.71000 448.082
67.72000 445.533
67.73000 448.289
67.74000 452.333
67.75000 455.839
67.76000 459.247
67.77000 462.136
67.78000 464.746
67.79000 466.324
67.80000 467.807
67.81000 467.351
67.82000 462.080
67.83000 456.582
67.84000 453.117
67.85000 461.370
67.86000 467.478
67.87000 469.757
67.88000 467.806
67.89000 465.882
67.90000 468.158
67.91000 473.427
67.92000 478.586
67.93000 483.965
67.94000 489.234
67.95000 494.324
67.96000 496.876
67.97000 498.608
67.98000 500.211
67.99000 500.790
68.00000 501.148
68.01000 501.453
68.02000 502.772
68.03000 503.995
68.04000 505.669
68.05000 508.826
68.06000 512.100
68.07000 513.557
68.08000 510.985
68.09000 508.266
68.10000 506.632
68.11000 511.928
68.12000 515.740
68.13000 522.347
68.14000 531.661
68.15000 540.948
68.16000 548.141
68.17000 554.009
68.18000 559.711
68.19000 558.911
68.20000 555.515
68.21000 552.809
68.22000 558.194
68.23000 565.908
68.24000 573.020
68.25000 576.002
68.26000 578.202
68.27000 580.030
68.28000 584.066
68.29000 587.619
68.30000 592.463
68.31000 601.088
68.32000 609.958
68.33000 615.453
68.34000 614.263
68.35000 612.892
68.36000 612.109
68.37000 629.391
68.38000 641.500
68.39000 648.244
68.40000 650.422
68.41000 652.774
68.42000 664.198
68.43000 680.734
68.44000 696.662
68.45000 700.300
68.46000 699.320
68.47000 699.227
68.48000 707.923
68.49000 718.868
68.50000 729.404
68.51000 737.491
68.52000 745.171
68.53000 751.396
68.54000 775.828
68.55000 797.223
68.56000 814.947
68.57000 823.081
68.58000 830.713
68.59000 844.897
68.60000 870.655
68.61000 896.634
68.62000 910.644
68.63000 978.522
68.64000 1024.976
68.65000 1066.002
68.66000 1102.945
68.67000 1140.108
68.68000 1185.280
68.69000 1234.476
68.70000 1281.394
68.71000 1326.855
68.72000 1368.574
68.73000 1410.396
68.74000 1453.081
68.75000 1495.963
68.76000 1540.677
68.77000 1595.022
68.78000 1650.764
68.79000 1694.774
68.80000 1748.625
68.81000 1792.508
68.82000 1848.924
68.83000 1934.595
68.84000 2021.468
68.85000 2114.683
68.86000 2217.874
68.87000 2321.187
68.88000 2373.542
68.89000 2769.225
68.90000 3036.312
68.91000 3518.111
68.92000 4143.138
68.93000 4799.766
68.94000 6313.200
68.95000 8210.998
68.96000 10000.614
68.97000 13282.247
68.98000 16702.939
68.99000 20216.844
69.00000 24411.668
69.01000 28742.994
69.02000 32927.832
69.03000 36433.980
69.04000 39854.891
69.05000 42480.020
69.06000 44658.805
69.07000 46355.727
69.08000 47655.961
69.09000 48129.348
69.10000 48576.965
69.11000 48885.844
69.12000 49000.938
69.13000 49114.691
69.14000 49488.844
69.15000 50097.043
69.16000 50702.699
69.17000 51150.195
69.18000 51503.863
69.19000 51804.301
69.20000 50984.414
69.21000 49715.688
69.22000 48534.262
69.23000 45731.480
69.24000 42801.664
69.25000 39926.012
69.26000 37394.547
69.27000 34923.766
69.28000 32589.027
69.29000 30812.371
69.30000 29095.877
69.31000 27818.641
69.32000 26795.164
69.33000 26010.270
69.34000 25309.391
69.35000 24764.764
69.36000 24223.650
69.37000 23491.318
69.38000 22522.635
69.39000 21555.037
69.40000 20120.740
69.41000 18323.984
69.42000 16521.258
69.43000 14466.442
69.44000 12278.337
69.45000 10120.168
69.46000 8466.250
69.47000 6992.706
69.48000 5639.583
69.49000 4616.796
69.50000 3774.889
69.51000 3001.282
69.52000 2607.695
69.53000 2272.726
69.54000 1976.032
69.55000 1818.797
69.56000 1674.327
69.57000 1570.351
69.58000 1475.571
69.59000 1403.322
69.60000 1339.093
69.61000 1288.152
69.62000 1237.411
69.63000 1190.463
69.64000 1147.645
69.65000 1105.015
69.66000 1069.601
69.67000 1039.578
69.68000 1009.559
69.69000 979.679
69.70000 949.864
69.71000 921.463
69.72000 912.569
69.73000 909.901
69.74000 907.487
69.75000 890.579
69.76000 872.996
69.77000 855.385
69.78000 837.645
69.79000 819.886
69.80000 803.861
69.81000 793.459
69.82000 783.487
69.83000 776.565
69.84000 752.568
69.85000 734.035
69.86000 723.162
69.87000 723.573
69.88000 724.084
69.89000 715.424
69.90000 698.007
69.91000 680.729
69.92000 676.079
69.93000 679.264
69.94000 682.018
69.95000 674.659
69.96000 663.039
69.97000 652.198
69.98000 650.315
69.99000 650.978
70.00000 651.568
