20.00000 559.309
20.01000 565.732
20.02000 573.071
20.03000 580.505
20.04000 588.303
20.05000 596.137
20.06000 601.886
20.07000 593.117
20.08000 585.753
20.09000 579.681
20.10000 575.899
20.11000 572.160
20.12000 567.503
20.13000 561.769
20.14000 556.050
20.15000 556.732
20.16000 562.204
20.17000 567.659
20.18000 572.506
20.19000 577.047
20.20000 581.432
20.21000 583.407
20.22000 584.561
20.23000 585.614
20.24000 589.554
20.25000 593.632
20.26000 596.172
20.27000 590.610
20.28000 583.871
20.29000 578.312
20.30000 576.848
20.31000 575.731
20.32000 574.940
20.33000 578.689
20.34000 581.683
20.35000 581.529
20.36000 576.413
20.37000 571.235
20.38000 567.963
20.39000 566.651
20.40000 565.348
20.41000 560.263
20.42000 552.750
20.43000 545.281
20.44000 539.004
20.45000 533.262
20.46000 528.818
20.47000 540.904
20.48000 558.012
20.49000 573.373
20.50000 567.572
20.51000 558.776
20.52000 552.257
20.53000 556.311
20.54000 561.695
20.55000 566.342
20.56000 568.708
20.57000 570.913
20.58000 572.419
20.59000 556.557
20.60000 544.286
20.61000 542.154
20.62000 554.217
20.63000 566.373
20.64000 572.990
20.65000 574.603
20.66000 576.200
20.67000 574.784
20.68000 571.646
20.69000 568.382
20.70000 562.461
20.71000 555.472
20.72000 549.641
20.73000 556.188
20.74000 566.081
20.75000 574.810
20.76000 570.845
20.77000 565.489
20.78000 561.837
20.79000 565.198
20.80000 569.317
20.81000 570.736
20.82000 564.713
20.83000 558.259
20.84000 554.027
20.85000 569.687
20.86000 581.537
20.87000 586.673
20.88000 583.491
20.89000 580.273
20.90000 572.551
20.91000 561.244
20.92000 550.108
20.93000 547.956
20.94000 550.485
20.95000 553.172
20.96000 558.526
20.97000 564.836
20.98000 570.853
20.99000 574.208
21.00000 576.923
21.01000 579.274
21.02000 580.242
21.03000 580.882
21.04000 580.760
21.05000 577.856
21.06000 574.695
21.07000 574.462
21.08000 581.430
21.09000 588.731
21.10000 593.313
21.11000 576.305
21.12000 563.776
21.13000 559.804
21.14000 565.175
21.15000 570.493
21.16000 568.099
21.17000 560.266
21.18000 552.602
21.19000 553.376
21.20000 557.948
21.21000 561.865
21.22000 556.698
21.23000 548.627
21.24000 541.666
21.25000 543.372
21.26000 546.921
21.27000 549.929
21.28000 555.587
21.29000 560.627
21.30000 563.935
21.31000 561.615
21.32000 558.861
21.33000 558.194
21.34000 562.112
21.35000 566.193
21.36000 568.635
21.37000 575.033
21.38000 579.598
21.39000 580.932
21.40000 579.173
21.41000 577.375
21.42000 572.629
21.43000 566.037
21.44000 559.636
21.45000 565.438
21.46000 575.836
21.47000 585.249
21.48000 583.276
21.49000 578.059
21.50000 573.068
21.51000 569.606
21.52000 566.430
21.53000 563.797
21.54000 570.667
21.55000 577.249
21.56000 585.852
21.57000 600.312
21.58000 615.143
21.59000 620.604
21.60000 607.687
21.61000 594.286
21.62000 586.674
21.63000 608.823
21.64000 624.323
21.65000 630.836
21.66000 629.781
21.67000 628.923
21.68000 637.889
21.69000 652.335
21.70000 666.238
21.71000 676.241
21.72000 684.246
21.73000 693.451
21.74000 714.375
21.75000 738.267
21.76000 762.531
21.77000 788.999
21.78000 815.829
21.79000 837.529
21.80000 846.183
21.81000 852.174
21.82000 865.406
21.83000 897.378
21.84000 930.307
21.85000 950.624
21.86000 948.881
21.87000 946.732
21.88000 945.580
21.89000 973.375
21.90000 992.394
21.91000 1014.611
21.92000 1039.208
21.93000 1063.300
21.94000 1069.541
21.95000 1066.901
21.96000 1064.386
21.97000 1064.351
21.98000 1065.093
21.99000 1064.991
22.00000 1057.850
22.01000 1049.130
22.02000 1038.574
22.03000 1018.490
22.04000 997.041
22.05000 980.147
22.06000 948.820
22.07000 922.750
22.08000 899.453
22.09000 882.568
22.10000 865.940
22.11000 845.113
22.12000 817.747
22.13000 790.304
22.14000 776.478
22.15000 748.642
22.16000 730.130
22.17000 720.692
22.18000 717.244
22.19000 713.148
22.20000 691.875
22.21000 662.974
22.22000 635.750
22.23000 619.501
22.24000 607.645
22.25000 596.848
22.26000 593.686
22.27000 592.037
22.28000 590.237
22.29000 587.742
22.30000 585.161
22.31000 583.186
22.32000 588.569
22.33000 593.219
22.34000 596.212
22.35000 595.784
22.36000 595.252
22.37000 589.227
22.38000 575.609
22.39000 561.949
22.40000 555.052
22.41000 554.182
22.42000 553.327
22.43000 553.401
22.44000 554.020
22.45000 554.727
22.46000 557.254
22.47000 560.504
22.48000 563.526
22.49000 557.843
22.50000 550.612
22.51000 544.082
22.52000 541.961
22.53000 540.608
22.54000 541.518
22.55000 551.614
22.56000 562.687
22.57000 570.903
22.58000 558.478
22.59000 547.919
22.60000 541.507
22.61000 542.727
22.62000 544.113
22.63000 549.186
22.64000 558.765
22.65000 568.336
22.66000 562.500
22.67000 544.646
22.68000 527.045
22.69000 519.809
22.70000 517.998
22.71000 516.744
22.72000 524.689
22.73000 535.893
22.74000 546.167
22.75000 548.351
22.76000 548.589
22.77000 547.992
22.78000 542.807
22.79000 536.922
22.80000 531.141
22.81000 525.735
22.82000 520.362
22.83000 516.508
22.84000 514.370
22.85000 512.794
22.86000 515.712
22.87000 526.000
22.88000 536.396
22.89000 539.596
22.90000 535.050
22.91000 530.521
22.92000 528.242
22.93000 527.534
22.94000 526.628
22.95000 519.760
22.96000 510.106
22.97000 501.562
22.98000 508.062
22.99000 519.314
23.00000 529.474
23.01000 531.804
23.02000 532.409
23.03000 531.885
23.04000 525.889
23.05000 519.169
23.06000 514.057
23.07000 514.106
23.08000 514.544
23.09000 514.847
23.10000 516.032
23.11000 516.947
23.12000 516.409
23.13000 513.752
23.14000 511.077
23.15000 508.986
23.16000 507.446
23.17000 505.918
23.18000 515.086
23.19000 530.577
23.20000 545.239
23.21000 540.872
23.22000 528.567
23.23000 517.369
23.24000 518.706
23.25000 523.569
23.26000 527.886
23.27000 526.677
23.28000 524.745
23.29000 524.023
23.30000 528.486
23.31000 533.539
23.32000 535.822
23.33000 530.175
23.34000 524.036
23.35000 519.953
23.36000 515.011
23.37000 511.339
23.38000 510.379
23.39000 512.922
23.40000 515.470
23.41000 513.549
23.42000 507.916
23.43000 502.357
23.44000 508.810
23.45000 521.526
23.46000 533.469
23.47000 531.354
23.48000 524.001
23.49000 516.850
23.50000 511.631
23.51000 506.894
23.52000 502.766
23.53000 508.794
23.54000 515.349
23.55000 520.830
23.56000 522.228
23.57000 523.230
23.58000 522.979
23.59000 519.525
23.60000 515.911
23.61000 513.608
23.62000 519.325
23.63000 523.585
23.64000 521.203
23.65000 511.250
23.66000 501.363
23.67000 504.401
23.68000 516.931
23.69000 529.221
23.70000 530.974
23.71000 527.675
23.72000 524.429
23.73000 521.956
23.74000 519.739
23.75000 516.845
23.76000 508.386
23.77000 498.694
23.78000 490.417
23.79000 494.578
23.80000 499.561
23.81000 503.402
23.82000 503.382
23.83000 503.046
23.84000 503.977
23.85000 507.799
23.86000 511.735
23.87000 514.129
23.88000 512.171
23.89000 510.738
23.90000 510.179
23.91000 510.496
23.92000 510.792
23.93000 509.088
23.94000 506.083
23.95000 503.156
23.96000 500.332
23.97000 497.683
23.98000 495.440
23.99000 498.177
24.00000 502.389
24.01000 505.959
24.02000 504.966
24.03000 503.081
24.04000 501.505
24.05000 501.930
24.06000 502.486
24.07000 501.996
24.08000 498.359
24.09000 494.507
24.10000 492.245
24.11000 493.221
24.12000 494.293
24.13000 494.913
24.14000 499.725
24.15000 503.113
24.16000 503.957
24.17000 502.566
24.18000 501.237
24.19000 503.498
24.20000 507.840
24.21000 512.033
24.22000 516.425
24.23000 520.637
24.24000 524.063
24.25000 519.382
24.26000 512.565
24.27000 507.272
24.28000 511.410
24.29000 517.168
24.30000 521.865
24.31000 508.666
24.32000 496.342
24.33000 488.691
24.34000 493.604
24.35000 499.211
24.36000 500.001
24.37000 492.036
24.38000 483.887
24.39000 479.428
24.40000 502.331
24.41000 518.058
24.42000 518.905
24.43000 508.215
24.44000 497.750
24.45000 496.213
24.46000 499.293
24.47000 502.237
24.48000 508.909
24.49000 516.333
24.50000 522.755
24.51000 520.359
24.52000 515.902
24.53000 511.703
24.54000 508.910
24.55000 506.328
24.56000 504.276
24.57000 501.806
24.58000 499.788
24.59000 498.401
24.60000 498.535
24.61000 498.734
24.62000 497.907
24.63000 495.417
24.64000 492.905
24.65000 491.611
24.66000 496.493
24.67000 499.771
24.68000 501.816
24.69000 503.013
24.70000 504.117
24.71000 502.494
24.72000 499.613
24.73000 496.889
24.74000 496.939
24.75000 497.780
24.76000 497.735
24.77000 490.976
24.78000 482.827
24.79000 476.975
24.80000 482.102
24.81000 488.658
24.82000 493.727
24.83000 493.486
24.84000 492.983
24.85000 493.340
24.86000 495.541
24.87000 497.804
24.88000 498.179
24.89000 495.837
24.90000 493.475
24.91000 493.198
24.92000 494.863
24.93000 496.406
24.94000 489.463
24.95000 477.338
24.96000 465.684
24.97000 464.564
24.98000 467.786
24.99000 470.795
25.00000 472.389
25.01000 473.479
25.02000 476.118
25.03000 488.949
25.04000 503.635
25.05000 513.387
25.06000 502.277
25.07000 488.829
25.08000 478.742
25.09000 483.976
25.10000 488.790
25.11000 494.013
25.12000 500.019
25.13000 506.045
25.14000 507.733
25.15000 503.891
25.16000 500.035
25.17000 495.313
25.18000 489.901
25.19000 484.564
25.20000 482.690
25.21000 482.700
25.22000 482.697
25.23000 482.467
25.24000 482.153
25.25000 481.863
25.26000 487.257
25.27000 493.341
25.28000 498.436
25.29000 497.847
25.30000 496.351
25.31000 494.469
25.32000 491.138
25.33000 487.669
25.34000 485.151
25.35000 490.114
25.36000 494.208
25.37000 494.897
25.38000 489.777
25.39000 484.559
25.40000 481.736
25.41000 481.607
25.42000 481.481
25.43000 476.662
25.44000 468.513
25.45000 460.714
25.46000 464.489
25.47000 473.882
25.48000 482.981
25.49000 487.836
25.50000 491.296
25.51000 494.438
25.52000 493.847
25.53000 492.604
25.54000 490.511
25.55000 484.123
25.56000 477.137
25.57000 471.517
25.58000 470.456
25.59000 469.759
25.60000 469.272
25.61000 468.146
25.62000 467.277
25.63000 468.689
25.64000 473.564
25.65000 478.475
25.66000 478.543
25.67000 473.832
25.68000 469.154
25.69000 469.310
25.70000 472.525
25.71000 475.715
25.72000 478.289
25.73000 480.597
25.74000 482.849
25.75000 484.430
25.76000 485.814
25.77000 487.050
25.78000 486.451
25.79000 485.622
25.80000 484.726
25.81000 483.535
25.82000 482.309
25.83000 480.302
25.84000 475.972
25.85000 471.487
25.86000 468.463
25.87000 479.138
25.88000 487.370
25.89000 491.161
25.90000 488.974
25.91000 486.752
25.92000 481.697
25.93000 474.186
25.94000 466.761
25.95000 464.369
25.96000 464.848
25.97000 465.509
25.98000 469.745
25.99000 475.364
26.00000 480.578
26.01000 481.689
26.02000 481.732
26.03000 481.770
26.04000 472.783
26.05000 463.752
26.06000 458.520
26.07000 468.314
26.08000 479.650
26.09000 486.130
26.10000 479.710
26.11000 472.595
26.12000 467.993
26.13000 470.075
26.14000 471.697
26.15000 471.277
26.16000 468.429
26.17000 465.599
26.18000 467.854
26.19000 474.002
26.20000 480.045
26.21000 482.715
26.22000 483.631
26.23000 484.347
26.24000 481.899
26.25000 478.357
26.26000 475.544
26.27000 479.032
26.28000 483.975
26.29000 488.226
26.30000 482.114
26.31000 475.643
26.32000 470.087
26.33000 467.743
26.34000 465.679
26.35000 465.856
26.36000 471.351
26.37000 477.072
26.38000 480.609
26.39000 461.672
26.40000 447.853
26.41000 446.018
26.42000 456.727
26.43000 467.363
26.44000 469.660
26.45000 466.298
26.46000 463.017
26.47000 467.598
26.48000 475.408
26.49000 482.528
26.50000 480.660
26.51000 476.022
26.52000 471.740
26.53000 470.105
26.54000 469.010
26.55000 468.089
26.56000 472.515
26.57000 476.780
26.58000 478.843
26.59000 474.011
26.60000 468.679
26.61000 465.958
26.62000 468.768
26.63000 471.757
26.64000 473.517
26.65000 466.989
26.66000 462.341
26.67000 462.176
26.68000 466.124
26.69000 470.004
26.70000 469.431
26.71000 466.172
26.72000 463.016
26.73000 462.976
26.74000 464.138
26.75000 465.324
26.76000 466.777
26.77000 468.303
26.78000 468.687
26.79000 461.676
26.80000 453.336
26.81000 446.477
26.82000 448.452
26.83000 450.876
26.84000 454.090
26.85000 459.515
26.86000 465.071
26.87000 468.133
26.88000 466.479
26.89000 464.715
26.90000 463.730
26.91000 459.842
26.92000 457.164
26.93000 461.625
26.94000 471.860
26.95000 481.868
26.96000 481.846
26.97000 476.433
26.98000 471.239
26.99000 472.702
27.00000 476.330
27.01000 478.751
27.02000 469.984
27.03000 458.491
27.04000 448.838
27.05000 449.619
27.06000 452.039
27.07000 453.981
27.08000 460.162
27.09000 465.489
27.10000 467.663
27.11000 461.974
27.12000 455.911
27.13000 452.924
27.14000 455.120
27.15000 457.400
27.16000 458.599
27.17000 461.244
27.18000 463.033
27.19000 463.959
27.20000 464.268
27.21000 464.489
27.22000 461.874
27.23000 457.900
27.24000 454.127
27.25000 454.766
27.26000 456.675
27.27000 458.713
27.28000 461.770
27.29000 465.046
27.30000 466.504
27.31000 458.897
27.32000 450.050
27.33000 443.145
27.34000 449.630
27.35000 455.642
27.36000 459.834
27.37000 459.971
27.38000 459.958
27.39000 458.214
27.40000 453.876
27.41000 449.514
27.42000 451.306
27.43000 459.085
27.44000 466.822
27.45000 471.090
27.46000 473.156
27.47000 475.052
27.48000 472.845
27.49000 468.882
27.50000 465.163
27.51000 465.260
27.52000 466.355
27.53000 467.245
27.54000 466.731
27.55000 465.950
27.56000 465.956
27.57000 469.427
27.58000 473.307
27.59000 476.248
27.60000 462.072
27.61000 450.067
27.62000 444.318
27.63000 451.011
27.64000 458.045
27.65000 460.167
27.66000 455.762
27.67000 451.328
27.68000 447.984
27.69000 445.577
27.70000 443.345
27.71000 450.302
27.72000 462.455
27.73000 473.713
27.74000 467.823
27.75000 455.376
27.76000 443.851
27.77000 445.394
27.78000 449.801
27.79000 452.979
27.80000 448.767
27.81000 443.320
27.82000 439.851
27.83000 444.105
27.84000 449.139
27.85000 452.835
27.86000 449.372
27.87000 446.405
27.88000 443.684
27.89000 441.401
27.90000 439.126
27.91000 441.495
27.92000 449.317
27.93000 457.126
27.94000 457.034
27.95000 451.015
27.96000 445.134
27.97000 444.380
27.98000 446.211
27.99000 447.988
28.00000 448.931
28.01000 449.589
28.02000 450.190
28.03000 449.202
28.04000 448.004
28.05000 447.740
28.06000 452.406
28.07000 457.791
28.08000 461.648
28.09000 460.202
28.10000 458.304
28.11000 456.957
28.12000 456.101
28.13000 455.465
28.14000 453.762
28.15000 450.373
28.16000 446.962
28.17000 449.801
28.18000 459.090
28.19000 468.325
28.20000 463.810
28.21000 450.267
28.22000 437.353
28.23000 441.655
28.24000 453.711
28.25000 464.326
28.26000 456.526
28.27000 443.123
28.28000 431.086
28.29000 434.343
28.30000 439.888
28.31000 444.518
28.32000 444.893
28.33000 444.732
28.34000 445.309
28.35000 448.176
28.36000 451.204
28.37000 453.274
28.38000 453.155
28.39000 453.014
28.40000 450.529
28.41000 444.756
28.42000 438.963
28.43000 437.354
28.44000 439.531
28.45000 441.686
28.46000 441.483
28.47000 439.910
28.48000 438.395
28.49000 438.140
28.50000 438.391
28.51000 438.894
28.52000 442.100
28.53000 446.039
28.54000 449.515
28.55000 447.416
28.56000 444.752
28.57000 443.442
28.58000 447.708
28.59000 452.577
28.60000 454.643
28.61000 448.971
28.62000 442.850
28.63000 438.833
28.64000 446.601
28.65000 452.513
28.66000 452.497
28.67000 445.122
28.68000 437.729
28.69000 431.029
28.70000 424.882
28.71000 418.828
28.72000 420.417
28.73000 425.893
28.74000 431.366
28.75000 436.782
28.76000 442.179
28.77000 447.087
28.78000 447.547
28.79000 446.937
28.80000 446.409
28.81000 447.299
28.82000 448.242
28.83000 449.179
28.84000 450.089
28.85000 450.997
28.86000 450.056
28.87000 444.558
28.88000 438.850
28.89000 435.265
28.90000 435.671
28.91000 436.009
28.92000 437.003
28.93000 438.717
28.94000 440.426
28.95000 441.432
28.96000 441.941
28.97000 442.440
28.98000 443.526
28.99000 444.836
29.00000 445.909
29.01000 443.678
29.02000 440.390
29.03000 437.800
29.04000 440.686
29.05000 444.737
29.06000 448.172
29.07000 444.615
29.08000 440.843
29.09000 438.205
29.10000 439.262
29.11000 440.605
29.12000 441.347
29.13000 440.770
29.14000 440.145
29.15000 439.771
29.16000 446.868
29.17000 451.955
29.18000 454.364
29.19000 454.206
29.20000 454.011
29.21000 451.000
29.22000 446.224
29.23000 441.585
29.24000 435.479
29.25000 429.092
29.26000 423.471
29.27000 426.697
29.28000 432.448
29.29000 437.246
29.30000 435.570
29.31000 432.679
29.32000 430.282
29.33000 426.314
29.34000 422.886
29.35000 421.072
29.36000 423.945
29.37000 427.117
29.38000 431.157
29.39000 436.905
29.40000 442.699
29.41000 445.992
29.42000 446.491
29.43000 446.827
29.44000 445.018
29.45000 441.401
29.46000 437.826
29.47000 436.347
29.48000 436.041
29.49000 435.746
29.50000 433.651
29.51000 431.047
29.52000 428.854
29.53000 430.687
29.54000 433.541
29.55000 435.955
29.56000 435.761
29.57000 435.139
29.58000 434.635
29.59000 443.580
29.60000 451.621
29.61000 454.933
29.62000 445.983
29.63000 436.404
29.64000 430.627
29.65000 431.509
29.66000 432.515
29.67000 433.055
29.68000 435.954
29.69000 437.938
29.70000 440.300
29.71000 442.943
29.72000 445.654
29.73000 450.777
29.74000 457.103
29.75000 463.132
29.76000 471.418
29.77000 479.806
29.78000 486.884
29.79000 483.009
29.80000 476.671
29.81000 472.341
29.82000 478.463
29.83000 486.084
29.84000 492.089
29.85000 483.735
29.86000 476.076
29.87000 473.037
29.88000 480.694
29.89000 488.782
29.90000 491.823
29.91000 486.997
29.92000 482.077
29.93000 479.597
29.94000 468.327
29.95000 460.890
29.96000 462.979
29.97000 471.369
29.98000 479.579
29.99000 483.002
30.00000 484.296
30.01000 485.514
30.02000 479.938
30.03000 472.964
30.04000 466.211
30.05000 461.053
30.06000 456.210
30.07000 452.749
30.08000 455.626
30.09000 459.290
30.10000 462.096
30.11000 462.209
30.12000 462.150
30.13000 462.924
30.14000 465.419
30.15000 467.966
30.16000 467.322
30.17000 462.259
30.18000 457.171
30.19000 455.209
30.20000 456.036
30.21000 456.862
30.22000 457.561
30.23000 458.185
30.24000 458.719
30.25000 457.398
30.26000 455.340
30.27000 453.426
30.28000 454.339
30.29000 455.847
30.30000 456.636
30.31000 452.906
30.32000 448.386
30.33000 446.162
30.34000 453.269
30.35000 461.371
30.36000 467.386
30.37000 461.783
30.38000 456.918
30.39000 454.914
30.40000 458.187
30.41000 461.575
30.42000 464.349
30.43000 466.371
30.44000 468.387
30.45000 466.608
30.46000 461.866
30.47000 457.211
30.48000 456.181
30.49000 457.051
30.50000 457.710
30.51000 454.875
30.52000 450.800
30.53000 447.062
30.54000 452.915
30.55000 460.161
30.56000 465.658
30.57000 461.521
30.58000 455.912
30.59000 452.812
30.60000 458.774
30.61000 465.554
30.62000 470.421
30.63000 473.765
30.64000 476.269
30.65000 476.618
30.66000 473.428
30.67000 470.185
30.68000 470.335
30.69000 474.143
30.70000 477.935
30.71000 478.528
30.72000 476.910
30.73000 475.600
30.74000 483.584
30.75000 495.917
30.76000 507.873
30.77000 514.712
30.78000 519.931
30.79000 524.644
30.80000 522.263
30.81000 518.860
30.82000 517.037
30.83000 522.882
30.84000 529.744
30.85000 537.952
30.86000 550.489
30.87000 563.354
30.88000 572.260
30.89000 603.004
30.90000 626.706
30.91000 645.633
30.92000 657.587
30.93000 669.484
30.94000 692.275
30.95000 725.370
30.96000 758.189
30.97000 809.325
30.98000 870.669
30.99000 932.904
31.00000 1015.656
31.01000 1106.982
31.02000 1198.473
31.03000 1291.830
31.04000 1385.713
31.05000 1469.077
31.06000 1614.224
31.07000 1749.966
31.08000 1888.980
31.09000 2042.034
31.10000 2196.691
31.11000 2349.502
31.12000 2497.019
31.13000 2644.205
31.14000 2742.171
31.15000 3000.831
31.16000 3195.256
31.17000 3377.427
31.18000 3543.739
31.19000 3709.918
31.20000 3842.366
31.21000 3946.745
31.22000 4049.750
31.23000 4127.150
31.24000 4188.715
31.25000 4247.398
31.26000 4253.508
31.27000 4240.001
31.28000 4226.145
31.29000 4208.939
31.30000 4190.894
31.31000 4175.166
31.32000 4069.395
31.33000 3966.509
31.34000 3856.162
31.35000 3717.413
31.36000 3575.897
31.37000 3419.447
31.38000 3224.754
31.39000 3028.147
31.40000 2902.753
31.41000 2683.643
31.42000 2523.087
31.43000 2357.275
31.44000 2185.457
31.45000 2013.722
31.46000 1857.736
31.47000 1713.337
31.48000 1571.699
31.49000 1453.567
31.50000 1350.899
31.51000 1248.798
31.52000 1155.087
31.53000 1064.171
31.54000 976.540
31.55000 915.970
31.56000 861.406
31.57000 814.797
31.58000 767.736
31.59000 728.036
31.60000 690.914
31.61000 662.521
31.62000 634.845
31.63000 612.933
31.64000 604.203
31.65000 595.989
31.66000 590.988
31.67000 566.859
31.68000 549.470
31.69000 535.360
31.70000 524.539
31.71000 513.790
31.72000 509.712
31.73000 509.989
31.74000 510.259
31.75000 502.945
31.76000 492.797
31.77000 483.204
31.78000 480.414
31.79000 479.643
31.80000 479.072
31.81000 479.916
31.82000 481.037
31.83000 481.974
31.84000 480.639
31.85000 479.300
31.86000 475.338
31.87000 463.455
31.88000 451.034
31.89000 443.721
31.90000 446.840
31.91000 450.265
31.92000 452.248
31.93000 457.994
31.94000 462.030
31.95000 457.948
31.96000 446.717
31.97000 435.602
31.98000 431.092
31.99000 430.420
32.00000 429.770
32.01000 430.874
32.02000 432.561
32.03000 433.203
32.04000 423.037
32.05000 410.018
32.06000 398.246
32.07000 394.210
32.08000 391.505
32.09000 389.298
32.10000 407.809
32.11000 424.726
32.12000 434.733
32.13000 426.129
32.14000 416.496
32.15000 409.338
32.16000 406.690
32.17000 404.137
32.18000 402.739
32.19000 420.037
32.20000 431.916
32.21000 432.265
32.22000 423.655
32.23000 415.153
32.24000 410.927
32.25000 408.914
32.26000 406.989
32.27000 409.750
32.28000 413.848
32.29000 417.736
32.30000 419.766
32.31000 421.361
32.32000 422.070
32.33000 417.963
32.34000 413.131
32.35000 409.289
32.36000 407.957
32.37000 407.063
32.38000 405.059
32.39000 400.384
32.40000 395.591
32.41000 392.430
32.42000 391.917
32.43000 391.439
32.44000 391.193
32.45000 392.732
32.46000 393.738
32.47000 391.065
32.48000 385.860
32.49000 381.090
32.50000 389.010
32.51000 402.794
32.52000 415.834
32.53000 415.762
32.54000 411.930
32.55000 407.836
32.56000 401.750
32.57000 395.252
32.58000 389.286
32.59000 385.869
32.60000 382.784
32.61000 380.399
32.62000 376.905
32.63000 374.066
32.64000 374.575
32.65000 382.272
32.66000 390.211
32.67000 396.262
32.68000 399.593
32.69000 402.902
32.70000 399.756
32.71000 390.596
32.72000 381.513
32.73000 377.774
32.74000 377.306
32.75000 377.138
32.76000 383.723
32.77000 393.096
32.78000 401.854
32.79000 400.610
32.80000 396.955
32.81000 393.833
32.82000 394.217
32.83000 395.241
32.84000 398.714
32.85000 412.553
32.86000 427.558
32.87000 438.816
32.88000 445.484
32.89000 450.474
32.90000 455.500
32.91000 460.592
32.92000 465.686
32.93000 472.891
32.94000 482.793
32.95000 492.692
32.96000 496.410
32.97000 495.059
32.98000 493.791
32.99000 496.443
33.00000 501.229
33.01000 505.599
33.02000 502.541
33.03000 496.744
33.04000 491.400
33.05000 485.045
33.06000 479.132
33.07000 471.479
33.08000 453.811
33.09000 434.541
33.10000 420.329
33.11000 425.123
33.12000 431.736
33.13000 436.538
33.14000 424.349
33.15000 414.339
33.16000 408.176
33.17000 408.590
33.18000 409.115
33.19000 400.408
33.20000 381.297
33.21000 362.246
33.22000 358.187
33.23000 364.958
33.24000 371.621
33.25000 374.717
33.26000 376.078
33.27000 377.160
33.28000 374.190
33.29000 369.888
33.30000 365.981
33.31000 367.722
33.32000 370.352
33.33000 371.656
33.34000 366.247
33.35000 359.902
33.36000 357.360
33.37000 367.532
33.38000 378.728
33.39000 386.577
33.40000 374.902
33.41000 365.507
33.42000 360.772
33.43000 363.123
33.44000 365.548
33.45000 364.232
33.46000 359.217
33.47000 354.236
33.48000 350.578
33.49000 347.816
33.50000 345.456
33.51000 353.213
33.52000 365.362
33.53000 376.221
33.54000 371.542
33.55000 362.307
33.56000 354.059
33.57000 348.346
33.58000 343.796
33.59000 341.228
33.60000 347.525
33.61000 354.889
33.62000 360.748
33.63000 362.123
33.64000 363.199
33.65000 363.925
33.66000 363.187
33.67000 362.607
33.68000 359.647
33.69000 353.478
33.70000 347.295
33.71000 344.199
33.72000 343.784
33.73000 343.373
33.74000 343.044
33.75000 342.770
33.76000 342.717
33.77000 347.010
33.78000 352.988
33.79000 358.331
33.80000 357.215
33.81000 354.415
33.82000 351.959
33.83000 345.388
33.84000 339.145
33.85000 335.468
33.86000 341.963
33.87000 349.506
33.88000 353.322
33.89000 347.223
33.90000 340.589
33.91000 336.294
33.92000 342.449
33.93000 347.106
33.94000 346.662
33.95000 340.139
33.96000 333.627
33.97000 332.304
33.98000 334.960
33.99000 337.571
34.00000 343.103
34.01000 349.898
34.02000 356.165
34.03000 354.071
34.04000 349.084
34.05000 344.721
34.06000 345.777
34.07000 348.086
34.08000 350.072
34.09000 337.159
34.10000 324.357
34.11000 317.085
34.12000 329.290
34.13000 343.191
34.14000 352.415
34.15000 350.527
34.16000 348.165
34.17000 346.704
34.18000 342.075
34.19000 338.717
34.20000 336.397
34.21000 335.163
34.22000 333.984
34.23000 339.003
34.24000 348.233
34.25000 357.245
34.26000 357.399
34.27000 353.677
34.28000 350.003
34.29000 346.951
34.30000 344.090
34.31000 341.318
34.32000 339.204
34.33000 337.225
34.34000 335.559
34.35000 340.312
34.36000 344.967
34.37000 347.974
34.38000 345.813
34.39000 343.277
34.40000 341.672
34.41000 342.043
34.42000 342.479
34.43000 342.736
34.44000 339.496
34.45000 337.193
34.46000 337.702
34.47000 340.798
34.48000 343.832
34.49000 342.705
34.50000 339.065
34.51000 335.540
34.52000 334.190
34.53000 333.752
34.54000 333.452
34.55000 334.669
34.56000 336.302
34.57000 337.006
34.58000 331.676
34.59000 325.259
34.60000 319.980
34.61000 320.347
34.62000 321.161
34.63000 324.709
34.64000 335.907
34.65000 347.561
34.66000 351.110
34.67000 339.314
34.68000 327.154
34.69000 320.364
34.70000 336.732
34.71000 348.093
34.72000 350.982
34.73000 347.009
34.74000 343.057
34.75000 340.085
34.76000 337.640
34.77000 335.293
34.78000 334.580
34.79000 334.469
34.80000 334.339
34.81000 334.031
34.82000 333.679
34.83000 333.238
34.84000 332.291
34.85000 331.265
34.86000 330.441
34.87000 336.042
34.88000 341.068
34.89000 343.984
34.90000 341.629
34.91000 339.023
34.92000 335.539
34.93000 330.571
34.94000 325.580
34.95000 322.952
34.96000 325.858
34.97000 327.820
34.98000 328.039
34.99000 327.007
35.00000 326.047
35.01000 327.425
35.02000 329.927
35.03000 332.302
35.04000 328.504
35.05000 323.147
35.06000 318.005
35.07000 314.585
35.08000 311.536
35.09000 309.297
35.10000 311.097
35.11000 313.451
35.12000 315.289
35.13000 323.689
35.14000 330.802
35.15000 334.074
35.16000 328.776
35.17000 323.161
35.18000 323.370
35.19000 332.321
35.20000 341.358
35.21000 341.162
35.22000 331.967
35.23000 322.880
35.24000 322.712
35.25000 328.220
35.26000 333.403
35.27000 330.624
35.28000 324.432
35.29000 318.621
35.30000 320.512
35.31000 324.268
35.32000 328.074
35.33000 332.226
35.34000 336.444
35.35000 339.247
35.36000 335.811
35.37000 331.637
35.38000 328.472
35.39000 325.718
35.40000 323.575
35.41000 322.600
35.42000 323.949
35.43000 325.362
35.44000 325.482
35.45000 323.881
35.46000 322.273
35.47000 320.286
35.48000 317.980
35.49000 315.696
35.50000 314.618
35.51000 314.223
35.52000 313.972
35.53000 316.479
35.54000 320.042
35.55000 323.343
35.56000 328.180
35.57000 332.887
35.58000 336.391
35.59000 332.650
35.60000 327.697
35.61000 323.040
35.62000 319.546
35.63000 316.170
35.64000 313.690
35.65000 314.164
35.66000 314.650
35.67000 313.856
35.68000 310.785
35.69000 307.671
35.70000 311.513
35.71000 323.537
35.72000 335.542
35.73000 335.611
35.74000 326.710
35.75000 317.985
35.76000 315.795
35.77000 316.907
35.78000 317.514
35.79000 310.290
35.80000 300.388
35.81000 291.349
35.82000 300.223
35.83000 311.725
35.84000 321.519
35.85000 322.286
35.86000 321.735
35.87000 319.651
35.88000 312.234
35.89000 304.362
35.90000 298.775
35.91000 296.624
35.92000 295.095
35.93000 298.516
35.94000 309.765
35.95000 321.112
35.96000 326.686
35.97000 326.292
35.98000 325.900
35.99000 325.110
36.00000 324.067
36.01000 323.005
36.02000 321.401
36.03000 319.553
36.04000 317.998
36.05000 320.191
36.06000 323.527
36.07000 326.524
36.08000 323.435
36.09000 319.658
36.10000 316.582
36.11000 316.772
36.12000 317.375
36.13000 318.309
36.14000 320.270
36.15000 322.304
36.16000 323.695
36.17000 309.748
36.18000 298.947
36.19000 292.730
36.20000 292.954
36.21000 293.224
36.22000 297.131
36.23000 304.333
36.24000 311.466
36.25000 311.327
36.26000 306.944
36.27000 302.859
36.28000 305.140
36.29000 309.986
36.30000 314.111
36.31000 310.495
36.32000 304.778
36.33000 299.732
36.34000 306.730
36.35000 314.615
36.36000 320.333
36.37000 317.114
36.38000 312.923
36.39000 309.500
36.40000 308.196
36.41000 307.015
36.42000 306.239
36.43000 304.981
36.44000 304.047
36.45000 306.366
36.46000 312.732
36.47000 319.084
36.48000 316.935
36.49000 307.991
36.50000 299.181
36.51000 299.361
36.52000 304.173
36.53000 308.662
36.54000 307.680
36.55000 304.730
36.56000 302.410
36.57000 305.844
36.58000 310.664
36.59000 314.839
36.60000 315.567
36.61000 315.730
36.62000 314.210
36.63000 306.521
36.64000 298.264
36.65000 293.127
36.66000 295.697
36.67000 298.625
36.68000 300.465
36.69000 304.272
36.70000 307.047
36.71000 308.335
36.72000 307.994
36.73000 307.636
36.74000 304.989
36.75000 300.722
36.76000 296.546
36.77000 291.210
36.78000 285.558
36.79000 280.893
36.80000 289.971
36.81000 303.460
36.82000 315.832
36.83000 319.435
36.84000 321.169
36.85000 322.639
36.86000 317.529
36.87000 312.500
36.88000 309.269
36.89000 311.906
36.90000 314.996
36.91000 316.304
36.92000 313.680
36.93000 310.915
36.94000 309.258
36.95000 309.330
36.96000 309.393
36.97000 308.031
36.98000 305.300
36.99000 302.551
37.00000 298.309
37.01000 293.130
37.02000 288.099
37.03000 291.668
37.04000 298.516
37.05000 305.154
37.06000 309.343
37.07000 312.832
37.08000 315.877
37.09000 315.902
37.10000 315.358
37.11000 314.907
37.12000 308.060
37.13000 301.787
37.14000 298.258
37.15000 302.710
37.16000 307.670
37.17000 309.754
37.18000 306.177
37.19000 302.449
37.20000 300.329
37.21000 309.369
37.22000 315.691
37.23000 314.905
37.24000 308.111
37.25000 301.486
37.26000 303.386
37.27000 310.058
37.28000 316.480
37.29000 312.507
37.30000 305.087
37.31000 298.019
37.32000 294.416
37.33000 291.694
37.34000 289.669
37.35000 291.791
37.36000 294.596
37.37000 296.866
37.38000 300.981
37.39000 304.479
37.40000 306.237
37.41000 303.477
37.42000 300.484
37.43000 302.349
37.44000 312.737
37.45000 323.284
37.46000 328.952
37.47000 327.761
37.48000 326.924
37.49000 322.632
37.50000 315.760
37.51000 309.017
37.52000 306.857
37.53000 306.985
37.54000 307.106
37.55000 299.289
37.56000 289.555
37.57000 281.227
37.58000 284.683
37.59000 290.794
37.60000 296.801
37.61000 302.268
37.62000 307.658
37.63000 311.906
37.64000 309.652
37.65000 307.408
37.66000 307.645
37.67000 313.636
37.68000 319.859
37.69000 318.254
37.70000 304.419
37.71000 290.439
37.72000 283.382
37.73000 289.970
37.74000 294.429
37.75000 304.098
37.76000 317.219
37.77000 329.661
37.78000 324.024
37.79000 310.330
37.80000 297.425
37.81000 295.611
37.82000 297.007
37.83000 297.736
37.84000 293.632
37.85000 288.565
37.86000 285.251
37.87000 289.997
37.88000 295.746
37.89000 300.151
37.90000 302.195
37.91000 303.679
37.92000 304.973
37.93000 305.876
37.94000 306.766
37.95000 305.792
37.96000 302.234
37.97000 298.660
37.98000 300.364
37.99000 306.781
38.00000 313.070
38.01000 311.641
38.02000 305.665
38.03000 300.028
38.04000 301.448
38.05000 305.677
38.06000 309.611
38.07000 308.094
38.08000 305.403
38.09000 303.315
38.10000 305.022
38.11000 307.393
38.12000 309.130
38.13000 308.278
38.14000 307.151
38.15000 306.313
38.16000 308.753
38.17000 310.795
38.18000 309.614
38.19000 302.481
38.20000 295.217
38.21000 294.546
38.22000 301.966
38.23000 309.393
38.24000 315.043
38.25000 319.271
38.26000 323.481
38.27000 326.929
38.28000 329.978
38.29000 333.232
38.30000 339.902
38.31000 347.786
38.32000 355.019
38.33000 357.359
38.34000 358.407
38.35000 359.822
38.36000 363.266
38.37000 367.020
38.38000 372.722
38.39000 385.469
38.40000 398.855
38.41000 408.469
38.42000 419.616
38.43000 428.195
38.44000 437.019
38.45000 446.245
38.46000 455.476
38.47000 463.478
38.48000 470.151
38.49000 476.794
38.50000 480.246
38.51000 481.456
38.52000 482.896
38.53000 491.276
38.54000 502.908
38.55000 513.851
38.56000 515.388
38.57000 513.944
38.58000 512.639
38.59000 511.311
38.60000 510.139
38.61000 509.335
38.62000 510.319
38.63000 511.541
38.64000 510.156
38.65000 500.374
38.66000 489.956
38.67000 482.739
38.68000 480.499
38.69000 478.943
38.70000 476.133
38.71000 471.485
38.72000 466.821
38.73000 460.380
38.74000 452.255
38.75000 444.197
38.76000 433.480
38.77000 421.339
38.78000 409.295
38.79000 399.495
38.80000 390.636
38.81000 381.972
38.82000 375.549
38.83000 369.759
38.84000 364.616
38.85000 358.062
38.86000 352.153
38.87000 344.927
38.88000 332.037
38.89000 318.499
38.90000 308.228
38.91000 307.344
38.92000 307.046
38.93000 306.847
38.94000 297.175
38.95000 289.837
38.96000 287.410
38.97000 291.352
38.98000 295.317
38.99000 298.153
39.00000 300.050
39.01000 301.921
39.02000 299.544
39.03000 294.945
39.04000 290.507
39.05000 289.005
39.06000 288.601
39.07000 288.395
39.08000 290.099
39.09000 292.283
39.10000 294.187
39.11000 287.517
39.12000 280.623
39.13000 274.837
39.14000 273.276
39.15000 272.127
39.16000 273.821
39.17000 282.806
39.18000 292.157
39.19000 298.125
39.20000 294.235
39.21000 291.277
39.22000 288.901
39.23000 287.192
39.24000 285.483
39.25000 283.786
39.26000 282.096
39.27000 280.439
39.28000 278.571
39.29000 276.670
39.30000 275.123
39.31000 278.846
39.32000 284.326
39.33000 289.264
39.34000 289.725
39.35000 289.190
39.36000 288.733
39.37000 287.726
39.38000 286.812
39.39000 284.111
39.40000 275.353
39.41000 266.096
39.42000 261.679
39.43000 268.350
39.44000 275.456
39.45000 279.786
39.46000 278.332
39.47000 277.246
39.48000 280.561
39.49000 288.298
39.50000 295.904
39.51000 291.274
39.52000 278.640
39.53000 266.337
39.54000 267.974
39.55000 275.386
39.56000 282.353
39.57000 283.851
39.58000 283.723
39.59000 283.845
39.60000 285.752
39.61000 288.010
39.62000 289.897
39.63000 282.169
39.64000 274.773
39.65000 269.467
39.66000 270.479
39.67000 271.922
39.68000 271.979
39.69000 269.202
39.70000 266.341
39.71000 264.683
39.72000 266.066
39.73000 267.049
39.74000 268.591
39.75000 270.626
39.76000 272.630
39.77000 272.871
39.78000 272.086
39.79000 271.327
39.80000 272.466
39.81000 274.242
39.82000 275.318
39.83000 269.143
39.84000 261.051
39.85000 254.867
39.86000 260.541
39.87000 268.261
39.88000 274.562
39.89000 277.394
39.90000 279.413
39.91000 279.942
39.92000 276.451
39.93000 272.738
39.94000 271.570
39.95000 275.047
39.96000 278.622
39.97000 280.582
39.98000 280.119
39.99000 279.790
40.00000 277.633
40.01000 274.053
40.02000 270.660
40.03000 274.710
40.04000 282.620
40.05000 290.185
40.06000 288.083
40.07000 282.967
40.08000 277.762
40.09000 271.778
40.10000 265.610
40.11000 260.268
40.12000 259.424
40.13000 259.259
40.14000 259.127
40.15000 261.916
40.16000 264.372
40.17000 267.279
40.18000 271.271
40.19000 275.311
40.20000 276.134
40.21000 271.729
40.22000 267.251
40.23000 264.941
40.24000 261.522
40.25000 259.253
40.26000 261.258
40.27000 266.210
40.28000 271.033
40.29000 272.058
40.30000 271.326
40.31000 270.633
40.32000 266.489
40.33000 261.685
40.34000 258.154
40.35000 264.291
40.36000 272.437
40.37000 277.982
40.38000 271.053
40.39000 262.492
40.40000 255.868
40.41000 259.426
40.42000 262.850
40.43000 263.852
40.44000 259.643
40.45000 255.258
40.46000 255.291
40.47000 261.705
40.48000 268.169
40.49000 270.165
40.50000 267.988
40.51000 265.799
40.52000 262.770
40.53000 259.228
40.54000 255.816
40.55000 255.323
40.56000 256.037
40.57000 256.704
40.58000 255.541
40.59000 254.021
40.60000 253.200
40.61000 256.988
40.62000 261.619
40.63000 266.162
40.64000 270.327
40.65000 274.449
40.66000 277.544
40.67000 269.560
40.68000 262.793
40.69000 257.787
40.70000 256.165
40.71000 254.626
40.72000 255.752
40.73000 260.287
40.74000 264.829
40.75000 262.721
40.76000 255.171
40.77000 247.787
40.78000 248.183
40.79000 252.828
40.80000 257.153
40.81000 255.770
40.82000 252.280
40.83000 249.062
40.84000 252.841
40.85000 257.777
40.86000 262.247
40.87000 264.020
40.88000 265.361
40.89000 265.243
40.90000 259.625
40.91000 253.480
40.92000 249.015
40.93000 257.016
40.94000 263.639
40.95000 266.025
40.96000 261.157
40.97000 256.166
40.98000 254.017
40.99000 255.077
41.00000 256.135
41.01000 256.274
41.02000 255.749
41.03000 255.158
41.04000 252.376
41.05000 248.529
41.06000 244.704
41.07000 241.212
41.08000 237.831
41.09000 234.760
41.10000 240.439
41.11000 247.152
41.12000 253.451
41.13000 257.650
41.14000 261.555
41.15000 263.745
41.16000 260.188
41.17000 256.166
41.18000 253.346
41.19000 253.826
41.20000 254.286
41.21000 253.901
41.22000 252.232
41.23000 250.549
41.24000 254.596
41.25000 264.319
41.26000 273.975
41.27000 270.720
41.28000 259.305
41.29000 248.437
41.30000 251.328
41.31000 260.202
41.32000 268.272
41.33000 266.638
41.34000 262.154
41.35000 258.148
41.36000 259.348
41.37000 261.271
41.38000 262.422
41.39000 260.112
41.40000 257.384
41.41000 254.140
41.42000 249.355
41.43000 244.467
41.44000 241.167
41.45000 247.472
41.46000 252.370
41.47000 255.738
41.48000 257.039
41.49000 258.327
41.50000 257.573
41.51000 255.043
41.52000 252.541
41.53000 250.532
41.54000 248.846
41.55000 247.292
41.56000 248.323
41.57000 250.358
41.58000 252.110
41.59000 250.992
41.60000 249.125
41.61000 247.486
41.62000 246.574
41.63000 245.896
41.64000 244.556
41.65000 240.584
41.66000 236.341
41.67000 232.512
41.68000 229.786
41.69000 227.120
41.70000 225.393
41.71000 237.824
41.72000 247.131
41.73000 253.959
41.74000 257.828
41.75000 261.663
41.76000 259.051
41.77000 251.487
41.78000 244.051
41.79000 242.237
41.80000 243.269
41.81000 244.280
41.82000 244.958
41.83000 245.521
41.84000 246.274
41.85000 248.684
41.86000 251.478
41.87000 253.882
41.88000 246.584
41.89000 239.184
41.90000 235.042
41.91000 242.401
41.92000 250.763
41.93000 256.592
41.94000 256.390
41.95000 255.930
41.96000 255.645
41.97000 257.372
41.98000 258.632
41.99000 255.684
42.00000 248.315
42.01000 240.993
42.02000 239.076
42.03000 240.838
42.04000 242.559
42.05000 242.935
42.06000 242.708
42.07000 242.828
42.08000 247.507
42.09000 253.596
42.10000 258.061
42.11000 250.365
42.12000 240.179
42.13000 231.599
42.14000 234.205
42.15000 237.581
42.16000 240.731
42.17000 243.172
42.18000 245.560
42.19000 246.065
42.20000 242.566
42.21000 238.935
42.22000 236.795
42.23000 235.066
42.24000 233.849
42.25000 234.550
42.26000 237.019
42.27000 239.434
42.28000 238.177
42.29000 234.698
42.30000 231.329
42.31000 228.882
42.32000 226.924
42.33000 225.680
42.34000 232.258
42.35000 240.989
42.36000 247.635
42.37000 240.719
42.38000 231.358
42.39000 223.653
42.40000 227.926
42.41000 232.531
42.42000 235.480
42.43000 233.788
42.44000 231.818
42.45000 231.900
42.46000 235.869
42.47000 239.932
42.48000 242.202
42.49000 250.385
42.50000 256.050
42.51000 255.842
42.52000 250.869
42.53000 245.931
42.54000 242.528
42.55000 239.953
42.56000 237.481
42.57000 238.620
42.58000 240.917
42.59000 242.799
42.60000 240.820
42.61000 237.898
42.62000 235.008
42.63000 232.306
42.64000 229.633
42.65000 227.487
42.66000 233.522
42.67000 239.036
42.68000 242.877
42.69000 242.533
42.70000 241.989
42.71000 241.047
42.72000 239.432
42.73000 237.806
42.74000 236.949
42.75000 242.758
42.76000 246.699
42.77000 250.031
42.78000 252.926
42.79000 255.606
42.80000 251.332
42.81000 243.713
42.82000 236.477
42.83000 237.187
42.84000 240.231
42.85000 243.301
42.86000 246.589
42.87000 249.923
42.88000 252.257
42.89000 249.583
42.90000 246.222
42.91000 243.597
42.92000 239.868
42.93000 236.824
42.94000 236.283
42.95000 241.338
42.96000 246.601
42.97000 249.774
42.98000 249.803
42.99000 249.800
43.00000 247.111
43.01000 241.797
43.02000 236.545
43.03000 236.356
43.04000 239.397
43.05000 242.412
43.06000 244.804
43.07000 246.928
43.08000 248.922
43.09000 242.924
43.10000 235.344
43.11000 228.781
43.12000 229.257
43.13000 231.078
43.14000 233.054
43.15000 235.720
43.16000 238.467
43.17000 240.551
43.18000 235.796
43.19000 231.709
43.20000 230.022
43.21000 233.123
43.22000 236.357
43.23000 237.617
43.24000 236.247
43.25000 234.864
43.26000 232.290
43.27000 228.703
43.28000 225.200
43.29000 226.123
43.30000 229.560
43.31000 232.905
43.32000 234.483
43.33000 235.384
43.34000 236.218
43.35000 239.390
43.36000 242.786
43.37000 244.612
43.38000 236.961
43.39000 227.721
43.40000 219.468
43.41000 215.085
43.42000 211.095
43.43000 208.163
43.44000 220.679
43.45000 230.990
43.46000 236.547
43.47000 233.642
43.48000 230.573
43.49000 228.263
43.50000 226.850
43.51000 225.443
43.52000 227.470
43.53000 232.071
43.54000 236.630
43.55000 239.615
43.56000 241.805
43.57000 243.449
43.58000 236.611
43.59000 226.868
43.60000 217.972
43.61000 222.791
43.62000 229.851
43.63000 235.279
43.64000 232.070
43.65000 227.597
43.66000 225.220
43.67000 230.146
43.68000 235.698
43.69000 239.641
43.70000 238.795
43.71000 237.998
43.72000 237.587
43.73000 237.785
43.74000 237.990
43.75000 238.062
43.76000 237.993
43.77000 237.925
43.78000 233.930
43.79000 227.381
43.80000 221.098
43.81000 222.162
43.82000 226.547
43.83000 230.685
43.84000 231.651
43.85000 231.650
43.86000 231.649
43.87000 234.953
43.88000 238.430
43.89000 241.176
43.90000 240.506
43.91000 239.404
43.92000 238.595
43.93000 238.702
43.94000 238.873
43.95000 238.990
43.96000 237.508
43.97000 236.360
43.98000 237.589
43.99000 242.162
44.00000 246.756
44.01000 245.882
44.02000 240.041
44.03000 234.256
44.04000 232.749
44.05000 233.776
44.06000 234.935
44.07000 238.901
44.08000 244.001
44.09000 248.882
44.10000 251.413
44.11000 253.305
44.12000 254.976
44.13000 240.419
44.14000 225.363
44.15000 214.648
44.16000 221.877
44.17000 231.059
44.18000 237.540
44.19000 236.539
44.20000 235.101
44.21000 234.157
44.22000 239.088
44.23000 242.817
44.24000 246.067
44.25000 248.719
44.26000 251.355
44.27000 249.307
44.28000 243.508
44.29000 237.795
44.30000 239.221
44.31000 244.294
44.32000 249.246
44.33000 252.121
44.34000 254.248
44.35000 256.079
44.36000 255.201
44.37000 253.668
44.38000 252.341
44.39000 254.910
44.40000 257.613
44.41000 259.527
44.42000 258.548
44.43000 257.302
44.44000 258.014
44.45000 263.568
44.46000 269.348
44.47000 272.983
44.48000 268.405
44.49000 265.001
44.50000 267.275
44.51000 275.783
44.52000 284.272
44.53000 289.656
44.54000 292.838
44.55000 295.953
44.56000 300.575
44.57000 305.701
44.58000 311.302
44.59000 323.540
44.60000 337.911
44.61000 351.251
44.62000 356.475
44.63000 359.964
44.64000 362.925
44.65000 374.961
44.66000 386.084
44.67000 399.535
44.68000 420.593
44.69000 442.242
44.70000 458.103
44.71000 461.183
44.72000 463.802
44.73000 465.373
44.74000 494.788
44.75000 515.867
44.76000 531.423
44.77000 541.663
44.78000 551.859
44.79000 558.632
44.80000 563.251
44.81000 567.738
44.82000 583.265
44.83000 602.463
44.84000 620.820
44.85000 629.391
44.86000 635.160
44.87000 641.476
44.88000 651.519
44.89000 662.265
44.90000 671.180
44.91000 677.025
44.92000 681.559
44.93000 682.854
44.94000 674.708
44.95000 665.958
44.96000 656.518
44.97000 645.717
44.98000 634.879
44.99000 628.709
45.00000 605.392
45.01000 589.089
45.02000 575.730
45.03000 564.864
45.04000 553.941
45.05000 540.119
45.06000 524.671
45.07000 509.796
45.08000 495.990
45.09000 483.409
45.10000 471.355
45.11000 464.480
45.12000 458.922
45.13000 452.001
45.14000 436.968
45.15000 420.594
45.16000 407.336
45.17000 401.449
45.18000 397.254
45.19000 390.049
45.20000 375.017
45.21000 359.580
45.22000 350.013
45.23000 350.766
45.24000 351.711
45.25000 352.220
45.26000 337.139
45.27000 326.834
45.28000 319.478
45.29000 314.329
45.30000 309.019
45.31000 297.917
45.32000 283.919
45.33000 270.576
45.34000 270.539
45.35000 274.679
45.36000 278.110
45.37000 275.585
45.38000 271.716
45.39000 267.575
45.40000 262.010
45.41000 256.241
45.42000 251.692
45.43000 246.160
45.44000 241.658
45.45000 238.503
45.46000 238.479
45.47000 238.582
45.48000 241.556
45.49000 249.022
45.50000 256.543
45.51000 260.342
45.52000 252.248
45.53000 246.838
45.54000 241.917
45.55000 237.321
45.56000 232.872
45.57000 232.346
45.58000 233.572
45.59000 234.728
45.60000 227.513
45.61000 218.596
45.62000 211.662
45.63000 219.118
45.64000 229.444
45.65000 237.384
45.66000 234.336
45.67000 229.917
45.68000 226.530
45.69000 226.293
45.70000 226.280
45.71000 226.297
45.72000 226.376
45.73000 226.457
45.74000 226.595
45.75000 226.811
45.76000 227.027
45.77000 225.526
45.78000 222.490
45.79000 219.503
45.80000 219.492
45.81000 221.238
45.82000 222.824
45.83000 221.071
45.84000 217.987
45.85000 215.117
45.86000 215.662
45.87000 216.983
45.88000 217.724
45.89000 214.805
45.90000 211.244
45.91000 209.080
45.92000 212.615
45.93000 216.760
45.94000 219.841
45.95000 219.817
45.96000 219.661
45.97000 217.929
45.98000 213.281
45.99000 208.569
46.00000 208.609
46.01000 214.492
46.02000 220.378
46.03000 219.877
46.04000 214.355
46.05000 208.980
46.06000 209.724
46.07000 213.686
46.08000 217.508
46.09000 219.001
46.10000 219.664
46.11000 220.272
46.12000 218.542
46.13000 216.501
46.14000 215.083
46.15000 217.107
46.16000 219.658
46.17000 221.217
46.18000 219.178
46.19000 216.812
46.20000 215.111
46.21000 212.927
46.22000 211.240
46.23000 213.954
46.24000 223.926
46.25000 234.005
46.26000 235.076
46.27000 226.393
46.28000 217.746
46.29000 213.314
46.30000 211.849
46.31000 210.340
46.32000 207.490
46.33000 204.010
46.34000 200.992
46.35000 204.301
46.36000 209.619
46.37000 214.424
46.38000 216.438
46.39000 217.692
46.40000 217.872
46.41000 212.818
46.42000 207.068
46.43000 204.241
46.44000 210.847
46.45000 218.171
46.46000 223.247
46.47000 211.417
46.48000 202.067
46.49000 197.999
46.50000 201.672
46.51000 205.413
46.52000 207.661
46.53000 208.493
46.54000 209.318
46.55000 212.035
46.56000 215.858
46.57000 219.571
46.58000 220.738
46.59000 220.839
46.60000 220.550
46.61000 215.815
46.62000 209.823
46.63000 204.500
46.64000 203.517
46.65000 203.364
46.66000 202.774
46.67000 200.304
46.68000 197.617
46.69000 196.820
46.70000 201.462
46.71000 206.444
46.72000 209.764
46.73000 201.247
46.74000 194.716
46.75000 194.243
46.76000 201.640
46.77000 209.054
46.78000 209.204
46.79000 203.286
46.80000 197.445
46.81000 199.723
46.82000 206.315
46.83000 212.685
46.84000 214.985
46.85000 215.761
46.86000 215.407
46.87000 204.143
46.88000 190.136
46.89000 177.921
46.90000 184.701
46.91000 193.144
46.92000 200.815
46.93000 205.541
46.94000 209.978
46.95000 212.001
46.96000 207.823
46.97000 203.332
46.98000 200.464
46.99000 194.606
47.00000 190.305
47.01000 188.529
47.02000 189.648
47.03000 190.779
47.04000 193.451
47.05000 197.261
47.06000 200.999
47.07000 202.438
47.08000 202.730
47.09000 203.172
47.10000 205.843
47.11000 209.260
47.12000 211.868
47.13000 207.786
47.14000 202.215
47.15000 197.453
47.16000 197.023
47.17000 197.180
47.18000 197.883
47.19000 200.443
47.20000 203.157
47.21000 203.749
47.22000 199.473
47.23000 195.005
47.24000 192.280
47.25000 197.000
47.26000 200.433
47.27000 201.538
47.28000 200.297
47.29000 199.088
47.30000 200.737
47.31000 204.259
47.32000 207.690
47.33000 204.825
47.34000 199.446
47.35000 194.202
47.36000 190.622
47.37000 187.537
47.38000 185.148
47.39000 187.726
47.40000 191.281
47.41000 194.254
47.42000 192.375
47.43000 190.320
47.44000 189.152
47.45000 190.673
47.46000 192.378
47.47000 194.198
47.48000 196.254
47.49000 198.317
47.50000 199.512
47.51000 194.544
47.52000 191.036
47.53000 192.219
47.54000 197.546
47.55000 202.758
47.56000 201.243
47.57000 195.807
47.58000 190.556
47.59000 189.936
47.60000 191.070
47.61000 192.126
47.62000 192.385
47.63000 192.432
47.64000 192.515
47.65000 192.825
47.66000 193.175
47.67000 193.460
47.68000 196.717
47.69000 199.638
47.70000 201.142
47.71000 198.819
47.72000 196.283
47.73000 196.615
47.74000 202.192
47.75000 207.879
47.76000 211.000
47.77000 203.534
47.78000 198.388
47.79000 195.448
47.80000 194.228
47.81000 192.960
47.82000 189.773
47.83000 185.589
47.84000 181.586
47.85000 187.763
47.86000 196.849
47.87000 205.099
47.88000 205.964
47.89000 205.091
47.90000 203.636
47.91000 199.004
47.92000 193.892
47.93000 189.824
47.94000 191.413
47.95000 193.100
47.96000 193.135
47.97000 189.183
47.98000 185.054
47.99000 183.321
48.00000 185.489
48.01000 187.711
48.02000 188.859
48.03000 190.265
48.04000 191.196
48.05000 190.148
48.06000 187.734
48.07000 185.572
48.08000 190.837
48.09000 199.546
48.10000 207.786
48.11000 207.833
48.12000 205.513
48.13000 203.070
48.14000 199.690
48.15000 196.115
48.16000 193.279
48.17000 194.000
48.18000 195.187
48.19000 196.106
48.20000 197.006
48.21000 197.720
48.22000 196.611
48.23000 191.575
48.24000 186.406
48.25000 185.255
48.26000 189.916
48.27000 194.624
48.28000 193.728
48.29000 187.589
48.30000 181.527
48.31000 180.906
48.32000 183.627
48.33000 186.209
48.34000 185.657
48.35000 183.808
48.36000 182.079
48.37000 182.237
48.38000 182.859
48.39000 183.896
48.40000 187.675
48.41000 191.957
48.42000 195.168
48.43000 193.829
48.44000 191.977
48.45000 190.586
48.46000 182.798
48.47000 176.405
48.48000 174.842
48.49000 182.570
48.50000 190.529
48.51000 194.858
48.52000 194.533
48.53000 194.191
48.54000 194.669
48.55000 195.819
48.56000 196.895
48.57000 194.540
48.58000 190.308
48.59000 186.327
48.60000 186.845
48.61000 189.026
48.62000 191.038
48.63000 191.099
48.64000 190.719
48.65000 190.606
48.66000 192.035
48.67000 193.712
48.68000 194.686
48.69000 193.011
48.70000 191.080
48.71000 189.677
48.72000 185.491
48.73000 182.166
48.74000 179.979
48.75000 179.747
48.76000 179.548
48.77000 182.996
48.78000 190.566
48.79000 198.115
48.80000 197.683
48.81000 191.489
48.82000 185.466
48.83000 185.215
48.84000 187.780
48.85000 190.167
48.86000 189.969
48.87000 188.918
48.88000 187.962
48.89000 189.437
48.90000 191.213
48.91000 192.701
48.92000 192.730
48.93000 192.555
48.94000 191.572
48.95000 187.875
48.96000 183.958
48.97000 181.209
48.98000 187.428
48.99000 192.395
49.00000 194.152
49.01000 191.009
49.02000 187.815
49.03000 185.819
49.04000 185.011
49.05000 184.208
49.06000 181.191
49.07000 176.810
49.08000 172.618
49.09000 173.195
49.10000 175.850
49.11000 178.435
49.12000 180.172
49.13000 181.659
49.14000 182.989
49.15000 184.185
49.16000 185.206
49.17000 186.722
49.18000 190.468
49.19000 194.483
49.20000 195.997
49.21000 190.033
49.22000 183.568
49.23000 179.201
49.24000 178.805
49.25000 178.596
49.26000 181.037
49.27000 187.068
49.28000 193.111
49.29000 193.060
49.30000 187.698
49.31000 182.395
49.32000 180.103
49.33000 179.557
49.34000 178.985
49.35000 177.907
49.36000 176.631
49.37000 175.595
49.38000 177.000
49.39000 179.045
49.40000 180.839
49.41000 177.156
49.42000 173.190
49.43000 170.950
49.44000 175.574
49.45000 180.909
49.46000 184.752
49.47000 184.617
49.48000 184.264
49.49000 184.036
49.50000 177.664
49.51000 172.909
49.52000 171.479
49.53000 174.028
49.54000 176.578
49.55000 177.350
49.56000 176.755
49.57000 176.169
49.58000 176.545
49.59000 177.385
49.60000 178.301
49.61000 180.420
49.62000 182.958
49.63000 185.222
49.64000 185.092
49.65000 184.407
49.66000 183.818
49.67000 184.837
49.68000 185.902
49.69000 186.026
49.70000 182.822
49.71000 179.326
49.72000 177.513
49.73000 179.712
49.74000 182.083
49.75000 183.553
49.76000 184.162
49.77000 184.592
49.78000 181.462
49.79000 174.585
49.80000 167.805
49.81000 172.164
49.82000 184.120
49.83000 195.796
49.84000 197.374
49.85000 194.457
49.86000 191.510
49.87000 188.158
49.88000 184.681
49.89000 181.778
49.90000 183.184
49.91000 185.475
49.92000 187.405
49.93000 183.085
49.94000 178.807
49.95000 176.518
49.96000 180.495
49.97000 184.929
49.98000 188.502
49.99000 190.240
50.00000 191.917
50.01000 192.907
50.02000 192.116
50.03000 191.549
50.04000 192.702
50.05000 195.444
50.06000 198.156
50.07000 198.797
50.08000 198.182
50.09000 197.587
50.10000 196.174
50.11000 194.521
50.12000 192.897
50.13000 191.604
50.14000 190.403
50.15000 189.848
50.16000 193.514
50.17000 197.943
50.18000 201.589
50.19000 201.619
50.20000 201.313
50.21000 200.312
50.22000 197.357
50.23000 194.286
50.24000 192.795
50.25000 194.308
50.26000 195.893
50.27000 196.780
50.28000 206.231
50.29000 212.791
50.30000 216.631
50.31000 218.261
50.32000 219.897
50.33000 221.844
50.34000 223.958
50.35000 225.987
50.36000 236.651
50.37000 249.572
50.38000 261.799
50.39000 267.554
50.40000 271.724
50.41000 275.543
50.42000 277.363
50.43000 278.867
50.44000 280.074
50.45000 281.036
50.46000 281.796
50.47000 283.949
50.48000 289.593
50.49000 295.404
50.50000 299.273
50.51000 299.854
50.52000 300.381
50.53000 300.659
50.54000 291.375
50.55000 285.116
50.56000 285.973
50.57000 291.950
50.58000 297.756
50.59000 297.990
50.60000 295.540
50.61000 293.212
50.62000 290.724
50.63000 288.378
50.64000 286.425
50.65000 287.616
50.66000 289.489
50.67000 290.415
50.68000 286.594
50.69000 282.120
50.70000 278.623
50.71000 269.092
50.72000 261.104
50.73000 254.499
50.74000 250.993
50.75000 247.603
50.76000 242.497
50.77000 234.807
50.78000 227.091
50.79000 224.897
50.80000 228.106
50.81000 231.206
50.82000 225.276
50.83000 213.577
50.84000 202.349
50.85000 202.702
50.86000 208.038
50.87000 213.047
50.88000 211.882
50.89000 209.185
50.90000 206.475
50.91000 203.674
50.92000 200.856
50.93000 198.026
50.94000 195.144
50.95000 192.256
50.96000 190.064
50.97000 191.454
50.98000 192.730
50.99000 193.912
51.00000 194.906
51.01000 195.894
51.02000 193.295
51.03000 185.901
51.04000 178.489
51.05000 178.219
51.06000 184.079
51.07000 189.869
51.08000 191.941
51.09000 191.898
51.10000 191.674
51.11000 187.918
51.12000 182.805
51.13000 178.068
51.14000 176.781
51.15000 176.426
51.16000 176.025
51.17000 175.353
51.18000 174.635
51.19000 174.317
51.20000 175.567
51.21000 176.976
51.22000 178.012
51.23000 182.713
51.24000 186.499
51.25000 186.839
51.26000 181.032
51.27000 175.105
51.28000 171.361
51.29000 170.195
51.30000 169.035
51.31000 170.268
51.32000 173.296
51.33000 176.260
51.34000 176.842
51.35000 176.216
51.36000 175.467
51.37000 172.804
51.38000 169.484
51.39000 166.453
51.40000 165.877
51.41000 165.864
51.42000 165.720
51.43000 164.876
51.44000 163.928
51.45000 164.077
51.46000 168.050
51.47000 172.351
51.48000 175.407
51.49000 170.375
51.50000 166.287
51.51000 162.737
51.52000 160.039
51.53000 157.351
51.54000 159.352
51.55000 166.219
51.56000 173.048
51.57000 174.838
51.58000 173.256
51.59000 171.777
51.60000 173.127
51.61000 175.758
51.62000 177.976
51.63000 174.866
51.64000 170.126
51.65000 165.866
51.66000 166.344
51.67000 167.602
51.68000 168.498
51.69000 167.702
51.70000 166.692
51.71000 167.418
51.72000 173.541
51.73000 180.051
51.74000 184.507
51.75000 179.241
51.76000 175.065
51.77000 172.378
51.78000 171.792
51.79000 171.221
51.80000 171.524
51.81000 172.623
51.82000 173.712
51.83000 172.123
51.84000 168.998
51.85000 166.063
51.86000 167.208
51.87000 170.003
51.88000 172.392
51.89000 170.409
51.90000 167.234
51.91000 164.430
51.92000 166.865
51.93000 169.774
51.94000 173.250
51.95000 179.076
51.96000 185.158
51.97000 187.381
51.98000 178.900
51.99000 169.792
52.00000 163.803
52.01000 167.022
52.02000 169.549
52.03000 171.168
52.04000 171.656
52.05000 172.128
52.06000 168.647
52.07000 161.993
52.08000 155.438
52.09000 156.447
52.10000 161.341
52.11000 166.135
52.12000 169.212
52.13000 171.669
52.14000 173.929
52.15000 174.385
52.16000 174.405
52.17000 174.423
52.18000 171.951
52.19000 169.517
52.20000 168.467
52.21000 172.505
52.22000 177.015
52.23000 178.041
52.24000 170.441
52.25000 162.437
52.26000 157.400
52.27000 163.468
52.28000 167.984
52.29000 167.605
52.30000 161.840
52.31000 156.121
52.32000 157.463
52.33000 163.819
52.34000 170.041
52.35000 172.585
52.36000 173.347
52.37000 173.955
52.38000 172.414
52.39000 170.181
52.40000 167.689
52.41000 163.167
52.42000 158.209
52.43000 154.001
52.44000 160.851
52.45000 167.855
52.46000 172.561
52.47000 169.746
52.48000 166.345
52.49000 164.324
52.50000 165.354
52.51000 166.495
52.52000 167.179
52.53000 164.906
52.54000 163.271
52.55000 161.673
52.56000 160.112
52.57000 158.557
52.58000 157.523
52.59000 156.817
52.60000 156.131
52.61000 161.029
52.62000 167.937
52.63000 174.120
52.64000 171.856
52.65000 167.169
52.66000 162.757
52.67000 160.224
52.68000 158.045
52.69000 156.237
52.70000 156.244
52.71000 156.424
52.72000 157.066
52.73000 159.053
52.74000 161.127
52.75000 162.831
52.76000 163.807
52.77000 164.762
52.78000 165.307
52.79000 161.290
52.80000 158.478
52.81000 158.035
52.82000 159.602
52.83000 161.200
52.84000 164.388
52.85000 168.469
52.86000 172.399
52.87000 171.478
52.88000 168.884
52.89000 166.670
52.90000 168.200
52.91000 170.684
52.92000 171.800
52.93000 164.760
52.94000 156.371
52.95000 149.575
52.96000 151.608
52.97000 153.982
52.98000 156.191
52.99000 157.969
53.00000 159.726
53.01000 160.303
53.02000 158.805
53.03000 157.268
53.04000 156.440
53.05000 160.852
53.06000 163.866
53.07000 165.575
53.08000 166.307
53.09000 166.988
53.10000 165.861
53.11000 163.829
53.12000 161.892
53.13000 163.768
53.14000 166.707
53.15000 169.130
53.16000 167.200
53.17000 164.286
53.18000 161.896
53.19000 162.245
53.20000 162.989
53.21000 163.577
53.22000 165.196
53.23000 166.564
53.24000 166.606
53.25000 163.561
53.26000 160.390
53.27000 159.362
53.28000 161.693
53.29000 164.065
53.30000 165.264
53.31000 165.004
53.32000 164.831
53.33000 164.865
53.34000 165.035
53.35000 165.020
53.36000 160.047
53.37000 152.858
53.38000 146.080
53.39000 148.162
53.40000 152.519
53.41000 156.270
53.42000 155.611
53.43000 154.071
53.44000 153.326
53.45000 156.253
53.46000 159.639
53.47000 162.235
53.48000 161.966
53.49000 161.594
53.50000 161.243
53.51000 160.934
53.52000 160.626
53.53000 160.966
53.54000 162.207
53.55000 163.454
53.56000 165.904
53.57000 169.432
53.58000 172.906
53.59000 173.087
53.60000 171.322
53.61000 169.499
53.62000 166.483
53.63000 162.991
53.64000 159.741
53.65000 160.860
53.66000 162.933
53.67000 164.762
53.68000 165.048
53.69000 165.063
53.70000 165.238
53.71000 166.066
53.72000 166.965
53.73000 167.632
53.74000 168.194
53.75000 168.625
53.76000 169.023
53.77000 169.359
53.78000 169.693
53.79000 167.869
53.80000 163.387
53.81000 158.906
53.82000 159.437
53.83000 163.914
53.84000 168.210
53.85000 164.972
53.86000 157.764
53.87000 150.945
53.88000 150.630
53.89000 152.634
53.90000 154.473
53.91000 154.660
53.92000 154.474
53.93000 154.826
53.94000 158.160
53.95000 161.952
53.96000 164.490
53.97000 162.477
53.98000 160.049
53.99000 158.304
54.00000 154.921
54.01000 152.275
54.02000 151.165
54.03000 152.588
54.04000 154.050
54.05000 154.865
54.06000 154.980
54.07000 155.093
54.08000 155.088
54.09000 155.000
54.10000 154.954
54.11000 156.183
54.12000 158.012
54.13000 159.723
54.14000 159.821
54.15000 159.407
54.16000 159.032
54.17000 162.304
54.18000 165.859
54.19000 167.766
54.20000 161.627
54.21000 154.415
54.22000 149.929
54.23000 154.258
54.24000 159.260
54.25000 162.728
54.26000 160.960
54.27000 159.491
54.28000 159.482
54.29000 161.617
54.30000 163.771
54.31000 163.472
54.32000 160.839
54.33000 158.228
54.34000 156.522
54.35000 155.400
54.36000 154.432
54.37000 157.062
54.38000 161.204
54.39000 165.315
54.40000 169.091
54.41000 172.772
54.42000 176.043
54.43000 171.646
54.44000 166.594
54.45000 162.005
54.46000 159.413
54.47000 157.051
54.48000 155.403
54.49000 155.813
54.50000 156.351
54.51000 156.711
54.52000 163.935
54.53000 169.416
54.54000 170.937
54.55000 167.306
54.56000 163.664
54.57000 165.433
54.58000 171.731
54.59000 177.946
54.60000 172.795
54.61000 161.642
54.62000 151.133
54.63000 152.469
54.64000 158.247
54.65000 163.236
54.66000 160.592
54.67000 156.025
54.68000 152.041
54.69000 155.921
54.70000 160.338
54.71000 163.134
54.72000 159.732
54.73000 155.722
54.74000 153.307
54.75000 154.996
54.76000 156.893
54.77000 158.106
54.78000 160.693
54.79000 162.595
54.80000 162.992
54.81000 161.661
54.82000 160.330
54.83000 159.390
54.84000 158.739
54.85000 158.100
54.86000 158.973
54.87000 160.535
54.88000 162.064
54.89000 163.122
54.90000 164.020
54.91000 165.034
54.92000 167.003
54.93000 169.184
54.94000 171.049
54.95000 168.909
54.96000 166.626
54.97000 164.240
54.98000 161.509
54.99000 158.749
55.00000 158.688
55.01000 164.830
55.02000 171.219
55.03000 175.117
55.04000 167.677
55.05000 162.267
55.06000 161.965
55.07000 166.820
55.08000 171.647
55.09000 174.003
55.10000 174.735
55.11000 175.449
55.12000 172.717
55.13000 168.661
55.14000 164.917
55.15000 165.027
55.16000 166.287
55.17000 168.341
55.18000 176.077
55.19000 184.932
55.20000 192.340
55.21000 188.392
55.22000 183.952
55.23000 180.091
55.24000 177.985
55.25000 176.001
55.26000 175.855
55.27000 179.483
55.28000 183.224
55.29000 185.394
55.30000 192.153
55.31000 196.913
55.32000 199.551
55.33000 200.308
55.34000 201.204
55.35000 210.216
55.36000 223.965
55.37000 237.247
55.38000 244.220
55.39000 248.448
55.40000 252.583
55.41000 255.751
55.42000 258.662
55.43000 261.786
55.44000 266.232
55.45000 270.907
55.46000 274.726
55.47000 289.032
55.48000 301.647
55.49000 314.081
55.50000 326.028
55.51000 337.947
55.52000 348.404
55.53000 356.183
55.54000 363.904
55.55000 368.144
55.56000 395.497
55.57000 414.356
55.58000 432.404
55.59000 449.818
55.60000 467.156
55.61000 481.421
55.62000 494.085
55.63000 506.202
55.64000 515.325
55.65000 522.839
55.66000 530.987
55.67000 544.768
55.68000 559.875
55.69000 573.697
55.70000 580.495
55.71000 586.230
55.72000 590.796
55.73000 589.485
55.74000 588.004
55.75000 587.875
55.76000 591.011
55.77000 594.292
55.78000 595.621
55.79000 593.766
55.80000 591.866
55.81000 590.884
55.82000 580.527
55.83000 573.531
55.84000 565.123
55.85000 555.737
55.86000 546.402
55.87000 538.535
55.88000 531.351
55.89000 524.552
55.90000 505.856
55.91000 485.223
55.92000 465.056
55.93000 448.451
55.94000 432.589
55.95000 417.523
55.96000 406.286
55.97000 395.553
55.98000 387.241
55.99000 370.818
56.00000 357.295
56.01000 347.469
56.02000 345.621
56.03000 344.046
56.04000 335.329
56.05000 316.260
56.06000 297.109
56.07000 286.004
56.08000 282.446
56.09000 278.801
56.10000 269.006
56.11000 255.428
56.12000 242.168
56.13000 236.123
56.14000 233.072
56.15000 230.220
56.16000 229.072
56.17000 228.463
56.18000 227.221
56.19000 221.788
56.20000 215.585
56.21000 209.345
56.22000 202.948
56.23000 196.533
56.24000 191.712
56.25000 191.330
56.26000 191.244
56.27000 191.864
56.28000 193.845
56.29000 195.860
56.30000 193.956
56.31000 187.022
56.32000 180.078
56.33000 178.044
56.34000 180.059
56.35000 182.060
56.36000 183.423
56.37000 184.435
56.38000 185.210
56.39000 181.720
56.40000 176.650
56.41000 171.974
56.42000 173.206
56.43000 175.625
56.44000 177.100
56.45000 173.101
56.46000 168.222
56.47000 163.762
56.48000 160.886
56.49000 158.162
56.50000 156.181
56.51000 161.838
56.52000 166.481
56.53000 168.918
56.54000 167.568
56.55000 166.152
56.56000 166.498
56.57000 168.842
56.58000 171.179
56.59000 169.460
56.60000 164.819
56.61000 160.230
56.62000 157.369
56.63000 155.352
56.64000 153.606
56.65000 155.813
56.66000 159.328
56.67000 162.521
56.68000 165.696
56.69000 168.499
56.70000 170.625
56.71000 169.305
56.72000 167.502
56.73000 165.852
56.74000 164.717
56.75000 163.624
56.76000 162.857
56.77000 163.255
56.78000 163.591
56.79000 163.610
56.80000 163.145
56.81000 162.674
56.82000 161.040
56.83000 158.248
56.84000 155.476
56.85000 155.052
56.86000 156.133
56.87000 157.055
56.88000 153.924
56.89000 149.024
56.90000 144.715
56.91000 147.590
56.92000 152.580
56.93000 157.041
56.94000 156.006
56.95000 154.173
56.96000 152.565
56.97000 151.975
56.98000 151.507
56.99000 151.715
57.00000 153.945
57.01000 156.312
57.02000 157.911
57.03000 154.514
57.04000 151.877
57.05000 149.477
57.06000 147.401
57.07000 145.327
57.08000 144.293
57.09000 144.165
57.10000 144.039
57.11000 146.448
57.12000 150.227
57.13000 153.800
57.14000 153.285
57.15000 151.176
57.16000 149.048
57.17000 146.726
57.18000 144.353
57.19000 142.269
57.20000 148.128
57.21000 154.329
57.22000 159.296
57.23000 159.343
57.24000 158.880
57.25000 157.348
57.26000 152.957
57.27000 148.410
57.28000 145.461
57.29000 142.811
57.30000 140.876
57.31000 140.600
57.32000 142.314
57.33000 144.030
57.34000 145.612
57.35000 147.090
57.36000 148.543
57.37000 149.098
57.38000 149.188
57.39000 149.315
57.40000 150.013
57.41000 150.909
57.42000 151.401
57.43000 148.360
57.44000 144.498
57.45000 141.172
57.46000 142.234
57.47000 143.688
57.48000 145.897
57.49000 150.782
57.50000 155.902
57.51000 159.363
57.52000 158.866
57.53000 158.197
57.54000 157.783
57.55000 152.043
57.56000 147.863
57.57000 146.836
57.58000 149.134
57.59000 151.409
57.60000 150.960
57.61000 148.650
57.62000 146.394
57.63000 146.438
57.64000 147.489
57.65000 148.464
57.66000 148.431
57.67000 148.084
57.68000 147.371
57.69000 143.907
57.70000 139.876
57.71000 136.478
57.72000 140.462
57.73000 144.585
57.74000 147.664
57.75000 147.450
57.76000 146.995
57.77000 147.559
57.78000 150.299
57.79000 153.111
57.80000 154.771
57.81000 152.936
57.82000 151.620
57.83000 150.003
57.84000 148.107
57.85000 146.222
57.86000 145.061
57.87000 144.339
57.88000 143.640
57.89000 144.709
57.90000 146.407
57.91000 147.991
57.92000 148.315
57.93000 148.292
57.94000 148.598
57.95000 151.057
57.96000 153.905
57.97000 156.251
57.98000 151.293
57.99000 146.546
58.00000 143.758
58.01000 146.479
58.02000 149.530
58.03000 150.911
58.04000 149.112
58.05000 147.236
58.06000 146.186
58.07000 150.053
58.08000 152.742
58.09000 154.373
58.10000 155.143
58.11000 155.841
58.12000 153.253
58.13000 148.888
58.14000 144.697
58.15000 141.730
58.16000 139.374
58.17000 137.457
58.18000 139.647
58.19000 142.844
58.20000 145.447
58.21000 144.653
58.22000 143.322
58.23000 142.252
58.24000 140.184
58.25000 138.432
58.26000 138.421
58.27000 142.782
58.28000 147.355
58.29000 149.459
58.30000 147.377
58.31000 145.225
58.32000 144.090
58.33000 143.535
58.34000 143.162
58.35000 143.202
58.36000 143.540
58.37000 143.827
58.38000 142.408
58.39000 140.166
58.40000 138.037
58.41000 140.556
58.42000 144.284
58.43000 147.456
58.44000 146.154
58.45000 143.880
58.46000 142.513
58.47000 145.702
58.48000 149.520
58.49000 152.504
58.50000 144.991
58.51000 138.328
58.52000 134.024
58.53000 135.012
58.54000 136.199
58.55000 135.926
58.56000 133.451
58.57000 130.954
58.58000 131.049
58.59000 133.685
58.60000 136.344
58.61000 140.925
58.62000 146.734
58.63000 152.194
58.64000 149.011
58.65000 142.101
58.66000 135.614
58.67000 136.124
58.68000 138.445
58.69000 140.368
58.70000 139.517
58.71000 138.135
58.72000 136.504
58.73000 133.771
58.74000 130.906
58.75000 128.732
58.76000 131.185
58.77000 133.353
58.78000 135.330
58.79000 136.928
58.80000 138.516
58.81000 140.825
58.82000 144.101
58.83000 147.379
58.84000 148.693
58.85000 148.318
58.86000 147.918
58.87000 146.237
58.88000 143.827
58.89000 141.469
58.90000 140.147
58.91000 139.224
58.92000 138.368
58.93000 138.369
58.94000 138.569
58.95000 138.534
58.96000 137.073
58.97000 135.371
58.98000 133.236
58.99000 129.391
59.00000 125.372
59.01000 122.415
59.02000 129.647
59.03000 135.662
59.04000 139.894
59.05000 140.941
59.06000 141.926
59.07000 140.733
59.08000 136.966
59.09000 133.204
59.10000 130.717
59.11000 129.209
59.12000 127.826
59.13000 131.136
59.14000 136.829
59.15000 142.077
59.16000 140.347
59.17000 136.219
59.18000 132.448
59.19000 134.917
59.20000 138.382
59.21000 140.866
59.22000 138.143
59.23000 134.654
59.24000 131.330
59.25000 128.581
59.26000 125.881
59.27000 123.961
59.28000 131.375
59.29000 137.318
59.30000 141.156
59.31000 141.647
59.32000 142.094
59.33000 141.503
59.34000 139.830
59.35000 138.166
59.36000 139.655
59.37000 143.225
59.38000 146.668
59.39000 146.582
59.40000 144.896
59.41000 143.394
59.42000 144.263
59.43000 145.859
59.44000 147.294
59.45000 148.110
59.46000 148.713
59.47000 148.926
59.48000 147.306
59.49000 145.453
59.50000 143.711
59.51000 142.319
59.52000 140.951
59.53000 140.015
59.54000 137.336
59.55000 135.288
59.56000 133.147
59.57000 130.872
59.58000 128.598
59.59000 130.250
59.60000 135.480
59.61000 140.661
59.62000 140.477
59.63000 137.145
59.64000 133.952
59.65000 133.748
59.66000 134.753
59.67000 135.562
59.68000 134.239
59.69000 132.335
59.70000 130.653
59.71000 129.853
59.72000 129.299
59.73000 129.891
59.74000 135.241
59.75000 141.112
59.76000 144.255
59.77000 139.820
59.78000 134.941
59.79000 131.730
59.80000 139.717
59.81000 145.790
59.82000 146.973
59.83000 142.043
59.84000 137.096
59.85000 132.934
59.86000 129.404
59.87000 125.925
59.88000 125.907
59.89000 127.685
59.90000 129.430
59.91000 130.621
59.92000 131.613
59.93000 132.318
59.94000 130.378
59.95000 127.798
59.96000 125.561
59.97000 131.104
59.98000 136.857
59.99000 141.421
60.00000 141.603
60.01000 141.378
60.02000 139.188
60.03000 132.119
60.04000 124.821
60.05000 120.225
60.06000 131.220
60.07000 139.355
60.08000 141.948
60.09000 138.435
60.10000 134.931
60.11000 133.173
60.12000 132.658
60.13000 132.154
60.14000 133.082
60.15000 134.631
60.16000 136.126
60.17000 136.865
60.18000 137.360
60.19000 137.849
60.20000 138.289
60.21000 138.718
60.22000 139.082
60.23000 137.554
60.24000 136.057
60.25000 135.691
60.26000 139.038
60.27000 142.674
60.28000 143.793
60.29000 139.336
60.30000 134.677
60.31000 131.879
60.32000 129.510
60.33000 127.830
60.34000 130.324
60.35000 136.851
60.36000 143.295
60.37000 143.159
60.38000 138.865
60.39000 134.692
60.40000 134.337
60.41000 135.544
60.42000 136.828
60.43000 139.008
60.44000 141.444
60.45000 142.846
60.46000 137.162
60.47000 130.138
60.48000 124.306
60.49000 124.719
60.50000 125.666
60.51000 127.932
60.52000 134.053
60.53000 140.423
60.54000 143.497
60.55000 140.053
60.56000 136.434
60.57000 134.369
60.58000 142.128
60.59000 147.558
60.60000 144.806
60.61000 135.103
60.62000 125.619
60.63000 127.441
60.64000 135.623
60.65000 143.503
60.66000 142.453
60.67000 138.278
60.68000 134.727
60.69000 137.333
60.70000 141.513
60.71000 144.754
60.72000 142.393
60.73000 139.102
60.74000 136.436
60.75000 137.278
60.76000 138.251
60.77000 138.524
60.78000 136.970
60.79000 135.322
60.80000 134.951
60.81000 136.834
60.82000 138.760
60.83000 139.797
60.84000 134.428
60.85000 130.761
60.86000 129.111
60.87000 128.976
60.88000 128.881
60.89000 130.242
60.90000 132.334
60.91000 134.328
60.92000 133.326
60.93000 131.453
60.94000 129.637
60.95000 128.298
60.96000 127.068
60.97000 126.556
60.98000 129.813
60.99000 133.615
61.00000 136.615
61.01000 135.839
61.02000 134.960
61.03000 136.099
61.04000 141.938
61.05000 147.971
61.06000 150.229
61.07000 146.563
61.08000 142.825
61.09000 140.932
61.10000 139.202
61.11000 138.069
61.12000 139.398
61.13000 142.366
61.14000 145.163
61.15000 143.303
61.16000 139.358
61.17000 135.639
61.18000 136.188
61.19000 137.873
61.20000 139.651
61.21000 142.100
61.22000 144.683
61.23000 146.188
61.24000 142.703
61.25000 138.592
61.26000 135.439
61.27000 136.822
61.28000 138.166
61.29000 139.854
61.30000 142.257
61.31000 144.681
61.32000 144.706
61.33000 141.385
61.34000 138.044
61.35000 138.352
61.36000 141.940
61.37000 145.470
61.38000 145.452
61.39000 143.334
61.40000 141.450
61.41000 144.499
61.42000 149.520
61.43000 154.195
61.44000 158.867
61.45000 163.090
61.46000 166.759
61.47000 166.913
61.48000 166.450
61.49000 166.753
61.50000 170.194
61.51000 173.972
61.52000 176.782
61.53000 197.081
61.54000 213.650
61.55000 231.245
61.56000 250.747
61.57000 270.290
61.58000 284.046
61.59000 290.659
61.60000 297.241
61.61000 305.474
61.62000 314.971
61.63000 324.452
61.64000 333.239
61.65000 341.660
61.66000 349.784
61.67000 352.930
61.68000 354.298
61.69000 355.553
61.70000 345.498
61.71000 334.117
61.72000 324.429
61.73000 324.149
61.74000 325.316
61.75000 323.333
61.76000 309.888
61.77000 295.397
61.78000 284.972
61.79000 260.606
61.80000 241.465
61.81000 226.201
61.82000 217.349
61.83000 208.594
61.84000 200.334
61.85000 192.614
61.86000 184.928
61.87000 176.951
61.88000 168.854
61.89000 160.975
61.90000 159.733
61.91000 161.619
61.92000 163.194
61.93000 160.481
61.94000 156.403
61.95000 152.717
61.96000 148.756
61.97000 145.221
61.98000 142.667
61.99000 144.914
62.00000 147.804
62.01000 149.238
62.02000 145.957
62.03000 142.316
62.04000 139.789
62.05000 141.575
62.06000 143.035
62.07000 145.719
62.08000 150.203
62.09000 154.704
62.10000 156.460
62.11000 155.601
62.12000 154.749
62.13000 152.775
62.14000 150.150
62.15000 147.609
62.16000 147.018
62.17000 147.248
62.18000 147.305
62.19000 145.382
62.20000 142.896
62.21000 140.687
62.22000 143.918
62.23000 147.602
62.24000 150.162
62.25000 147.863
62.26000 145.004
62.27000 142.985
62.28000 143.392
62.29000 143.951
62.30000 144.324
62.31000 148.927
62.32000 152.418
62.33000 154.496
62.34000 154.733
62.35000 154.952
62.36000 150.107
62.37000 141.016
62.38000 132.041
62.39000 133.067
62.40000 139.475
62.41000 145.662
62.42000 147.749
62.43000 148.297
62.44000 148.766
62.45000 148.475
62.46000 147.993
62.47000 147.573
62.48000 147.041
62.49000 146.571
62.50000 146.415
62.51000 147.466
62.52000 148.635
62.53000 149.254
62.54000 148.456
62.55000 147.586
62.56000 147.029
62.57000 148.765
62.58000 150.058
62.59000 148.407
62.60000 143.365
62.61000 138.355
62.62000 139.910
62.63000 146.330
62.64000 152.630
62.65000 155.333
62.66000 156.221
62.67000 157.001
62.68000 156.159
62.69000 154.774
62.70000 153.323
62.71000 151.327
62.72000 149.210
62.73000 147.399
62.74000 146.120
62.75000 145.106
62.76000 144.820
62.77000 147.016
62.78000 149.418
62.79000 150.793
62.80000 149.808
62.81000 148.729
62.82000 148.070
62.83000 154.499
62.84000 159.155
62.85000 160.704
62.86000 159.111
62.87000 157.483
62.88000 152.528
62.89000 145.386
62.90000 138.427
62.91000 136.306
62.92000 136.324
62.93000 136.444
62.94000 137.838
62.95000 139.613
62.96000 141.580
62.97000 144.930
62.98000 148.554
62.99000 151.586
63.00000 148.912
63.01000 146.106
63.02000 143.949
63.03000 143.762
63.04000 143.710
63.05000 143.580
63.06000 143.289
63.07000 142.993
63.08000 142.821
63.09000 146.400
63.10000 148.926
63.11000 148.901
63.12000 146.612
63.13000 144.398
63.14000 146.601
63.15000 151.387
63.16000 156.011
63.17000 156.703
63.18000 155.891
63.19000 155.448
63.20000 158.855
63.21000 163.287
63.22000 166.841
63.23000 164.907
63.24000 162.021
63.25000 159.662
63.26000 155.113
63.27000 151.198
63.28000 148.121
63.29000 147.313
63.30000 146.632
63.31000 147.091
63.32000 149.640
63.33000 152.234
63.34000 153.660
63.35000 152.754
63.36000 152.129
63.37000 152.192
63.38000 152.793
63.39000 153.319
63.40000 150.790
63.41000 146.670
63.42000 142.727
63.43000 141.316
63.44000 140.835
63.45000 140.673
63.46000 143.351
63.47000 146.700
63.48000 149.411
63.49000 148.623
63.50000 147.304
63.51000 146.254
63.52000 148.507
63.53000 150.564
63.54000 152.698
63.55000 155.021
63.56000 157.353
63.57000 157.951
63.58000 155.717
63.59000 153.443
63.60000 152.266
63.61000 152.308
63.62000 152.348
63.63000 153.716
63.64000 156.005
63.65000 158.211
63.66000 157.955
63.67000 156.554
63.68000 155.229
63.69000 160.746
63.70000 167.802
63.71000 173.344
63.72000 167.304
63.73000 158.845
63.74000 151.588
63.75000 150.125
63.76000 149.425
63.77000 148.883
63.78000 154.619
63.79000 159.548
63.80000 162.229
63.81000 160.049
63.82000 157.703
63.83000 156.889
63.84000 158.302
63.85000 159.733
63.86000 160.458
63.87000 160.519
63.88000 160.584
63.89000 160.971
63.90000 161.555
63.91000 162.072
63.92000 161.064
63.93000 159.422
63.94000 157.887
63.95000 160.191
63.96000 163.260
63.97000 165.788
63.98000 164.724
63.99000 163.000
64.00000 162.201
64.01000 165.351
64.02000 168.948
64.03000 171.651
64.04000 170.670
64.05000 169.726
64.06000 168.242
64.07000 165.719
64.08000 163.170
64.09000 160.943
64.10000 159.132
64.11000 157.324
64.12000 154.445
64.13000 150.691
64.14000 147.101
64.15000 151.268
64.16000 159.690
64.17000 167.692
64.18000 168.086
64.19000 165.657
64.20000 163.416
64.21000 165.241
64.22000 167.784
64.23000 169.856
64.24000 169.193
64.25000 168.089
64.26000 166.860
64.27000 165.155
64.28000 163.405
64.29000 162.131
64.30000 169.685
64.31000 175.836
64.32000 178.291
64.33000 174.387
64.34000 170.373
64.35000 167.108
64.36000 164.694
64.37000 162.289
64.38000 162.271
64.39000 163.985
64.40000 165.649
64.41000 165.632
64.42000 164.793
64.43000 163.999
64.44000 163.869
64.45000 163.959
64.46000 164.041
64.47000 171.469
64.48000 179.467
64.49000 185.444
64.50000 181.109
64.51000 175.326
64.52000 171.493
64.53000 174.221
64.54000 177.482
64.55000 179.774
64.56000 184.344
64.57000 187.871
64.58000 188.468
64.59000 184.578
64.60000 180.639
64.61000 178.345
64.62000 177.689
64.63000 177.038
64.64000 178.797
64.65000 182.071
64.66000 185.129
64.67000 182.683
64.68000 177.832
64.69000 173.381
64.70000 173.811
64.71000 175.680
64.72000 177.352
64.73000 182.009
64.74000 186.576
64.75000 190.630
64.76000 192.380
64.77000 193.849
64.78000 194.655
64.79000 193.471
64.80000 192.152
64.81000 191.260
64.82000 195.691
64.83000 199.107
64.84000 202.120
64.85000 204.586
64.86000 207.046
64.87000 206.473
64.88000 203.246
64.89000 200.055
64.90000 200.410
64.91000 202.758
64.92000 205.253
64.93000 210.694
64.94000 217.285
64.95000 223.985
64.96000 231.810
64.97000 239.931
64.98000 247.063
64.99000 244.301
65.00000 240.472
65.01000 238.245
65.02000 242.410
65.03000 247.239
65.04000 251.148
65.05000 252.593
65.06000 253.903
65.07000 254.753
65.08000 270.772
65.09000 282.732
65.10000 294.338
65.11000 305.517
65.12000 316.684
65.13000 325.156
65.14000 331.545
65.15000 337.829
65.16000 338.127
65.17000 335.435
65.18000 333.838
65.19000 349.841
65.20000 371.977
65.21000 392.621
65.22000 400.226
65.23000 404.794
65.24000 408.728
65.25000 411.134
65.26000 412.981
65.27000 415.604
65.28000 420.982
65.29000 426.603
65.30000 430.221
65.31000 429.048
65.32000 427.667
65.33000 426.810
65.34000 430.867
65.35000 433.835
65.36000 436.610
65.37000 439.183
65.38000 441.707
65.39000 438.640
65.40000 431.748
65.41000 425.015
65.42000 426.265
65.43000 430.975
65.44000 435.213
65.45000 433.234
65.46000 429.322
65.47000 424.930
65.48000 416.925
65.49000 408.176
65.50000 400.799
65.51000 396.936
65.52000 394.091
65.53000 391.488
65.54000 389.651
65.55000 387.870
65.56000 387.171
65.57000 388.782
65.58000 390.471
65.59000 391.469
65.60000 399.853
65.61000 405.819
65.62000 417.031
65.63000 433.101
65.64000 449.121
65.65000 461.682
65.66000 472.138
65.67000 482.269
65.68000 517.160
65.69000 559.809
65.70000 604.518
65.71000 672.002
65.72000 745.788
65.73000 818.915
65.74000 887.727
65.75000 955.758
65.76000 1011.810
65.77000 1078.245
65.78000 1133.862
65.79000 1186.804
65.80000 1232.212
65.81000 1277.166
65.82000 1312.802
65.83000 1330.676
65.84000 1348.120
65.85000 1357.892
65.86000 1383.318
65.87000 1400.946
65.88000 1405.564
65.89000 1399.568
65.90000 1393.018
65.91000 1361.258
65.92000 1315.836
65.93000 1272.223
65.94000 1207.580
65.95000 1139.901
65.96000 1071.023
65.97000 990.890
65.98000 907.991
65.99000 825.375
66.00000 744.371
66.01000 663.624
66.02000 598.735
66.03000 546.972
66.04000 506.025
66.05000 469.061
66.06000 442.122
66.07000 415.667
66.08000 393.717
66.09000 379.424
66.10000 365.257
66.11000 357.771
66.12000 338.129
66.13000 324.814
66.14000 316.362
66.15000 311.421
66.16000 306.807
66.17000 312.875
66.18000 324.107
66.19000 334.781
66.20000 336.778
66.21000 336.001
66.22000 336.044
66.23000 342.684
66.24000 350.759
66.25000 360.964
66.26000 381.883
66.27000 404.284
66.28000 421.804
66.29000 431.333
66.30000 438.432
66.31000 447.927
66.32000 462.807
66.33000 477.889
66.34000 488.745
66.35000 493.213
66.36000 497.617
66.37000 501.344
66.38000 504.408
66.39000 507.493
66.40000 512.506
66.41000 518.753
66.42000 524.970
66.43000 530.446
66.44000 535.603
66.45000 540.446
66.46000 539.811
66.47000 537.776
66.48000 533.609
66.49000 514.599
66.50000 492.738
66.51000 472.701
66.52000 460.766
66.53000 449.799
66.54000 441.468
66.55000 423.488
66.56000 408.853
66.57000 393.445
66.58000 376.486
66.59000 359.483
66.60000 349.030
66.61000 347.359
66.62000 345.735
66.63000 341.048
66.64000 333.731
66.65000 326.586
66.66000 328.745
66.67000 336.212
66.68000 343.338
66.69000 343.839
66.70000 341.786
66.71000 339.882
66.72000 340.023
66.73000 340.627
66.74000 341.040
66.75000 340.292
66.76000 339.348
66.77000 340.968
66.78000 352.685
66.79000 365.434
66.80000 374.817
66.81000 362.085
66.82000 351.319
66.83000 347.272
66.84000 355.247
66.85000 363.461
66.86000 364.212
66.87000 356.119
66.88000 348.031
66.89000 351.965
66.90000 364.978
66.91000 377.754
66.92000 381.594
66.93000 380.887
66.94000 380.208
66.95000 379.978
66.96000 379.903
66.97000 379.834
66.98000 379.470
66.99000 379.086
67.00000 379.108
67.01000 381.288
67.02000 383.786
67.03000 386.653
67.04000 390.817
67.05000 395.093
67.06000 398.134
67.07000 397.362
67.08000 396.652
67.09000 395.445
67.10000 393.449
67.11000 391.442
67.12000 390.945
67.13000 392.022
67.14000 393.094
67.15000 398.093
67.16000 405.649
67.17000 412.984
67.18000 414.168
67.19000 412.559
67.20000 411.409
67.21000 416.212
67.22000 422.841
67.23000 428.802
67.24000 421.205
67.25000 412.137
67.26000 406.165
67.27000 414.726
67.28000 425.142
67.29000 432.750
67.30000 431.597
67.31000 429.814
67.32000 428.593
67.33000 432.534
67.34000 435.611
67.35000 440.028
67.36000 446.341
67.37000 452.665
67.38000 452.719
67.39000 447.047
67.40000 441.428
67.41000 443.615
67.42000 450.350
67.43000 456.525
67.44000 450.602
67.45000 439.772
67.46000 430.644
67.47000 439.992
67.48000 454.388
67.49000 467.110
67.50000 466.088
67.51000 463.082
67.52000 462.043
67.53000 469.179
67.54000 477.212
67.55000 480.899
67.56000 472.492
67.57000 463.372
67.58000 457.368
67.59000 475.811
67.60000 489.817
67.61000 496.937
67.62000 495.430
67.63000 493.907
67.64000 495.856
67.65000 500.600
67.66000 505.275
67.67000 505.950
67.68000 504.528
67.69000 503.168
67.70000 502.867
67.71000 502.949
67.72000 503.151
67.73000 504.455
67.74000 506.027
67.75000 507.391
67.76000 504.482
67.77000 501.437
67.78000 502.996
67.79000 521.550
67.80000 541.688
67.81000 553.971
67.82000 546.735
67.83000 538.579
67.84000 533.440
67.85000 547.509
67.86000 557.913
67.87000 560.679
67.88000 555.009
67.89000 549.372
67.90000 549.299
67.91000 553.191
67.92000 557.002
67.93000 567.634
67.94000 580.980
67.95000 593.429
67.96000 593.240
67.97000 588.967
67.98000 585.659
67.99000 589.978
68.00000 595.936
68.01000 600.996
68.02000 609.529
68.03000 617.087
68.04000 623.104
68.05000 624.064
68.06000 624.628
68.07000 625.031
68.08000 625.075
68.09000 625.105
68.10000 625.124
68.11000 626.822
68.12000 628.041
68.13000 634.137
68.14000 644.958
68.15000 655.711
68.16000 661.050
68.17000 662.962
68.18000 664.820
68.19000 671.285
68.20000 679.295
68.21000 687.572
68.22000 698.984
68.23000 711.299
68.24000 721.547
68.25000 717.622
68.26000 711.011
68.27000 705.521
68.28000 720.796
68.29000 735.445
68.30000 746.774
68.31000 748.384
68.32000 749.366
68.33000 750.350
68.34000 751.336
68.35000 752.322
68.36000 752.885
68.37000 773.163
68.38000 787.366
68.39000 796.273
68.40000 800.670
68.41000 805.251
68.42000 819.378
68.43000 838.885
68.44000 857.675
68.45000 863.957
68.46000 865.382
68.47000 867.559
68.48000 877.181
68.49000 888.708
68.50000 902.332
68.51000 928.505
68.52000 956.765
68.53000 979.672
68.54000 1009.570
68.55000 1034.500
68.56000 1061.193
68.57000 1092.493
68.58000 1124.034
68.59000 1158.665
68.60000 1198.757
68.61000 1238.953
68.62000 1260.631
68.63000 1363.494
68.64000 1433.897
68.65000 1497.406
68.66000 1555.730
68.67000 1614.579
68.68000 1692.530
68.69000 1780.080
68.70000 1863.575
68.71000 1936.176
68.72000 2000.100
68.73000 2065.136
68.74000 2139.586
68.75000 2216.172
68.76000 2290.788
68.77000 2355.058
68.78000 2417.827
68.79000 2467.386
68.80000 2590.105
68.81000 2693.560
68.82000 2813.189
68.83000 2970.572
68.84000 3129.505
68.85000 3346.492
68.86000 3654.790
68.87000 3964.202
68.88000 4121.000
68.89000 5257.997
68.90000 6026.508
68.91000 7517.773
68.92000 9491.166
68.93000 11516.710
68.94000 14956.264
68.95000 19030.145
68.96000 22871.801
68.97000 29015.107
68.98000 35282.266
68.99000 41591.180
69.00000 48205.105
69.01000 54880.176
69.02000 61241.730
69.03000 66150.727
69.04000 70877.289
69.05000 74504.344
69.06000 77564.289
69.07000 79950.828
69.08000 81821.578
69.09000 82617.258
69.10000 83379.430
69.11000 84074.125
69.12000 84674.555
69.13000 85274.141
69.14000 85961.445
69.15000 86727.023
69.16000 87480.617
69.17000 87488.414
69.18000 87053.727
69.19000 86532.016
69.20000 84178.438
69.21000 81090.961
69.22000 78215.930
69.23000 73650.969
69.24000 69111.039
69.25000 64676.809
69.26000 60914.297
69.27000 57270.230
69.28000 53848.773
69.29000 51340.551
69.30000 48930.781
69.31000 47137.680
69.32000 45131.738
69.33000 43561.605
69.34000 42136.418
69.35000 40980.809
69.36000 39831.258
69.37000 38203.133
69.38000 35983.469
69.39000 33766.160
69.40000 30978.414
69.41000 27752.416
69.42000 24525.947
69.43000 21279.563
69.44000 18022.648
69.45000 14814.646
69.46000 12430.449
69.47000 10340.935
69.48000 8422.181
69.49000 6925.916
69.50000 5681.281
69.51000 4533.922
69.52000 3927.801
69.53000 3405.168
69.54000 2934.735
69.55000 2654.497
69.56000 2391.668
69.57000 2202.509
69.58000 2050.462
69.59000 1935.346
69.60000 1834.273
69.61000 1756.473
69.62000 1679.023
69.63000 1609.035
69.64000 1547.174
69.65000 1485.584
69.66000 1429.778
69.67000 1378.575
69.68000 1328.158
69.69000 1301.898
69.70000 1287.036
69.71000 1271.157
69.72000 1241.244
69.73000 1206.852
69.74000 1175.754
69.75000 1144.655
69.76000 1117.287
69.77000 1088.573
69.78000 1053.265
69.79000 1017.074
69.80000 987.820
69.81000 981.068
69.82000 976.042
69.83000 972.553
69.84000 953.391
69.85000 938.537
69.86000 924.101
69.87000 910.279
69.88000 896.463
69.89000 884.245
69.90000 873.553
69.91000 862.946
69.92000 856.491
69.93000 852.699
69.94000 848.391
69.95000 831.981
69.96000 810.473
69.97000 790.053
69.98000 782.159
69.99000 777.826
70.00000 773.974
