20.00000 564.737
20.01000 567.238
20.02000 570.097
20.03000 571.990
20.04000 570.122
20.05000 567.875
20.06000 566.226
20.07000 577.224
20.08000 586.236
20.09000 588.401
20.10000 578.441
20.11000 568.249
20.12000 563.038
20.13000 563.664
20.14000 564.297
20.15000 566.442
20.16000 569.704
20.17000 572.953
20.18000 575.729
20.19000 578.266
20.20000 580.469
20.21000 577.511
20.22000 572.794
20.23000 568.491
20.24000 571.837
20.25000 576.348
20.26000 578.915
20.27000 571.241
20.28000 562.078
20.29000 556.995
20.30000 566.053
20.31000 576.313
20.32000 583.588
20.33000 566.456
20.34000 552.663
20.35000 544.389
20.36000 544.817
20.37000 545.351
20.38000 553.324
20.39000 568.957
20.40000 584.500
20.41000 582.824
20.42000 569.810
20.43000 557.329
20.44000 559.346
20.45000 567.882
20.46000 575.366
20.47000 569.458
20.48000 559.480
20.49000 550.520
20.50000 548.238
20.51000 547.415
20.52000 548.802
20.53000 560.459
20.54000 573.409
20.55000 581.782
20.56000 576.020
20.57000 569.258
20.58000 564.640
20.59000 562.235
20.60000 560.488
20.61000 559.539
20.62000 559.709
20.63000 559.888
20.64000 562.279
20.65000 566.668
20.66000 571.014
20.67000 565.904
20.68000 555.398
20.69000 545.327
20.70000 544.462
20.71000 547.293
20.72000 550.081
20.73000 552.411
20.74000 554.617
20.75000 556.563
20.76000 558.517
20.77000 560.203
20.78000 561.907
20.79000 563.687
20.80000 565.475
20.81000 566.228
20.82000 564.131
20.83000 561.869
20.84000 560.385
20.85000 561.345
20.86000 562.091
20.87000 558.834
20.88000 550.615
20.89000 542.406
20.90000 541.680
20.91000 546.913
20.92000 552.068
20.93000 554.112
20.94000 554.498
20.95000 554.956
20.96000 556.649
20.97000 558.785
20.98000 560.154
20.99000 554.554
21.00000 547.281
21.01000 540.986
21.02000 539.994
21.03000 539.849
21.04000 541.368
21.05000 548.966
21.06000 557.122
21.07000 562.948
21.08000 563.040
21.09000 562.868
21.10000 562.760
21.11000 556.316
21.12000 551.589
21.13000 547.852
21.14000 545.197
21.15000 542.566
21.16000 543.083
21.17000 545.821
21.18000 548.500
21.19000 555.045
21.20000 563.082
21.21000 570.220
21.22000 564.912
21.23000 555.624
21.24000 547.435
21.25000 547.838
21.26000 550.066
21.27000 551.955
21.28000 557.115
21.29000 561.807
21.30000 565.103
21.31000 563.859
21.32000 562.265
21.33000 561.156
21.34000 561.115
21.35000 561.111
21.36000 561.109
21.37000 571.740
21.38000 579.353
21.39000 583.554
21.40000 584.489
21.41000 585.325
21.42000 578.533
21.43000 566.963
21.44000 555.728
21.45000 553.295
21.46000 554.514
21.47000 555.274
21.48000 550.742
21.49000 544.702
21.50000 539.862
21.51000 543.151
21.52000 547.962
21.53000 551.949
21.54000 546.686
21.55000 541.454
21.56000 539.973
21.57000 549.364
21.58000 559.445
21.59000 563.743
21.60000 556.697
21.61000 549.352
21.62000 545.180
21.63000 552.726
21.64000 558.016
21.65000 562.213
21.66000 565.492
21.67000 568.753
21.68000 571.154
21.69000 573.075
21.70000 574.924
21.71000 583.991
21.72000 595.052
21.73000 605.731
21.74000 612.676
21.75000 618.675
21.76000 623.198
21.77000 618.987
21.78000 613.341
21.79000 608.774
21.80000 622.656
21.81000 635.436
21.82000 646.391
21.83000 652.626
21.84000 658.619
21.85000 665.891
21.86000 675.400
21.87000 684.951
21.88000 690.075
21.89000 710.695
21.90000 724.768
21.91000 735.347
21.92000 743.325
21.93000 751.319
21.94000 759.865
21.95000 768.686
21.96000 777.090
21.97000 790.143
21.98000 803.690
21.99000 817.103
22.00000 829.398
22.01000 841.442
22.02000 852.738
22.03000 860.150
22.04000 867.005
22.05000 872.405
22.06000 860.428
22.07000 849.669
22.08000 836.998
22.09000 819.912
22.10000 802.648
22.11000 790.451
22.12000 786.143
22.13000 781.927
22.14000 779.802
22.15000 745.283
22.16000 722.333
22.17000 711.293
22.18000 708.114
22.19000 704.626
22.20000 692.923
22.21000 677.573
22.22000 663.113
22.23000 654.622
22.24000 648.491
22.25000 641.383
22.26000 627.228
22.27000 611.676
22.28000 600.082
22.29000 606.626
22.30000 615.418
22.31000 622.148
22.32000 595.446
22.33000 572.545
22.34000 560.517
22.35000 570.927
22.36000 582.017
22.37000 583.850
22.38000 572.890
22.39000 561.854
22.40000 556.487
22.41000 556.170
22.42000 555.820
22.43000 553.514
22.44000 550.058
22.45000 546.410
22.46000 538.801
22.47000 529.620
22.48000 521.082
22.49000 533.140
22.50000 548.996
22.51000 561.775
22.52000 555.227
22.53000 545.311
22.54000 538.146
22.55000 542.143
22.56000 547.328
22.57000 551.174
22.58000 547.297
22.59000 543.945
22.60000 540.484
22.61000 536.823
22.62000 533.157
22.63000 530.463
22.64000 528.959
22.65000 527.460
22.66000 527.847
22.67000 529.706
22.68000 531.464
22.69000 529.090
22.70000 524.555
22.71000 520.439
22.72000 523.253
22.73000 528.522
22.74000 533.354
22.75000 523.913
22.76000 512.487
22.77000 503.934
22.78000 511.185
22.79000 520.844
22.80000 528.961
22.81000 531.513
22.82000 533.564
22.83000 535.036
22.84000 528.395
22.85000 523.039
22.86000 518.977
22.87000 517.036
22.88000 515.125
22.89000 517.944
22.90000 525.854
22.91000 533.730
22.92000 536.695
22.93000 536.248
22.94000 535.683
22.95000 531.606
22.96000 525.887
22.97000 520.985
22.98000 527.173
22.99000 536.863
23.00000 545.613
23.01000 537.312
23.02000 526.874
23.03000 518.094
23.04000 517.344
23.05000 517.656
23.06000 516.469
23.07000 510.467
23.08000 504.102
23.09000 499.698
23.10000 507.750
23.11000 514.131
23.12000 515.101
23.13000 508.182
23.14000 501.197
23.15000 498.718
23.16000 500.490
23.17000 502.248
23.18000 503.860
23.19000 505.354
23.20000 506.931
23.21000 510.397
23.22000 514.651
23.23000 518.381
23.24000 516.180
23.25000 512.310
23.26000 508.874
23.27000 509.590
23.28000 510.875
23.29000 511.109
23.30000 506.840
23.31000 502.059
23.32000 499.412
23.33000 502.876
23.34000 506.720
23.35000 509.277
23.36000 512.474
23.37000 514.852
23.38000 511.933
23.39000 502.172
23.40000 492.399
23.41000 489.613
23.42000 492.631
23.43000 495.609
23.44000 498.248
23.45000 500.633
23.46000 502.748
23.47000 499.934
23.48000 495.285
23.49000 491.507
23.50000 496.081
23.51000 502.744
23.52000 508.550
23.53000 508.427
23.54000 507.502
23.55000 506.629
23.56000 505.956
23.57000 505.302
23.58000 504.319
23.59000 502.494
23.60000 500.627
23.61000 499.438
23.62000 509.062
23.63000 516.198
23.64000 518.524
23.65000 515.367
23.66000 512.222
23.67000 512.166
23.68000 514.378
23.69000 516.547
23.70000 516.433
23.71000 515.244
23.72000 513.599
23.73000 505.225
23.74000 494.615
23.75000 485.994
23.76000 493.721
23.77000 505.069
23.78000 514.760
23.79000 507.740
23.80000 499.841
23.81000 494.180
23.82000 496.085
23.83000 498.609
23.84000 499.714
23.85000 497.578
23.86000 495.316
23.87000 493.939
23.88000 492.963
23.89000 492.268
23.90000 498.571
23.91000 511.878
23.92000 525.017
23.93000 522.691
23.94000 510.287
23.95000 498.209
23.96000 494.957
23.97000 495.547
23.98000 496.181
23.99000 497.346
24.00000 498.668
24.01000 499.395
24.02000 495.895
24.03000 491.568
24.04000 487.953
24.05000 489.190
24.06000 490.707
24.07000 491.563
24.08000 490.425
24.09000 489.152
24.10000 490.422
24.11000 496.877
24.12000 503.484
24.13000 507.306
24.14000 507.627
24.15000 507.836
24.16000 507.225
24.17000 505.894
24.18000 504.493
24.19000 499.129
24.20000 491.468
24.21000 484.071
24.22000 484.472
24.23000 487.727
24.24000 491.203
24.25000 496.951
24.26000 503.297
24.27000 509.771
24.28000 517.027
24.29000 524.419
24.30000 530.448
24.31000 511.949
24.32000 494.726
24.33000 482.199
24.34000 482.301
24.35000 483.099
24.36000 487.138
24.37000 497.070
24.38000 507.124
24.39000 512.626
24.40000 504.086
24.41000 498.197
24.42000 493.202
24.43000 488.898
24.44000 484.710
24.45000 485.078
24.46000 487.801
24.47000 490.404
24.48000 491.655
24.49000 492.380
24.50000 492.744
24.51000 489.945
24.52000 486.406
24.53000 483.706
24.54000 485.552
24.55000 488.082
24.56000 490.092
24.57000 498.147
24.58000 505.067
24.59000 507.833
24.60000 500.627
24.61000 492.984
24.62000 487.374
24.63000 485.059
24.64000 482.789
24.65000 481.620
24.66000 480.337
24.67000 479.482
24.68000 479.611
24.69000 480.417
24.70000 481.344
24.71000 485.817
24.72000 491.926
24.73000 497.704
24.74000 499.947
24.75000 500.995
24.76000 501.771
24.77000 500.494
24.78000 498.792
24.79000 496.556
24.80000 491.769
24.81000 486.650
24.82000 482.692
24.83000 485.032
24.84000 487.257
24.85000 486.841
24.86000 480.762
24.87000 474.493
24.88000 469.109
24.89000 465.000
24.90000 460.901
24.91000 464.485
24.92000 475.215
24.93000 485.858
24.94000 490.520
24.95000 491.529
24.96000 492.385
24.97000 489.828
24.98000 485.864
24.99000 482.161
25.00000 486.095
25.01000 491.589
25.02000 496.592
25.03000 498.368
25.04000 499.556
25.05000 499.856
25.06000 496.401
25.07000 492.525
25.08000 489.618
25.09000 483.658
25.10000 478.859
25.11000 473.234
25.12000 466.027
25.13000 458.781
25.14000 456.712
25.15000 461.243
25.16000 465.792
25.17000 469.722
25.18000 473.132
25.19000 476.512
25.20000 478.463
25.21000 479.636
25.22000 480.539
25.23000 476.640
25.24000 470.973
25.25000 465.750
25.26000 477.090
25.27000 490.901
25.28000 502.305
25.29000 499.882
25.30000 495.252
25.31000 492.186
25.32000 494.990
25.33000 498.355
25.34000 500.798
25.35000 495.146
25.36000 490.497
25.37000 487.767
25.38000 488.309
25.39000 488.905
25.40000 484.032
25.41000 473.009
25.42000 462.020
25.43000 458.084
25.44000 459.250
25.45000 460.487
25.46000 464.086
25.47000 468.830
25.48000 473.333
25.49000 474.336
25.50000 474.189
25.51000 474.056
25.52000 476.067
25.53000 478.257
25.54000 480.227
25.55000 481.082
25.56000 481.781
25.57000 482.401
25.58000 482.751
25.59000 483.079
25.60000 483.309
25.61000 480.521
25.62000 478.326
25.63000 476.001
25.64000 473.479
25.65000 470.955
25.66000 468.456
25.67000 465.983
25.68000 463.526
25.69000 464.893
25.70000 468.658
25.71000 472.296
25.72000 472.739
25.73000 471.796
25.74000 470.975
25.75000 471.615
25.76000 472.683
25.77000 473.636
25.78000 472.759
25.79000 471.689
25.80000 470.935
25.81000 471.596
25.82000 472.426
25.83000 472.569
25.84000 470.665
25.85000 468.625
25.86000 467.249
25.87000 482.363
25.88000 493.956
25.89000 498.668
25.90000 494.117
25.91000 489.516
25.92000 483.494
25.93000 476.243
25.94000 469.074
25.95000 470.380
25.96000 476.392
25.97000 481.890
25.98000 477.292
25.99000 468.788
26.00000 460.638
26.01000 456.091
26.02000 452.482
26.03000 449.316
26.04000 455.632
26.05000 462.435
26.06000 466.960
26.07000 462.474
26.08000 457.062
26.09000 456.298
26.10000 467.878
26.11000 480.124
26.12000 488.046
26.13000 466.559
26.14000 450.411
26.15000 444.867
26.16000 451.940
26.17000 459.004
26.18000 458.548
26.19000 452.336
26.20000 446.231
26.21000 444.889
26.22000 445.944
26.23000 447.216
26.24000 451.926
26.25000 457.823
26.26000 462.672
26.27000 458.455
26.28000 452.146
26.29000 446.720
26.30000 451.786
26.31000 457.387
26.32000 461.125
26.33000 458.314
26.34000 454.934
26.35000 452.563
26.36000 452.585
26.37000 452.709
26.38000 452.785
26.39000 473.202
26.40000 488.065
26.41000 489.254
26.42000 476.130
26.43000 463.068
26.44000 457.117
26.45000 455.989
26.46000 454.888
26.47000 452.559
26.48000 449.796
26.49000 447.714
26.50000 454.503
26.51000 464.027
26.52000 472.162
26.53000 469.943
26.54000 465.612
26.55000 461.966
26.56000 459.616
26.57000 457.793
26.58000 457.972
26.59000 464.419
26.60000 471.320
26.61000 471.209
26.62000 456.247
26.63000 440.802
26.64000 431.710
26.65000 450.616
26.66000 464.097
26.67000 468.925
26.68000 465.813
26.69000 462.714
26.70000 460.442
26.71000 458.671
26.72000 456.956
26.73000 455.481
26.74000 454.178
26.75000 453.205
26.76000 455.830
26.77000 459.442
26.78000 462.596
26.79000 462.792
26.80000 462.457
26.81000 462.181
26.82000 460.069
26.83000 458.167
26.84000 454.468
26.85000 445.750
26.86000 436.734
26.87000 432.549
26.88000 437.495
26.89000 442.657
26.90000 445.537
26.91000 444.465
26.92000 443.718
26.93000 444.420
26.94000 446.291
26.95000 448.107
26.96000 447.443
26.97000 445.445
26.98000 443.528
26.99000 448.460
27.00000 455.397
27.01000 461.173
27.02000 456.196
27.03000 448.598
27.04000 441.248
27.05000 435.301
27.06000 429.574
27.07000 424.981
27.08000 437.588
27.09000 449.100
27.10000 455.140
27.11000 447.527
27.12000 439.266
27.13000 434.447
27.14000 435.427
27.15000 436.499
27.16000 437.064
27.17000 433.579
27.18000 431.228
27.19000 431.026
27.20000 432.360
27.21000 433.901
27.22000 442.049
27.23000 453.365
27.24000 464.108
27.25000 465.548
27.26000 464.093
27.27000 463.016
27.28000 464.952
27.29000 467.538
27.30000 468.916
27.31000 464.273
27.32000 458.806
27.33000 454.539
27.34000 454.181
27.35000 454.141
27.36000 453.607
27.37000 451.976
27.38000 450.304
27.39000 450.735
27.40000 454.316
27.41000 457.928
27.42000 454.518
27.43000 444.278
27.44000 434.160
27.45000 434.071
27.46000 440.355
27.47000 446.480
27.48000 448.732
27.49000 449.325
27.50000 449.882
27.51000 456.068
27.52000 463.187
27.53000 468.462
27.54000 461.027
27.55000 451.174
27.56000 443.459
27.57000 445.159
27.58000 447.971
27.59000 450.103
27.60000 445.009
27.61000 440.641
27.62000 439.354
27.63000 444.194
27.64000 449.202
27.65000 450.699
27.66000 447.531
27.67000 444.342
27.68000 443.249
27.69000 443.946
27.70000 444.626
27.71000 444.396
27.72000 443.652
27.73000 442.948
27.74000 443.033
27.75000 443.420
27.76000 443.778
27.77000 446.681
27.78000 449.879
27.79000 452.628
27.80000 452.670
27.81000 452.261
27.82000 451.524
27.83000 449.505
27.84000 447.356
27.85000 445.779
27.86000 442.107
27.87000 439.184
27.88000 438.197
27.89000 440.643
27.90000 443.155
27.91000 444.903
27.92000 445.756
27.93000 446.606
27.94000 445.610
27.95000 443.237
27.96000 441.036
27.97000 445.176
27.98000 452.514
27.99000 459.149
28.00000 454.911
28.01000 446.962
28.02000 439.707
28.03000 436.475
28.04000 434.420
28.05000 433.058
28.06000 435.348
28.07000 438.170
28.08000 438.954
28.09000 432.661
28.10000 425.764
28.11000 420.872
28.12000 429.343
28.13000 436.207
28.14000 441.128
28.15000 442.980
28.16000 444.794
28.17000 447.161
28.18000 450.097
28.19000 453.017
28.20000 453.870
28.21000 453.346
28.22000 452.647
28.23000 447.177
28.24000 439.557
28.25000 432.298
28.26000 429.650
28.27000 428.407
28.28000 427.290
28.29000 436.010
28.30000 445.373
28.31000 453.347
28.32000 454.856
28.33000 455.549
28.34000 454.207
28.35000 446.568
28.36000 438.484
28.37000 432.959
28.38000 433.249
28.39000 433.604
28.40000 432.060
28.41000 427.853
28.42000 423.631
28.43000 423.981
28.44000 428.469
28.45000 432.913
28.46000 432.759
28.47000 429.928
28.48000 427.236
28.49000 427.497
28.50000 428.947
28.51000 430.357
28.52000 431.340
28.53000 432.207
28.54000 432.973
28.55000 433.275
28.56000 433.465
28.57000 433.835
28.58000 434.946
28.59000 436.138
28.60000 436.494
28.61000 434.540
28.62000 432.453
28.63000 431.083
28.64000 438.312
28.65000 443.775
28.66000 442.790
28.67000 433.802
28.68000 424.799
28.69000 418.561
28.70000 414.527
28.71000 410.554
28.72000 410.049
28.73000 411.346
28.74000 412.847
28.75000 417.824
28.76000 424.049
28.77000 429.033
28.78000 422.697
28.79000 413.640
28.80000 405.798
28.81000 411.572
28.82000 418.277
28.83000 423.182
28.84000 421.496
28.85000 419.204
28.86000 416.691
28.87000 413.633
28.88000 410.551
28.89000 408.614
28.90000 421.453
28.91000 430.898
28.92000 434.849
28.93000 432.791
28.94000 430.704
28.95000 425.068
28.96000 416.925
28.97000 408.957
28.98000 406.053
28.99000 405.570
29.00000 405.534
29.01000 411.721
29.02000 419.903
29.03000 427.308
29.04000 428.639
29.05000 428.676
29.06000 428.707
29.07000 424.179
29.08000 419.868
29.09000 417.102
29.10000 419.366
29.11000 422.018
29.12000 426.797
29.13000 436.258
29.14000 445.886
29.15000 451.652
29.16000 437.303
29.17000 426.985
29.18000 421.295
29.19000 420.045
29.20000 418.841
29.21000 421.242
29.22000 425.905
29.23000 430.434
29.24000 423.505
29.25000 412.325
29.26000 402.564
29.27000 409.225
29.28000 420.574
29.29000 430.003
29.30000 426.402
29.31000 420.357
29.32000 415.344
29.33000 412.130
29.34000 409.647
29.35000 408.594
29.36000 411.691
29.37000 415.052
29.38000 419.011
29.39000 424.146
29.40000 429.312
29.41000 432.248
29.42000 421.534
29.43000 414.036
29.44000 411.836
29.45000 414.103
29.46000 416.351
29.47000 417.598
29.48000 418.286
29.49000 418.948
29.50000 416.248
29.51000 412.524
29.52000 409.646
29.53000 415.053
29.54000 422.562
29.55000 428.049
29.56000 421.554
29.57000 413.086
29.58000 406.234
29.59000 406.028
29.60000 406.397
29.61000 408.849
29.62000 416.702
29.63000 424.831
29.64000 427.901
29.65000 422.108
29.66000 416.152
29.67000 412.954
29.68000 399.055
29.69000 389.630
29.70000 394.951
29.71000 411.264
29.72000 427.292
29.73000 433.178
29.74000 434.009
29.75000 434.802
29.76000 434.975
29.77000 434.943
29.78000 435.444
29.79000 440.416
29.80000 446.392
29.81000 450.554
29.82000 445.277
29.83000 438.645
29.84000 433.420
29.85000 432.627
29.86000 432.288
29.87000 431.524
29.88000 429.774
29.89000 427.985
29.90000 429.939
29.91000 437.731
29.92000 445.591
29.93000 449.556
29.94000 445.735
29.95000 443.249
29.96000 447.472
29.97000 456.131
29.98000 464.626
29.99000 468.751
30.00000 470.930
30.01000 472.984
30.02000 471.151
30.03000 468.404
30.04000 465.751
30.05000 463.776
30.06000 461.937
30.07000 459.781
30.08000 456.172
30.09000 452.383
30.10000 449.482
30.11000 447.576
30.12000 446.125
30.13000 444.141
30.14000 441.051
30.15000 437.927
30.16000 439.232
30.17000 446.667
30.18000 454.138
30.19000 456.001
30.20000 452.862
30.21000 449.703
30.22000 445.284
30.23000 440.125
30.24000 435.386
30.25000 439.341
30.26000 446.750
30.27000 453.642
30.28000 450.858
30.29000 446.006
30.30000 441.812
30.31000 441.765
30.32000 442.442
30.33000 442.527
30.34000 440.209
30.35000 437.635
30.36000 435.725
30.37000 435.879
30.38000 436.089
30.39000 438.574
30.40000 445.254
30.41000 452.026
30.42000 454.658
30.43000 452.220
30.44000 449.774
30.45000 445.370
30.46000 439.456
30.47000 433.649
30.48000 432.326
30.49000 433.352
30.50000 434.344
30.51000 434.768
30.52000 434.991
30.53000 435.196
30.54000 438.839
30.55000 442.813
30.56000 445.901
30.57000 444.107
30.58000 441.567
30.59000 439.378
30.60000 438.453
30.61000 437.643
30.62000 437.062
30.63000 440.451
30.64000 443.180
30.65000 449.398
30.66000 461.349
30.67000 473.384
30.68000 473.078
30.69000 459.461
30.70000 445.901
30.71000 444.371
30.72000 451.157
30.73000 458.082
30.74000 469.229
30.75000 482.351
30.76000 494.088
30.77000 486.981
30.78000 473.911
30.79000 462.106
30.80000 463.138
30.81000 466.415
30.82000 470.013
30.83000 475.168
30.84000 480.530
30.85000 485.682
30.86000 490.162
30.87000 494.591
30.88000 497.657
30.89000 505.630
30.90000 511.757
30.91000 517.105
30.92000 521.315
30.93000 525.516
30.94000 528.344
30.95000 529.873
30.96000 531.391
30.97000 541.438
30.98000 556.490
30.99000 571.765
31.00000 592.162
31.01000 614.701
31.02000 637.742
31.03000 666.493
31.04000 696.853
31.05000 723.812
31.06000 766.599
31.07000 806.232
31.08000 848.202
31.09000 900.200
31.10000 953.344
31.11000 1010.250
31.12000 1077.944
31.13000 1146.310
31.14000 1191.814
31.15000 1338.382
31.16000 1448.742
31.17000 1563.580
31.18000 1684.212
31.19000 1804.908
31.20000 1945.413
31.21000 2102.400
31.22000 2257.322
31.23000 2396.396
31.24000 2523.213
31.25000 2651.609
31.26000 2808.800
31.27000 2976.737
31.28000 3143.293
31.29000 3296.583
31.30000 3446.549
31.31000 3577.265
31.32000 3657.851
31.33000 3719.775
31.34000 3778.658
31.35000 3825.963
31.36000 3872.140
31.37000 3887.159
31.38000 3822.394
31.39000 3753.632
31.40000 3709.777
31.41000 3655.197
31.42000 3615.365
31.43000 3536.909
31.44000 3414.335
31.45000 3291.598
31.46000 3148.675
31.47000 2990.901
31.48000 2836.144
31.49000 2675.517
31.50000 2517.979
31.51000 2360.486
31.52000 2203.641
31.53000 2047.012
31.54000 1891.753
31.55000 1747.775
31.56000 1606.300
31.57000 1485.453
31.58000 1362.006
31.59000 1257.700
31.60000 1158.901
31.61000 1078.750
31.62000 1000.129
31.63000 927.463
31.64000 868.416
31.65000 809.903
31.66000 774.276
31.67000 718.646
31.68000 678.745
31.69000 643.454
31.70000 612.784
31.71000 582.248
31.72000 564.054
31.73000 553.919
31.74000 544.050
31.75000 537.242
31.76000 532.036
31.77000 526.358
31.78000 514.871
31.79000 501.661
31.80000 488.984
31.81000 480.107
31.82000 471.973
31.83000 465.176
31.84000 456.544
31.85000 449.192
31.86000 444.000
31.87000 445.330
31.88000 447.105
31.89000 450.051
31.90000 455.391
31.91000 460.801
31.92000 463.933
31.93000 447.818
31.94000 436.446
31.95000 432.092
31.96000 433.916
31.97000 435.711
31.98000 435.777
31.99000 434.840
32.00000 433.935
32.01000 430.021
32.02000 425.220
32.03000 420.875
32.04000 421.236
32.05000 422.839
32.06000 423.894
32.07000 421.550
32.08000 418.620
32.09000 416.229
32.10000 415.924
32.11000 415.853
32.12000 413.751
32.13000 406.178
32.14000 398.302
32.15000 396.333
32.16000 405.123
32.17000 414.139
32.18000 419.077
32.19000 427.686
32.20000 433.571
32.21000 429.231
32.22000 416.948
32.23000 404.946
32.24000 404.122
32.25000 409.087
32.26000 413.835
32.27000 405.767
32.28000 394.075
32.29000 384.457
32.30000 393.104
32.31000 406.031
32.32000 416.025
32.33000 410.081
32.34000 401.739
32.35000 395.106
32.36000 387.852
32.37000 381.964
32.38000 381.451
32.39000 393.870
32.40000 406.856
32.41000 410.948
32.42000 400.612
32.43000 390.076
32.44000 384.645
32.45000 404.895
32.46000 418.381
32.47000 412.961
32.48000 394.527
32.49000 376.702
32.50000 376.652
32.51000 384.819
32.52000 392.545
32.53000 394.270
32.54000 394.133
32.55000 393.413
32.56000 388.275
32.57000 382.221
32.58000 377.330
32.59000 378.004
32.60000 379.405
32.61000 380.489
32.62000 384.141
32.63000 387.190
32.64000 388.504
32.65000 386.090
32.66000 383.551
32.67000 379.989
32.68000 374.954
32.69000 369.908
32.70000 372.161
32.71000 381.217
32.72000 390.173
32.73000 392.133
32.74000 389.813
32.75000 387.584
32.76000 387.414
32.77000 388.094
32.78000 388.728
32.79000 381.388
32.80000 372.713
32.81000 365.914
32.82000 371.473
32.83000 379.288
32.84000 386.752
32.85000 392.731
32.86000 398.544
32.87000 402.905
32.88000 406.014
32.89000 408.383
32.90000 413.443
32.91000 423.663
32.92000 434.010
32.93000 439.004
32.94000 437.163
32.95000 435.300
32.96000 436.041
32.97000 438.911
32.98000 441.732
32.99000 442.299
33.00000 441.637
33.01000 441.281
33.02000 446.405
33.03000 453.548
33.04000 460.132
33.05000 462.694
33.06000 464.098
33.07000 463.506
33.08000 451.417
33.09000 437.490
33.10000 425.215
33.11000 419.149
33.12000 413.676
33.13000 409.702
33.14000 412.879
33.15000 415.590
33.16000 413.093
33.17000 401.694
33.18000 390.145
33.19000 382.589
33.20000 379.534
33.21000 376.493
33.22000 373.527
33.23000 370.641
33.24000 367.684
33.25000 362.394
33.26000 355.970
33.27000 349.974
33.28000 350.195
33.29000 352.460
33.30000 354.517
33.31000 355.389
33.32000 355.930
33.33000 356.334
33.34000 356.048
33.35000 355.665
33.36000 356.123
33.37000 359.390
33.38000 362.883
33.39000 365.332
33.40000 365.333
33.41000 365.264
33.42000 362.843
33.43000 356.848
33.44000 350.815
33.45000 345.678
33.46000 341.428
33.47000 337.206
33.48000 337.040
33.49000 339.448
33.50000 341.667
33.51000 339.115
33.52000 334.492
33.53000 330.609
33.54000 335.637
33.55000 343.278
33.56000 350.103
33.57000 348.687
33.58000 346.066
33.59000 344.969
33.60000 350.687
33.61000 357.224
33.62000 360.529
33.63000 354.195
33.64000 347.219
33.65000 342.512
33.66000 345.416
33.67000 347.739
33.68000 349.328
33.69000 349.929
33.70000 350.522
33.71000 348.886
33.72000 345.314
33.73000 341.783
33.74000 339.977
33.75000 339.179
33.76000 338.306
33.77000 335.952
33.78000 333.023
33.79000 330.845
33.80000 336.296
33.81000 343.736
33.82000 350.263
33.83000 342.436
33.84000 333.623
33.85000 328.239
33.86000 336.446
33.87000 346.052
33.88000 353.106
33.89000 353.370
33.90000 353.266
33.91000 353.199
33.92000 355.877
33.93000 357.877
33.94000 355.796
33.95000 348.851
33.96000 341.905
33.97000 336.866
33.98000 333.288
33.99000 329.770
34.00000 333.145
34.01000 339.816
34.02000 345.835
34.03000 341.514
34.04000 333.613
34.05000 326.784
34.06000 329.253
34.07000 333.872
34.08000 337.846
34.09000 341.399
34.10000 344.355
34.11000 346.019
34.12000 343.135
34.13000 339.855
34.14000 336.840
34.15000 334.455
34.16000 332.098
34.17000 330.639
34.18000 327.572
34.19000 325.353
34.20000 325.691
34.21000 328.713
34.22000 331.723
34.23000 333.405
34.24000 334.184
34.25000 334.945
34.26000 331.667
34.27000 326.766
34.28000 321.866
34.29000 316.957
34.30000 312.046
34.31000 307.354
34.32000 304.298
34.33000 301.576
34.34000 299.285
34.35000 309.869
34.36000 320.081
34.37000 327.702
34.38000 327.191
34.39000 326.091
34.40000 326.210
34.41000 328.919
34.42000 331.713
34.43000 333.359
34.44000 341.259
34.45000 346.865
34.46000 346.552
34.47000 340.796
34.48000 335.037
34.49000 329.076
34.50000 322.991
34.51000 317.098
34.52000 319.378
34.53000 324.687
34.54000 329.578
34.55000 329.885
34.56000 328.933
34.57000 327.425
34.58000 322.309
34.59000 316.545
34.60000 311.802
34.61000 322.563
34.62000 332.818
34.63000 339.760
34.64000 337.431
34.65000 334.551
34.66000 334.209
34.67000 338.672
34.68000 343.249
34.69000 345.805
34.70000 334.487
34.71000 326.650
34.72000 329.613
34.73000 341.325
34.74000 352.793
34.75000 353.364
34.76000 348.070
34.77000 342.990
34.78000 337.131
34.79000 331.390
34.80000 325.805
34.81000 321.672
34.82000 317.893
34.83000 314.673
34.84000 314.627
34.85000 315.081
34.86000 315.446
34.87000 323.656
34.88000 330.903
34.89000 334.091
34.90000 327.134
34.91000 319.695
34.92000 315.606
34.93000 317.171
34.94000 318.827
34.95000 319.699
34.96000 325.734
34.97000 329.826
34.98000 333.349
34.99000 336.465
35.00000 339.492
35.01000 339.679
35.02000 338.501
35.03000 337.383
35.04000 330.902
35.05000 323.311
35.06000 316.358
35.07000 314.495
35.08000 313.732
35.09000 314.098
35.10000 320.109
35.11000 326.894
35.12000 332.192
35.13000 327.020
35.14000 322.236
35.15000 318.372
35.16000 316.561
35.17000 314.826
35.18000 313.297
35.19000 312.076
35.20000 310.858
35.21000 309.680
35.22000 308.541
35.23000 307.425
35.24000 308.233
35.25000 310.266
35.26000 312.300
35.27000 314.348
35.28000 316.402
35.29000 318.330
35.30000 313.519
35.31000 307.356
35.32000 302.466
35.33000 306.363
35.34000 311.935
35.35000 316.511
35.36000 316.692
35.37000 316.352
35.38000 316.095
35.39000 312.703
35.40000 309.879
35.41000 310.458
35.42000 317.817
35.43000 325.363
35.44000 328.919
35.45000 327.162
35.46000 325.380
35.47000 322.086
35.48000 317.506
35.49000 313.010
35.50000 312.940
35.51000 315.376
35.52000 317.743
35.53000 318.765
35.54000 319.271
35.55000 319.741
35.56000 315.760
35.57000 311.150
35.58000 307.148
35.59000 306.811
35.60000 307.087
35.61000 307.671
35.62000 309.457
35.63000 311.365
35.64000 312.767
35.65000 312.425
35.66000 312.089
35.67000 314.262
35.68000 320.891
35.69000 327.607
35.70000 324.701
35.71000 310.477
35.72000 296.273
35.73000 291.361
35.74000 293.465
35.75000 295.692
35.76000 302.462
35.77000 311.528
35.78000 319.980
35.79000 318.915
35.80000 314.595
35.81000 310.652
35.82000 305.871
35.83000 301.458
35.84000 298.380
35.85000 302.357
35.86000 307.364
35.87000 312.665
35.88000 318.990
35.89000 325.403
35.90000 329.955
35.91000 317.446
35.92000 307.391
35.93000 302.835
35.94000 306.979
35.95000 311.232
35.96000 314.182
35.97000 315.787
35.98000 317.382
35.99000 313.669
36.00000 306.491
36.01000 299.595
36.02000 300.465
36.03000 304.839
36.04000 308.942
36.05000 309.594
36.06000 309.193
36.07000 308.832
36.08000 308.618
36.09000 308.456
36.10000 308.182
36.11000 307.384
36.12000 306.520
36.13000 305.649
36.14000 304.754
36.15000 303.856
36.16000 303.243
36.17000 300.192
36.18000 297.851
36.19000 296.573
36.20000 296.791
36.21000 297.019
36.22000 297.566
36.23000 298.402
36.24000 299.230
36.25000 304.231
36.26000 311.564
36.27000 318.412
36.28000 314.927
36.29000 307.279
36.30000 300.319
36.31000 300.752
36.32000 303.191
36.33000 305.344
36.34000 304.101
36.35000 302.507
36.36000 301.864
36.37000 305.144
36.38000 308.849
36.39000 309.967
36.40000 303.932
36.41000 297.481
36.42000 293.244
36.43000 295.099
36.44000 296.567
36.45000 301.231
36.46000 309.869
36.47000 318.489
36.48000 317.056
36.49000 307.588
36.50000 298.263
36.51000 294.790
36.52000 294.440
36.53000 294.261
36.54000 296.994
36.55000 300.773
36.56000 303.890
36.57000 300.956
36.58000 296.564
36.59000 292.761
36.60000 297.791
36.61000 303.238
36.62000 305.958
36.63000 298.686
36.64000 290.492
36.65000 285.928
36.66000 290.325
36.67000 295.137
36.68000 298.163
36.69000 301.695
36.70000 304.256
36.71000 304.761
36.72000 303.016
36.73000 301.291
36.74000 302.690
36.75000 306.299
36.76000 309.831
36.77000 308.182
36.78000 304.239
36.79000 300.746
36.80000 303.510
36.81000 308.282
36.82000 311.814
36.83000 305.609
36.84000 297.329
36.85000 290.304
36.86000 296.434
36.87000 303.063
36.88000 307.573
36.89000 305.173
36.90000 302.237
36.91000 300.553
36.92000 301.631
36.93000 302.807
36.94000 303.512
36.95000 306.895
36.96000 309.315
36.97000 308.098
36.98000 303.388
36.99000 298.749
37.00000 299.603
37.01000 303.911
37.02000 308.095
37.03000 311.190
37.04000 313.691
37.05000 316.052
37.06000 316.786
37.07000 317.054
37.08000 317.173
37.09000 316.271
37.10000 315.176
37.11000 314.268
37.12000 310.228
37.13000 306.588
37.14000 303.691
37.15000 302.953
37.16000 302.353
37.17000 301.584
37.18000 300.481
37.19000 299.370
37.20000 298.737
37.21000 303.146
37.22000 306.232
37.23000 307.781
37.24000 308.031
37.25000 308.288
37.26000 308.836
37.27000 309.547
37.28000 310.231
37.29000 304.093
37.30000 295.909
37.31000 289.099
37.32000 295.758
37.33000 305.840
37.34000 313.526
37.35000 306.984
37.36000 298.094
37.37000 290.900
37.38000 290.802
37.39000 291.296
37.40000 291.745
37.41000 292.072
37.42000 292.394
37.43000 294.704
37.44000 300.506
37.45000 306.372
37.46000 309.525
37.47000 301.338
37.48000 295.747
37.49000 292.511
37.50000 291.034
37.51000 289.695
37.52000 293.311
37.53000 299.398
37.54000 305.200
37.55000 299.823
37.56000 291.338
37.57000 283.654
37.58000 282.693
37.59000 283.247
37.60000 284.355
37.61000 288.361
37.62000 292.784
37.63000 296.270
37.64000 299.815
37.65000 302.661
37.66000 303.338
37.67000 298.985
37.68000 294.430
37.69000 291.901
37.70000 292.540
37.71000 293.216
37.72000 293.557
37.73000 287.038
37.74000 282.752
37.75000 285.891
37.76000 293.947
37.77000 301.878
37.78000 306.454
37.79000 309.536
37.80000 312.440
37.81000 308.464
37.82000 302.928
37.83000 297.472
37.84000 292.594
37.85000 287.831
37.86000 285.079
37.87000 291.577
37.88000 299.226
37.89000 305.085
37.90000 304.044
37.91000 302.842
37.92000 301.027
37.93000 297.942
37.94000 294.818
37.95000 292.767
37.96000 292.203
37.97000 291.648
37.98000 292.932
37.99000 295.857
38.00000 298.724
38.01000 298.095
38.02000 295.407
38.03000 292.828
38.04000 292.529
38.05000 293.138
38.06000 293.704
38.07000 293.328
38.08000 292.759
38.09000 292.939
38.10000 297.834
38.11000 303.554
38.12000 307.753
38.13000 305.753
38.14000 303.092
38.15000 301.115
38.16000 309.098
38.17000 315.743
38.18000 319.352
38.19000 317.354
38.20000 315.232
38.21000 310.748
38.22000 303.363
38.23000 295.985
38.24000 296.311
38.25000 302.681
38.26000 309.132
38.27000 318.922
38.28000 330.465
38.29000 341.467
38.30000 343.466
38.31000 342.266
38.32000 341.165
38.33000 339.820
38.34000 338.569
38.35000 338.083
38.36000 341.823
38.37000 346.210
38.38000 350.465
38.39000 354.242
38.40000 357.976
38.41000 360.658
38.42000 371.459
38.43000 380.001
38.44000 388.412
38.45000 396.604
38.46000 404.793
38.47000 414.502
38.48000 425.853
38.49000 437.153
38.50000 454.199
38.51000 475.034
38.52000 496.006
38.53000 521.104
38.54000 548.137
38.55000 574.706
38.56000 594.960
38.57000 613.211
38.58000 629.699
38.59000 644.735
38.60000 657.688
38.61000 672.288
38.62000 694.897
38.63000 718.570
38.64000 741.560
38.65000 762.349
38.66000 782.970
38.67000 797.254
38.68000 801.747
38.69000 804.872
38.70000 807.681
38.71000 810.029
38.72000 812.372
38.73000 809.243
38.74000 800.929
38.75000 792.683
38.76000 778.470
38.77000 760.879
38.78000 743.260
38.79000 725.007
38.80000 706.490
38.81000 687.722
38.82000 666.090
38.83000 643.651
38.84000 623.720
38.85000 595.827
38.86000 570.361
38.87000 545.673
38.88000 524.329
38.89000 503.368
38.90000 483.305
38.91000 465.821
38.92000 448.497
38.93000 436.960
38.94000 424.138
38.95000 414.623
38.96000 403.129
38.97000 389.068
38.98000 375.000
38.99000 363.053
39.00000 352.874
39.01000 342.828
39.02000 327.504
39.03000 309.753
39.04000 292.768
39.05000 289.814
39.06000 292.105
39.07000 293.905
39.08000 290.980
39.09000 286.869
39.10000 283.284
39.11000 281.560
39.12000 280.345
39.13000 280.161
39.14000 283.910
39.15000 288.043
39.16000 291.256
39.17000 292.107
39.18000 292.840
39.19000 293.307
39.20000 288.049
39.21000 284.149
39.22000 282.011
39.23000 281.890
39.24000 281.760
39.25000 279.756
39.26000 276.369
39.27000 273.047
39.28000 271.764
39.29000 271.497
39.30000 271.337
39.31000 272.754
39.32000 274.697
39.33000 276.522
39.34000 277.378
39.35000 278.019
39.36000 278.566
39.37000 280.568
39.38000 282.429
39.39000 283.794
39.40000 283.475
39.41000 283.018
39.42000 281.332
39.43000 276.833
39.44000 272.224
39.45000 269.415
39.46000 261.521
39.47000 255.839
39.48000 258.258
39.49000 268.817
39.50000 279.269
39.51000 279.792
39.52000 273.821
39.53000 268.005
39.54000 267.290
39.55000 268.750
39.56000 269.933
39.57000 267.706
39.58000 264.464
39.59000 261.951
39.60000 264.630
39.61000 268.327
39.62000 271.419
39.63000 275.798
39.64000 279.565
39.65000 281.087
39.66000 275.819
39.67000 270.089
39.68000 267.834
39.69000 272.687
39.70000 277.751
39.71000 280.684
39.72000 275.946
39.73000 272.591
39.74000 270.263
39.75000 268.842
39.76000 267.423
39.77000 266.142
39.78000 264.942
39.79000 263.782
39.80000 266.134
39.81000 269.651
39.82000 273.050
39.83000 275.225
39.84000 277.076
39.85000 277.582
39.86000 269.733
39.87000 260.443
39.88000 252.859
39.89000 264.752
39.90000 276.154
39.91000 283.294
39.92000 278.931
39.93000 273.930
39.94000 269.688
39.95000 266.831
39.96000 264.003
39.97000 262.453
39.98000 266.740
39.99000 269.692
40.00000 271.296
40.01000 271.852
40.02000 272.375
40.03000 271.603
40.04000 270.158
40.05000 268.777
40.06000 266.347
40.07000 263.743
40.08000 261.330
40.09000 260.609
40.10000 260.284
40.11000 260.575
40.12000 264.217
40.13000 268.365
40.14000 271.664
40.15000 266.358
40.16000 261.464
40.17000 258.360
40.18000 259.568
40.19000 260.966
40.20000 260.026
40.21000 255.285
40.22000 250.490
40.23000 248.017
40.24000 258.282
40.25000 265.137
40.26000 264.421
40.27000 258.485
40.28000 252.836
40.29000 255.590
40.30000 262.236
40.31000 268.523
40.32000 266.394
40.33000 262.013
40.34000 258.109
40.35000 257.827
40.36000 258.298
40.37000 259.219
40.38000 262.297
40.39000 265.657
40.40000 268.257
40.41000 259.847
40.42000 252.522
40.43000 249.158
40.44000 254.315
40.45000 259.759
40.46000 262.954
40.47000 262.900
40.48000 262.821
40.49000 259.601
40.50000 253.451
40.51000 247.372
40.52000 246.256
40.53000 248.183
40.54000 250.017
40.55000 249.762
40.56000 248.643
40.57000 247.598
40.58000 250.282
40.59000 253.663
40.60000 256.634
40.61000 256.900
40.62000 256.672
40.63000 255.910
40.64000 252.886
40.65000 249.608
40.66000 247.146
40.67000 247.015
40.68000 247.023
40.69000 246.522
40.70000 245.043
40.71000 243.539
40.72000 247.388
40.73000 258.084
40.74000 268.792
40.75000 270.959
40.76000 266.118
40.77000 261.262
40.78000 255.738
40.79000 249.849
40.80000 244.399
40.81000 246.795
40.82000 252.089
40.83000 256.969
40.84000 250.551
40.85000 242.298
40.86000 234.992
40.87000 233.153
40.88000 232.191
40.89000 233.115
40.90000 241.147
40.91000 249.861
40.92000 256.192
40.93000 251.199
40.94000 246.933
40.95000 244.832
40.96000 246.440
40.97000 248.111
40.98000 247.843
40.99000 245.386
41.00000 242.936
41.01000 241.461
41.02000 240.702
41.03000 239.975
41.04000 240.324
41.05000 241.196
41.06000 242.048
41.07000 242.590
41.08000 243.031
41.09000 243.431
41.10000 245.716
41.11000 248.099
41.12000 250.156
41.13000 250.556
41.14000 250.724
41.15000 251.329
41.16000 253.394
41.17000 255.578
41.18000 257.109
41.19000 252.104
41.20000 248.127
41.21000 244.185
41.22000 240.297
41.23000 236.410
41.24000 240.302
41.25000 251.899
41.26000 263.417
41.27000 264.012
41.28000 257.652
41.29000 251.322
41.30000 245.709
41.31000 240.408
41.32000 235.893
41.33000 240.876
41.34000 248.647
41.35000 255.590
41.36000 249.950
41.37000 242.913
41.38000 237.829
41.39000 241.493
41.40000 246.212
41.41000 248.690
41.42000 244.479
41.43000 239.821
41.44000 236.677
41.45000 236.574
41.46000 236.562
41.47000 239.743
41.48000 247.237
41.49000 254.752
41.50000 259.036
41.51000 260.510
41.52000 261.967
41.53000 259.764
41.54000 255.559
41.55000 251.443
41.56000 249.068
41.57000 247.369
41.58000 245.460
41.59000 241.424
41.60000 236.833
41.61000 232.803
41.62000 235.932
41.63000 239.665
41.64000 242.433
41.65000 241.368
41.66000 239.907
41.67000 238.828
41.68000 238.766
41.69000 238.758
41.70000 238.754
41.71000 243.191
41.72000 246.504
41.73000 247.720
41.74000 246.434
41.75000 245.145
41.76000 244.366
41.77000 243.978
41.78000 243.598
41.79000 245.341
41.80000 248.078
41.81000 250.470
41.82000 247.358
41.83000 242.338
41.84000 238.299
41.85000 242.779
41.86000 249.233
41.87000 254.787
41.88000 251.218
41.89000 247.049
41.90000 243.630
41.91000 242.858
41.92000 242.318
41.93000 241.296
41.94000 239.130
41.95000 236.914
41.96000 235.542
41.97000 244.264
41.98000 250.631
41.99000 253.375
42.00000 252.313
42.01000 251.227
42.02000 247.521
42.03000 242.029
42.04000 236.668
42.05000 236.459
42.06000 238.514
42.07000 240.390
42.08000 239.927
42.09000 238.741
42.10000 237.947
42.11000 240.085
42.12000 242.825
42.13000 245.132
42.14000 237.378
42.15000 229.826
42.16000 225.093
42.17000 229.220
42.18000 233.993
42.19000 237.142
42.20000 236.842
42.21000 236.429
42.22000 236.185
42.23000 240.994
42.24000 244.414
42.25000 245.924
42.26000 245.674
42.27000 245.403
42.28000 243.764
42.29000 241.297
42.30000 238.907
42.31000 239.414
42.32000 241.012
42.33000 242.310
42.34000 240.314
42.35000 237.411
42.36000 234.800
42.37000 234.089
42.38000 233.720
42.39000 233.416
42.40000 238.039
42.41000 242.289
42.42000 242.877
42.43000 233.194
42.44000 222.899
42.45000 219.828
42.46000 230.456
42.47000 241.412
42.48000 247.535
42.49000 239.265
42.50000 233.511
42.51000 229.714
42.52000 227.507
42.53000 225.390
42.54000 227.356
42.55000 231.523
42.56000 235.522
42.57000 237.783
42.58000 239.305
42.59000 240.342
42.60000 236.861
42.61000 232.276
42.62000 229.721
42.63000 238.723
42.64000 249.550
42.65000 258.241
42.66000 250.278
42.67000 242.556
42.68000 234.469
42.69000 225.467
42.70000 216.421
42.71000 214.069
42.72000 223.031
42.73000 232.178
42.74000 236.998
42.75000 243.552
42.76000 247.961
42.77000 246.303
42.78000 240.288
42.79000 234.296
42.80000 229.021
42.81000 224.093
42.82000 219.411
42.83000 220.542
42.84000 223.333
42.85000 226.304
42.86000 230.713
42.87000 235.434
42.88000 238.900
42.89000 236.090
42.90000 232.418
42.91000 229.549
42.92000 229.572
42.93000 229.772
42.94000 230.662
42.95000 233.094
42.96000 235.584
42.97000 238.705
42.98000 242.774
42.99000 246.852
43.00000 244.687
43.01000 236.425
43.02000 228.261
43.03000 228.253
43.04000 233.445
43.05000 238.453
43.06000 238.952
43.07000 237.514
43.08000 236.165
43.09000 235.074
43.10000 234.148
43.11000 233.400
43.12000 233.885
43.13000 234.606
43.14000 234.620
43.15000 231.505
43.16000 228.020
43.17000 225.376
43.18000 237.999
43.19000 248.700
43.20000 253.389
43.21000 246.079
43.22000 238.438
43.23000 234.130
43.24000 234.268
43.25000 234.429
43.26000 231.998
43.27000 227.354
43.28000 222.806
43.29000 223.357
43.30000 226.801
43.31000 230.177
43.32000 232.233
43.33000 233.782
43.34000 235.217
43.35000 232.821
43.36000 229.776
43.37000 227.827
43.38000 232.495
43.39000 238.271
43.40000 242.163
43.41000 238.669
43.42000 234.427
43.43000 231.309
43.44000 230.427
43.45000 229.836
43.46000 227.254
43.47000 221.129
43.48000 214.934
43.49000 212.883
43.50000 215.716
43.51000 218.548
43.52000 222.117
43.53000 226.217
43.54000 230.262
43.55000 232.278
43.56000 233.267
43.57000 234.222
43.58000 234.644
43.59000 234.885
43.60000 235.104
43.61000 229.958
43.62000 224.302
43.63000 219.469
43.64000 219.001
43.65000 219.172
43.66000 220.546
43.67000 226.116
43.68000 232.044
43.69000 236.255
43.70000 236.692
43.71000 236.905
43.72000 234.869
43.73000 229.269
43.74000 223.624
43.75000 222.470
43.76000 225.969
43.77000 229.449
43.78000 227.335
43.79000 221.538
43.80000 216.006
43.81000 217.796
43.82000 222.895
43.83000 227.599
43.84000 227.230
43.85000 225.312
43.86000 223.588
43.87000 224.465
43.88000 225.692
43.89000 226.554
43.90000 225.709
43.91000 224.647
43.92000 225.110
43.93000 230.302
43.94000 235.831
43.95000 239.614
43.96000 230.199
43.97000 222.837
43.98000 220.086
43.99000 223.823
44.00000 227.606
44.01000 230.056
44.02000 231.297
44.03000 232.526
44.04000 231.782
44.05000 229.898
44.06000 227.895
44.07000 223.331
44.08000 217.735
44.09000 212.717
44.10000 213.932
44.11000 216.841
44.12000 219.411
44.13000 221.907
44.14000 224.050
44.15000 225.293
44.16000 222.813
44.17000 219.928
44.18000 217.430
44.19000 216.002
44.20000 214.636
44.21000 213.739
44.22000 214.073
44.23000 214.340
44.24000 217.146
44.25000 223.115
44.26000 229.087
44.27000 232.582
44.28000 234.095
44.29000 235.585
44.30000 232.880
44.31000 228.088
44.32000 223.572
44.33000 223.752
44.34000 225.626
44.35000 227.455
44.36000 228.881
44.37000 230.209
44.38000 231.361
44.39000 232.587
44.40000 233.641
44.41000 233.414
44.42000 228.484
44.43000 223.119
44.44000 220.388
44.45000 224.170
44.46000 228.255
44.47000 230.824
44.48000 226.130
44.49000 222.654
44.50000 223.476
44.51000 229.020
44.52000 234.536
44.53000 235.908
44.54000 234.343
44.55000 232.811
44.56000 231.402
44.57000 230.106
44.58000 229.284
44.59000 235.071
44.60000 242.984
44.61000 249.843
44.62000 248.421
44.63000 245.230
44.64000 242.522
44.65000 246.655
44.66000 250.897
44.67000 253.366
44.68000 250.038
44.69000 246.260
44.70000 244.079
44.71000 245.421
44.72000 246.890
44.73000 247.771
44.74000 254.265
44.75000 258.915
44.76000 262.842
44.77000 266.071
44.78000 269.374
44.79000 278.439
44.80000 291.132
44.81000 303.463
44.82000 310.911
44.83000 316.017
44.84000 321.565
44.85000 332.245
44.86000 344.395
44.87000 355.375
44.88000 358.375
44.89000 359.872
44.90000 361.114
44.91000 376.435
44.92000 390.453
44.93000 403.279
44.94000 412.627
44.95000 421.753
44.96000 432.276
44.97000 445.554
44.98000 458.906
44.99000 466.508
45.00000 467.590
45.01000 468.332
45.02000 473.657
45.03000 482.862
45.04000 491.994
45.05000 497.414
45.06000 500.751
45.07000 503.965
45.08000 495.204
45.09000 482.719
45.10000 471.070
45.11000 467.646
45.12000 466.316
45.13000 464.372
45.14000 458.776
45.15000 452.576
45.16000 447.556
45.17000 433.090
45.18000 420.545
45.19000 409.726
45.20000 403.394
45.21000 397.294
45.22000 390.795
45.23000 383.595
45.24000 376.382
45.25000 372.502
45.26000 353.750
45.27000 340.948
45.28000 333.149
45.29000 329.091
45.30000 325.076
45.31000 322.547
45.32000 320.762
45.33000 319.061
45.34000 309.046
45.35000 297.152
45.36000 284.963
45.37000 270.298
45.38000 255.074
45.39000 243.211
45.40000 248.908
45.41000 257.136
45.42000 263.625
45.43000 259.125
45.44000 254.776
45.45000 252.072
45.46000 253.193
45.47000 254.468
45.48000 252.462
45.49000 245.322
45.50000 238.120
45.51000 234.482
45.52000 232.331
45.53000 230.936
45.54000 233.952
45.55000 239.895
45.56000 245.305
45.57000 236.430
45.58000 221.179
45.59000 206.804
45.60000 210.484
45.61000 218.839
45.62000 226.676
45.63000 230.763
45.64000 234.102
45.65000 236.074
45.66000 231.749
45.67000 226.638
45.68000 222.722
45.69000 216.690
45.70000 211.811
45.71000 211.568
45.72000 220.941
45.73000 230.609
45.74000 232.822
45.75000 224.677
45.76000 216.468
45.77000 213.663
45.78000 215.697
45.79000 217.712
45.80000 218.496
45.81000 218.554
45.82000 218.633
45.83000 219.126
45.84000 219.784
45.85000 220.397
45.86000 217.402
45.87000 213.821
45.88000 210.356
45.89000 207.624
45.90000 205.022
45.91000 203.189
45.92000 204.493
45.93000 206.134
45.94000 207.354
45.95000 211.786
45.96000 215.374
45.97000 216.703
45.98000 213.852
45.99000 210.908
46.00000 210.763
46.01000 214.057
46.02000 217.354
46.03000 217.475
46.04000 215.097
46.05000 212.723
46.06000 210.524
46.07000 208.415
46.08000 206.320
46.09000 204.448
46.10000 202.654
46.11000 201.008
46.12000 203.345
46.13000 206.276
46.14000 208.475
46.15000 206.634
46.16000 204.173
46.17000 202.971
46.18000 206.330
46.19000 210.104
46.20000 212.816
46.21000 206.652
46.22000 201.628
46.23000 198.436
46.24000 198.264
46.25000 198.137
46.26000 198.405
46.27000 199.102
46.28000 199.795
46.29000 201.075
46.30000 202.747
46.31000 204.493
46.32000 208.461
46.33000 213.473
46.34000 217.646
46.35000 210.338
46.36000 199.385
46.37000 189.488
46.38000 189.906
46.39000 192.187
46.40000 194.272
46.41000 195.408
46.42000 196.417
46.43000 198.439
46.44000 203.731
46.45000 209.272
46.46000 213.112
46.47000 212.087
46.48000 211.187
46.49000 210.358
46.50000 209.632
46.51000 208.907
46.52000 206.282
46.53000 201.852
46.54000 197.458
46.55000 196.746
46.56000 198.294
46.57000 199.686
46.58000 197.460
46.59000 193.717
46.60000 190.313
46.61000 190.788
46.62000 192.360
46.63000 193.757
46.64000 199.907
46.65000 206.006
46.66000 209.903
46.67000 204.316
46.68000 197.641
46.69000 193.047
46.70000 194.443
46.71000 196.215
46.72000 197.395
46.73000 200.299
46.74000 202.481
46.75000 205.557
46.76000 209.795
46.77000 214.027
46.78000 212.928
46.79000 207.377
46.80000 201.898
46.81000 197.776
46.82000 194.495
46.83000 191.473
46.84000 193.209
46.85000 196.726
46.86000 199.863
46.87000 199.322
46.88000 197.856
46.89000 196.578
46.90000 194.296
46.91000 192.205
46.92000 190.922
46.93000 192.730
46.94000 194.841
46.95000 196.369
46.96000 196.398
46.97000 196.351
46.98000 196.322
46.99000 193.890
47.00000 192.089
47.01000 191.747
47.02000 193.076
47.03000 194.397
47.04000 193.702
47.05000 191.519
47.06000 189.377
47.07000 188.591
47.08000 188.479
47.09000 188.369
47.10000 188.291
47.11000 188.224
47.12000 188.442
47.13000 191.025
47.14000 194.134
47.15000 196.792
47.16000 194.828
47.17000 192.621
47.18000 192.443
47.19000 199.163
47.20000 206.452
47.21000 208.028
47.22000 196.499
47.23000 184.452
47.24000 177.106
47.25000 185.817
47.26000 192.173
47.27000 192.085
47.28000 185.510
47.29000 179.032
47.30000 181.608
47.31000 190.118
47.32000 198.407
47.33000 202.341
47.34000 204.262
47.35000 206.365
47.36000 210.731
47.37000 215.771
47.38000 218.899
47.39000 208.353
47.40000 195.119
47.41000 184.052
47.42000 186.225
47.43000 189.379
47.44000 191.548
47.45000 190.730
47.46000 189.707
47.47000 190.025
47.48000 193.092
47.49000 196.239
47.50000 198.064
47.51000 193.540
47.52000 190.340
47.53000 188.408
47.54000 187.597
47.55000 186.827
47.56000 188.473
47.57000 191.528
47.58000 194.478
47.59000 195.540
47.60000 195.840
47.61000 196.039
47.62000 195.183
47.63000 194.047
47.64000 192.715
47.65000 190.165
47.66000 187.404
47.67000 185.150
47.68000 191.243
47.69000 196.948
47.70000 201.073
47.71000 200.930
47.72000 200.549
47.73000 199.054
47.74000 195.525
47.75000 191.951
47.76000 189.991
47.77000 193.508
47.78000 195.921
47.79000 194.206
47.80000 189.272
47.81000 184.458
47.82000 184.462
47.83000 186.970
47.84000 189.370
47.85000 189.649
47.86000 189.214
47.87000 188.807
47.88000 188.641
47.89000 188.531
47.90000 189.032
47.91000 192.865
47.92000 197.202
47.93000 200.653
47.94000 194.878
47.95000 189.559
47.96000 183.953
47.97000 177.654
47.98000 171.324
47.99000 168.615
48.00000 171.802
48.01000 175.071
48.02000 176.760
48.03000 177.463
48.04000 177.938
48.05000 178.619
48.06000 179.442
48.07000 180.307
48.08000 182.396
48.09000 185.054
48.10000 187.569
48.11000 186.003
48.12000 183.387
48.13000 180.837
48.14000 178.786
48.15000 176.839
48.16000 176.205
48.17000 181.877
48.18000 188.376
48.19000 193.407
48.20000 191.226
48.21000 189.069
48.22000 186.592
48.23000 183.428
48.24000 180.241
48.25000 180.143
48.26000 184.513
48.27000 188.919
48.28000 190.791
48.29000 190.292
48.30000 189.736
48.31000 185.145
48.32000 178.076
48.33000 171.413
48.34000 173.921
48.35000 180.228
48.36000 186.122
48.37000 189.249
48.38000 191.386
48.39000 193.089
48.40000 191.918
48.41000 190.220
48.42000 188.610
48.43000 187.375
48.44000 186.182
48.45000 185.286
48.46000 187.421
48.47000 189.235
48.48000 189.053
48.49000 185.029
48.50000 180.910
48.51000 180.314
48.52000 184.235
48.53000 188.168
48.54000 190.564
48.55000 191.690
48.56000 192.726
48.57000 189.528
48.58000 184.016
48.59000 178.718
48.60000 177.273
48.61000 177.254
48.62000 177.236
48.63000 176.899
48.64000 176.526
48.65000 176.883
48.66000 181.466
48.67000 186.728
48.68000 190.806
48.69000 190.423
48.70000 189.610
48.71000 189.019
48.72000 184.091
48.73000 180.136
48.74000 178.126
48.75000 179.452
48.76000 180.835
48.77000 180.464
48.78000 178.109
48.79000 175.760
48.80000 175.017
48.81000 175.442
48.82000 175.901
48.83000 177.509
48.84000 179.676
48.85000 181.750
48.86000 182.464
48.87000 182.728
48.88000 182.968
48.89000 178.978
48.90000 174.631
48.91000 171.257
48.92000 172.830
48.93000 175.093
48.94000 175.915
48.95000 171.900
48.96000 167.493
48.97000 164.401
48.98000 173.180
48.99000 180.171
49.00000 181.209
49.01000 173.167
49.02000 165.028
49.03000 165.854
49.04000 175.578
49.05000 185.236
49.06000 187.625
49.07000 185.347
49.08000 182.998
49.09000 178.820
49.10000 173.846
49.11000 169.242
49.12000 169.114
49.13000 170.303
49.14000 171.366
49.15000 175.097
49.16000 178.800
49.17000 181.624
49.18000 180.507
49.19000 178.912
49.20000 177.669
49.21000 177.473
49.22000 177.347
49.23000 177.262
49.24000 172.739
49.25000 169.276
49.26000 169.987
49.27000 176.348
49.28000 182.734
49.29000 184.891
49.30000 183.360
49.31000 181.846
49.32000 181.290
49.33000 181.286
49.34000 181.220
49.35000 179.927
49.36000 178.157
49.37000 176.781
49.38000 179.419
49.39000 183.107
49.40000 186.345
49.41000 182.314
49.42000 177.786
49.43000 174.976
49.44000 178.997
49.45000 183.725
49.46000 188.649
49.47000 194.097
49.48000 199.573
49.49000 203.123
49.50000 185.988
49.51000 173.137
49.52000 166.908
49.53000 168.601
49.54000 170.327
49.55000 175.973
49.56000 184.635
49.57000 193.152
49.58000 193.031
49.59000 188.626
49.60000 184.259
49.61000 180.495
49.62000 176.941
49.63000 173.856
49.64000 174.860
49.65000 176.813
49.66000 178.494
49.67000 182.864
49.68000 186.905
49.69000 189.553
49.70000 187.278
49.71000 184.573
49.72000 182.420
49.73000 181.583
49.74000 180.803
49.75000 180.319
49.76000 186.441
49.77000 190.906
49.78000 189.242
49.79000 181.124
49.80000 173.057
49.81000 170.831
49.82000 172.589
49.83000 174.306
49.84000 175.190
49.85000 175.672
49.86000 175.919
49.87000 173.083
49.88000 169.291
49.89000 166.207
49.90000 168.425
49.91000 171.731
49.92000 174.517
49.93000 178.604
49.94000 182.156
49.95000 185.826
49.96000 189.869
49.97000 193.940
49.98000 194.580
49.99000 187.919
50.00000 181.016
50.01000 176.944
50.02000 177.215
50.03000 177.430
50.04000 177.261
50.05000 176.736
50.06000 176.240
50.07000 177.756
50.08000 180.490
50.09000 183.139
50.10000 184.007
50.11000 184.138
50.12000 184.143
50.13000 182.767
50.14000 181.009
50.15000 179.773
50.16000 181.935
50.17000 184.711
50.18000 186.997
50.19000 184.363
50.20000 181.747
50.21000 181.365
50.22000 187.254
50.23000 193.519
50.24000 197.277
50.25000 196.274
50.26000 195.156
50.27000 194.532
50.28000 198.364
50.29000 201.016
50.30000 198.832
50.31000 192.715
50.32000 186.773
50.33000 188.692
50.34000 194.859
50.35000 200.779
50.36000 204.341
50.37000 206.868
50.38000 209.212
50.39000 209.853
50.40000 210.077
50.41000 209.468
50.42000 204.112
50.43000 198.004
50.44000 193.100
50.45000 204.268
50.46000 214.546
50.47000 222.244
50.48000 223.471
50.49000 224.388
50.50000 227.002
50.51000 232.487
50.52000 238.020
50.53000 240.938
50.54000 242.069
50.55000 242.863
50.56000 247.892
50.57000 255.968
50.58000 264.047
50.59000 272.236
50.60000 280.478
50.61000 288.306
50.62000 285.301
50.63000 279.264
50.64000 274.604
50.65000 280.970
50.66000 289.727
50.67000 296.593
50.68000 293.972
50.69000 290.045
50.70000 286.976
50.71000 290.354
50.72000 293.457
50.73000 296.016
50.74000 297.354
50.75000 298.647
50.76000 293.742
50.77000 279.501
50.78000 265.168
50.79000 257.511
50.80000 256.386
50.81000 255.264
50.82000 254.384
50.83000 253.659
50.84000 252.825
50.85000 249.291
50.86000 244.596
50.87000 240.188
50.88000 235.005
50.89000 230.075
50.90000 225.215
50.91000 220.843
50.92000 216.565
50.93000 212.401
50.94000 208.742
50.95000 205.142
50.96000 202.411
50.97000 193.817
50.98000 186.762
50.99000 183.516
51.00000 187.886
51.01000 192.468
51.02000 193.363
51.03000 189.333
51.04000 185.280
51.05000 184.360
51.06000 186.132
51.07000 187.850
51.08000 186.758
51.09000 184.067
51.10000 181.375
51.11000 178.660
51.12000 175.937
51.13000 173.414
51.14000 175.327
51.15000 178.079
51.16000 180.559
51.17000 181.389
51.18000 181.943
51.19000 182.114
51.20000 180.782
51.21000 179.297
51.22000 178.205
51.23000 174.586
51.24000 171.683
51.25000 169.838
51.26000 169.881
51.27000 169.960
51.28000 170.520
51.29000 171.648
51.30000 172.773
51.31000 172.338
51.32000 170.728
51.33000 169.238
51.34000 172.211
51.35000 177.447
51.36000 182.177
51.37000 178.987
51.38000 173.081
51.39000 167.687
51.40000 165.304
51.41000 163.801
51.42000 162.834
51.43000 164.718
51.44000 167.020
51.45000 168.772
51.46000 168.610
51.47000 168.283
51.48000 168.051
51.49000 173.341
51.50000 177.543
51.51000 177.618
51.52000 171.141
51.53000 164.581
51.54000 161.650
51.55000 162.487
51.56000 163.320
51.57000 166.053
51.58000 170.013
51.59000 173.733
51.60000 170.791
51.61000 164.835
51.62000 159.361
51.63000 160.095
51.64000 162.729
51.65000 165.097
51.66000 166.554
51.67000 167.669
51.68000 168.156
51.69000 165.708
51.70000 162.886
51.71000 159.952
51.72000 156.663
51.73000 153.350
51.74000 151.082
51.75000 158.127
51.76000 163.625
51.77000 166.475
51.78000 165.591
51.79000 164.680
51.80000 162.323
51.81000 158.650
51.82000 155.013
51.83000 154.364
51.84000 155.480
51.85000 156.553
51.86000 156.679
51.87000 156.423
51.88000 156.378
51.89000 158.613
51.90000 161.467
51.91000 163.989
51.92000 167.093
51.93000 169.862
51.94000 171.189
51.95000 166.548
51.96000 161.256
51.97000 157.444
51.98000 157.740
51.99000 158.277
52.00000 158.631
52.01000 163.827
52.02000 167.735
52.03000 168.622
52.04000 165.740
52.05000 162.855
52.06000 163.151
52.07000 165.999
52.08000 168.805
52.09000 170.844
52.10000 172.425
52.11000 173.835
52.12000 172.328
52.13000 169.767
52.14000 167.101
52.15000 163.474
52.16000 159.614
52.17000 156.269
52.18000 155.153
52.19000 154.499
52.20000 154.713
52.21000 158.117
52.22000 161.817
52.23000 164.265
52.24000 163.611
52.25000 162.811
52.26000 162.309
52.27000 155.942
52.28000 151.269
52.29000 149.750
52.30000 151.701
52.31000 153.666
52.32000 157.540
52.33000 162.769
52.34000 167.887
52.35000 169.746
52.36000 170.042
52.37000 170.430
52.38000 172.112
52.39000 174.212
52.40000 175.562
52.41000 171.012
52.42000 165.198
52.43000 160.263
52.44000 159.385
52.45000 159.109
52.46000 158.844
52.47000 158.610
52.48000 158.380
52.49000 158.712
52.50000 160.286
52.51000 161.906
52.52000 162.878
52.53000 163.481
52.54000 163.906
52.55000 163.059
52.56000 160.984
52.57000 158.940
52.58000 159.347
52.59000 161.300
52.60000 163.197
52.61000 165.819
52.62000 168.603
52.63000 171.133
52.64000 170.712
52.65000 169.445
52.66000 168.108
52.67000 166.298
52.68000 164.398
52.69000 162.821
52.70000 161.529
52.71000 160.488
52.72000 159.580
52.73000 159.058
52.74000 158.561
52.75000 157.866
52.76000 156.777
52.77000 155.678
52.78000 155.052
52.79000 162.607
52.80000 167.897
52.81000 170.621
52.82000 171.170
52.83000 171.648
52.84000 168.493
52.85000 163.297
52.86000 158.294
52.87000 159.479
52.88000 162.798
52.89000 165.615
52.90000 163.482
52.91000 160.087
52.92000 157.761
52.93000 161.801
52.94000 166.895
52.95000 171.022
52.96000 167.873
52.97000 164.717
52.98000 163.357
52.99000 166.677
53.00000 170.239
53.01000 170.310
53.02000 164.232
53.03000 158.039
53.04000 154.705
53.05000 151.960
53.06000 150.095
53.07000 150.356
53.08000 152.210
53.09000 154.064
53.10000 155.935
53.11000 157.814
53.12000 159.606
53.13000 160.262
53.14000 160.513
53.15000 160.951
53.16000 162.959
53.17000 165.323
53.18000 166.886
53.19000 164.253
53.20000 161.014
53.21000 158.458
53.22000 163.187
53.23000 167.473
53.24000 169.134
53.25000 164.689
53.26000 159.995
53.27000 157.506
53.28000 158.474
53.29000 159.483
53.30000 159.993
53.31000 161.787
53.32000 162.990
53.33000 164.435
53.34000 166.042
53.35000 167.547
53.36000 166.336
53.37000 163.911
53.38000 161.624
53.39000 161.951
53.40000 162.974
53.41000 163.916
53.42000 164.276
53.43000 164.519
53.44000 164.316
53.45000 162.050
53.46000 159.527
53.47000 157.592
53.48000 165.713
53.49000 172.685
53.50000 176.332
53.51000 173.073
53.52000 169.600
53.53000 167.855
53.54000 168.514
53.55000 169.188
53.56000 167.073
53.57000 162.458
53.58000 157.930
53.59000 158.733
53.60000 162.687
53.61000 166.411
53.62000 165.297
53.63000 162.251
53.64000 159.416
53.65000 159.731
53.66000 160.782
53.67000 161.377
53.68000 159.081
53.69000 156.277
53.70000 153.911
53.71000 153.335
53.72000 152.950
53.73000 152.665
53.74000 156.517
53.75000 159.696
53.76000 161.012
53.77000 158.874
53.78000 156.659
53.79000 154.545
53.80000 152.554
53.81000 150.567
53.82000 152.818
53.83000 158.397
53.84000 163.854
53.85000 164.160
53.86000 161.751
53.87000 159.268
53.88000 155.522
53.89000 151.326
53.90000 147.474
53.91000 149.971
53.92000 153.549
53.93000 156.447
53.94000 155.574
53.95000 154.121
53.96000 153.318
53.97000 154.870
53.98000 156.636
53.99000 157.906
54.00000 155.821
54.01000 154.108
54.02000 155.870
54.03000 163.371
54.04000 170.957
54.05000 172.391
54.06000 167.152
54.07000 161.932
54.08000 157.397
54.09000 153.384
54.10000 149.486
54.11000 149.094
54.12000 150.351
54.13000 151.610
54.14000 152.895
54.15000 154.188
54.16000 155.357
54.17000 152.923
54.18000 150.113
54.19000 147.743
54.20000 147.522
54.21000 147.587
54.22000 148.092
54.23000 150.016
54.24000 152.048
54.25000 153.458
54.26000 148.450
54.27000 144.510
54.28000 144.776
54.29000 151.218
54.30000 157.714
54.31000 161.102
54.32000 161.533
54.33000 161.960
54.34000 159.189
54.35000 154.512
54.36000 150.164
54.37000 153.474
54.38000 160.000
54.39000 165.747
54.40000 162.581
54.41000 156.890
54.42000 151.833
54.43000 155.824
54.44000 160.746
54.45000 164.303
54.46000 161.967
54.47000 158.952
54.48000 156.147
54.49000 153.946
54.50000 151.782
54.51000 150.340
54.52000 151.804
54.53000 152.945
54.54000 154.179
54.55000 155.535
54.56000 156.893
54.57000 158.403
54.58000 160.041
54.59000 161.659
54.60000 161.645
54.61000 160.751
54.62000 159.832
54.63000 158.463
54.64000 156.925
54.65000 155.535
54.66000 155.589
54.67000 156.007
54.68000 156.371
54.69000 155.643
54.70000 154.867
54.71000 155.400
54.72000 160.943
54.73000 166.978
54.74000 170.747
54.75000 168.683
54.76000 166.324
54.77000 164.817
54.78000 162.330
54.79000 160.507
54.80000 157.907
54.81000 154.414
54.82000 150.934
54.83000 150.002
54.84000 150.955
54.85000 151.891
54.86000 155.502
54.87000 160.259
54.88000 164.903
54.89000 167.861
54.90000 170.255
54.91000 171.799
54.92000 166.299
54.93000 159.226
54.94000 153.179
54.95000 159.255
54.96000 165.830
54.97000 170.543
54.98000 168.920
54.99000 166.774
55.00000 165.929
55.01000 168.076
55.02000 170.342
55.03000 171.724
55.04000 165.511
55.05000 161.007
55.06000 159.507
55.07000 161.037
55.08000 162.518
55.09000 159.369
55.10000 153.180
55.11000 147.152
55.12000 148.876
55.13000 153.785
55.14000 158.438
55.15000 159.916
55.16000 160.447
55.17000 160.881
55.18000 160.613
55.19000 160.208
55.20000 159.869
55.21000 162.852
55.22000 165.670
55.23000 168.085
55.24000 169.280
55.25000 170.391
55.26000 169.836
55.27000 165.864
55.28000 161.790
55.29000 159.426
55.30000 164.555
55.31000 168.183
55.32000 168.323
55.33000 165.375
55.34000 162.532
55.35000 165.773
55.36000 172.567
55.37000 179.131
55.38000 180.081
55.39000 178.889
55.40000 178.081
55.41000 181.269
55.42000 185.518
55.43000 189.104
55.44000 188.549
55.45000 187.277
55.46000 186.238
55.47000 193.553
55.48000 200.261
55.49000 205.547
55.50000 206.985
55.51000 208.208
55.52000 211.085
55.53000 216.988
55.54000 222.957
55.55000 226.234
55.56000 229.447
55.57000 231.670
55.58000 237.174
55.59000 245.242
55.60000 253.313
55.61000 261.514
55.62000 269.782
55.63000 277.693
55.64000 284.877
55.65000 291.331
55.66000 298.063
55.67000 307.262
55.68000 317.044
55.69000 328.787
55.70000 351.253
55.71000 375.342
55.72000 394.520
55.73000 411.525
55.74000 425.078
55.75000 439.835
55.76000 457.501
55.77000 475.296
55.78000 496.672
55.79000 523.890
55.80000 551.190
55.81000 565.302
55.82000 576.857
55.83000 584.659
55.84000 593.937
55.85000 604.237
55.86000 614.642
55.87000 628.145
55.88000 643.088
55.89000 657.230
55.90000 663.115
55.91000 666.142
55.92000 669.127
55.93000 671.790
55.94000 674.387
55.95000 672.728
55.96000 650.585
55.97000 625.751
55.98000 606.521
55.99000 612.379
56.00000 618.519
56.01000 618.467
56.02000 605.049
56.03000 591.175
56.04000 575.100
56.05000 555.833
56.06000 536.543
56.07000 519.221
56.08000 503.751
56.09000 488.193
56.10000 466.357
56.11000 440.660
56.12000 415.552
56.13000 403.777
56.14000 397.533
56.15000 391.695
56.16000 371.679
56.17000 349.906
56.18000 329.647
56.19000 319.428
56.20000 311.052
56.21000 303.152
56.22000 297.276
56.23000 291.629
56.24000 287.385
56.25000 273.285
56.26000 261.789
56.27000 250.872
56.28000 241.072
56.29000 231.299
56.30000 223.389
56.31000 217.869
56.32000 212.364
56.33000 207.441
56.34000 203.013
56.35000 198.638
56.36000 196.764
56.37000 196.259
56.38000 195.540
56.39000 190.974
56.40000 184.983
56.41000 179.457
56.42000 180.652
56.43000 183.221
56.44000 185.132
56.45000 183.236
56.46000 180.728
56.47000 178.030
56.48000 174.616
56.49000 171.133
56.50000 168.600
56.51000 167.520
56.52000 166.745
56.53000 165.731
56.54000 164.307
56.55000 162.877
56.56000 161.207
56.57000 159.265
56.58000 157.329
56.59000 156.576
56.60000 156.684
56.61000 156.774
56.62000 156.266
56.63000 155.466
56.64000 154.686
56.65000 154.195
56.66000 153.800
56.67000 153.441
56.68000 150.672
56.69000 147.756
56.70000 146.419
56.71000 153.118
56.72000 160.943
56.73000 165.865
56.74000 161.028
56.75000 155.400
56.76000 151.448
56.77000 157.943
56.78000 163.166
56.79000 163.966
56.80000 158.009
56.81000 151.979
56.82000 151.501
56.83000 156.542
56.84000 161.549
56.85000 161.404
56.86000 157.973
56.87000 154.593
56.88000 152.513
56.89000 151.000
56.90000 149.733
56.91000 151.456
56.92000 154.060
56.93000 156.387
56.94000 155.440
56.95000 154.060
56.96000 153.097
56.97000 154.004
56.98000 155.138
56.99000 155.198
57.00000 152.041
57.01000 148.667
57.02000 146.387
57.03000 143.809
57.04000 141.883
57.05000 141.225
57.06000 142.288
57.07000 143.358
57.08000 142.609
57.09000 140.272
57.10000 137.960
57.11000 142.516
57.12000 150.831
57.13000 158.766
57.14000 159.122
57.15000 156.525
57.16000 154.218
57.17000 154.861
57.18000 156.279
57.19000 157.523
57.20000 149.963
57.21000 142.173
57.22000 136.686
57.23000 140.368
57.24000 145.001
57.25000 148.978
57.26000 151.203
57.27000 153.332
57.28000 154.713
57.29000 152.677
57.30000 151.135
57.31000 149.711
57.32000 148.426
57.33000 147.154
57.34000 148.728
57.35000 152.498
57.36000 156.204
57.37000 153.381
57.38000 147.405
57.39000 141.892
57.40000 143.814
57.41000 148.323
57.42000 152.284
57.43000 151.473
57.44000 149.552
57.45000 147.898
57.46000 147.021
57.47000 146.377
57.48000 146.283
57.49000 148.139
57.50000 150.167
57.51000 149.793
57.52000 143.684
57.53000 137.328
57.54000 133.387
57.55000 140.682
57.56000 146.039
57.57000 149.457
57.58000 150.832
57.59000 152.179
57.60000 150.433
57.61000 146.575
57.62000 142.807
57.63000 141.859
57.64000 142.191
57.65000 142.434
57.66000 141.520
57.67000 140.247
57.68000 139.012
57.69000 138.065
57.70000 137.178
57.71000 136.431
57.72000 138.530
57.73000 140.589
57.74000 141.905
57.75000 140.876
57.76000 139.675
57.77000 139.277
57.78000 140.591
57.79000 141.962
57.80000 142.771
57.81000 146.042
57.82000 148.365
57.83000 150.284
57.84000 151.829
57.85000 153.338
57.86000 152.439
57.87000 150.079
57.88000 147.793
57.89000 145.683
57.90000 143.755
57.91000 141.969
57.92000 141.750
57.93000 141.964
57.94000 141.968
57.95000 140.595
57.96000 138.973
57.97000 137.637
57.98000 137.721
57.99000 137.921
58.00000 138.103
58.01000 138.238
58.02000 138.369
58.03000 138.379
58.04000 138.156
58.05000 137.928
58.06000 137.801
58.07000 137.277
58.08000 136.916
58.09000 137.583
58.10000 139.086
58.11000 140.519
58.12000 138.749
58.13000 135.245
58.14000 131.882
58.15000 132.149
58.16000 133.641
58.17000 135.643
58.18000 142.416
58.19000 150.360
58.20000 156.141
58.21000 149.568
58.22000 141.037
58.23000 134.184
58.24000 136.456
58.25000 138.998
58.26000 140.921
58.27000 141.290
58.28000 141.585
58.29000 140.479
58.30000 136.998
58.31000 133.477
58.32000 131.619
58.33000 134.897
58.34000 137.120
58.35000 138.472
58.36000 139.196
58.37000 139.960
58.38000 142.021
58.39000 144.708
58.40000 147.261
58.41000 145.914
58.42000 143.494
58.43000 141.315
58.44000 141.068
58.45000 141.241
58.46000 141.021
58.47000 138.823
58.48000 136.352
58.49000 134.420
58.50000 134.235
58.51000 134.199
58.52000 133.861
58.53000 132.845
58.54000 131.804
58.55000 132.253
58.56000 134.950
58.57000 137.670
58.58000 139.387
58.59000 140.121
58.60000 140.856
58.61000 141.721
58.62000 142.669
58.63000 143.514
58.64000 141.796
58.65000 138.973
58.66000 136.323
58.67000 138.544
58.68000 141.862
58.69000 144.428
58.70000 141.762
58.71000 138.094
58.72000 134.427
58.73000 130.764
58.74000 127.102
58.75000 124.321
58.76000 129.979
58.77000 134.862
58.78000 137.488
58.79000 135.593
58.80000 133.571
58.81000 135.736
58.82000 143.503
58.83000 151.294
58.84000 152.395
58.85000 147.743
58.86000 143.103
58.87000 139.049
58.88000 135.330
58.89000 131.842
58.90000 132.844
58.91000 135.574
58.92000 138.104
58.93000 137.445
58.94000 136.109
58.95000 134.731
58.96000 133.096
58.97000 131.418
58.98000 131.207
58.99000 136.768
59.00000 142.918
59.01000 147.442
59.02000 141.901
59.03000 137.200
59.04000 135.143
59.05000 137.807
59.06000 140.564
59.07000 140.650
59.08000 137.578
59.09000 134.509
59.10000 133.564
59.11000 134.230
59.12000 134.852
59.13000 133.804
59.14000 131.909
59.15000 130.147
59.16000 130.478
59.17000 131.527
59.18000 132.485
59.19000 134.437
59.20000 136.372
59.21000 137.722
59.22000 135.959
59.23000 133.739
59.24000 132.331
59.25000 133.767
59.26000 135.447
59.27000 136.641
59.28000 133.944
59.29000 131.766
59.30000 132.908
59.31000 139.329
59.32000 145.817
59.33000 146.340
59.34000 140.659
59.35000 135.009
59.36000 135.140
59.37000 139.119
59.38000 142.901
59.39000 141.226
59.40000 137.076
59.41000 133.114
59.42000 131.568
59.43000 130.762
59.44000 130.037
59.45000 134.415
59.46000 139.154
59.47000 142.869
59.48000 141.780
59.49000 140.078
59.50000 138.938
59.51000 139.548
59.52000 140.283
59.53000 140.786
59.54000 140.205
59.55000 139.744
59.56000 137.979
59.57000 134.373
59.58000 130.755
59.59000 130.402
59.60000 133.026
59.61000 135.625
59.62000 138.881
59.63000 142.457
59.64000 145.731
59.65000 142.532
59.66000 136.711
59.67000 131.307
59.68000 130.404
59.69000 130.730
59.70000 131.017
59.71000 133.573
59.72000 136.130
59.73000 138.181
59.74000 138.138
59.75000 137.866
59.76000 136.281
59.77000 131.049
59.78000 125.602
59.79000 122.018
59.80000 127.946
59.81000 132.474
59.82000 134.687
59.83000 134.007
59.84000 133.319
59.85000 133.325
59.86000 133.890
59.87000 134.445
59.88000 134.198
59.89000 133.541
59.90000 132.831
59.91000 131.203
59.92000 129.242
59.93000 127.772
59.94000 130.819
59.95000 134.960
59.96000 138.550
59.97000 134.146
59.98000 129.334
59.99000 126.485
60.00000 130.866
60.01000 135.919
60.02000 138.108
60.03000 133.192
60.04000 127.944
60.05000 124.638
60.06000 125.889
60.07000 126.847
60.08000 129.636
60.09000 134.444
60.10000 139.213
60.11000 138.085
60.12000 132.764
60.13000 127.555
60.14000 129.056
60.15000 133.572
60.16000 137.910
60.17000 139.745
60.18000 140.774
60.19000 141.399
60.20000 138.835
60.21000 135.588
60.22000 132.830
60.23000 134.383
60.24000 136.178
60.25000 137.311
60.26000 136.272
60.27000 135.064
60.28000 133.722
60.29000 132.082
60.30000 130.431
60.31000 129.440
60.32000 134.003
60.33000 137.284
60.34000 136.561
60.35000 131.970
60.36000 127.426
60.37000 126.690
60.38000 128.360
60.39000 129.982
60.40000 130.996
60.41000 131.714
60.42000 132.312
60.43000 131.508
60.44000 130.301
60.45000 129.515
60.46000 131.612
60.47000 134.253
60.48000 136.447
60.49000 133.920
60.50000 131.374
60.51000 129.676
60.52000 130.456
60.53000 131.396
60.54000 133.257
60.55000 136.941
60.56000 140.675
60.57000 142.804
60.58000 138.703
60.59000 135.827
60.60000 136.020
60.61000 138.820
60.62000 141.551
60.63000 140.711
60.64000 137.863
60.65000 135.119
60.66000 131.173
60.67000 127.037
60.68000 123.276
60.69000 123.215
60.70000 124.099
60.71000 125.485
60.72000 129.872
60.73000 134.756
60.74000 138.714
60.75000 136.123
60.76000 133.478
60.77000 132.302
60.78000 134.961
60.79000 137.819
60.80000 139.243
60.81000 138.137
60.82000 136.983
60.83000 136.362
60.84000 131.745
60.85000 128.601
60.86000 128.871
60.87000 131.704
60.88000 134.482
60.89000 135.233
60.90000 134.969
60.91000 134.718
60.92000 134.713
60.93000 134.787
60.94000 134.545
60.95000 131.640
60.96000 128.133
60.97000 125.499
60.98000 127.451
60.99000 130.066
61.00000 132.130
61.01000 130.436
61.02000 128.822
61.03000 128.268
61.04000 130.187
61.05000 132.207
61.06000 133.513
61.07000 133.695
61.08000 133.864
61.09000 133.950
61.10000 137.088
61.11000 139.176
61.12000 139.863
61.13000 139.618
61.14000 139.491
61.15000 142.571
61.16000 147.088
61.17000 151.346
61.18000 147.031
61.19000 140.704
61.20000 134.821
61.21000 132.174
61.22000 130.174
61.23000 129.242
61.24000 133.250
61.25000 137.876
61.26000 141.424
61.27000 144.068
61.28000 146.106
61.29000 147.071
61.30000 145.806
61.31000 144.471
61.32000 142.776
61.33000 140.581
61.34000 138.383
61.35000 136.606
61.36000 135.208
61.37000 133.846
61.38000 134.706
61.39000 136.881
61.40000 139.019
61.41000 140.383
61.42000 141.439
61.43000 142.421
61.44000 141.389
61.45000 139.965
61.46000 139.445
61.47000 144.661
61.48000 150.885
61.49000 157.367
61.50000 164.898
61.51000 172.542
61.52000 178.227
61.53000 188.856
61.54000 197.344
61.55000 209.016
61.56000 226.597
61.57000 244.310
61.58000 259.131
61.59000 270.383
61.60000 281.606
61.61000 289.842
61.62000 295.684
61.63000 301.447
61.64000 303.872
61.65000 304.536
61.66000 305.317
61.67000 308.062
61.68000 311.508
61.69000 314.672
61.70000 318.128
61.71000 321.273
61.72000 323.214
61.73000 318.470
61.74000 312.696
61.75000 305.899
61.76000 295.378
61.77000 284.517
61.78000 276.704
61.79000 258.248
61.80000 243.748
61.81000 229.350
61.82000 215.123
61.83000 200.899
61.84000 189.803
61.85000 182.107
61.86000 174.446
61.87000 167.986
61.88000 162.428
61.89000 157.041
61.90000 156.878
61.91000 159.178
61.92000 161.093
61.93000 157.734
61.94000 152.694
61.95000 148.138
61.96000 148.565
61.97000 149.868
61.98000 150.680
61.99000 149.091
62.00000 147.181
62.01000 144.370
62.02000 138.642
62.03000 132.690
62.04000 128.561
62.05000 132.586
62.06000 135.833
62.07000 138.429
62.08000 140.065
62.09000 141.693
62.10000 142.520
62.11000 142.583
62.12000 142.646
62.13000 144.375
62.14000 147.094
62.15000 149.578
62.16000 146.567
62.17000 141.244
62.18000 136.222
62.19000 134.649
62.20000 134.053
62.21000 133.524
62.22000 133.998
62.23000 134.570
62.24000 135.724
62.25000 139.391
62.26000 143.347
62.27000 145.387
62.28000 141.898
62.29000 138.061
62.30000 135.501
62.31000 142.363
62.32000 147.628
62.33000 150.886
62.34000 151.528
62.35000 152.155
62.36000 150.906
62.37000 148.084
62.38000 145.298
62.39000 143.922
62.40000 143.344
62.41000 142.721
62.42000 141.278
62.43000 139.526
62.44000 137.892
62.45000 137.405
62.46000 137.208
62.47000 137.036
62.48000 143.662
62.49000 150.281
62.50000 155.058
62.51000 152.773
62.52000 149.794
62.53000 148.028
62.54000 149.391
62.55000 150.913
62.56000 151.886
62.57000 149.271
62.58000 147.319
62.59000 147.591
62.60000 150.421
62.61000 153.238
62.62000 153.089
62.63000 150.742
62.64000 148.439
62.65000 148.147
62.66000 148.825
62.67000 149.276
62.68000 146.310
62.69000 142.198
62.70000 138.568
62.71000 138.941
62.72000 140.208
62.73000 141.292
62.74000 141.829
62.75000 142.216
62.76000 144.423
62.77000 152.834
62.78000 161.759
62.79000 166.393
62.80000 161.149
62.81000 155.511
62.82000 152.069
62.83000 147.969
62.84000 145.032
62.85000 144.289
62.86000 145.764
62.87000 147.178
62.88000 142.838
62.89000 134.714
62.90000 126.800
62.91000 128.087
62.92000 133.198
62.93000 138.126
62.94000 140.787
62.95000 142.769
62.96000 144.868
62.97000 147.795
62.98000 150.886
62.99000 153.473
63.00000 155.604
63.01000 157.327
63.02000 158.078
63.03000 155.872
63.04000 153.463
63.05000 151.874
63.06000 151.973
63.07000 152.122
63.08000 152.209
63.09000 152.940
63.10000 153.456
63.11000 154.170
63.12000 155.061
63.13000 155.917
63.14000 154.707
63.15000 152.289
63.16000 149.952
63.17000 147.915
63.18000 146.107
63.19000 144.346
63.20000 143.092
63.21000 141.972
63.22000 141.548
63.23000 145.471
63.24000 150.148
63.25000 153.970
63.26000 150.303
63.27000 146.651
63.28000 145.008
63.29000 148.808
63.30000 152.913
63.31000 156.621
63.32000 159.604
63.33000 162.571
63.34000 164.202
63.35000 152.105
63.36000 143.776
63.37000 141.475
63.38000 143.892
63.39000 146.227
63.40000 145.262
63.41000 142.578
63.42000 140.010
63.43000 141.407
63.44000 144.012
63.45000 146.284
63.46000 145.586
63.47000 144.187
63.48000 143.113
63.49000 143.821
63.50000 144.800
63.51000 145.579
63.52000 149.228
63.53000 152.379
63.54000 154.222
63.55000 152.901
63.56000 151.438
63.57000 150.008
63.58000 148.631
63.59000 147.254
63.60000 146.542
63.61000 144.873
63.62000 143.771
63.63000 145.692
63.64000 149.707
63.65000 153.622
63.66000 154.557
63.67000 154.104
63.68000 153.676
63.69000 151.928
63.70000 149.939
63.71000 148.563
63.72000 151.882
63.73000 156.182
63.74000 159.148
63.75000 155.680
63.76000 151.365
63.77000 148.023
63.78000 148.671
63.79000 149.423
63.80000 149.874
63.81000 149.672
63.82000 149.447
63.83000 151.087
63.84000 155.434
63.85000 159.803
63.86000 161.084
63.87000 159.464
63.88000 157.853
63.89000 156.886
63.90000 156.315
63.91000 155.676
63.92000 153.470
63.93000 150.612
63.94000 147.939
63.95000 148.592
63.96000 150.032
63.97000 151.404
63.98000 152.331
63.99000 153.176
64.00000 154.587
64.01000 158.412
64.02000 162.511
64.03000 165.593
64.04000 161.567
64.05000 158.076
64.06000 155.746
64.07000 155.655
64.08000 155.620
64.09000 157.085
64.10000 160.480
64.11000 163.879
64.12000 165.192
64.13000 164.782
64.14000 164.403
64.15000 165.481
64.16000 167.359
64.17000 169.098
64.18000 168.343
64.19000 166.663
64.20000 165.112
64.21000 166.635
64.22000 168.685
64.23000 170.128
64.24000 168.045
64.25000 165.393
64.26000 164.425
64.27000 169.829
64.28000 175.848
64.29000 180.228
64.30000 169.137
64.31000 160.011
64.32000 155.456
64.33000 158.766
64.34000 162.211
64.35000 164.179
64.36000 164.468
64.37000 164.754
64.38000 167.777
64.39000 172.759
64.40000 177.644
64.41000 179.249
64.42000 179.248
64.43000 179.121
64.44000 177.149
64.45000 174.565
64.46000 172.217
64.47000 170.464
64.48000 169.031
64.49000 168.354
64.50000 171.539
64.51000 175.265
64.52000 178.119
64.53000 178.034
64.54000 177.710
64.55000 177.482
64.56000 172.550
64.57000 168.678
64.58000 167.275
64.59000 169.652
64.60000 172.070
64.61000 175.180
64.62000 178.979
64.63000 182.753
64.64000 181.802
64.65000 177.846
64.66000 174.114
64.67000 176.124
64.68000 180.642
64.69000 184.707
64.70000 183.243
64.71000 180.147
64.72000 177.380
64.73000 175.440
64.74000 173.889
64.75000 173.207
64.76000 176.435
64.77000 180.137
64.78000 183.001
64.79000 183.346
64.80000 183.522
64.81000 183.641
64.82000 186.783
64.83000 189.189
64.84000 187.650
64.85000 180.755
64.86000 173.836
64.87000 173.837
64.88000 179.892
64.89000 185.880
64.90000 189.098
64.91000 190.679
64.92000 192.058
64.93000 189.395
64.94000 185.155
64.95000 181.707
64.96000 186.394
64.97000 193.216
64.98000 199.208
64.99000 197.682
65.00000 195.265
65.01000 195.150
65.02000 204.224
65.03000 214.252
65.04000 220.268
65.05000 215.535
65.06000 210.213
65.07000 206.760
65.08000 218.687
65.09000 227.655
65.10000 232.011
65.11000 230.828
65.12000 229.639
65.13000 229.846
65.14000 231.129
65.15000 232.392
65.16000 235.920
65.17000 240.462
65.18000 245.225
65.19000 253.530
65.20000 263.069
65.21000 271.868
65.22000 274.193
65.23000 275.009
65.24000 275.713
65.25000 271.864
65.26000 268.027
65.27000 267.006
65.28000 275.973
65.29000 285.818
65.30000 296.394
65.31000 308.714
65.32000 321.110
65.33000 328.802
65.34000 338.941
65.35000 346.259
65.36000 352.900
65.37000 358.824
65.38000 364.705
65.39000 365.704
65.40000 363.362
65.41000 361.074
65.42000 372.020
65.43000 388.322
65.44000 404.344
65.45000 416.664
65.46000 427.835
65.47000 437.455
65.48000 435.393
65.49000 430.926
65.50000 427.159
65.51000 432.212
65.52000 437.387
65.53000 442.525
65.54000 447.548
65.55000 452.562
65.56000 456.269
65.57000 457.182
65.58000 458.003
65.59000 458.488
65.60000 466.321
65.61000 471.896
65.62000 478.133
65.63000 484.984
65.64000 491.972
65.65000 508.384
65.66000 530.529
65.67000 551.988
65.68000 576.581
65.69000 601.078
65.70000 627.779
65.71000 678.852
65.72000 736.669
65.73000 794.309
65.74000 850.795
65.75000 907.072
65.76000 953.441
65.77000 1027.093
65.78000 1090.198
65.79000 1150.580
65.80000 1203.287
65.81000 1255.532
65.82000 1290.310
65.83000 1291.790
65.84000 1292.463
65.85000 1292.840
65.86000 1303.205
65.87000 1310.380
65.88000 1304.202
65.89000 1287.129
65.90000 1270.023
65.91000 1251.394
65.92000 1231.941
65.93000 1213.262
65.94000 1172.646
65.95000 1127.131
65.96000 1077.266
65.97000 986.609
65.98000 885.925
65.99000 789.851
66.00000 720.161
66.01000 654.663
66.02000 602.027
66.03000 539.993
66.04000 488.986
66.05000 444.685
66.06000 417.257
66.07000 390.644
66.08000 368.439
66.09000 353.726
66.10000 339.137
66.11000 331.428
66.12000 329.192
66.13000 327.675
66.14000 325.956
66.15000 324.090
66.16000 322.076
66.17000 315.210
66.18000 305.999
66.19000 297.246
66.20000 297.309
66.21000 300.031
66.22000 304.231
66.23000 320.313
66.24000 338.983
66.25000 356.104
66.26000 365.439
66.27000 373.697
66.28000 380.156
66.29000 402.025
66.30000 420.465
66.31000 437.116
66.32000 449.744
66.33000 462.221
66.34000 470.692
66.35000 473.107
66.36000 475.461
66.37000 477.295
66.38000 478.617
66.39000 480.022
66.40000 488.453
66.41000 501.388
66.42000 513.795
66.43000 513.131
66.44000 506.823
66.45000 500.899
66.46000 503.659
66.47000 508.485
66.48000 512.361
66.49000 509.626
66.50000 505.622
66.51000 499.557
66.52000 484.333
66.53000 468.017
66.54000 455.622
66.55000 417.654
66.56000 386.481
66.57000 362.751
66.58000 353.952
66.59000 345.571
66.60000 342.686
66.61000 347.167
66.62000 351.683
66.63000 350.014
66.64000 343.021
66.65000 336.048
66.66000 330.189
66.67000 324.963
66.68000 320.112
66.69000 322.544
66.70000 327.784
66.71000 332.640
66.72000 331.074
66.73000 328.165
66.74000 326.836
66.75000 335.101
66.76000 344.985
66.77000 351.670
66.78000 345.756
66.79000 338.556
66.80000 333.256
66.81000 342.571
66.82000 350.383
66.83000 354.441
66.84000 351.782
66.85000 348.989
66.86000 346.810
66.87000 345.357
66.88000 343.910
66.89000 346.276
66.90000 351.515
66.91000 356.743
66.92000 361.565
66.93000 366.181
66.94000 370.475
66.95000 369.729
66.96000 367.249
66.97000 364.983
66.98000 369.149
66.99000 374.161
67.00000 378.630
67.01000 380.203
67.02000 381.350
67.03000 381.585
67.04000 378.630
67.05000 375.400
67.06000 373.103
67.07000 369.454
67.08000 366.633
67.09000 365.582
67.10000 367.352
67.11000 369.158
67.12000 374.885
67.13000 384.697
67.14000 394.456
67.15000 395.412
67.16000 390.484
67.17000 385.879
67.18000 390.323
67.19000 398.876
67.20000 407.129
67.21000 411.506
67.22000 414.692
67.23000 417.557
67.24000 411.478
67.25000 404.561
67.26000 399.358
67.27000 402.208
67.28000 406.085
67.29000 409.317
67.30000 410.540
67.31000 411.618
67.32000 412.357
67.33000 417.045
67.34000 420.652
67.35000 420.956
67.36000 416.586
67.37000 412.187
67.38000 415.848
67.39000 426.875
67.40000 437.796
67.41000 439.810
67.42000 436.541
67.43000 433.482
67.44000 434.961
67.45000 438.282
67.46000 441.265
67.47000 440.597
67.48000 438.931
67.49000 437.459
67.50000 450.233
67.51000 463.466
67.52000 473.352
67.53000 469.331
67.54000 463.784
67.55000 459.692
67.56000 459.650
67.57000 459.846
67.58000 459.974
67.59000 475.347
67.60000 486.932
67.61000 491.886
67.62000 488.534
67.63000 485.162
67.64000 483.755
67.65000 483.930
67.66000 484.102
67.67000 484.089
67.68000 483.979
67.69000 484.206
67.70000 490.214
67.71000 498.317
67.72000 505.903
67.73000 508.727
67.74000 510.396
67.75000 511.844
67.76000 518.685
67.77000 525.228
67.78000 530.179
67.79000 529.255
67.80000 527.784
67.81000 527.189
67.82000 528.773
67.83000 530.459
67.84000 531.522
67.85000 538.601
67.86000 543.794
67.87000 546.524
67.88000 546.536
67.89000 546.554
67.90000 547.636
67.91000 549.477
67.92000 551.280
67.93000 555.517
67.94000 560.704
67.95000 565.350
67.96000 562.366
67.97000 556.917
67.98000 552.743
67.99000 558.663
68.00000 566.752
68.01000 573.622
68.02000 577.916
68.03000 581.226
68.04000 583.651
68.05000 583.169
68.06000 582.459
68.07000 582.267
68.08000 583.225
68.09000 584.225
68.10000 584.826
68.11000 605.240
68.12000 619.887
68.13000 626.766
68.14000 626.123
68.15000 625.479
68.16000 624.878
68.17000 624.304
68.18000 623.747
68.19000 631.520
68.20000 642.282
68.21000 652.446
68.22000 655.591
68.23000 656.716
68.24000 658.144
68.25000 661.659
68.26000 665.570
68.27000 668.818
68.28000 681.188
68.29000 692.303
68.30000 700.531
68.31000 700.304
68.32000 699.532
68.33000 701.114
68.34000 707.363
68.35000 713.739
68.36000 717.378
68.37000 745.260
68.38000 764.773
68.39000 772.146
68.40000 769.183
68.41000 766.451
68.42000 775.661
68.43000 791.601
68.44000 806.955
68.45000 819.047
68.46000 829.238
68.47000 838.685
68.48000 840.778
68.49000 840.989
68.50000 842.526
68.51000 852.002
68.52000 862.798
68.53000 871.550
68.54000 918.120
68.55000 959.154
68.56000 996.872
68.57000 1025.920
68.58000 1054.516
68.59000 1084.415
68.60000 1116.616
68.61000 1148.861
68.62000 1166.251
68.63000 1235.870
68.64000 1283.612
68.65000 1346.007
68.66000 1419.425
68.67000 1492.650
68.68000 1558.883
68.69000 1621.601
68.70000 1681.416
68.71000 1756.701
68.72000 1831.432
68.73000 1905.508
68.74000 1974.029
68.75000 2041.289
68.76000 2107.409
68.77000 2167.539
68.78000 2226.801
68.79000 2273.590
68.80000 2355.377
68.81000 2423.390
68.82000 2506.793
68.83000 2626.122
68.84000 2746.926
68.85000 2899.913
68.86000 3103.520
68.87000 3307.744
68.88000 3411.238
68.89000 4112.496
68.90000 4587.231
68.91000 5583.972
68.92000 6928.926
68.93000 8323.545
68.94000 11064.729
68.95000 14409.985
68.96000 17564.549
68.97000 22920.602
68.98000 28438.725
68.99000 34041.555
69.00000 40263.145
69.01000 46608.773
69.02000 52711.922
69.03000 57691.602
69.04000 62530.188
69.05000 66243.203
69.06000 69358.188
69.07000 71786.484
69.08000 73598.219
69.09000 74124.789
69.10000 74611.305
69.11000 75097.344
69.12000 75582.688
69.13000 76067.859
69.14000 76676.734
69.15000 77396.367
69.16000 78110.859
69.17000 78505.680
69.18000 78710.844
69.19000 78828.086
69.20000 77094.953
69.21000 74620.492
69.22000 72316.297
69.23000 68106.945
69.24000 63836.059
69.25000 59661.633
69.26000 56100.168
69.27000 52646.789
69.28000 49360.176
69.29000 46757.672
69.30000 44228.922
69.31000 42347.285
69.32000 40653.133
69.33000 39343.496
69.34000 38184.414
69.35000 37305.340
69.36000 36432.566
69.37000 35206.285
69.38000 33543.047
69.39000 31881.596
69.40000 29478.580
69.41000 26500.209
69.42000 23519.361
69.43000 20433.945
69.44000 17293.240
69.45000 14196.370
69.46000 11837.842
69.47000 9743.422
69.48000 7820.165
69.49000 6394.674
69.50000 5229.266
69.51000 4149.390
69.52000 3545.404
69.53000 3014.826
69.54000 2556.794
69.55000 2363.090
69.56000 2193.582
69.57000 2071.585
69.58000 1917.609
69.59000 1798.588
69.60000 1699.054
69.61000 1631.811
69.62000 1565.054
69.63000 1510.016
69.64000 1467.739
69.65000 1425.652
69.66000 1380.754
69.67000 1334.365
69.68000 1288.124
69.69000 1246.434
69.70000 1206.890
69.71000 1167.698
69.72000 1133.339
69.73000 1100.523
69.74000 1070.849
69.75000 1052.611
69.76000 1038.693
69.77000 1023.000
69.78000 998.611
69.79000 973.056
69.80000 950.837
69.81000 939.438
69.82000 928.867
69.83000 921.530
69.84000 898.926
69.85000 881.491
69.86000 866.408
69.87000 854.790
69.88000 843.204
69.89000 835.739
69.90000 832.208
69.91000 828.706
69.92000 819.939
69.93000 808.095
69.94000 796.288
69.95000 785.349
69.96000 774.776
69.97000 765.777
69.98000 774.878
69.99000 789.124
70.00000 801.790
