20.00000 591.459
20.01000 586.323
20.02000 580.454
20.03000 575.127
20.04000 571.919
20.05000 568.925
20.06000 566.727
20.07000 563.180
20.08000 560.384
20.09000 560.455
20.10000 565.601
20.11000 570.844
20.12000 573.792
20.13000 574.052
20.14000 574.307
20.15000 575.523
20.16000 577.450
20.17000 579.298
20.18000 578.261
20.19000 575.773
20.20000 572.914
20.21000 564.350
20.22000 553.841
20.23000 544.252
20.24000 552.039
20.25000 562.452
20.26000 572.100
20.27000 577.720
20.28000 582.754
20.29000 584.780
20.30000 576.375
20.31000 567.083
20.32000 560.496
20.33000 551.949
20.34000 545.388
20.35000 547.940
20.36000 564.858
20.37000 581.953
20.38000 588.827
20.39000 585.174
20.40000 581.541
20.41000 579.439
20.42000 578.374
20.43000 577.135
20.44000 571.125
20.45000 562.971
20.46000 555.425
20.47000 555.629
20.48000 558.187
20.49000 560.485
20.50000 562.970
20.51000 565.177
20.52000 566.316
20.53000 562.494
20.54000 558.047
20.55000 554.307
20.56000 552.755
20.57000 551.358
20.58000 550.403
20.59000 559.269
20.60000 566.131
20.61000 570.181
20.62000 570.293
20.63000 570.380
20.64000 571.721
20.65000 574.195
20.66000 576.645
20.67000 572.906
20.68000 565.644
20.69000 558.920
20.70000 563.557
20.71000 572.757
20.72000 580.969
20.73000 578.633
20.74000 573.445
20.75000 568.867
20.76000 561.528
20.77000 554.777
20.78000 549.487
20.79000 550.201
20.80000 551.564
20.81000 552.170
20.82000 550.691
20.83000 549.091
20.84000 548.041
20.85000 549.755
20.86000 551.062
20.87000 552.838
20.88000 555.196
20.89000 557.543
20.90000 555.667
20.91000 550.429
20.92000 545.270
20.93000 545.050
20.94000 547.375
20.95000 549.769
20.96000 553.330
20.97000 557.308
20.98000 560.891
20.99000 560.884
21.00000 560.015
21.01000 559.262
21.02000 559.859
21.03000 560.545
21.04000 561.809
21.05000 565.186
21.06000 568.756
21.07000 567.923
21.08000 556.255
21.09000 544.087
21.10000 536.450
21.11000 560.301
21.12000 577.885
21.13000 582.894
21.14000 574.172
21.15000 565.476
21.16000 561.081
21.17000 559.719
21.18000 558.387
21.19000 549.088
21.20000 536.547
21.21000 525.168
21.22000 529.892
21.23000 539.764
21.24000 548.157
21.25000 544.985
21.26000 539.355
21.27000 534.582
21.28000 534.470
21.29000 534.902
21.30000 537.362
21.31000 546.416
21.32000 555.977
21.33000 563.492
21.34000 566.509
21.35000 569.366
21.36000 571.076
21.37000 564.126
21.38000 559.137
21.39000 558.112
21.40000 560.880
21.41000 563.598
21.42000 562.360
21.43000 558.645
21.44000 555.038
21.45000 552.854
21.46000 551.350
21.47000 550.326
21.48000 554.839
21.49000 560.930
21.50000 565.199
21.51000 557.123
21.52000 546.735
21.53000 538.125
21.54000 539.601
21.55000 541.785
21.56000 544.400
21.57000 548.263
21.58000 552.206
21.59000 552.469
21.60000 545.514
21.61000 538.369
21.62000 534.311
21.63000 540.260
21.64000 544.451
21.65000 558.206
21.66000 580.015
21.67000 601.508
21.68000 607.226
21.69000 604.146
21.70000 601.182
21.71000 600.233
21.72000 600.057
21.73000 600.223
21.74000 603.740
21.75000 608.106
21.76000 613.380
21.77000 624.028
21.78000 635.560
21.79000 644.886
21.80000 655.780
21.81000 664.770
21.82000 675.713
21.83000 691.708
21.84000 707.961
21.85000 718.944
21.86000 720.709
21.87000 722.305
21.88000 723.161
21.89000 749.673
21.90000 767.759
21.91000 778.845
21.92000 784.723
21.93000 790.925
21.94000 808.623
21.95000 832.038
21.96000 854.348
21.97000 870.083
21.98000 882.615
21.99000 893.344
22.00000 889.017
22.01000 881.311
22.02000 876.354
22.03000 885.677
22.04000 897.045
22.05000 905.999
22.06000 905.506
22.07000 904.479
22.08000 897.348
22.09000 876.111
22.10000 854.307
22.11000 840.653
22.12000 839.685
22.13000 838.864
22.14000 838.451
22.15000 806.435
22.16000 785.039
22.17000 763.800
22.18000 742.665
22.19000 721.639
22.20000 703.498
22.21000 686.639
22.22000 670.758
22.23000 659.843
22.24000 651.219
22.25000 641.224
22.26000 621.331
22.27000 599.477
22.28000 581.555
22.29000 581.656
22.30000 583.991
22.31000 585.779
22.32000 588.595
22.33000 590.875
22.34000 587.486
22.35000 572.400
22.36000 556.959
22.37000 553.444
22.38000 566.409
22.39000 579.472
22.40000 577.206
22.41000 561.301
22.42000 545.677
22.43000 546.845
22.44000 557.872
22.45000 568.384
22.46000 568.260
22.47000 563.917
22.48000 559.878
22.49000 555.760
22.50000 552.021
22.51000 548.413
22.52000 545.626
22.53000 542.982
22.54000 539.692
22.55000 533.783
22.56000 527.595
22.57000 523.003
22.58000 522.383
22.59000 522.076
22.60000 525.063
22.61000 534.115
22.62000 543.298
22.63000 546.530
22.64000 542.484
22.65000 538.429
22.66000 533.978
22.67000 529.239
22.68000 524.576
22.69000 523.043
22.70000 523.146
22.71000 523.655
22.72000 530.859
22.73000 540.433
22.74000 549.214
22.75000 544.007
22.76000 536.414
22.77000 530.081
22.78000 530.677
22.79000 532.328
22.80000 533.689
22.81000 534.003
22.82000 534.222
22.83000 534.379
22.84000 539.731
22.85000 544.001
22.86000 543.749
22.87000 536.080
22.88000 528.303
22.89000 522.988
22.90000 520.322
22.91000 517.669
22.92000 517.707
22.93000 519.597
22.94000 521.368
22.95000 519.568
22.96000 516.102
22.97000 513.119
22.98000 516.715
22.99000 522.388
23.00000 527.511
23.01000 529.889
23.02000 531.474
23.03000 531.855
23.04000 526.410
23.05000 520.194
23.06000 516.844
23.07000 522.700
23.08000 529.251
23.09000 533.783
23.10000 528.623
23.11000 524.490
23.12000 522.522
23.13000 523.712
23.14000 524.928
23.15000 523.155
23.16000 518.560
23.17000 514.004
23.18000 511.843
23.19000 511.178
23.20000 510.643
23.21000 513.103
23.22000 516.812
23.23000 520.107
23.24000 518.715
23.25000 516.005
23.26000 513.599
23.27000 511.840
23.28000 510.418
23.29000 510.071
23.30000 514.331
23.31000 519.115
23.32000 521.445
23.33000 516.751
23.34000 511.620
23.35000 508.208
23.36000 498.921
23.37000 491.942
23.38000 490.599
23.39000 496.539
23.40000 502.499
23.41000 504.105
23.42000 502.095
23.43000 500.112
23.44000 501.853
23.45000 505.543
23.46000 509.184
23.47000 511.927
23.48000 514.336
23.49000 516.344
23.50000 514.505
23.51000 511.704
23.52000 509.263
23.53000 517.326
23.54000 525.670
23.55000 531.657
23.56000 528.688
23.57000 524.850
23.58000 522.174
23.59000 522.469
23.60000 522.913
23.61000 523.195
23.62000 522.100
23.63000 521.285
23.64000 517.545
23.65000 510.468
23.66000 503.411
23.67000 500.255
23.68000 499.965
23.69000 499.680
23.70000 500.107
23.71000 500.855
23.72000 501.756
23.73000 504.912
23.74000 508.819
23.75000 512.905
23.76000 518.458
23.77000 524.336
23.78000 529.355
23.79000 519.418
23.80000 509.270
23.81000 500.686
23.82000 497.387
23.83000 494.520
23.84000 495.482
23.85000 505.187
23.86000 515.233
23.87000 521.345
23.88000 508.786
23.89000 499.671
23.90000 497.801
23.91000 503.185
23.92000 508.464
23.93000 504.147
23.94000 493.575
23.95000 483.281
23.96000 486.247
23.97000 494.618
23.98000 502.555
23.99000 505.187
24.00000 506.246
24.01000 506.991
24.02000 505.506
24.03000 503.584
24.04000 501.979
24.05000 494.329
24.06000 487.367
24.07000 482.928
24.08000 486.090
24.09000 489.767
24.10000 492.501
24.11000 493.314
24.12000 494.071
24.13000 494.508
24.14000 499.990
24.15000 503.847
24.16000 501.898
24.17000 494.845
24.18000 488.010
24.19000 493.639
24.20000 506.495
24.21000 518.908
24.22000 514.512
24.23000 504.168
24.24000 494.365
24.25000 490.156
24.26000 487.422
24.27000 486.194
24.28000 494.280
24.29000 503.966
24.30000 511.867
24.31000 505.535
24.32000 499.141
24.33000 492.291
24.34000 484.218
24.35000 476.077
24.36000 470.849
24.37000 470.916
24.38000 471.094
24.39000 471.191
24.40000 495.822
24.41000 512.712
24.42000 509.735
24.43000 491.351
24.44000 473.264
24.45000 466.912
24.46000 466.627
24.47000 466.355
24.48000 471.144
24.49000 477.249
24.50000 483.066
24.51000 486.349
24.52000 489.040
24.53000 490.914
24.54000 488.355
24.55000 485.131
24.56000 482.569
24.57000 481.917
24.58000 481.529
24.59000 481.885
24.60000 484.027
24.61000 486.248
24.62000 489.639
24.63000 494.925
24.64000 500.237
24.65000 502.973
24.66000 505.646
24.67000 507.407
24.68000 504.404
24.69000 498.128
24.70000 491.813
24.71000 484.333
24.72000 476.315
24.73000 468.733
24.74000 476.273
24.75000 487.539
24.76000 498.010
24.77000 502.466
24.78000 505.677
24.79000 506.804
24.80000 497.975
24.81000 487.848
24.82000 480.020
24.83000 483.958
24.84000 487.773
24.85000 488.517
24.86000 482.675
24.87000 476.612
24.88000 476.170
24.89000 483.817
24.90000 491.528
24.91000 490.977
24.92000 482.743
24.93000 474.580
24.94000 471.418
24.95000 471.310
24.96000 471.391
24.97000 475.695
24.98000 481.739
24.99000 487.386
25.00000 489.622
25.01000 490.791
25.02000 492.027
25.03000 493.705
25.04000 495.464
25.05000 497.235
25.06000 499.058
25.07000 500.887
25.08000 502.258
25.09000 495.271
25.10000 489.418
25.11000 483.738
25.12000 478.389
25.13000 473.049
25.14000 471.881
25.15000 476.033
25.16000 480.198
25.17000 479.736
25.18000 475.498
25.19000 471.376
25.20000 472.640
25.21000 476.835
25.22000 480.630
25.23000 477.300
25.24000 471.350
25.25000 465.866
25.26000 470.860
25.27000 477.646
25.28000 483.249
25.29000 482.053
25.30000 479.771
25.31000 479.079
25.32000 484.349
25.33000 490.188
25.34000 494.427
25.35000 484.508
25.36000 476.353
25.37000 476.107
25.38000 489.354
25.39000 502.827
25.40000 501.928
25.41000 484.868
25.42000 467.855
25.43000 468.988
25.44000 483.151
25.45000 496.936
25.46000 498.223
25.47000 493.443
25.48000 488.740
25.49000 485.133
25.50000 481.887
25.51000 478.940
25.52000 475.191
25.53000 471.724
25.54000 469.251
25.55000 471.792
25.56000 475.031
25.57000 477.231
25.58000 475.960
25.59000 474.411
25.60000 473.326
25.61000 471.812
25.62000 470.654
25.63000 470.988
25.64000 473.585
25.65000 476.206
25.66000 480.312
25.67000 485.882
25.68000 491.414
25.69000 489.285
25.70000 482.337
25.71000 475.700
25.72000 476.855
25.73000 481.387
25.74000 485.807
25.75000 488.868
25.76000 491.533
25.77000 493.912
25.78000 489.454
25.79000 484.424
25.80000 479.784
25.81000 476.887
25.82000 474.200
25.83000 472.172
25.84000 472.103
25.85000 472.164
25.86000 472.205
25.87000 483.193
25.88000 491.599
25.89000 492.915
25.90000 484.686
25.91000 476.414
25.92000 473.819
25.93000 476.145
25.94000 478.445
25.95000 477.928
25.96000 475.848
25.97000 474.087
25.98000 478.596
25.99000 485.532
26.00000 490.814
26.01000 479.345
26.02000 463.515
26.03000 449.633
26.04000 457.775
26.05000 467.969
26.06000 475.361
26.07000 471.664
26.08000 466.828
26.09000 465.269
26.10000 472.412
26.11000 480.023
26.12000 484.947
26.13000 484.119
26.14000 483.428
26.15000 482.842
26.16000 482.381
26.17000 481.906
26.18000 478.090
26.19000 471.716
26.20000 465.452
26.21000 462.899
26.22000 462.263
26.23000 461.584
26.24000 460.212
26.25000 458.602
26.26000 456.956
26.27000 455.008
26.28000 452.991
26.29000 451.256
26.30000 453.884
26.31000 456.655
26.32000 459.649
26.33000 463.429
26.34000 467.278
26.35000 471.958
26.36000 478.605
26.37000 485.337
26.38000 489.500
26.39000 474.259
26.40000 463.125
26.41000 455.727
26.42000 452.241
26.43000 448.795
26.44000 449.771
26.45000 453.746
26.46000 457.627
26.47000 458.763
26.48000 458.652
26.49000 458.407
26.50000 456.406
26.51000 453.864
26.52000 451.316
26.53000 448.722
26.54000 446.119
26.55000 443.928
26.56000 454.051
26.57000 463.812
26.58000 471.633
26.59000 473.376
26.60000 474.679
26.61000 475.963
26.62000 477.208
26.63000 478.451
26.64000 479.182
26.65000 475.071
26.66000 472.145
26.67000 469.718
26.68000 467.749
26.69000 465.710
26.70000 458.987
26.71000 449.440
26.72000 440.194
26.73000 438.834
26.74000 440.585
26.75000 442.717
26.76000 449.020
26.77000 456.466
26.78000 462.875
26.79000 462.569
26.80000 461.056
26.81000 459.811
26.82000 454.476
26.83000 449.720
26.84000 447.112
26.85000 450.508
26.86000 454.259
26.87000 455.164
26.88000 450.687
26.89000 446.083
26.90000 443.514
26.91000 448.247
26.92000 451.543
26.93000 456.606
26.94000 463.096
26.95000 469.362
26.96000 465.619
26.97000 456.499
26.98000 447.749
26.99000 449.976
27.00000 455.786
27.01000 460.868
27.02000 459.206
27.03000 455.901
27.04000 452.316
27.05000 447.145
27.06000 441.725
27.07000 437.377
27.08000 445.589
27.09000 453.191
27.10000 458.372
27.11000 457.513
27.12000 456.367
27.13000 454.258
27.14000 450.526
27.15000 446.767
27.16000 444.790
27.17000 445.213
27.18000 445.514
27.19000 447.721
27.20000 451.294
27.21000 454.717
27.22000 453.345
27.23000 449.674
27.24000 446.188
27.25000 443.224
27.26000 440.643
27.27000 438.787
27.28000 442.693
27.29000 447.842
27.30000 452.211
27.31000 452.686
27.32000 452.628
27.33000 452.584
27.34000 455.406
27.35000 457.837
27.36000 458.428
27.37000 454.920
27.38000 451.260
27.39000 453.859
27.40000 465.834
27.41000 477.900
27.42000 479.018
27.43000 469.488
27.44000 460.053
27.45000 458.432
27.46000 461.775
27.47000 464.774
27.48000 459.410
27.49000 450.465
27.50000 442.072
27.51000 438.773
27.52000 437.109
27.53000 435.846
27.54000 437.350
27.55000 439.381
27.56000 441.905
27.57000 446.602
27.58000 451.555
27.59000 455.309
27.60000 455.183
27.61000 454.886
27.62000 453.938
27.63000 451.695
27.64000 449.417
27.65000 446.754
27.66000 443.578
27.67000 440.403
27.68000 436.385
27.69000 431.657
27.70000 427.130
27.71000 433.166
27.72000 445.177
27.73000 456.314
27.74000 450.722
27.75000 438.732
27.76000 427.630
27.77000 431.403
27.78000 438.234
27.79000 443.729
27.80000 441.191
27.81000 437.312
27.82000 433.493
27.83000 429.913
27.84000 426.357
27.85000 423.746
27.86000 431.224
27.87000 437.415
27.88000 442.429
27.89000 445.359
27.90000 448.249
27.91000 446.604
27.92000 439.633
27.93000 432.673
27.94000 431.462
27.95000 434.571
27.96000 437.605
27.97000 437.871
27.98000 436.739
27.99000 435.759
28.00000 437.116
28.01000 439.270
28.02000 441.236
28.03000 443.126
28.04000 444.789
28.05000 446.462
28.06000 448.194
28.07000 449.934
28.08000 449.133
28.09000 439.505
28.10000 429.124
28.11000 421.761
28.12000 431.593
28.13000 439.612
28.14000 445.549
28.15000 448.195
28.16000 450.800
28.17000 449.966
28.18000 445.582
28.19000 441.223
28.20000 438.355
28.21000 436.510
28.22000 434.846
28.23000 438.137
28.24000 443.660
28.25000 448.838
28.26000 449.627
28.27000 449.079
28.28000 448.587
28.29000 447.986
28.30000 447.439
28.31000 447.001
28.32000 447.065
28.33000 447.192
28.34000 445.833
28.35000 439.880
28.36000 433.601
28.37000 429.310
28.38000 426.967
28.39000 425.259
28.40000 424.358
28.41000 424.589
28.42000 424.828
28.43000 425.219
28.44000 425.747
28.45000 426.271
28.46000 424.347
28.47000 421.036
28.48000 417.987
28.49000 420.503
28.50000 425.256
28.51000 429.503
28.52000 428.329
28.53000 425.686
28.54000 423.353
28.55000 420.722
28.56000 418.406
28.57000 417.522
28.58000 422.531
28.59000 428.178
28.60000 431.667
28.61000 429.195
28.62000 426.377
28.63000 424.528
28.64000 425.543
28.65000 426.339
28.66000 426.552
28.67000 426.042
28.68000 425.553
28.69000 432.466
28.70000 445.285
28.71000 457.910
28.72000 450.002
28.73000 431.760
28.74000 414.726
28.75000 418.182
28.76000 428.996
28.77000 438.492
28.78000 435.978
28.79000 430.575
28.80000 425.897
28.81000 426.182
28.82000 427.078
28.83000 427.999
28.84000 429.013
28.85000 430.035
28.86000 428.317
28.87000 419.843
28.88000 411.057
28.89000 405.539
28.90000 413.189
28.91000 418.866
28.92000 422.177
28.93000 422.899
28.94000 423.642
28.95000 427.436
28.96000 433.385
28.97000 439.207
28.98000 436.703
28.99000 430.513
29.00000 424.655
29.01000 423.410
29.02000 423.643
29.03000 423.632
29.04000 421.708
29.05000 419.376
29.06000 417.399
29.07000 416.038
29.08000 414.965
29.09000 415.518
29.10000 421.364
29.11000 427.617
29.12000 430.777
29.13000 427.128
29.14000 423.235
29.15000 420.903
29.16000 422.113
29.17000 422.995
29.18000 424.117
29.19000 425.471
29.20000 426.784
29.21000 425.014
29.22000 421.308
29.23000 417.709
29.24000 421.431
29.25000 427.904
29.26000 433.733
29.27000 432.105
29.28000 428.348
29.29000 424.713
29.30000 421.908
29.31000 419.260
29.32000 417.063
29.33000 425.244
29.34000 432.998
29.35000 437.396
29.36000 432.049
29.37000 426.083
29.38000 422.740
29.39000 424.550
29.40000 426.496
29.41000 427.603
29.42000 422.234
29.43000 418.476
29.44000 416.302
29.45000 415.463
29.46000 414.693
29.47000 417.406
29.48000 422.064
29.49000 426.548
29.50000 430.643
29.51000 434.349
29.52000 437.336
29.53000 433.291
29.54000 427.463
29.55000 422.207
29.56000 420.334
29.57000 419.018
29.58000 417.953
29.59000 413.409
29.60000 409.429
29.61000 406.197
29.62000 404.900
29.63000 403.703
29.64000 405.379
29.65000 412.086
29.66000 418.887
29.67000 422.538
29.68000 413.982
29.69000 408.152
29.70000 407.084
29.71000 409.565
29.72000 412.116
29.73000 417.161
29.74000 423.448
29.75000 429.440
29.76000 439.128
29.77000 449.265
29.78000 458.375
29.79000 458.902
29.80000 457.499
29.81000 456.268
29.82000 455.934
29.83000 455.729
29.84000 455.568
29.85000 453.528
29.86000 451.767
29.87000 451.025
29.88000 452.645
29.89000 454.360
29.90000 456.687
29.91000 459.969
29.92000 463.262
29.93000 464.923
29.94000 470.397
29.95000 474.031
29.96000 475.162
29.97000 474.637
29.98000 473.979
29.99000 469.805
30.00000 464.067
30.01000 458.660
30.02000 458.748
30.03000 460.339
30.04000 462.794
30.05000 471.489
30.06000 481.423
30.07000 487.656
30.08000 476.898
30.09000 464.030
30.10000 454.177
30.11000 455.829
30.12000 457.764
30.13000 457.338
30.14000 452.031
30.15000 446.576
30.16000 447.762
30.17000 458.141
30.18000 468.574
30.19000 464.824
30.20000 448.434
30.21000 432.336
30.22000 433.869
30.23000 445.773
30.24000 457.176
30.25000 458.230
30.26000 455.171
30.27000 452.326
30.28000 443.109
30.29000 433.244
30.30000 425.641
30.31000 432.268
30.32000 441.380
30.33000 448.720
30.34000 448.857
30.35000 448.227
30.36000 447.759
30.37000 446.130
30.38000 444.813
30.39000 442.996
30.40000 440.256
30.41000 437.496
30.42000 435.490
30.43000 434.409
30.44000 433.332
30.45000 435.018
30.46000 438.860
30.47000 442.694
30.48000 446.176
30.49000 449.473
30.50000 452.288
30.51000 447.103
30.52000 439.081
30.53000 431.723
30.54000 437.191
30.55000 444.777
30.56000 451.915
30.57000 456.579
30.58000 460.866
30.59000 465.045
30.60000 468.837
30.61000 472.594
30.62000 475.292
30.63000 469.136
30.64000 464.123
30.65000 463.539
30.66000 470.231
30.67000 477.029
30.68000 479.907
30.69000 478.557
30.70000 477.213
30.71000 475.952
30.72000 474.762
30.73000 473.537
30.74000 471.265
30.75000 468.503
30.76000 466.182
30.77000 469.865
30.78000 475.448
30.79000 480.490
30.80000 482.633
30.81000 483.981
30.82000 485.349
30.83000 486.810
30.84000 488.284
30.85000 491.320
30.86000 499.382
30.87000 507.825
30.88000 513.669
30.89000 518.509
30.90000 522.125
30.91000 527.117
30.92000 534.119
30.93000 541.139
30.94000 547.066
30.95000 551.959
30.96000 556.812
30.97000 571.932
30.98000 593.020
30.99000 613.904
31.00000 630.069
31.01000 644.261
31.02000 659.934
31.03000 692.410
31.04000 729.622
31.05000 762.664
31.06000 811.249
31.07000 855.862
31.08000 901.609
31.09000 952.223
31.10000 1003.392
31.11000 1063.924
31.12000 1151.310
31.13000 1240.366
31.14000 1299.641
31.15000 1444.326
31.16000 1552.996
31.17000 1679.989
31.18000 1830.695
31.19000 1981.491
31.20000 2129.270
31.21000 2274.538
31.22000 2417.895
31.23000 2572.654
31.24000 2729.365
31.25000 2885.954
31.26000 3040.295
31.27000 3193.797
31.28000 3346.266
31.29000 3488.796
31.30000 3628.836
31.31000 3750.900
31.32000 3832.564
31.33000 3896.758
31.34000 3951.719
31.35000 3971.529
31.36000 3987.915
31.37000 3984.189
31.38000 3928.961
31.39000 3871.154
31.40000 3834.286
31.41000 3732.800
31.42000 3658.162
31.43000 3555.757
31.44000 3421.634
31.45000 3287.372
31.46000 3134.493
31.47000 2967.918
31.48000 2804.529
31.49000 2620.190
31.50000 2432.657
31.51000 2246.906
31.52000 2087.560
31.53000 1937.009
31.54000 1788.491
31.55000 1656.723
31.56000 1528.672
31.57000 1419.292
31.58000 1298.370
31.59000 1195.127
31.60000 1095.876
31.61000 1010.143
31.62000 925.519
31.63000 852.579
31.64000 806.357
31.65000 761.181
31.66000 733.675
31.67000 678.689
31.68000 639.190
31.69000 616.066
31.70000 609.367
31.71000 602.550
31.72000 584.836
31.73000 560.007
31.74000 535.828
31.75000 523.342
31.76000 516.339
31.77000 509.820
31.78000 509.238
31.79000 510.420
31.80000 510.452
31.81000 502.306
31.82000 492.558
31.83000 484.413
31.84000 479.124
31.85000 475.024
31.86000 470.218
31.87000 463.282
31.88000 456.201
31.89000 452.298
31.90000 454.886
31.91000 457.666
31.92000 459.275
31.93000 456.633
31.94000 454.759
31.95000 449.284
31.96000 440.639
31.97000 432.094
31.98000 429.381
31.99000 430.056
32.00000 430.709
32.01000 429.954
32.02000 428.722
32.03000 428.218
32.04000 435.238
32.05000 444.245
32.06000 450.575
32.07000 440.315
32.08000 427.198
32.09000 416.495
32.10000 420.991
32.11000 425.972
32.12000 428.460
32.13000 424.237
32.14000 419.643
32.15000 418.753
32.16000 424.607
32.17000 430.604
32.18000 433.888
32.19000 430.720
32.20000 428.525
32.21000 424.611
32.22000 419.363
32.23000 414.206
32.24000 412.708
32.25000 413.104
32.26000 413.482
32.27000 404.825
32.28000 393.820
32.29000 384.545
32.30000 390.524
32.31000 400.077
32.32000 407.784
32.33000 405.462
32.34000 401.630
32.35000 398.583
32.36000 395.293
32.37000 392.625
32.38000 391.399
32.39000 393.643
32.40000 396.039
32.41000 399.413
32.42000 404.373
32.43000 409.355
32.44000 411.923
32.45000 412.914
32.46000 413.526
32.47000 407.662
32.48000 397.339
32.49000 387.443
32.50000 389.993
32.51000 398.295
32.52000 406.149
32.53000 400.377
32.54000 391.157
32.55000 383.561
32.56000 388.292
32.57000 395.577
32.58000 401.243
32.59000 399.157
32.60000 396.058
32.61000 393.662
32.62000 391.164
32.63000 389.176
32.64000 386.497
32.65000 382.336
32.66000 378.124
32.67000 375.593
32.68000 375.484
32.69000 375.395
32.70000 375.141
32.71000 374.733
32.72000 374.339
32.73000 374.827
32.74000 375.857
32.75000 376.889
32.76000 377.974
32.77000 379.080
32.78000 380.113
32.79000 383.283
32.80000 386.698
32.81000 390.567
32.82000 397.422
32.83000 404.822
32.84000 410.322
32.85000 407.770
32.86000 404.314
32.87000 401.721
32.88000 418.748
32.89000 432.983
32.90000 444.863
32.91000 452.228
32.92000 459.482
32.93000 467.277
32.94000 475.762
32.95000 484.239
32.96000 489.381
32.97000 491.776
32.98000 494.131
32.99000 494.635
33.00000 494.129
33.01000 493.540
33.02000 491.452
33.03000 488.812
33.04000 486.378
33.05000 480.642
33.06000 474.774
33.07000 469.383
33.08000 466.730
33.09000 464.516
33.10000 462.296
33.11000 460.057
33.12000 457.816
33.13000 456.188
33.14000 436.060
33.15000 419.888
33.16000 408.163
33.17000 404.040
33.18000 400.045
33.19000 392.205
33.20000 380.034
33.21000 367.903
33.22000 364.675
33.23000 367.886
33.24000 370.886
33.25000 366.866
33.26000 359.433
33.27000 352.392
33.28000 351.055
33.29000 351.594
33.30000 352.084
33.31000 350.172
33.32000 348.019
33.33000 345.916
33.34000 344.063
33.35000 342.245
33.36000 340.953
33.37000 341.417
33.38000 342.022
33.39000 342.447
33.40000 345.469
33.41000 347.831
33.42000 350.691
33.43000 354.309
33.44000 357.935
33.45000 360.202
33.46000 361.128
33.47000 362.046
33.48000 359.203
33.49000 354.017
33.50000 349.082
33.51000 350.429
33.52000 354.504
33.53000 358.102
33.54000 355.949
33.55000 352.110
33.56000 348.682
33.57000 348.082
33.58000 348.035
33.59000 347.984
33.60000 347.915
33.61000 347.844
33.62000 347.941
33.63000 348.538
33.64000 349.168
33.65000 349.593
33.66000 344.881
33.67000 341.266
33.68000 338.053
33.69000 335.383
33.70000 332.716
33.71000 330.999
33.72000 330.106
33.73000 329.223
33.74000 335.740
33.75000 346.244
33.76000 356.065
33.77000 352.423
33.78000 343.562
33.79000 335.698
33.80000 337.953
33.81000 342.847
33.82000 347.140
33.83000 349.177
33.84000 350.598
33.85000 350.254
33.86000 342.915
33.87000 334.857
33.88000 329.419
33.89000 330.957
33.90000 332.872
33.91000 334.111
33.92000 346.687
33.93000 356.055
33.94000 360.910
33.95000 360.386
33.96000 359.819
33.97000 351.514
33.98000 337.278
33.99000 323.283
34.00000 325.820
34.01000 336.449
34.02000 346.231
34.03000 342.580
34.04000 334.279
34.05000 326.182
34.06000 319.841
34.07000 313.907
34.08000 308.802
34.09000 315.788
34.10000 323.220
34.11000 329.635
34.12000 332.467
34.13000 334.988
34.14000 337.443
34.15000 339.741
34.16000 342.033
34.17000 343.451
34.18000 331.934
34.19000 323.534
34.20000 322.093
34.21000 327.951
34.22000 333.789
34.23000 337.330
34.24000 339.310
34.25000 341.242
34.26000 343.251
34.27000 345.207
34.28000 346.331
34.29000 336.593
34.30000 323.503
34.31000 312.292
34.32000 315.120
34.33000 320.820
34.34000 325.619
34.35000 327.582
34.36000 328.915
34.37000 330.030
34.38000 330.455
34.39000 330.831
34.40000 327.992
34.41000 318.333
34.42000 308.451
34.43000 302.629
34.44000 322.464
34.45000 336.594
34.46000 342.068
34.47000 339.582
34.48000 337.122
34.49000 336.359
34.50000 336.622
34.51000 336.876
34.52000 338.824
34.53000 341.321
34.54000 343.336
34.55000 340.069
34.56000 335.352
34.57000 331.947
34.58000 337.062
34.59000 343.710
34.60000 349.180
34.61000 347.048
34.62000 344.605
34.63000 341.827
34.64000 338.114
34.65000 334.344
34.66000 333.052
34.67000 336.449
34.68000 339.958
34.69000 341.917
34.70000 340.010
34.71000 338.687
34.72000 340.000
34.73000 343.446
34.74000 346.767
34.75000 344.471
34.76000 339.150
34.77000 334.044
34.78000 334.474
34.79000 336.761
34.80000 338.547
34.81000 335.694
34.82000 331.708
34.83000 327.952
34.84000 325.503
34.85000 323.260
34.86000 321.461
34.87000 326.068
34.88000 330.286
34.89000 334.817
34.90000 340.129
34.91000 345.477
34.92000 344.241
34.93000 331.895
34.94000 319.369
34.95000 312.774
34.96000 328.470
34.97000 339.052
34.98000 338.062
34.99000 328.777
35.00000 319.746
35.01000 318.868
35.02000 321.905
35.03000 324.790
35.04000 325.406
35.05000 325.295
35.06000 324.765
35.07000 320.898
35.08000 316.311
35.09000 313.167
35.10000 317.232
35.11000 322.286
35.12000 326.232
35.13000 323.434
35.14000 320.778
35.15000 318.270
35.16000 316.090
35.17000 313.923
35.18000 315.382
35.19000 322.284
35.20000 329.240
35.21000 327.766
35.22000 318.079
35.23000 308.541
35.24000 311.319
35.25000 321.937
35.26000 332.019
35.27000 329.004
35.28000 320.373
35.29000 312.273
35.30000 315.265
35.31000 320.918
35.32000 325.589
35.33000 323.477
35.34000 320.073
35.35000 317.484
35.36000 318.498
35.37000 319.938
35.38000 321.030
35.39000 325.166
35.40000 328.572
35.41000 330.752
35.42000 330.493
35.43000 330.167
35.44000 324.894
35.45000 313.034
35.46000 301.151
35.47000 302.603
35.48000 315.450
35.49000 327.989
35.50000 324.300
35.51000 311.415
35.52000 299.498
35.53000 306.189
35.54000 320.007
35.55000 332.806
35.56000 328.886
35.57000 321.491
35.58000 314.639
35.59000 311.069
35.60000 308.047
35.61000 305.100
35.62000 302.448
35.63000 299.825
35.64000 297.899
35.65000 300.857
35.66000 303.344
35.67000 306.035
35.68000 309.091
35.69000 312.153
35.70000 312.515
35.71000 309.699
35.72000 306.886
35.73000 306.580
35.74000 308.159
35.75000 309.601
35.76000 305.947
35.77000 299.718
35.78000 294.157
35.79000 298.955
35.80000 307.296
35.81000 314.910
35.82000 310.026
35.83000 303.160
35.84000 297.384
35.85000 297.366
35.86000 298.188
35.87000 299.421
35.88000 302.080
35.89000 304.861
35.90000 306.834
35.91000 305.910
35.92000 305.115
35.93000 307.409
35.94000 314.588
35.95000 321.828
35.96000 320.567
35.97000 310.514
35.98000 300.517
35.99000 294.031
36.00000 289.956
36.01000 286.262
36.02000 293.043
36.03000 304.550
36.04000 315.269
36.05000 315.908
36.06000 313.473
36.07000 311.285
36.08000 310.837
36.09000 310.752
36.10000 310.809
36.11000 311.525
36.12000 312.324
36.13000 312.974
36.14000 313.157
36.15000 313.307
36.16000 313.410
36.17000 306.030
36.18000 300.331
36.19000 298.205
36.20000 301.101
36.21000 304.032
36.22000 307.379
36.23000 311.104
36.24000 314.793
36.25000 315.872
36.26000 315.404
36.27000 314.752
36.28000 310.162
36.29000 303.986
36.30000 298.686
36.31000 302.796
36.32000 309.459
36.33000 315.342
36.34000 316.612
36.35000 317.001
36.36000 316.745
36.37000 313.828
36.38000 310.622
36.39000 307.535
36.40000 304.777
36.41000 302.038
36.42000 300.240
36.43000 307.061
36.44000 312.225
36.45000 313.850
36.46000 311.072
36.47000 308.284
36.48000 306.325
36.49000 305.027
36.50000 303.749
36.51000 299.658
36.52000 294.238
36.53000 289.342
36.54000 293.366
36.55000 300.597
36.56000 307.404
36.57000 310.341
36.58000 312.345
36.59000 314.081
36.60000 306.794
36.61000 299.404
36.62000 295.110
36.63000 302.163
36.64000 310.262
36.65000 315.906
36.66000 315.486
36.67000 314.785
36.68000 314.345
36.69000 306.493
36.70000 300.732
36.71000 296.526
36.72000 294.024
36.73000 291.571
36.74000 295.879
36.75000 304.972
36.76000 313.872
36.77000 313.459
36.78000 308.821
36.79000 304.493
36.80000 304.485
36.81000 305.863
36.82000 307.059
36.83000 306.815
36.84000 306.264
36.85000 305.798
36.86000 305.517
36.87000 305.303
36.88000 304.776
36.89000 303.230
36.90000 301.605
36.91000 302.196
36.92000 307.675
36.93000 313.330
36.94000 316.718
36.95000 316.458
36.96000 316.250
36.97000 314.287
36.98000 310.638
36.99000 307.047
37.00000 307.947
37.01000 311.670
37.02000 315.287
37.03000 314.457
37.04000 311.881
37.05000 309.470
37.06000 308.989
37.07000 309.059
37.08000 309.232
37.09000 310.100
37.10000 311.099
37.11000 311.928
37.12000 309.693
37.13000 307.551
37.14000 305.772
37.15000 305.048
37.16000 304.392
37.17000 304.731
37.18000 307.031
37.19000 309.382
37.20000 310.720
37.21000 307.465
37.22000 305.181
37.23000 301.871
37.24000 297.696
37.25000 293.564
37.26000 291.624
37.27000 290.909
37.28000 290.221
37.29000 294.784
37.30000 300.933
37.31000 306.400
37.32000 305.189
37.33000 302.282
37.34000 299.590
37.35000 298.176
37.36000 296.973
37.37000 295.999
37.38000 294.942
37.39000 294.075
37.40000 294.584
37.41000 298.664
37.42000 302.927
37.43000 303.984
37.44000 299.414
37.45000 294.740
37.46000 292.228
37.47000 292.569
37.48000 292.788
37.49000 290.012
37.50000 284.998
37.51000 280.154
37.52000 281.360
37.53000 285.585
37.54000 289.613
37.55000 292.195
37.56000 294.137
37.57000 296.145
37.58000 298.704
37.59000 301.387
37.60000 304.056
37.61000 306.648
37.62000 309.230
37.63000 311.264
37.64000 298.949
37.65000 288.110
37.66000 281.600
37.67000 285.132
37.68000 289.069
37.69000 293.102
37.70000 297.286
37.71000 301.471
37.72000 303.584
37.73000 295.661
37.74000 290.429
37.75000 291.778
37.76000 297.488
37.77000 303.013
37.78000 303.594
37.79000 301.972
37.80000 300.444
37.81000 303.788
37.82000 308.192
37.83000 311.972
37.84000 311.221
37.85000 309.569
37.86000 307.226
37.87000 301.704
37.88000 295.787
37.89000 291.254
37.90000 291.812
37.91000 292.534
37.92000 295.489
37.93000 303.070
37.94000 310.793
37.95000 312.299
37.96000 305.182
37.97000 298.012
37.98000 291.003
37.99000 284.145
38.00000 277.413
38.01000 278.327
38.02000 283.746
38.03000 288.838
38.04000 287.121
38.05000 282.695
38.06000 278.576
38.07000 279.828
38.08000 282.258
38.09000 284.139
38.10000 282.551
38.11000 280.356
38.12000 279.796
38.13000 285.893
38.14000 292.701
38.15000 297.757
38.16000 302.876
38.17000 306.858
38.18000 308.922
38.19000 307.443
38.20000 305.887
38.21000 304.525
38.22000 303.401
38.23000 302.280
38.24000 303.668
38.25000 307.017
38.26000 310.429
38.27000 316.415
38.28000 323.755
38.29000 330.886
38.30000 334.567
38.31000 337.022
38.32000 339.274
38.33000 339.714
38.34000 339.722
38.35000 341.045
38.36000 349.626
38.37000 359.317
38.38000 366.045
38.39000 362.054
38.40000 357.090
38.41000 353.525
38.42000 364.057
38.43000 372.602
38.44000 382.486
38.45000 394.573
38.46000 406.693
38.47000 418.623
38.48000 430.348
38.49000 442.021
38.50000 454.120
38.51000 466.386
38.52000 478.744
38.53000 493.901
38.54000 510.368
38.55000 526.961
38.56000 545.257
38.57000 564.092
38.58000 581.108
38.59000 601.792
38.60000 620.658
38.61000 637.768
38.62000 646.338
38.63000 653.774
38.64000 662.223
38.65000 673.940
38.66000 685.904
38.67000 694.191
38.68000 714.390
38.69000 729.904
38.70000 733.876
38.71000 720.965
38.72000 707.908
38.73000 699.205
38.74000 694.627
38.75000 690.087
38.76000 684.803
38.77000 679.161
38.78000 672.983
38.79000 654.403
38.80000 630.632
38.81000 607.243
38.82000 588.191
38.83000 570.364
38.84000 554.531
38.85000 529.543
38.86000 506.404
38.87000 484.822
38.88000 469.934
38.89000 455.812
38.90000 442.832
38.91000 433.129
38.92000 423.631
38.93000 417.306
38.94000 390.389
38.95000 370.077
38.96000 357.425
38.97000 354.704
38.98000 352.021
38.99000 348.339
39.00000 343.823
39.01000 339.367
39.02000 332.642
39.03000 324.877
39.04000 317.401
39.05000 315.217
39.06000 315.010
39.07000 314.613
39.08000 312.376
39.09000 309.677
39.10000 307.325
39.11000 304.336
39.12000 301.693
39.13000 298.861
39.14000 295.307
39.15000 291.683
39.16000 288.192
39.17000 285.045
39.18000 281.915
39.19000 279.917
39.20000 283.176
39.21000 285.614
39.22000 286.173
39.23000 284.583
39.24000 282.973
39.25000 278.276
39.26000 271.304
39.27000 264.465
39.28000 269.058
39.29000 278.914
39.30000 288.142
39.31000 288.031
39.32000 284.804
39.33000 281.268
39.34000 275.182
39.35000 268.529
39.36000 262.844
39.37000 277.024
39.38000 291.344
39.39000 301.861
39.40000 299.481
39.41000 296.040
39.42000 292.774
39.43000 289.910
39.44000 287.061
39.45000 285.325
39.46000 277.848
39.47000 272.459
39.48000 270.438
39.49000 271.801
39.50000 273.181
39.51000 276.156
39.52000 280.174
39.53000 284.088
39.54000 284.770
39.55000 284.064
39.56000 282.927
39.57000 276.487
39.58000 268.470
39.59000 262.624
39.60000 272.265
39.61000 284.947
39.62000 295.547
39.63000 291.495
39.64000 286.639
39.65000 284.018
39.66000 288.155
39.67000 292.752
39.68000 292.822
39.69000 283.634
39.70000 274.171
39.71000 268.689
39.72000 268.808
39.73000 268.915
39.74000 269.145
39.75000 269.485
39.76000 269.801
39.77000 268.674
39.78000 266.710
39.79000 264.812
39.80000 269.908
39.81000 277.301
39.82000 283.771
39.83000 280.679
39.84000 275.057
39.85000 269.840
39.86000 267.131
39.87000 264.856
39.88000 262.998
39.89000 263.373
39.90000 263.872
39.91000 263.909
39.92000 262.698
39.93000 261.418
39.94000 260.299
39.95000 259.475
39.96000 258.656
39.97000 258.207
39.98000 266.613
39.99000 272.385
40.00000 271.922
40.01000 266.605
40.02000 261.409
40.03000 261.044
40.04000 263.184
40.05000 265.231
40.06000 267.092
40.07000 268.763
40.08000 269.894
40.09000 266.245
40.10000 261.473
40.11000 257.804
40.12000 260.133
40.13000 263.367
40.14000 265.939
40.15000 269.651
40.16000 272.724
40.17000 273.476
40.18000 268.636
40.19000 263.549
40.20000 259.461
40.21000 256.998
40.22000 254.558
40.23000 253.298
40.24000 252.286
40.25000 251.655
40.26000 257.129
40.27000 266.813
40.28000 276.137
40.29000 274.914
40.30000 268.808
40.31000 263.031
40.32000 260.622
40.33000 259.376
40.34000 258.878
40.35000 264.066
40.36000 270.434
40.37000 274.851
40.38000 269.905
40.39000 263.734
40.40000 258.960
40.41000 253.860
40.42000 249.794
40.43000 248.768
40.44000 254.286
40.45000 260.025
40.46000 262.833
40.47000 261.409
40.48000 259.951
40.49000 261.018
40.50000 264.442
40.51000 267.806
40.52000 266.904
40.53000 263.389
40.54000 259.990
40.55000 259.206
40.56000 259.503
40.57000 259.780
40.58000 257.463
40.59000 254.703
40.60000 252.251
40.61000 251.841
40.62000 251.804
40.63000 253.159
40.64000 260.425
40.65000 268.356
40.66000 274.310
40.67000 259.491
40.68000 246.921
40.69000 240.469
40.70000 245.767
40.71000 251.356
40.72000 255.776
40.73000 258.699
40.74000 261.614
40.75000 260.698
40.76000 256.646
40.77000 252.717
40.78000 254.515
40.79000 259.439
40.80000 264.174
40.81000 265.506
40.82000 265.582
40.83000 265.653
40.84000 261.083
40.85000 255.961
40.86000 251.725
40.87000 252.595
40.88000 254.284
40.89000 255.839
40.90000 256.895
40.91000 257.904
40.92000 258.636
40.93000 253.344
40.94000 249.046
40.95000 246.015
40.96000 245.151
40.97000 244.325
40.98000 247.232
40.99000 254.353
41.00000 261.453
41.01000 259.057
41.02000 249.831
41.03000 240.838
41.04000 239.586
41.05000 242.106
41.06000 244.451
41.07000 244.245
41.08000 243.200
41.09000 242.251
41.10000 246.244
41.11000 250.730
41.12000 253.488
41.13000 247.476
41.14000 240.241
41.15000 236.085
41.16000 242.242
41.17000 249.231
41.18000 254.134
41.19000 249.733
41.20000 246.133
41.21000 245.430
41.22000 249.139
41.23000 252.895
41.24000 253.783
41.25000 251.832
41.26000 249.894
41.27000 249.056
41.28000 248.932
41.29000 248.961
41.30000 252.864
41.31000 258.452
41.32000 263.076
41.33000 256.043
41.34000 245.588
41.35000 236.247
41.36000 238.270
41.37000 241.950
41.38000 245.164
41.39000 246.293
41.40000 247.170
41.41000 247.979
41.42000 248.583
41.43000 249.174
41.44000 249.572
41.45000 249.702
41.46000 249.794
41.47000 247.502
41.48000 241.991
41.49000 236.467
41.50000 234.085
41.51000 234.438
41.52000 234.787
41.53000 237.289
41.54000 240.941
41.55000 244.371
41.56000 243.445
41.57000 240.827
41.58000 238.633
41.59000 240.766
41.60000 244.029
41.61000 246.892
41.62000 245.532
41.63000 243.747
41.64000 240.651
41.65000 232.347
41.66000 223.506
41.67000 219.782
41.68000 229.698
41.69000 240.353
41.70000 247.255
41.71000 246.771
41.72000 246.306
41.73000 248.114
41.74000 252.636
41.75000 257.140
41.76000 256.269
41.77000 251.269
41.78000 246.354
41.79000 244.580
41.80000 244.422
41.81000 244.296
41.82000 244.685
41.83000 245.252
41.84000 245.420
41.85000 242.118
41.86000 238.012
41.87000 234.479
41.88000 235.716
41.89000 237.362
41.90000 238.916
41.91000 240.144
41.92000 241.343
41.93000 239.441
41.94000 230.158
41.95000 220.559
41.96000 214.615
41.97000 231.865
41.98000 244.487
41.99000 248.564
42.00000 243.661
42.01000 238.784
42.02000 237.017
42.03000 237.369
42.04000 237.712
42.05000 236.352
42.06000 234.307
42.07000 232.689
42.08000 236.684
42.09000 242.414
42.10000 247.726
42.11000 249.907
42.12000 251.447
42.13000 252.744
42.14000 251.429
42.15000 250.050
42.16000 247.811
42.17000 242.872
42.18000 237.736
42.19000 234.419
42.20000 234.968
42.21000 235.643
42.22000 236.041
42.23000 230.769
42.24000 227.017
42.25000 225.147
42.26000 225.010
42.27000 224.936
42.28000 229.112
42.29000 235.859
42.30000 242.395
42.31000 240.910
42.32000 236.406
42.33000 232.738
42.34000 238.243
42.35000 246.273
42.36000 253.285
42.37000 253.681
42.38000 252.884
42.39000 252.227
42.40000 241.690
42.41000 232.125
42.42000 225.058
42.43000 224.994
42.44000 225.347
42.45000 227.835
42.46000 234.370
42.47000 241.002
42.48000 244.708
42.49000 232.856
42.50000 224.635
42.51000 224.667
42.52000 231.396
42.53000 237.998
42.54000 238.945
42.55000 236.841
42.56000 234.823
42.57000 235.051
42.58000 236.031
42.59000 236.679
42.60000 234.233
42.61000 231.030
42.62000 228.556
42.63000 230.227
42.64000 232.553
42.65000 234.420
42.66000 233.073
42.67000 231.737
42.68000 231.139
42.69000 232.390
42.70000 233.729
42.71000 233.669
42.72000 231.247
42.73000 228.786
42.74000 227.489
42.75000 226.988
42.76000 226.649
42.77000 226.534
42.78000 226.578
42.79000 226.620
42.80000 226.559
42.81000 226.448
42.82000 226.343
42.83000 226.583
42.84000 226.908
42.85000 227.376
42.86000 228.995
42.87000 230.863
42.88000 232.733
42.89000 234.612
42.90000 236.492
42.91000 237.961
42.92000 237.337
42.93000 236.708
42.94000 235.799
42.95000 234.264
42.96000 232.707
42.97000 233.669
42.98000 238.418
42.99000 243.204
43.00000 246.949
43.01000 249.676
43.02000 252.340
43.03000 249.743
43.04000 243.792
43.05000 237.943
43.06000 234.615
43.07000 232.369
43.08000 230.261
43.09000 228.232
43.10000 226.402
43.11000 225.169
43.12000 228.065
43.13000 231.750
43.14000 235.138
43.15000 237.218
43.16000 239.143
43.17000 240.603
43.18000 229.182
43.19000 219.548
43.20000 215.177
43.21000 221.308
43.22000 227.730
43.23000 230.431
43.24000 228.167
43.25000 225.881
43.26000 224.587
43.27000 224.146
43.28000 223.733
43.29000 224.852
43.30000 226.841
43.31000 228.581
43.32000 225.541
43.33000 220.666
43.34000 216.150
43.35000 216.174
43.36000 217.248
43.37000 219.051
43.38000 225.245
43.39000 232.175
43.40000 238.190
43.41000 240.616
43.42000 242.678
43.43000 244.193
43.44000 242.561
43.45000 241.170
43.46000 240.227
43.47000 240.081
43.48000 239.950
43.49000 238.129
43.50000 234.318
43.51000 230.514
43.52000 228.223
43.53000 227.087
43.54000 225.937
43.55000 224.230
43.56000 222.241
43.57000 220.363
43.58000 220.200
43.59000 220.625
43.60000 221.013
43.61000 219.152
43.62000 217.044
43.63000 216.234
43.64000 222.298
43.65000 229.367
43.66000 234.129
43.67000 230.847
43.68000 226.876
43.69000 224.057
43.70000 228.479
43.71000 232.074
43.72000 232.900
43.73000 229.338
43.74000 225.721
43.75000 224.866
43.76000 226.872
43.77000 228.867
43.78000 225.783
43.79000 219.369
43.80000 213.217
43.81000 214.265
43.82000 218.566
43.83000 222.765
43.84000 225.651
43.85000 228.136
43.86000 230.368
43.87000 231.697
43.88000 232.700
43.89000 233.394
43.90000 232.642
43.91000 231.707
43.92000 229.188
43.93000 221.752
43.94000 213.965
43.95000 208.638
43.96000 207.119
43.97000 206.073
43.98000 209.721
43.99000 219.977
44.00000 230.274
44.01000 233.970
44.02000 231.668
44.03000 229.388
44.04000 228.997
44.05000 229.719
44.06000 230.316
44.07000 228.243
44.08000 225.092
44.09000 222.395
44.10000 224.576
44.11000 228.085
44.12000 231.182
44.13000 231.738
44.14000 231.828
44.15000 231.349
44.16000 228.518
44.17000 225.431
44.18000 223.985
44.19000 227.081
44.20000 230.441
44.21000 232.650
44.22000 226.603
44.23000 222.013
44.24000 222.716
44.25000 230.014
44.26000 237.316
44.27000 239.351
44.28000 237.169
44.29000 235.020
44.30000 235.211
44.31000 236.607
44.32000 237.908
44.33000 237.597
44.34000 236.706
44.35000 235.568
44.36000 232.170
44.37000 228.226
44.38000 224.810
44.39000 224.066
44.40000 223.787
44.41000 224.530
44.42000 229.023
44.43000 233.863
44.44000 235.790
44.45000 230.514
44.46000 224.903
44.47000 221.374
44.48000 232.792
44.49000 241.219
44.50000 243.043
44.51000 237.618
44.52000 232.241
44.53000 234.096
44.54000 241.078
44.55000 247.912
44.56000 248.800
44.57000 246.941
44.58000 244.995
44.59000 241.851
44.60000 238.323
44.61000 235.485
44.62000 238.080
44.63000 241.835
44.64000 245.022
44.65000 256.873
44.66000 267.794
44.67000 275.150
44.68000 270.852
44.69000 265.650
44.70000 263.923
44.71000 269.872
44.72000 276.098
44.73000 279.831
44.74000 297.223
44.75000 309.667
44.76000 314.086
44.77000 310.779
44.78000 307.529
44.79000 308.741
44.80000 312.762
44.81000 316.668
44.82000 328.488
44.83000 342.905
44.84000 357.272
44.85000 371.064
44.86000 384.692
44.87000 398.357
44.88000 412.277
44.89000 426.244
44.90000 437.833
44.91000 453.559
44.92000 466.954
44.93000 478.861
44.94000 486.430
44.95000 493.723
44.96000 501.686
44.97000 510.970
44.98000 520.289
44.99000 525.595
45.00000 539.511
45.01000 549.226
45.02000 551.989
45.03000 548.866
45.04000 545.720
45.05000 541.472
45.06000 536.606
45.07000 531.921
45.08000 525.332
45.09000 518.471
45.10000 512.065
45.11000 510.142
45.12000 509.359
45.13000 505.318
45.14000 481.895
45.15000 455.267
45.16000 433.708
45.17000 419.064
45.18000 407.702
45.19000 398.772
45.20000 396.165
45.21000 393.885
45.22000 390.008
45.23000 383.327
45.24000 376.594
45.25000 372.972
45.26000 350.822
45.27000 335.693
45.28000 325.380
45.29000 318.670
45.30000 311.909
45.31000 303.304
45.32000 293.776
45.33000 284.693
45.34000 277.567
45.35000 271.572
45.36000 266.106
45.37000 265.074
45.38000 265.044
45.39000 265.015
45.40000 264.993
45.41000 264.972
45.42000 264.956
45.43000 262.855
45.44000 261.031
45.45000 257.394
45.46000 249.548
45.47000 241.532
45.48000 237.316
45.49000 239.047
45.50000 240.849
45.51000 241.759
45.52000 239.724
45.53000 238.329
45.54000 233.529
45.55000 226.470
45.56000 219.813
45.57000 223.936
45.58000 232.871
45.59000 241.293
45.60000 238.138
45.61000 232.052
45.62000 226.839
45.63000 227.954
45.64000 230.330
45.65000 231.435
45.66000 226.678
45.67000 221.189
45.68000 216.982
45.69000 221.596
45.70000 225.727
45.71000 227.833
45.72000 225.740
45.73000 223.518
45.74000 219.623
45.75000 213.402
45.76000 207.169
45.77000 206.007
45.78000 209.386
45.79000 212.784
45.80000 217.349
45.81000 222.603
45.82000 227.353
45.83000 221.617
45.84000 211.700
45.85000 202.471
45.86000 209.484
45.87000 219.760
45.88000 228.581
45.89000 228.216
45.90000 226.240
45.91000 224.126
45.92000 221.448
45.93000 218.708
45.94000 216.673
45.95000 221.147
45.96000 224.914
45.97000 224.297
45.98000 215.568
45.99000 206.660
46.00000 201.255
46.01000 200.159
46.02000 199.075
46.03000 202.161
46.04000 208.509
46.05000 214.703
46.06000 214.488
46.07000 210.900
46.08000 207.499
46.09000 207.220
46.10000 208.052
46.11000 208.815
46.12000 204.335
46.13000 199.228
46.14000 195.180
46.15000 196.997
46.16000 199.713
46.17000 202.198
46.18000 203.847
46.19000 205.421
46.20000 206.552
46.21000 206.961
46.22000 207.248
46.23000 206.343
46.24000 203.470
46.25000 200.568
46.26000 201.576
46.27000 206.819
46.28000 212.040
46.29000 213.402
46.30000 212.079
46.31000 210.702
46.32000 207.707
46.33000 203.951
46.34000 200.470
46.35000 200.739
46.36000 202.199
46.37000 203.518
46.38000 208.490
46.39000 213.539
46.40000 217.894
46.41000 218.869
46.42000 219.394
46.43000 219.345
46.44000 217.442
46.45000 215.398
46.46000 213.982
46.47000 209.737
46.48000 206.467
46.49000 204.314
46.50000 203.799
46.51000 203.297
46.52000 201.619
46.53000 198.825
46.54000 196.053
46.55000 193.888
46.56000 192.131
46.57000 190.575
46.58000 193.675
46.59000 198.726
46.60000 203.279
46.61000 202.150
46.62000 199.415
46.63000 196.985
46.64000 197.538
46.65000 198.498
46.66000 199.822
46.67000 202.715
46.68000 205.788
46.69000 207.699
46.70000 206.267
46.71000 204.625
46.72000 203.531
46.73000 200.562
46.74000 198.327
46.75000 198.190
46.76000 200.777
46.77000 203.368
46.78000 202.170
46.79000 197.809
46.80000 193.505
46.81000 193.789
46.82000 196.539
46.83000 199.206
46.84000 200.372
46.85000 200.976
46.86000 201.395
46.87000 200.025
46.88000 198.206
46.89000 196.620
46.90000 198.606
46.91000 200.801
46.92000 202.347
46.93000 201.407
46.94000 200.225
46.95000 198.697
46.96000 196.281
46.97000 193.821
46.98000 192.250
46.99000 195.569
47.00000 198.048
47.01000 199.734
47.02000 200.509
47.03000 201.274
47.04000 200.284
47.05000 197.999
47.06000 195.757
47.07000 194.191
47.08000 193.002
47.09000 191.838
47.10000 191.029
47.11000 190.338
47.12000 189.553
47.13000 187.987
47.14000 186.247
47.15000 184.759
47.16000 185.385
47.17000 186.165
47.18000 187.634
47.19000 191.442
47.20000 195.443
47.21000 197.453
47.22000 194.897
47.23000 192.160
47.24000 190.491
47.25000 195.323
47.26000 198.829
47.27000 199.504
47.28000 197.330
47.29000 195.162
47.30000 193.646
47.31000 192.557
47.32000 191.497
47.33000 193.506
47.34000 196.712
47.35000 199.754
47.36000 200.776
47.37000 201.195
47.38000 201.405
47.39000 200.113
47.40000 198.525
47.41000 197.198
47.42000 197.577
47.43000 198.065
47.44000 198.131
47.45000 196.917
47.46000 195.615
47.47000 194.419
47.48000 193.440
47.49000 192.467
47.50000 191.904
47.51000 195.878
47.52000 198.684
47.53000 199.100
47.54000 197.405
47.55000 195.715
47.56000 194.324
47.57000 193.106
47.58000 191.931
47.59000 193.913
47.60000 196.953
47.61000 199.476
47.62000 196.615
47.63000 192.327
47.64000 188.810
47.65000 190.089
47.66000 192.198
47.67000 193.920
47.68000 194.412
47.69000 194.709
47.70000 196.159
47.71000 200.728
47.72000 205.470
47.73000 206.388
47.74000 200.316
47.75000 194.096
47.76000 190.683
47.77000 196.981
47.78000 201.315
47.79000 201.884
47.80000 199.516
47.81000 197.160
47.82000 195.318
47.83000 193.742
47.84000 192.235
47.85000 190.207
47.86000 188.148
47.87000 186.794
47.88000 191.680
47.89000 198.033
47.90000 202.565
47.91000 197.166
47.92000 190.265
47.93000 184.774
47.94000 185.732
47.95000 186.968
47.96000 188.053
47.97000 188.773
47.98000 189.476
47.99000 190.282
48.00000 191.253
48.01000 192.227
48.02000 192.730
48.03000 194.297
48.04000 195.318
48.05000 192.050
48.06000 185.819
48.07000 179.811
48.08000 180.386
48.09000 184.015
48.10000 187.448
48.11000 187.722
48.12000 187.063
48.13000 186.364
48.14000 185.370
48.15000 184.315
48.16000 183.687
48.17000 185.113
48.18000 186.809
48.19000 188.121
48.20000 187.814
48.21000 187.473
48.22000 187.208
48.23000 187.105
48.24000 187.007
48.25000 187.458
48.26000 188.703
48.27000 189.954
48.28000 191.031
48.29000 191.944
48.30000 192.818
48.31000 190.905
48.32000 187.281
48.33000 183.782
48.34000 183.100
48.35000 183.585
48.36000 184.038
48.37000 189.622
48.38000 195.991
48.39000 200.815
48.40000 195.423
48.41000 188.158
48.42000 182.282
48.43000 182.303
48.44000 182.991
48.45000 183.508
48.46000 190.314
48.47000 195.934
48.48000 197.672
48.49000 191.941
48.50000 186.025
48.51000 182.970
48.52000 183.584
48.53000 184.210
48.54000 184.467
48.55000 184.419
48.56000 184.367
48.57000 184.151
48.58000 183.846
48.59000 183.743
48.60000 187.247
48.61000 192.086
48.62000 196.549
48.63000 194.198
48.64000 190.579
48.65000 187.918
48.66000 190.802
48.67000 194.575
48.68000 197.722
48.69000 198.506
48.70000 199.062
48.71000 199.466
48.72000 199.831
48.73000 200.109
48.74000 196.808
48.75000 187.367
48.76000 177.821
48.77000 174.245
48.78000 177.420
48.79000 180.591
48.80000 183.983
48.81000 187.506
48.82000 190.916
48.83000 190.553
48.84000 188.349
48.85000 186.319
48.86000 186.819
48.87000 188.155
48.88000 189.369
48.89000 188.682
48.90000 187.706
48.91000 186.777
48.92000 186.090
48.93000 185.437
48.94000 185.637
48.95000 188.697
48.96000 191.989
48.97000 194.299
48.98000 191.401
48.99000 189.056
49.00000 187.280
49.01000 186.374
49.02000 185.477
49.03000 186.206
49.04000 188.550
49.05000 190.878
49.06000 189.238
49.07000 185.097
49.08000 181.117
49.09000 181.228
49.10000 183.119
49.11000 184.841
49.12000 184.508
49.13000 183.569
49.14000 182.730
49.15000 181.652
49.16000 180.672
49.17000 179.893
49.18000 180.012
49.19000 180.239
49.20000 180.305
49.21000 179.885
49.22000 179.433
49.23000 179.127
49.24000 179.431
49.25000 179.670
49.26000 182.609
49.27000 189.205
49.28000 195.813
49.29000 195.096
49.30000 187.995
49.31000 180.973
49.32000 177.475
49.33000 176.040
49.34000 174.792
49.35000 177.267
49.36000 181.189
49.37000 184.563
49.38000 182.335
49.39000 178.641
49.40000 175.399
49.41000 174.068
49.42000 173.204
49.43000 173.465
49.44000 178.201
49.45000 183.400
49.46000 186.716
49.47000 185.005
49.48000 183.021
49.49000 181.735
49.50000 178.207
49.51000 175.592
49.52000 173.339
49.53000 171.519
49.54000 169.709
49.55000 170.090
49.56000 172.156
49.57000 174.187
49.58000 177.788
49.59000 182.049
49.60000 185.941
49.61000 183.947
49.62000 179.909
49.63000 176.421
49.64000 177.726
49.65000 180.144
49.66000 182.225
49.67000 183.457
49.68000 184.394
49.69000 184.728
49.70000 182.934
49.71000 180.954
49.72000 180.277
49.73000 182.710
49.74000 185.276
49.75000 186.866
49.76000 183.461
49.77000 180.965
49.78000 179.896
49.79000 180.331
49.80000 180.769
49.81000 181.547
49.82000 182.556
49.83000 183.541
49.84000 182.120
49.85000 179.704
49.86000 177.504
49.87000 178.127
49.88000 179.624
49.89000 181.151
49.90000 182.909
49.91000 184.714
49.92000 186.235
49.93000 182.153
49.94000 178.141
49.95000 175.260
49.96000 175.936
49.97000 176.872
49.98000 178.508
49.99000 181.631
50.00000 184.803
50.01000 186.674
50.02000 182.048
50.03000 178.747
50.04000 177.543
50.05000 178.276
50.06000 179.030
50.07000 181.235
50.08000 184.320
50.09000 187.308
50.10000 188.280
50.11000 188.418
50.12000 188.231
50.13000 184.456
50.14000 179.692
50.15000 175.589
50.16000 175.798
50.17000 176.786
50.18000 177.600
50.19000 187.653
50.20000 196.765
50.21000 202.653
50.22000 199.490
50.23000 195.785
50.24000 194.017
50.25000 195.930
50.26000 197.931
50.27000 199.051
50.28000 192.348
50.29000 187.704
50.30000 189.751
50.31000 197.237
50.32000 204.535
50.33000 203.315
50.34000 197.495
50.35000 191.909
50.36000 195.440
50.37000 201.856
50.38000 207.964
50.39000 211.186
50.40000 213.701
50.41000 215.874
50.42000 216.101
50.43000 216.019
50.44000 215.954
50.45000 220.700
50.46000 224.913
50.47000 230.078
50.48000 237.626
50.49000 245.288
50.50000 251.055
50.51000 253.611
50.52000 256.115
50.53000 257.435
50.54000 266.572
50.55000 272.751
50.56000 274.700
50.57000 273.605
50.58000 272.751
50.59000 279.679
50.60000 290.357
50.61000 300.501
50.62000 300.476
50.63000 297.392
50.64000 294.738
50.65000 295.529
50.66000 297.067
50.67000 298.512
50.68000 299.494
50.69000 300.411
50.70000 301.129
50.71000 292.662
50.72000 285.324
50.73000 279.032
50.74000 275.080
50.75000 271.216
50.76000 269.356
50.77000 270.515
50.78000 271.704
50.79000 270.816
50.80000 267.896
50.81000 264.952
50.82000 259.950
50.83000 253.632
50.84000 247.386
50.85000 242.905
50.86000 239.182
50.87000 235.687
50.88000 234.616
50.89000 234.283
50.90000 233.232
50.91000 227.214
50.92000 220.244
50.93000 213.223
50.94000 205.970
50.95000 198.690
50.96000 193.165
50.97000 202.584
50.98000 210.755
50.99000 214.832
51.00000 210.723
51.01000 206.387
51.02000 200.499
51.03000 192.539
51.04000 184.574
51.05000 180.073
51.06000 178.552
51.07000 177.052
51.08000 176.648
51.09000 176.867
51.10000 177.191
51.11000 179.558
51.12000 182.710
51.13000 185.631
51.14000 186.141
51.15000 186.039
51.16000 185.129
51.17000 179.329
51.18000 172.708
51.19000 168.283
51.20000 172.485
51.21000 177.563
51.22000 181.296
51.23000 182.299
51.24000 182.962
51.25000 183.450
51.26000 183.628
51.27000 183.799
51.28000 184.274
51.29000 185.108
51.30000 185.941
51.31000 182.298
51.32000 175.304
51.33000 168.545
51.34000 170.584
51.35000 177.085
51.36000 183.165
51.37000 182.684
51.38000 179.953
51.39000 177.459
51.40000 174.304
51.41000 171.370
51.42000 168.423
51.43000 165.410
51.44000 162.388
51.45000 161.107
51.46000 165.902
51.47000 171.220
51.48000 174.998
51.49000 175.963
51.50000 176.609
51.51000 176.636
51.52000 175.684
51.53000 174.720
51.54000 173.551
51.55000 172.172
51.56000 170.801
51.57000 170.596
51.58000 171.169
51.59000 171.799
51.60000 173.981
51.61000 176.865
51.62000 179.187
51.63000 174.270
51.64000 167.139
51.65000 160.730
51.66000 162.106
51.67000 164.692
51.68000 166.399
51.69000 163.998
51.70000 161.074
51.71000 160.505
51.72000 167.257
51.73000 174.533
51.74000 179.514
51.75000 178.010
51.76000 176.728
51.77000 172.670
51.78000 164.697
51.79000 156.699
51.80000 155.010
51.81000 159.064
51.82000 163.079
51.83000 166.872
51.84000 170.457
51.85000 173.772
51.86000 171.311
51.87000 166.514
51.88000 162.256
51.89000 163.816
51.90000 166.960
51.91000 169.737
51.92000 168.098
51.93000 166.004
51.94000 163.735
51.95000 160.745
51.96000 157.675
51.97000 155.486
51.98000 155.739
51.99000 156.135
52.00000 156.395
52.01000 161.776
52.02000 165.825
52.03000 168.999
52.04000 171.081
52.05000 173.153
52.06000 172.853
52.07000 170.649
52.08000 168.477
52.09000 173.784
52.10000 182.804
52.11000 191.075
52.12000 186.518
52.13000 177.331
52.14000 168.343
52.15000 161.171
52.16000 154.438
52.17000 148.604
52.18000 154.996
52.19000 162.059
52.20000 167.422
52.21000 166.533
52.22000 165.065
52.23000 164.471
52.24000 166.043
52.25000 167.717
52.26000 168.770
52.27000 168.215
52.28000 167.795
52.29000 165.625
52.30000 161.530
52.31000 157.455
52.32000 156.311
52.33000 157.250
52.34000 158.168
52.35000 161.441
52.36000 165.660
52.37000 169.495
52.38000 167.955
52.39000 164.685
52.40000 161.725
52.41000 161.214
52.42000 161.228
52.43000 161.239
52.44000 162.788
52.45000 164.261
52.46000 165.002
52.47000 163.343
52.48000 161.496
52.49000 159.976
52.50000 159.174
52.51000 158.398
52.52000 157.933
52.53000 151.693
52.54000 147.222
52.55000 147.418
52.56000 152.117
52.57000 156.825
52.58000 162.197
52.59000 167.988
52.60000 173.613
52.61000 170.414
52.62000 163.812
52.63000 157.655
52.64000 156.695
52.65000 157.226
52.66000 158.219
52.67000 162.371
52.68000 167.119
52.69000 171.060
52.70000 166.811
52.71000 162.507
52.72000 159.655
52.73000 161.043
52.74000 162.703
52.75000 164.978
52.76000 168.468
52.77000 171.990
52.78000 173.997
52.79000 172.007
52.80000 170.609
52.81000 170.621
52.82000 171.828
52.83000 172.932
52.84000 168.717
52.85000 161.517
52.86000 154.583
52.87000 157.605
52.88000 163.991
52.89000 170.029
52.90000 172.636
52.91000 174.369
52.92000 175.421
52.93000 172.415
52.94000 168.736
52.95000 165.757
52.96000 168.610
52.97000 171.408
52.98000 171.992
52.99000 166.809
53.00000 161.327
53.01000 156.993
53.02000 154.681
53.03000 152.406
53.04000 151.182
53.05000 157.440
53.06000 161.717
53.07000 164.265
53.08000 165.517
53.09000 166.716
53.10000 165.994
53.11000 164.309
53.12000 162.702
53.13000 160.320
53.14000 157.867
53.15000 155.861
53.16000 157.623
53.17000 160.238
53.18000 162.361
53.19000 161.916
53.20000 161.101
53.21000 160.457
53.22000 162.861
53.23000 164.995
53.24000 165.293
53.25000 161.319
53.26000 157.171
53.27000 153.628
53.28000 151.033
53.29000 148.450
53.30000 147.143
53.31000 161.798
53.32000 171.545
53.33000 175.128
53.34000 174.615
53.35000 174.093
53.36000 173.362
53.37000 172.537
53.38000 171.760
53.39000 168.050
53.40000 163.843
53.41000 160.016
53.42000 158.966
53.43000 158.471
53.44000 158.254
53.45000 159.323
53.46000 160.553
53.47000 161.495
53.48000 164.169
53.49000 166.376
53.50000 165.296
53.51000 157.386
53.52000 149.265
53.53000 148.504
53.54000 157.985
53.55000 167.529
53.56000 170.214
53.57000 166.745
53.58000 163.243
53.59000 157.732
53.60000 151.034
53.61000 144.788
53.62000 147.986
53.63000 154.956
53.64000 161.443
53.65000 163.475
53.66000 164.229
53.67000 164.599
53.68000 162.543
53.69000 160.060
53.70000 158.036
53.71000 157.884
53.72000 157.934
53.73000 157.970
53.74000 161.528
53.75000 164.451
53.76000 163.116
53.77000 153.889
53.78000 144.486
53.79000 143.273
53.80000 152.146
53.81000 161.030
53.82000 162.890
53.83000 159.206
53.84000 155.579
53.85000 154.283
53.86000 154.215
53.87000 154.304
53.88000 157.014
53.89000 160.657
53.90000 164.002
53.91000 164.751
53.92000 164.867
53.93000 164.179
53.94000 159.033
53.95000 153.202
53.96000 148.766
53.97000 149.391
53.98000 150.478
53.99000 151.259
54.00000 156.435
54.01000 160.550
54.02000 162.106
54.03000 159.434
54.04000 156.699
54.05000 154.568
54.06000 153.093
54.07000 151.625
54.08000 150.935
54.09000 150.791
54.10000 150.763
54.11000 154.225
54.12000 159.328
54.13000 163.915
54.14000 161.421
54.15000 156.675
54.16000 152.386
54.17000 159.486
54.18000 167.848
54.19000 173.270
54.20000 164.351
54.21000 153.517
54.22000 146.402
54.23000 151.313
54.24000 157.141
54.25000 161.182
54.26000 166.097
54.27000 169.821
54.28000 169.486
54.29000 163.193
54.30000 156.848
54.31000 155.248
54.32000 158.160
54.33000 161.049
54.34000 162.517
54.35000 163.090
54.36000 163.485
54.37000 159.724
54.38000 154.218
54.39000 149.054
54.40000 147.798
54.41000 147.649
54.42000 147.516
54.43000 145.721
54.44000 143.895
54.45000 142.795
54.46000 144.823
54.47000 147.211
54.48000 149.256
54.49000 150.312
54.50000 151.305
54.51000 151.968
54.52000 154.519
54.53000 156.444
54.54000 157.286
54.55000 156.719
54.56000 156.148
54.57000 156.304
54.58000 157.070
54.59000 157.826
54.60000 156.831
54.61000 154.918
54.62000 153.101
54.63000 153.048
54.64000 153.658
54.65000 154.272
54.66000 154.933
54.67000 155.606
54.68000 156.193
54.69000 155.211
54.70000 154.153
54.71000 154.757
54.72000 161.724
54.73000 169.315
54.74000 173.866
54.75000 170.592
54.76000 166.921
54.77000 164.576
54.78000 159.978
54.79000 156.603
54.80000 155.577
54.81000 157.250
54.82000 158.928
54.83000 160.951
54.84000 163.229
54.85000 165.465
54.86000 162.344
54.87000 156.781
54.88000 151.711
54.89000 154.005
54.90000 158.764
54.91000 162.919
54.92000 162.069
54.93000 160.104
54.94000 158.423
54.95000 158.132
54.96000 158.052
54.97000 158.951
54.98000 163.175
54.99000 167.675
55.00000 168.550
55.01000 161.093
55.02000 153.307
55.03000 148.555
55.04000 157.908
55.05000 164.709
55.06000 169.245
55.07000 171.497
55.08000 173.710
55.09000 172.278
55.10000 168.455
55.11000 164.730
55.12000 164.547
55.13000 165.865
55.14000 166.958
55.15000 165.272
55.16000 162.757
55.17000 160.834
55.18000 163.151
55.19000 166.302
55.20000 168.939
55.21000 166.951
55.22000 164.827
55.23000 163.854
55.24000 166.368
55.25000 169.122
55.26000 170.809
55.27000 170.305
55.28000 169.736
55.29000 169.406
55.30000 169.977
55.31000 170.382
55.32000 170.375
55.33000 170.005
55.34000 169.696
55.35000 172.980
55.36000 178.362
55.37000 183.561
55.38000 185.523
55.39000 186.169
55.40000 187.062
55.41000 190.536
55.42000 194.695
55.43000 198.282
55.44000 198.302
55.45000 197.705
55.46000 197.216
55.47000 196.231
55.48000 195.382
55.49000 197.009
55.50000 205.335
55.51000 214.036
55.52000 221.017
55.53000 224.848
55.54000 228.613
55.55000 230.680
55.56000 238.079
55.57000 243.192
55.58000 251.640
55.59000 262.692
55.60000 273.672
55.61000 281.690
55.62000 288.166
55.63000 294.363
55.64000 307.118
55.65000 321.150
55.66000 336.156
55.67000 359.812
55.68000 385.506
55.69000 407.560
55.70000 409.721
55.71000 408.871
55.72000 408.194
55.73000 432.217
55.74000 453.366
55.75000 473.322
55.76000 490.393
55.77000 507.335
55.78000 526.707
55.79000 550.043
55.80000 573.435
55.81000 585.526
55.82000 590.065
55.83000 593.194
55.84000 604.980
55.85000 622.755
55.86000 640.397
55.87000 654.082
55.88000 665.929
55.89000 677.141
55.90000 673.255
55.91000 665.319
55.92000 658.701
55.93000 662.153
55.94000 667.703
55.95000 669.580
55.96000 653.773
55.97000 635.643
55.98000 621.604
55.99000 610.633
56.00000 602.105
56.01000 589.925
56.02000 569.864
56.03000 549.534
56.04000 528.222
56.05000 505.487
56.06000 482.744
56.07000 469.984
56.08000 466.589
56.09000 462.984
56.10000 444.447
56.11000 416.725
56.12000 389.584
56.13000 375.622
56.14000 367.127
56.15000 359.185
56.16000 344.194
56.17000 328.794
56.18000 314.085
56.19000 303.957
56.20000 294.670
56.21000 284.660
56.22000 271.573
56.23000 258.137
56.24000 248.042
56.25000 237.877
56.26000 229.926
56.27000 224.700
56.28000 224.726
56.29000 224.883
56.30000 220.400
56.31000 209.958
56.32000 199.506
56.33000 195.631
56.34000 197.181
56.35000 198.654
56.36000 196.488
56.37000 192.330
56.38000 188.269
56.39000 185.963
56.40000 184.306
56.41000 182.778
56.42000 179.066
56.43000 175.254
56.44000 172.166
56.45000 173.277
56.46000 175.063
56.47000 175.360
56.48000 170.032
56.49000 164.161
56.50000 159.891
56.51000 162.207
56.52000 164.240
56.53000 164.533
56.54000 161.838
56.55000 159.091
56.56000 156.614
56.57000 154.443
56.58000 152.279
56.59000 152.206
56.60000 153.647
56.61000 155.053
56.62000 155.265
56.63000 154.895
56.64000 154.524
56.65000 154.136
56.66000 153.741
56.67000 153.383
56.68000 154.196
56.69000 155.142
56.70000 156.435
56.71000 159.493
56.72000 162.799
56.73000 164.643
56.74000 161.573
56.75000 158.106
56.76000 155.670
56.77000 158.274
56.78000 160.391
56.79000 159.592
56.80000 154.334
56.81000 149.029
56.82000 145.762
56.83000 144.521
56.84000 143.288
56.85000 144.091
56.86000 146.179
56.87000 148.102
56.88000 145.813
56.89000 141.688
56.90000 137.996
56.91000 139.567
56.92000 142.689
56.93000 145.479
56.94000 147.444
56.95000 149.017
56.96000 150.028
56.97000 148.520
56.98000 146.706
56.99000 145.253
57.00000 144.881
57.01000 144.582
57.02000 144.380
57.03000 145.282
57.04000 145.977
57.05000 147.055
57.06000 148.653
57.07000 150.254
57.08000 151.774
57.09000 153.222
57.10000 154.655
57.11000 150.466
57.12000 143.210
57.13000 136.263
57.14000 135.479
57.15000 137.095
57.16000 139.114
57.17000 145.254
57.18000 152.475
57.19000 158.815
57.20000 155.366
57.21000 150.966
57.22000 147.716
57.23000 149.047
57.24000 150.853
57.25000 151.578
57.26000 149.414
57.27000 147.093
57.28000 145.587
57.29000 148.737
57.30000 151.113
57.31000 151.174
57.32000 148.459
57.33000 145.751
57.34000 146.157
57.35000 148.964
57.36000 151.725
57.37000 150.666
57.38000 147.742
57.39000 144.986
57.40000 144.910
57.41000 145.765
57.42000 146.668
57.43000 147.978
57.44000 149.384
57.45000 150.594
57.46000 150.787
57.47000 150.823
57.48000 149.941
57.49000 145.814
57.50000 141.402
57.51000 138.283
57.52000 138.253
57.53000 138.357
57.54000 138.421
57.55000 139.312
57.56000 139.961
57.57000 142.163
57.58000 146.005
57.59000 149.823
57.60000 150.980
57.61000 150.320
57.62000 149.675
57.63000 150.405
57.64000 151.708
57.65000 152.885
57.66000 152.396
57.67000 151.391
57.68000 150.389
57.69000 149.413
57.70000 148.442
57.71000 147.624
57.72000 148.028
57.73000 148.497
57.74000 148.391
57.75000 146.474
57.76000 144.423
57.77000 144.151
57.78000 147.672
57.79000 151.318
57.80000 153.471
57.81000 155.130
57.82000 156.298
57.83000 153.741
57.84000 147.740
57.85000 141.806
57.86000 140.473
57.87000 141.934
57.88000 143.349
57.89000 146.038
57.90000 149.077
57.91000 151.649
57.92000 149.077
57.93000 145.084
57.94000 141.557
57.95000 141.075
57.96000 141.145
57.97000 141.202
57.98000 143.204
57.99000 145.029
58.00000 145.013
58.01000 139.821
58.02000 134.317
58.03000 131.014
58.04000 131.901
58.05000 132.889
58.06000 133.442
58.07000 133.049
58.08000 132.781
58.09000 134.924
58.10000 139.032
58.11000 143.082
58.12000 144.528
58.13000 144.565
58.14000 144.600
58.15000 142.115
58.16000 138.928
58.17000 136.244
58.18000 138.260
58.19000 141.429
58.20000 144.165
58.21000 144.428
58.22000 144.299
58.23000 144.196
58.24000 146.100
58.25000 147.797
58.26000 148.399
58.27000 146.251
58.28000 143.969
58.29000 143.562
58.30000 146.334
58.31000 149.158
58.32000 150.649
58.33000 148.134
58.34000 146.424
58.35000 144.654
58.36000 142.842
58.37000 141.098
58.38000 141.584
58.39000 143.147
58.40000 144.631
58.41000 144.836
58.42000 144.639
58.43000 144.139
58.44000 141.210
58.45000 137.753
58.46000 135.274
58.47000 137.711
58.48000 140.826
58.49000 143.262
58.50000 140.699
58.51000 138.336
58.52000 137.092
58.53000 138.360
58.54000 139.722
58.55000 141.406
58.56000 143.575
58.57000 145.749
58.58000 146.019
58.59000 144.423
58.60000 142.813
58.61000 140.006
58.62000 136.434
58.63000 133.021
58.64000 133.512
58.65000 135.687
58.66000 137.729
58.67000 136.688
58.68000 134.921
58.69000 133.590
58.70000 135.282
58.71000 137.555
58.72000 140.135
58.73000 144.081
58.74000 148.189
58.75000 151.308
58.76000 148.023
58.77000 145.111
58.78000 141.727
58.79000 137.400
58.80000 133.046
58.81000 130.585
58.82000 130.658
58.83000 130.743
58.84000 133.305
58.85000 137.991
58.86000 142.596
58.87000 142.870
58.88000 140.677
58.89000 138.464
58.90000 135.868
58.91000 133.126
58.92000 130.585
58.93000 134.534
58.94000 139.600
58.95000 143.849
58.96000 143.144
58.97000 141.605
58.98000 140.387
58.99000 140.431
59.00000 140.605
59.01000 140.732
59.02000 141.119
59.03000 141.430
59.04000 140.595
59.05000 137.715
59.06000 134.795
59.07000 134.805
59.08000 138.281
59.09000 141.753
59.10000 139.702
59.11000 133.489
59.12000 127.396
59.13000 125.847
59.14000 126.605
59.15000 127.547
59.16000 131.371
59.17000 136.185
59.18000 140.583
59.19000 142.111
59.20000 142.883
59.21000 143.314
59.22000 141.937
59.23000 140.293
59.24000 138.632
59.25000 136.911
59.26000 135.185
59.27000 133.958
59.28000 137.792
59.29000 140.873
59.30000 141.564
59.31000 138.455
59.32000 135.298
59.33000 133.259
59.34000 132.385
59.35000 131.516
59.36000 133.285
59.37000 136.788
59.38000 140.170
59.39000 140.185
59.40000 138.672
59.41000 137.194
59.42000 136.158
59.43000 135.258
59.44000 134.449
59.45000 136.628
59.46000 139.067
59.47000 140.720
59.48000 138.689
59.49000 136.189
59.50000 135.056
59.51000 138.180
59.52000 141.610
59.53000 143.959
59.54000 140.465
59.55000 137.709
59.56000 137.674
59.57000 141.483
59.58000 145.318
59.59000 147.089
59.60000 146.976
59.61000 146.864
59.62000 145.111
59.63000 142.429
59.64000 139.698
59.65000 135.900
59.66000 131.671
59.67000 127.937
59.68000 129.575
59.69000 132.678
59.70000 135.420
59.71000 131.305
59.72000 126.696
59.73000 124.146
59.74000 130.145
59.75000 137.078
59.76000 141.039
59.77000 136.742
59.78000 131.959
59.79000 128.813
59.80000 131.344
59.81000 133.306
59.82000 131.967
59.83000 126.502
59.84000 121.042
59.85000 121.573
59.86000 126.921
59.87000 132.189
59.88000 131.015
59.89000 126.534
59.90000 122.260
59.91000 121.531
59.92000 122.085
59.93000 123.370
59.94000 131.391
59.95000 141.044
59.96000 149.411
59.97000 144.701
59.98000 138.952
59.99000 135.108
60.00000 138.280
60.01000 142.104
60.02000 143.649
60.03000 139.540
60.04000 135.165
60.05000 132.409
60.06000 130.038
60.07000 128.326
60.08000 128.730
60.09000 131.465
60.10000 134.191
60.11000 135.431
60.12000 135.615
60.13000 135.795
60.14000 131.472
60.15000 125.256
60.16000 119.547
60.17000 120.947
60.18000 124.641
60.19000 128.399
60.20000 132.657
60.21000 137.023
60.22000 140.729
60.23000 138.075
60.24000 135.122
60.25000 131.917
60.26000 127.882
60.27000 123.782
60.28000 122.877
60.29000 129.051
60.30000 135.483
60.31000 139.345
60.32000 138.788
60.33000 138.363
60.34000 138.007
60.35000 137.719
60.36000 137.426
60.37000 136.744
60.38000 135.817
60.39000 134.916
60.40000 134.651
60.41000 134.657
60.42000 134.615
60.43000 134.011
60.44000 133.246
60.45000 133.056
60.46000 136.801
60.47000 141.290
60.48000 145.016
60.49000 141.260
60.50000 137.429
60.51000 135.982
60.52000 141.504
60.53000 147.474
60.54000 148.925
60.55000 141.436
60.56000 133.706
60.57000 129.298
60.58000 129.931
60.59000 130.390
60.60000 131.648
60.61000 133.584
60.62000 135.488
60.63000 135.704
60.64000 134.969
60.65000 134.262
60.66000 131.810
60.67000 128.884
60.68000 126.203
60.69000 125.948
60.70000 126.312
60.71000 126.862
60.72000 128.523
60.73000 130.368
60.74000 131.863
60.75000 130.652
60.76000 129.445
60.77000 129.029
60.78000 130.676
60.79000 132.431
60.80000 134.870
60.81000 138.517
60.82000 142.186
60.83000 144.164
60.84000 137.103
60.85000 132.285
60.86000 131.142
60.87000 132.759
60.88000 134.246
60.89000 131.024
60.90000 125.439
60.91000 120.114
60.92000 120.968
60.93000 123.706
60.94000 126.695
60.95000 131.798
60.96000 137.381
60.97000 141.325
60.98000 136.678
60.99000 130.789
61.00000 126.141
61.01000 128.553
61.02000 130.967
61.03000 133.765
61.04000 137.457
61.05000 141.185
61.06000 141.272
61.07000 135.641
61.08000 129.940
61.09000 127.055
61.10000 133.726
61.11000 138.176
61.12000 140.968
61.13000 142.655
61.14000 144.323
61.15000 145.443
61.16000 146.319
61.17000 147.144
61.18000 144.456
61.19000 141.020
61.20000 138.136
61.21000 139.283
61.22000 141.235
61.23000 141.738
61.24000 135.540
61.25000 128.501
61.26000 123.103
61.27000 126.927
61.28000 130.461
61.29000 132.736
61.30000 132.393
61.31000 131.969
61.32000 132.697
61.33000 135.032
61.34000 137.376
61.35000 138.148
61.36000 137.509
61.37000 136.896
61.38000 137.979
61.39000 140.065
61.40000 141.934
61.41000 139.253
61.42000 134.753
61.43000 130.563
61.44000 137.197
61.45000 145.830
61.46000 153.145
61.47000 152.103
61.48000 149.589
61.49000 149.513
61.50000 159.418
61.51000 170.396
61.52000 178.561
61.53000 188.299
61.54000 195.944
61.55000 206.273
61.56000 221.585
61.57000 237.010
61.58000 250.178
61.59000 260.562
61.60000 270.920
61.61000 282.685
61.62000 295.505
61.63000 308.144
61.64000 313.150
61.65000 314.126
61.66000 315.413
61.67000 321.923
61.68000 330.299
61.69000 337.989
61.70000 332.302
61.71000 324.378
61.72000 318.362
61.73000 322.944
61.74000 329.158
61.75000 330.707
61.76000 315.291
61.77000 298.325
61.78000 286.122
61.79000 267.417
61.80000 252.871
61.81000 238.193
61.82000 223.297
61.83000 208.397
61.84000 197.766
61.85000 191.776
61.86000 185.814
61.87000 178.195
61.88000 169.502
61.89000 160.947
61.90000 156.600
61.91000 154.235
61.92000 151.799
61.93000 148.380
61.94000 144.648
61.95000 141.274
61.96000 140.890
61.97000 141.109
61.98000 141.165
61.99000 140.426
62.00000 139.581
62.01000 139.356
62.02000 141.142
62.03000 143.081
62.04000 144.426
62.05000 143.836
62.06000 143.341
62.07000 142.070
62.08000 139.662
62.09000 137.243
62.10000 137.728
62.11000 140.978
62.12000 144.203
62.13000 143.555
62.14000 140.546
62.15000 137.717
62.16000 139.068
62.17000 142.179
62.18000 144.906
62.19000 143.229
62.20000 140.302
62.21000 137.701
62.22000 138.253
62.23000 139.242
62.24000 140.407
62.25000 142.332
62.26000 144.346
62.27000 145.731
62.28000 145.303
62.29000 144.761
62.30000 144.400
62.31000 149.611
62.32000 153.578
62.33000 154.385
62.34000 151.073
62.35000 147.747
62.36000 146.212
62.37000 146.179
62.38000 146.146
62.39000 146.225
62.40000 146.361
62.41000 146.415
62.42000 144.922
62.43000 142.850
62.44000 141.138
62.45000 142.933
62.46000 145.612
62.47000 147.950
62.48000 144.295
62.49000 140.330
62.50000 138.645
62.51000 145.697
62.52000 153.609
62.53000 158.324
62.54000 154.798
62.55000 150.853
62.56000 148.330
62.57000 148.618
62.58000 148.865
62.59000 146.630
62.60000 141.542
62.61000 136.479
62.62000 136.964
62.63000 141.559
62.64000 146.069
62.65000 144.331
62.66000 139.671
62.67000 135.333
62.68000 135.811
62.69000 137.905
62.70000 140.135
62.71000 143.500
62.72000 147.117
62.73000 150.212
62.74000 150.849
62.75000 151.091
62.76000 149.961
62.77000 144.155
62.78000 137.960
62.79000 134.418
62.80000 136.983
62.81000 139.791
62.82000 141.506
62.83000 142.368
62.84000 142.977
62.85000 142.879
62.86000 142.064
62.87000 141.272
62.88000 142.592
62.89000 145.299
62.90000 147.937
62.91000 148.759
62.92000 148.777
62.93000 148.918
62.94000 150.603
62.95000 152.749
62.96000 154.516
62.97000 153.561
62.98000 152.069
62.99000 150.820
63.00000 153.336
63.01000 155.812
63.02000 156.864
63.03000 153.589
63.04000 150.016
63.05000 148.335
63.06000 150.542
63.07000 152.866
63.08000 154.215
63.09000 157.984
63.10000 160.638
63.11000 161.150
63.12000 159.763
63.13000 158.386
63.14000 157.606
63.15000 157.175
63.16000 156.759
63.17000 151.499
63.18000 144.736
63.19000 139.019
63.20000 144.242
63.21000 152.373
63.22000 159.177
63.23000 157.681
63.24000 154.744
63.25000 152.345
63.26000 148.988
63.27000 146.157
63.28000 144.481
63.29000 145.934
63.30000 147.562
63.31000 149.262
63.32000 151.094
63.33000 152.928
63.34000 153.936
63.35000 158.349
63.36000 161.373
63.37000 159.198
63.38000 152.953
63.39000 146.886
63.40000 148.022
63.41000 152.912
63.42000 157.592
63.43000 157.059
63.44000 154.849
63.45000 153.156
63.46000 156.052
63.47000 160.032
63.48000 162.667
63.49000 157.940
63.50000 152.096
63.51000 147.441
63.52000 148.089
63.53000 148.995
63.54000 150.622
63.55000 153.992
63.56000 157.440
63.57000 160.970
63.58000 164.634
63.59000 168.300
63.60000 170.196
63.61000 155.174
63.62000 145.107
63.63000 143.331
63.64000 147.304
63.65000 151.181
63.66000 152.237
63.67000 151.978
63.68000 151.733
63.69000 151.027
63.70000 150.244
63.71000 149.761
63.72000 151.578
63.73000 153.875
63.74000 155.644
63.75000 154.869
63.76000 153.758
63.77000 152.897
63.78000 152.849
63.79000 152.859
63.80000 154.928
63.81000 161.446
63.82000 168.117
63.83000 168.222
63.84000 158.794
63.85000 149.288
63.86000 146.673
63.87000 150.532
63.88000 154.361
63.89000 156.144
63.90000 156.664
63.91000 157.124
63.92000 156.201
63.93000 154.703
63.94000 153.303
63.95000 153.394
63.96000 153.856
63.97000 154.539
63.98000 156.681
63.99000 159.092
64.00000 161.314
64.01000 162.732
64.02000 164.058
64.03000 165.056
64.04000 164.187
64.05000 163.419
64.06000 163.431
64.07000 164.951
64.08000 166.510
64.09000 165.997
64.10000 162.819
64.11000 159.634
64.12000 159.914
64.13000 163.050
64.14000 166.149
64.15000 167.507
64.16000 167.911
64.17000 168.174
64.18000 165.917
64.19000 162.725
64.20000 159.780
64.21000 159.426
64.22000 159.687
64.23000 160.419
64.24000 163.890
64.25000 167.802
64.26000 170.039
64.27000 165.938
64.28000 161.225
64.29000 157.795
64.30000 163.701
64.31000 168.602
64.32000 169.391
64.33000 163.106
64.34000 156.699
64.35000 155.646
64.36000 160.672
64.37000 165.686
64.38000 166.865
64.39000 165.250
64.40000 163.698
64.41000 164.272
64.42000 165.886
64.43000 167.534
64.44000 169.675
64.45000 171.979
64.46000 174.073
64.47000 169.849
64.48000 164.883
64.49000 161.114
64.50000 163.454
64.51000 166.651
64.52000 169.837
64.53000 172.988
64.54000 176.136
64.55000 178.348
64.56000 169.631
64.57000 162.710
64.58000 159.807
64.59000 163.056
64.60000 166.372
64.61000 169.728
64.62000 173.124
64.63000 176.498
64.64000 178.900
64.65000 180.645
64.66000 182.258
64.67000 180.512
64.68000 177.298
64.69000 174.194
64.70000 172.435
64.71000 171.072
64.72000 169.854
64.73000 176.710
64.74000 184.058
64.75000 188.254
64.76000 178.256
64.77000 166.536
64.78000 159.291
64.79000 165.475
64.80000 172.564
64.81000 177.359
64.82000 181.420
64.83000 184.428
64.84000 186.347
64.85000 186.784
64.86000 187.215
64.87000 189.017
64.88000 192.021
64.89000 194.991
64.90000 193.547
64.91000 189.646
64.92000 186.141
64.93000 190.515
64.94000 197.964
64.95000 204.789
64.96000 205.207
64.97000 203.942
64.98000 202.831
64.99000 206.234
65.00000 209.823
65.01000 211.616
65.02000 206.243
65.03000 200.125
65.04000 197.880
65.05000 206.011
65.06000 214.710
65.07000 220.355
65.08000 219.748
65.09000 219.209
65.10000 219.059
65.11000 219.374
65.12000 219.706
65.13000 223.813
65.14000 230.837
65.15000 237.743
65.16000 243.421
65.17000 248.301
65.18000 252.762
65.19000 250.502
65.20000 245.899
65.21000 242.887
65.22000 253.795
65.23000 267.946
65.24000 280.133
65.25000 283.137
65.26000 284.519
65.27000 287.653
65.28000 296.999
65.29000 306.891
65.30000 316.709
65.31000 326.346
65.32000 335.975
65.33000 341.950
65.34000 337.158
65.35000 333.605
65.36000 337.548
65.37000 349.411
65.38000 361.339
65.39000 380.563
65.40000 404.779
65.41000 428.432
65.42000 431.868
65.43000 426.260
65.44000 421.447
65.45000 427.122
65.46000 436.058
65.47000 444.493
65.48000 449.163
65.49000 453.057
65.50000 456.340
65.51000 458.911
65.52000 460.980
65.53000 463.425
65.54000 467.055
65.55000 470.772
65.56000 472.694
65.57000 470.783
65.58000 468.744
65.59000 467.540
65.60000 481.374
65.61000 491.228
65.62000 495.541
65.63000 494.719
65.64000 494.112
65.65000 508.206
65.66000 531.244
65.67000 553.567
65.68000 586.612
65.69000 622.057
65.70000 657.903
65.71000 698.187
65.72000 739.698
65.73000 784.710
65.74000 852.638
65.75000 924.721
65.76000 984.113
65.77000 1043.959
65.78000 1093.244
65.79000 1141.326
65.80000 1186.020
65.81000 1230.509
65.82000 1268.881
65.83000 1295.590
65.84000 1322.017
65.85000 1336.822
65.86000 1344.116
65.87000 1349.126
65.88000 1343.477
65.89000 1329.131
65.90000 1314.589
65.91000 1291.145
65.92000 1262.875
65.93000 1235.732
65.94000 1188.612
65.95000 1137.685
65.96000 1083.316
65.97000 996.675
65.98000 902.100
65.99000 810.103
66.00000 732.851
66.01000 657.942
66.02000 597.744
66.03000 543.903
66.04000 500.750
66.05000 461.856
66.06000 433.681
66.07000 406.023
66.08000 385.919
66.09000 378.652
66.10000 371.597
66.11000 367.870
66.12000 347.716
66.13000 334.059
66.14000 326.587
66.15000 323.580
66.16000 320.615
66.17000 319.009
66.18000 318.059
66.19000 317.157
66.20000 319.783
66.21000 323.275
66.22000 327.260
66.23000 335.213
66.24000 344.030
66.25000 351.725
66.26000 353.773
66.27000 355.040
66.28000 356.030
66.29000 382.583
66.30000 405.410
66.31000 425.743
66.32000 440.474
66.33000 454.994
66.34000 465.168
66.35000 468.772
66.36000 472.310
66.37000 475.935
66.38000 479.646
66.39000 483.369
66.40000 488.137
66.41000 493.575
66.42000 498.953
66.43000 502.843
66.44000 506.091
66.45000 509.141
66.46000 506.487
66.47000 502.551
66.48000 497.973
66.49000 488.929
66.50000 479.028
66.51000 467.738
66.52000 450.274
66.53000 432.072
66.54000 418.246
66.55000 405.803
66.56000 396.093
66.57000 385.813
66.58000 374.388
66.59000 362.930
66.60000 354.297
66.61000 349.448
66.62000 344.623
66.63000 337.408
66.64000 328.148
66.65000 319.070
66.66000 319.812
66.67000 326.158
66.68000 332.250
66.69000 333.430
66.70000 332.714
66.71000 332.051
66.72000 337.343
66.73000 343.495
66.74000 348.150
66.75000 343.713
66.76000 337.743
66.77000 334.190
66.78000 340.159
66.79000 347.102
66.80000 352.211
66.81000 349.518
66.82000 347.110
66.83000 345.294
66.84000 344.533
66.85000 343.794
66.86000 345.147
66.87000 348.979
66.88000 352.806
66.89000 357.137
66.90000 361.823
66.91000 366.455
66.92000 369.069
66.93000 370.657
66.94000 372.213
66.95000 373.256
66.96000 374.123
66.97000 374.915
66.98000 374.989
66.99000 374.908
67.00000 374.269
67.01000 370.660
67.02000 366.614
67.03000 365.953
67.04000 377.145
67.05000 389.361
67.06000 398.049
67.07000 393.676
67.08000 389.927
67.09000 386.820
67.10000 384.735
67.11000 382.664
67.12000 381.181
67.13000 380.310
67.14000 379.443
67.15000 383.993
67.16000 392.099
67.17000 400.103
67.18000 405.276
67.19000 409.163
67.20000 412.569
67.21000 409.750
67.22000 405.020
67.23000 400.767
67.24000 398.793
67.25000 397.469
67.26000 398.285
67.27000 409.150
67.28000 421.298
67.29000 429.848
67.30000 427.177
67.31000 423.698
67.32000 421.314
67.33000 424.866
67.34000 427.670
67.35000 431.621
67.36000 437.195
67.37000 442.779
67.38000 443.542
67.39000 439.900
67.40000 436.293
67.41000 436.271
67.42000 438.361
67.43000 440.385
67.44000 440.986
67.45000 441.011
67.46000 441.808
67.47000 450.987
67.48000 462.456
67.49000 472.592
67.50000 468.826
67.51000 463.427
67.52000 458.730
67.53000 456.950
67.54000 455.491
67.55000 455.014
67.56000 457.272
67.57000 459.692
67.58000 461.285
67.59000 465.614
67.60000 468.849
67.61000 469.354
67.62000 466.436
67.63000 463.544
67.64000 473.213
67.65000 492.996
67.66000 512.490
67.67000 515.544
67.68000 509.967
67.69000 504.555
67.70000 501.992
67.71000 500.462
67.72000 499.733
67.73000 506.390
67.74000 514.840
67.75000 522.168
67.76000 519.008
67.77000 514.920
67.78000 512.314
67.79000 515.177
67.80000 518.550
67.81000 521.051
67.82000 521.383
67.83000 521.613
67.84000 521.758
67.85000 535.514
67.86000 545.628
67.87000 551.577
67.88000 552.925
67.89000 554.266
67.90000 554.788
67.91000 554.727
67.92000 554.667
67.93000 559.721
67.94000 566.924
67.95000 573.708
67.96000 574.589
67.97000 573.563
67.98000 573.372
67.99000 579.786
68.00000 587.618
68.01000 594.271
68.02000 604.233
68.03000 612.971
68.04000 620.191
68.05000 622.425
68.06000 624.270
68.07000 625.203
68.08000 624.112
68.09000 622.948
68.10000 622.248
68.11000 610.852
68.12000 602.678
68.13000 601.714
68.14000 607.732
68.15000 613.744
68.16000 619.273
68.17000 624.495
68.18000 629.570
68.19000 633.100
68.20000 635.829
68.21000 639.754
68.22000 657.700
68.23000 679.681
68.24000 698.833
68.25000 698.573
68.26000 694.636
68.27000 691.367
68.28000 686.751
68.29000 682.803
68.30000 682.013
68.31000 690.469
68.32000 699.521
68.33000 707.789
68.34000 714.501
68.35000 721.171
68.36000 724.978
68.37000 739.002
68.38000 748.811
68.39000 752.147
68.40000 749.973
68.41000 748.134
68.42000 763.675
68.43000 789.009
68.44000 813.412
68.45000 824.549
68.46000 830.263
68.47000 836.655
68.48000 849.757
68.49000 864.577
68.50000 880.172
68.51000 900.411
68.52000 921.421
68.53000 938.453
68.54000 957.699
68.55000 973.560
68.56000 992.028
68.57000 1017.309
68.58000 1042.946
68.59000 1070.797
68.60000 1102.561
68.61000 1134.399
68.62000 1151.569
68.63000 1227.026
68.64000 1278.791
68.65000 1350.180
68.66000 1436.332
68.67000 1521.931
68.68000 1587.458
68.69000 1642.898
68.70000 1695.770
68.71000 1774.381
68.72000 1855.436
68.73000 1933.544
68.74000 1986.713
68.75000 2034.222
68.76000 2087.065
68.77000 2167.925
68.78000 2252.847
68.79000 2319.897
68.80000 2423.966
68.81000 2509.997
68.82000 2596.645
68.83000 2684.733
68.84000 2772.881
68.85000 2916.029
68.86000 3145.687
68.87000 3376.399
68.88000 3493.316
68.89000 4252.224
68.90000 4765.439
68.91000 5787.714
68.92000 7149.567
68.93000 8556.287
68.94000 11179.523
68.95000 14348.492
68.96000 17336.818
68.97000 22576.689
68.98000 28002.279
68.99000 33544.523
69.00000 39938.906
69.01000 46504.117
69.02000 52847.746
69.03000 58164.746
69.04000 63352.813
69.05000 67334.016
69.06000 70686.570
69.07000 73300.914
69.08000 75343.945
69.09000 76196.141
69.10000 77011.227
69.11000 77624.883
69.12000 77957.211
69.13000 78287.531
69.14000 78872.336
69.15000 79685.648
69.16000 80492.117
69.17000 80872.852
69.18000 81001.016
69.19000 81053.492
69.20000 79513.102
69.21000 77334.555
69.22000 75305.914
69.23000 71163.070
69.24000 66901.320
69.25000 62709.000
69.26000 58957.805
69.27000 55284.398
69.28000 51779.004
69.29000 48962.875
69.30000 46221.047
69.31000 44180.863
69.32000 42486.441
69.33000 41183.676
69.34000 39985.520
69.35000 38981.922
69.36000 37982.695
69.37000 36685.922
69.38000 35021.363
69.39000 33358.781
69.40000 30963.830
69.41000 28000.758
69.42000 25033.441
69.43000 21886.943
69.44000 18645.707
69.45000 15446.222
69.46000 12949.998
69.47000 10705.335
69.48000 8644.113
69.49000 7055.604
69.50000 5739.404
69.51000 4519.533
69.52000 3835.635
69.53000 3234.413
69.54000 2711.743
69.55000 2475.285
69.56000 2265.025
69.57000 2113.700
69.58000 1984.899
69.59000 1887.070
69.60000 1788.203
69.61000 1687.620
69.62000 1587.010
69.63000 1510.179
69.64000 1459.243
69.65000 1408.540
69.66000 1364.823
69.67000 1326.423
69.68000 1287.944
69.69000 1247.057
69.70000 1205.033
69.71000 1164.010
69.72000 1136.785
69.73000 1113.963
69.74000 1093.326
69.75000 1084.800
69.76000 1079.555
69.77000 1069.706
69.78000 1037.301
69.79000 1001.873
69.80000 971.665
69.81000 958.388
69.82000 946.410
69.83000 938.095
69.84000 915.369
69.85000 897.865
69.86000 885.460
69.87000 880.569
69.88000 875.745
69.89000 870.339
69.90000 864.379
69.91000 858.466
69.92000 848.566
69.93000 836.394
69.94000 824.491
69.95000 818.900
69.96000 815.968
69.97000 813.057
69.98000 810.377
69.99000 807.763
70.00000 805.439
