20.00000 557.472
20.01000 561.472
20.02000 566.044
20.03000 569.084
20.04000 566.157
20.05000 562.628
20.06000 560.039
20.07000 551.388
20.08000 544.458
20.09000 542.985
20.10000 551.175
20.11000 559.551
20.12000 569.203
20.13000 580.352
20.14000 591.472
20.15000 594.130
20.16000 590.435
20.17000 586.759
20.18000 583.805
20.19000 581.215
20.20000 578.316
20.21000 570.653
20.22000 561.365
20.23000 552.891
20.24000 552.296
20.25000 553.357
20.26000 554.793
20.27000 558.203
20.28000 561.900
20.29000 564.188
20.30000 561.591
20.31000 558.579
20.32000 556.443
20.33000 558.931
20.34000 560.968
20.35000 563.904
20.36000 568.258
20.37000 572.628
20.38000 570.077
20.39000 560.398
20.40000 550.773
20.41000 552.126
20.42000 560.703
20.43000 568.821
20.44000 564.442
20.45000 554.445
20.46000 545.738
20.47000 553.477
20.48000 566.213
20.49000 577.648
20.50000 565.741
20.51000 551.220
20.52000 538.870
20.53000 536.596
20.54000 535.592
20.55000 537.903
20.56000 550.450
20.57000 563.722
20.58000 572.786
20.59000 560.232
20.60000 550.334
20.61000 544.005
20.62000 542.671
20.63000 541.374
20.64000 542.988
20.65000 547.234
20.66000 551.437
20.67000 555.615
20.68000 559.689
20.69000 563.642
20.70000 565.023
20.71000 565.372
20.72000 565.210
20.73000 559.584
20.74000 552.481
20.75000 546.214
20.76000 551.588
20.77000 557.998
20.78000 563.464
20.79000 565.044
20.80000 566.204
20.81000 565.732
20.82000 560.762
20.83000 555.531
20.84000 552.101
20.85000 553.301
20.86000 554.261
20.87000 552.390
20.88000 547.010
20.89000 541.641
20.90000 542.867
20.91000 549.345
20.92000 555.726
20.93000 555.637
20.94000 552.226
20.95000 548.940
20.96000 547.787
20.97000 547.399
20.98000 547.491
20.99000 551.951
21.00000 557.461
21.01000 562.230
21.02000 558.138
21.03000 553.494
21.04000 551.344
21.05000 558.304
21.06000 566.101
21.07000 571.722
21.08000 571.992
21.09000 572.014
21.10000 572.029
21.11000 569.459
21.12000 567.574
21.13000 564.289
21.14000 559.478
21.15000 554.674
21.16000 551.052
21.17000 548.263
21.18000 545.533
21.19000 547.451
21.20000 551.403
21.21000 555.175
21.22000 556.459
21.23000 556.949
21.24000 557.097
21.25000 554.580
21.26000 551.497
21.27000 548.883
21.28000 552.767
21.29000 556.754
21.30000 559.828
21.31000 559.934
21.32000 559.811
21.33000 561.905
21.34000 568.867
21.35000 576.004
21.36000 580.274
21.37000 559.648
21.38000 544.849
21.39000 541.848
21.40000 550.140
21.41000 558.262
21.42000 553.246
21.43000 540.003
21.44000 527.143
21.45000 528.267
21.46000 534.939
21.47000 541.201
21.48000 542.735
21.49000 542.920
21.50000 542.828
21.51000 540.854
21.52000 538.527
21.53000 536.598
21.54000 550.795
21.55000 564.064
21.56000 570.672
21.57000 557.974
21.58000 544.050
21.59000 537.285
21.60000 544.560
21.61000 552.206
21.62000 556.548
21.63000 556.807
21.64000 556.970
21.65000 554.511
21.66000 549.845
21.67000 545.247
21.68000 544.072
21.69000 544.805
21.70000 545.512
21.71000 556.105
21.72000 569.542
21.73000 581.939
21.74000 584.183
21.75000 583.856
21.76000 582.849
21.77000 577.822
21.78000 572.134
21.79000 567.534
21.80000 574.043
21.81000 580.234
21.82000 587.710
21.83000 598.509
21.84000 609.478
21.85000 615.650
21.86000 613.429
21.87000 611.054
21.88000 609.780
21.89000 604.212
21.90000 600.523
21.91000 618.891
21.92000 653.672
21.93000 687.633
21.94000 692.533
21.95000 682.978
21.96000 673.873
21.97000 683.400
21.98000 698.042
21.99000 711.891
22.00000 719.122
22.01000 724.869
22.02000 730.362
22.03000 734.538
22.04000 738.526
22.05000 741.667
22.06000 751.692
22.07000 760.186
22.08000 765.489
22.09000 763.416
22.10000 761.046
22.11000 754.688
22.12000 742.120
22.13000 729.480
22.14000 723.112
22.15000 721.065
22.16000 719.618
22.17000 710.461
22.18000 696.215
22.19000 682.171
22.20000 673.469
22.21000 667.139
22.22000 661.176
22.23000 647.165
22.24000 632.134
22.25000 618.033
22.26000 610.638
22.27000 604.572
22.28000 600.146
22.29000 603.234
22.30000 607.253
22.31000 610.330
22.32000 582.195
22.33000 558.284
22.34000 543.698
22.35000 548.349
22.36000 553.585
22.37000 553.613
22.38000 546.445
22.39000 539.235
22.40000 536.515
22.41000 537.792
22.42000 539.141
22.43000 544.797
22.44000 552.983
22.45000 560.518
22.46000 554.632
22.47000 543.422
22.48000 532.996
22.49000 537.036
22.50000 544.174
22.51000 549.806
22.52000 545.986
22.53000 540.518
22.54000 536.335
22.55000 537.365
22.56000 538.949
22.57000 540.124
22.58000 542.331
22.59000 544.091
22.60000 544.782
22.61000 543.505
22.62000 542.185
22.63000 536.669
22.64000 526.021
22.65000 515.383
22.66000 513.212
22.67000 517.672
22.68000 522.050
22.69000 523.028
22.70000 522.226
22.71000 521.411
22.72000 520.364
22.73000 519.236
22.74000 518.202
22.75000 513.448
22.76000 508.427
22.77000 505.665
22.78000 515.324
22.79000 526.876
22.80000 534.496
22.81000 527.932
22.82000 520.090
22.83000 514.463
22.84000 514.410
22.85000 514.561
22.86000 514.514
22.87000 514.140
22.88000 513.761
22.89000 515.319
22.90000 518.961
22.91000 522.587
22.92000 520.861
22.93000 515.469
22.94000 510.423
22.95000 515.769
22.96000 525.968
22.97000 535.266
22.98000 532.342
22.99000 525.557
23.00000 519.431
23.01000 516.473
23.02000 514.457
23.03000 512.235
23.04000 509.020
23.05000 505.672
23.06000 503.618
23.07000 505.718
23.08000 508.130
23.09000 509.800
23.10000 504.643
23.11000 500.587
23.12000 499.097
23.13000 501.350
23.14000 503.635
23.15000 507.099
23.16000 511.676
23.17000 516.214
23.18000 520.033
23.19000 523.345
23.20000 526.320
23.21000 521.559
23.22000 513.571
23.23000 506.001
23.24000 503.160
23.25000 501.649
23.26000 500.308
23.27000 508.406
23.28000 516.935
23.29000 524.319
23.30000 526.795
23.31000 528.712
23.32000 528.285
23.33000 521.150
23.34000 513.599
23.35000 508.576
23.36000 511.926
23.37000 514.562
23.38000 512.084
23.39000 502.999
23.40000 493.903
23.41000 491.625
23.42000 495.010
23.43000 498.351
23.44000 502.078
23.45000 505.910
23.46000 509.633
23.47000 511.379
23.48000 512.388
23.49000 513.980
23.50000 521.172
23.51000 529.765
23.52000 537.252
23.53000 524.433
23.54000 510.669
23.55000 499.867
23.56000 500.318
23.57000 501.862
23.58000 503.490
23.59000 505.330
23.60000 507.181
23.61000 508.360
23.62000 507.751
23.63000 507.285
23.64000 509.233
23.65000 513.934
23.66000 518.609
23.67000 518.267
23.68000 514.240
23.69000 510.291
23.70000 510.917
23.71000 513.687
23.72000 516.084
23.73000 512.985
23.74000 508.059
23.75000 504.030
23.76000 507.371
23.77000 512.344
23.78000 516.591
23.79000 510.324
23.80000 503.797
23.81000 500.324
23.82000 507.178
23.83000 514.877
23.84000 520.202
23.85000 520.106
23.86000 519.798
23.87000 519.611
23.88000 519.442
23.89000 519.321
23.90000 517.909
23.91000 515.204
23.92000 512.593
23.93000 518.634
23.94000 530.313
23.95000 541.685
23.96000 543.588
23.97000 541.443
23.98000 539.169
23.99000 535.318
24.00000 531.000
24.01000 527.461
24.02000 529.451
24.03000 532.522
24.04000 535.088
24.05000 532.279
24.06000 529.403
24.07000 528.835
24.08000 535.221
24.09000 542.078
24.10000 545.511
24.11000 541.962
24.12000 538.208
24.13000 536.037
24.14000 536.478
24.15000 536.790
24.16000 529.831
24.17000 516.482
24.18000 503.405
24.19000 505.818
24.20000 517.216
24.21000 528.221
24.22000 523.549
24.23000 513.361
24.24000 503.870
24.25000 501.561
24.26000 501.145
24.27000 500.730
24.28000 500.316
24.29000 499.903
24.30000 499.567
24.31000 497.199
24.32000 495.089
24.33000 494.249
24.34000 496.826
24.35000 499.592
24.36000 502.584
24.37000 505.990
24.38000 509.404
24.39000 511.272
24.40000 492.401
24.41000 479.459
24.42000 482.041
24.43000 496.661
24.44000 510.953
24.45000 512.259
24.46000 506.851
24.47000 501.680
24.48000 496.855
24.49000 492.477
24.50000 488.780
24.51000 491.063
24.52000 494.746
24.53000 497.859
24.54000 497.889
24.55000 497.455
24.56000 497.110
24.57000 501.343
24.58000 505.079
24.59000 506.860
24.60000 503.948
24.61000 500.831
24.62000 499.288
24.63000 500.295
24.64000 501.337
24.65000 501.874
24.66000 494.815
24.67000 490.070
24.68000 486.307
24.69000 483.218
24.70000 480.428
24.71000 486.308
24.72000 496.188
24.73000 505.533
24.74000 503.650
24.75000 498.699
24.76000 493.677
24.77000 488.114
24.78000 482.438
24.79000 477.761
24.80000 477.855
24.81000 478.572
24.82000 479.125
24.83000 474.173
24.84000 469.921
24.85000 470.855
24.86000 482.912
24.87000 495.341
24.88000 503.541
24.89000 505.657
24.90000 507.724
24.91000 505.530
24.92000 499.374
24.93000 493.273
24.94000 490.989
24.95000 491.037
24.96000 490.859
24.97000 485.634
24.98000 478.328
24.99000 471.503
25.00000 479.657
25.01000 490.830
25.02000 499.581
25.03000 492.416
25.04000 482.352
25.05000 474.673
25.06000 477.075
25.07000 480.608
25.08000 483.258
25.09000 476.345
25.10000 470.492
25.11000 468.102
25.12000 472.340
25.13000 476.740
25.14000 478.436
25.15000 476.686
25.16000 474.926
25.17000 476.460
25.18000 480.679
25.19000 484.912
25.20000 489.765
25.21000 494.957
25.22000 499.301
25.23000 488.579
25.24000 472.313
25.25000 457.322
25.26000 469.857
25.27000 487.160
25.28000 501.454
25.29000 498.454
25.30000 492.695
25.31000 487.136
25.32000 482.333
25.33000 477.603
25.34000 474.168
25.35000 478.369
25.36000 481.885
25.37000 481.127
25.38000 473.081
25.39000 464.913
25.40000 468.093
25.41000 484.036
25.42000 499.933
25.43000 507.265
25.44000 508.379
25.45000 509.142
25.46000 498.263
25.47000 481.733
25.48000 466.129
25.49000 463.931
25.50000 466.135
25.51000 468.136
25.52000 464.859
25.53000 460.946
25.54000 459.131
25.55000 467.919
25.56000 478.179
25.57000 485.985
25.58000 485.597
25.59000 484.550
25.60000 483.817
25.61000 478.825
25.62000 474.927
25.63000 470.579
25.64000 465.549
25.65000 460.512
25.66000 457.570
25.67000 456.696
25.68000 455.828
25.69000 452.389
25.70000 447.375
25.71000 442.806
25.72000 449.372
25.73000 460.764
25.74000 471.544
25.75000 474.970
25.76000 476.244
25.77000 477.382
25.78000 475.434
25.79000 473.220
25.80000 471.270
25.81000 470.501
25.82000 469.875
25.83000 469.819
25.84000 471.464
25.85000 473.222
25.86000 474.407
25.87000 475.863
25.88000 476.951
25.89000 475.356
25.90000 470.149
25.91000 464.926
25.92000 462.175
25.93000 461.567
25.94000 460.965
25.95000 462.693
25.96000 465.681
25.97000 468.607
25.98000 470.313
25.99000 471.547
26.00000 472.744
26.01000 473.570
26.02000 474.299
26.03000 474.939
26.04000 476.492
26.05000 477.959
26.06000 478.111
26.07000 473.061
26.08000 467.478
26.09000 463.792
26.10000 465.146
26.11000 466.773
26.12000 467.825
26.13000 466.613
26.14000 465.693
26.15000 463.959
26.16000 461.256
26.17000 458.558
26.18000 457.276
26.19000 457.078
26.20000 456.883
26.21000 458.854
26.22000 461.827
26.23000 464.609
26.24000 464.353
26.25000 463.047
26.26000 462.387
26.27000 467.312
26.28000 473.525
26.29000 478.868
26.30000 473.470
26.31000 467.556
26.32000 461.950
26.33000 457.423
26.34000 452.990
26.35000 450.583
26.36000 452.982
26.37000 455.585
26.38000 457.195
26.39000 459.830
26.40000 461.732
26.41000 464.118
26.42000 467.009
26.43000 469.851
26.44000 467.211
26.45000 460.851
26.46000 454.643
26.47000 457.202
26.48000 463.473
26.49000 468.910
26.50000 463.475
26.51000 454.690
26.52000 446.748
26.53000 445.087
26.54000 444.708
26.55000 444.388
26.56000 449.297
26.57000 453.950
26.58000 456.528
26.59000 452.605
26.60000 448.211
26.61000 447.004
26.62000 452.550
26.63000 458.314
26.64000 461.708
26.65000 453.697
26.66000 447.987
26.67000 446.459
26.68000 448.768
26.69000 450.975
26.70000 446.449
26.71000 437.863
26.72000 429.548
26.73000 437.330
26.74000 450.889
26.75000 463.473
26.76000 465.424
26.77000 464.458
26.78000 462.724
26.79000 456.015
26.80000 448.411
26.81000 442.158
26.82000 444.857
26.83000 447.887
26.84000 449.981
26.85000 449.458
26.86000 448.781
26.87000 451.072
26.88000 458.976
26.89000 467.012
26.90000 471.495
26.91000 466.898
26.92000 463.689
26.93000 458.233
26.94000 450.958
26.95000 443.826
26.96000 442.999
26.97000 445.562
26.98000 448.020
26.99000 447.783
27.00000 446.645
27.01000 445.577
27.02000 445.151
27.03000 444.882
27.04000 445.005
27.05000 447.346
27.06000 450.037
27.07000 452.195
27.08000 450.006
27.09000 447.903
27.10000 444.353
27.11000 437.194
27.12000 429.862
27.13000 427.089
27.14000 431.993
27.15000 437.020
27.16000 439.665
27.17000 449.729
27.18000 456.516
27.19000 457.039
27.20000 453.080
27.21000 449.140
27.22000 445.810
27.23000 442.773
27.24000 439.890
27.25000 444.344
27.26000 450.652
27.27000 456.732
27.28000 460.997
27.29000 464.871
27.30000 467.352
27.31000 462.888
27.32000 457.473
27.33000 453.246
27.34000 449.026
27.35000 445.661
27.36000 444.564
27.37000 448.518
27.38000 452.658
27.39000 452.910
27.40000 447.338
27.41000 441.709
27.42000 439.454
27.43000 440.482
27.44000 441.473
27.45000 439.413
27.46000 435.414
27.47000 431.609
27.48000 432.523
27.49000 435.458
27.50000 438.211
27.51000 436.171
27.52000 433.049
27.53000 430.637
27.54000 433.118
27.55000 436.530
27.56000 439.134
27.57000 438.181
27.58000 436.808
27.59000 435.768
27.60000 437.097
27.61000 438.262
27.62000 438.578
27.63000 437.204
27.64000 435.783
27.65000 433.233
27.66000 429.182
27.67000 425.127
27.68000 427.317
27.69000 434.830
27.70000 442.204
27.71000 442.259
27.72000 438.174
27.73000 434.303
27.74000 434.527
27.75000 436.317
27.76000 437.974
27.77000 438.174
27.78000 438.017
27.79000 437.578
27.80000 435.449
27.81000 433.038
27.82000 430.265
27.83000 426.082
27.84000 421.757
27.85000 418.581
27.86000 421.513
27.87000 424.028
27.88000 424.791
27.89000 422.449
27.90000 420.047
27.91000 421.267
27.92000 426.739
27.93000 432.202
27.94000 436.860
27.95000 440.882
27.96000 444.827
27.97000 445.936
27.98000 445.615
27.99000 444.863
28.00000 437.442
28.01000 427.745
28.02000 418.895
28.03000 415.985
28.04000 414.604
28.05000 414.597
28.06000 421.838
28.07000 430.135
28.08000 436.631
28.09000 436.875
28.10000 436.586
28.11000 436.381
28.12000 443.646
28.13000 449.406
28.14000 450.035
28.15000 442.559
28.16000 434.983
28.17000 431.570
28.18000 432.455
28.19000 433.335
28.20000 434.587
28.21000 436.068
28.22000 437.461
28.23000 436.424
28.24000 434.292
28.25000 432.494
28.26000 434.963
28.27000 438.731
28.28000 442.115
28.29000 439.223
28.30000 435.587
28.31000 432.475
28.32000 431.802
28.33000 431.438
28.34000 430.802
28.35000 429.326
28.36000 427.789
28.37000 426.740
28.38000 433.417
28.39000 438.595
28.40000 441.422
28.41000 440.951
28.42000 440.458
28.43000 441.259
28.44000 443.229
28.45000 445.180
28.46000 438.220
28.47000 426.210
28.48000 414.635
28.49000 412.310
28.50000 413.703
28.51000 415.284
28.52000 418.870
28.53000 422.999
28.54000 426.643
28.55000 431.978
28.56000 436.839
28.57000 440.481
28.58000 439.102
28.59000 437.180
28.60000 436.368
28.61000 438.623
28.62000 441.056
28.63000 442.652
28.64000 440.532
28.65000 438.910
28.66000 436.614
28.67000 433.483
28.68000 430.361
28.69000 431.137
28.70000 435.023
28.71000 438.851
28.72000 428.753
28.73000 411.788
28.74000 395.729
28.75000 395.033
28.76000 399.855
28.77000 405.139
28.78000 414.638
28.79000 425.152
28.80000 434.255
28.81000 435.623
28.82000 435.766
28.83000 435.382
28.84000 433.065
28.85000 430.570
28.86000 428.012
28.87000 425.297
28.88000 422.574
28.89000 420.864
28.90000 415.179
28.91000 411.026
28.92000 411.861
28.93000 418.154
28.94000 424.415
28.95000 425.849
28.96000 423.874
28.97000 421.941
28.98000 421.111
28.99000 420.815
29.00000 420.420
29.01000 418.653
29.02000 416.447
29.03000 414.098
29.04000 410.631
29.05000 406.926
29.06000 403.785
29.07000 404.938
29.08000 406.390
29.09000 407.843
29.10000 409.300
29.11000 410.756
29.12000 412.004
29.13000 412.792
29.14000 413.563
29.15000 414.025
29.16000 416.045
29.17000 417.488
29.18000 418.618
29.19000 419.448
29.20000 420.257
29.21000 419.535
29.22000 417.851
29.23000 416.215
29.24000 418.131
29.25000 421.377
29.26000 424.171
29.27000 421.742
29.28000 417.823
29.29000 414.984
29.30000 419.476
29.31000 425.344
29.32000 430.209
29.33000 423.746
29.34000 417.319
29.35000 412.363
29.36000 411.673
29.37000 411.255
29.38000 412.429
29.39000 416.730
29.40000 421.115
29.41000 423.608
29.42000 414.501
29.43000 408.138
29.44000 412.106
29.45000 424.786
29.46000 437.127
29.47000 432.376
29.48000 418.076
29.49000 404.311
29.50000 402.127
29.51000 404.183
29.52000 406.360
29.53000 409.727
29.54000 413.397
29.55000 417.211
29.56000 421.888
29.57000 426.707
29.58000 430.606
29.59000 420.673
29.60000 411.473
29.61000 404.061
29.62000 401.283
29.63000 398.742
29.64000 397.940
29.65000 400.180
29.66000 402.477
29.67000 403.710
29.68000 405.347
29.69000 406.472
29.70000 408.748
29.71000 411.883
29.72000 414.981
29.73000 416.784
29.74000 417.941
29.75000 419.044
29.76000 424.330
29.77000 430.537
29.78000 435.515
29.79000 430.206
29.80000 422.583
29.81000 416.397
29.82000 417.691
29.83000 420.059
29.84000 421.924
29.85000 416.473
29.86000 411.613
29.87000 410.955
29.88000 420.026
29.89000 429.489
29.90000 436.629
29.91000 440.147
29.92000 443.622
29.93000 445.374
29.94000 435.927
29.95000 429.692
29.96000 431.410
29.97000 438.387
29.98000 445.035
29.99000 442.941
30.00000 436.959
30.01000 431.323
30.02000 433.080
30.03000 436.723
30.04000 440.905
30.05000 448.988
30.06000 457.844
30.07000 464.919
30.08000 463.809
30.09000 461.682
30.10000 460.053
30.11000 453.201
30.12000 447.506
30.13000 447.934
30.14000 461.019
30.15000 474.489
30.16000 473.846
30.17000 453.663
30.18000 433.364
30.19000 427.220
30.20000 433.702
30.21000 440.061
30.22000 438.953
30.23000 433.451
30.24000 428.277
30.25000 429.868
30.26000 434.148
30.27000 438.128
30.28000 435.856
30.29000 432.292
30.30000 429.343
30.31000 430.263
30.32000 431.858
30.33000 432.271
30.34000 427.878
30.35000 422.972
30.36000 419.331
30.37000 440.263
30.38000 457.611
30.39000 461.337
30.40000 439.943
30.41000 417.998
30.42000 412.069
30.43000 425.753
30.44000 439.460
30.45000 444.493
30.46000 442.706
30.47000 440.822
30.48000 434.900
30.49000 426.862
30.50000 419.244
30.51000 418.582
30.52000 420.387
30.53000 422.042
30.54000 425.434
30.55000 428.823
30.56000 431.796
30.57000 432.472
30.58000 432.797
30.59000 433.599
30.60000 436.125
30.61000 438.806
30.62000 440.731
30.63000 443.580
30.64000 445.791
30.65000 447.482
30.66000 448.318
30.67000 449.142
30.68000 451.596
30.69000 455.810
30.70000 460.006
30.71000 454.600
30.72000 442.629
30.73000 431.156
30.74000 434.669
30.75000 445.193
30.76000 455.162
30.77000 457.573
30.78000 457.593
30.79000 457.611
30.80000 457.073
30.81000 456.498
30.82000 456.749
30.83000 461.013
30.84000 465.809
30.85000 470.561
30.86000 475.173
30.87000 479.775
30.88000 482.960
30.89000 476.253
30.90000 470.948
30.91000 473.145
30.92000 486.298
30.93000 499.545
30.94000 507.911
30.95000 511.664
30.96000 515.385
30.97000 526.632
30.98000 542.250
30.99000 557.776
31.00000 571.174
31.01000 583.684
31.02000 596.029
31.03000 606.516
31.04000 616.479
31.05000 625.326
31.06000 663.195
31.07000 700.681
31.08000 736.427
31.09000 764.711
31.10000 792.143
31.11000 824.494
31.12000 870.956
31.13000 918.296
31.14000 949.805
31.15000 1048.480
31.16000 1122.762
31.17000 1208.459
31.18000 1308.929
31.19000 1409.488
31.20000 1524.012
31.21000 1650.157
31.22000 1774.642
31.23000 1911.794
31.24000 2052.052
31.25000 2191.789
31.26000 2322.046
31.27000 2448.766
31.28000 2577.356
31.29000 2723.933
31.30000 2875.016
31.31000 3006.704
31.32000 3147.474
31.33000 3269.048
31.34000 3380.837
31.35000 3455.379
31.36000 3526.292
31.37000 3597.158
31.38000 3667.904
31.39000 3738.644
31.40000 3783.761
31.41000 3714.165
31.42000 3662.076
31.43000 3591.913
31.44000 3501.104
31.45000 3410.117
31.46000 3291.694
31.47000 3153.084
31.48000 3017.125
31.49000 2873.828
31.50000 2732.292
31.51000 2590.576
31.52000 2446.211
31.53000 2300.964
31.54000 2157.665
31.55000 2030.409
31.56000 1906.713
31.57000 1801.053
31.58000 1636.701
31.59000 1491.255
31.60000 1356.623
31.61000 1258.613
31.62000 1163.608
31.63000 1069.868
31.64000 979.023
31.65000 888.290
31.66000 833.046
31.67000 788.122
31.68000 756.111
31.69000 728.761
31.70000 706.084
31.71000 683.343
31.72000 654.590
31.73000 621.911
31.74000 590.089
31.75000 568.090
31.76000 551.236
31.77000 535.186
31.78000 529.003
31.79000 525.749
31.80000 521.697
31.81000 511.963
31.82000 501.116
31.83000 492.051
31.84000 476.825
31.85000 463.559
31.86000 452.471
31.87000 447.956
31.88000 443.887
31.89000 443.557
31.90000 450.856
31.91000 458.381
31.92000 462.737
31.93000 444.339
31.94000 431.352
31.95000 425.389
31.96000 425.611
31.97000 425.862
31.98000 427.811
31.99000 430.747
32.00000 433.581
32.01000 430.761
32.02000 426.014
32.03000 421.334
32.04000 417.353
32.05000 413.557
32.06000 411.733
32.07000 422.140
32.08000 434.652
32.09000 444.862
32.10000 434.645
32.11000 424.538
32.12000 417.357
32.13000 418.058
32.14000 419.196
32.15000 417.838
32.16000 411.934
32.17000 405.934
32.18000 402.648
32.19000 414.206
32.20000 422.151
32.21000 423.497
32.22000 419.716
32.23000 415.833
32.24000 407.876
32.25000 397.809
32.26000 388.182
32.27000 385.847
32.28000 386.053
32.29000 386.943
32.30000 393.870
32.31000 402.212
32.32000 408.834
32.33000 406.107
32.34000 401.974
32.35000 398.688
32.36000 397.257
32.37000 396.236
32.38000 394.290
32.39000 390.117
32.40000 385.847
32.41000 383.713
32.42000 385.044
32.43000 386.424
32.44000 387.135
32.45000 387.151
32.46000 387.172
32.47000 388.370
32.48000 390.377
32.49000 392.344
32.50000 393.154
32.51000 393.429
32.52000 393.689
32.53000 390.136
32.54000 385.773
32.55000 382.681
32.56000 389.232
32.57000 397.780
32.58000 403.936
32.59000 398.641
32.60000 391.849
32.61000 386.598
32.62000 390.899
32.63000 394.874
32.64000 395.409
32.65000 388.555
32.66000 381.451
32.67000 380.708
32.68000 389.132
32.69000 397.629
32.70000 396.400
32.71000 386.108
32.72000 375.918
32.73000 372.922
32.74000 374.329
32.75000 375.570
32.76000 373.120
32.77000 369.145
32.78000 365.430
32.79000 370.660
32.80000 377.663
32.81000 383.746
32.82000 383.763
32.83000 382.672
32.84000 381.331
32.85000 378.926
32.86000 376.402
32.87000 374.508
32.88000 381.830
32.89000 387.989
32.90000 393.553
32.91000 397.976
32.92000 402.371
32.93000 404.996
32.94000 405.362
32.95000 405.719
32.96000 412.419
32.97000 424.286
32.98000 435.947
32.99000 438.099
33.00000 435.069
33.01000 432.128
33.02000 430.792
33.03000 430.046
33.04000 429.359
33.05000 427.783
33.06000 426.175
33.07000 425.203
33.08000 427.884
33.09000 431.151
33.10000 431.896
33.11000 423.168
33.12000 413.534
33.13000 406.536
33.14000 401.111
33.15000 396.998
33.16000 391.682
33.17000 384.309
33.18000 376.902
33.19000 372.112
33.20000 370.273
33.21000 368.442
33.22000 367.073
33.23000 366.049
33.24000 364.987
33.25000 362.674
33.26000 359.752
33.27000 356.690
33.28000 351.581
33.29000 345.799
33.30000 340.549
33.31000 341.886
33.32000 344.341
33.33000 346.940
33.34000 350.269
33.35000 353.700
33.36000 356.609
33.37000 357.773
33.38000 358.797
33.39000 359.515
33.40000 349.233
33.41000 341.137
33.42000 340.773
33.43000 352.165
33.44000 363.679
33.45000 367.490
33.46000 363.683
33.47000 359.903
33.48000 357.395
33.49000 355.734
33.50000 354.058
33.51000 352.023
33.52000 349.832
33.53000 347.506
33.54000 343.546
33.55000 339.108
33.56000 335.144
33.57000 340.574
33.58000 346.886
33.59000 352.098
33.60000 352.397
33.61000 352.104
33.62000 350.773
33.63000 346.346
33.64000 341.713
33.65000 338.586
33.66000 338.987
33.67000 339.360
33.68000 340.390
33.69000 342.304
33.70000 344.226
33.71000 347.797
33.72000 352.802
33.73000 357.749
33.74000 356.226
33.75000 351.116
33.76000 346.092
33.77000 342.782
33.78000 340.136
33.79000 337.677
33.80000 337.117
33.81000 337.053
33.82000 336.997
33.83000 342.901
33.84000 348.841
33.85000 352.634
33.86000 347.915
33.87000 342.321
33.88000 337.640
33.89000 335.392
33.90000 333.274
33.91000 331.904
33.92000 333.349
33.93000 334.447
33.94000 335.955
33.95000 337.950
33.96000 339.945
33.97000 341.581
33.98000 342.940
33.99000 344.277
34.00000 346.211
34.01000 348.375
34.02000 350.049
34.03000 343.936
34.04000 335.127
34.05000 327.867
34.06000 334.032
34.07000 343.301
34.08000 351.274
34.09000 351.066
34.10000 349.862
34.11000 347.534
34.12000 341.242
34.13000 334.606
34.14000 330.721
34.15000 333.375
34.16000 336.307
34.17000 338.122
34.18000 344.025
34.19000 348.306
34.20000 347.987
34.21000 342.843
34.22000 337.736
34.23000 336.985
34.24000 339.194
34.25000 341.350
34.26000 339.418
34.27000 335.785
34.28000 332.399
34.29000 332.250
34.30000 333.100
34.31000 334.154
34.32000 336.735
34.33000 339.629
34.34000 342.066
34.35000 338.148
34.36000 334.199
34.37000 330.822
34.38000 329.241
34.39000 327.792
34.40000 328.141
34.41000 332.308
34.42000 336.600
34.43000 339.128
34.44000 340.514
34.45000 341.486
34.46000 340.717
34.47000 338.348
34.48000 336.032
34.49000 337.269
34.50000 340.653
34.51000 343.930
34.52000 336.169
34.53000 324.569
34.54000 314.300
34.55000 318.595
34.56000 326.891
34.57000 334.222
34.58000 335.282
34.59000 335.213
34.60000 335.157
34.61000 333.029
34.62000 331.092
34.63000 332.290
34.64000 342.264
34.65000 352.759
34.66000 356.165
34.67000 346.149
34.68000 335.813
34.69000 330.042
34.70000 326.540
34.71000 324.126
34.72000 323.764
34.73000 325.065
34.74000 326.364
34.75000 327.587
34.76000 328.768
34.77000 329.902
34.78000 333.744
34.79000 338.256
34.80000 341.768
34.81000 335.983
34.82000 327.929
34.83000 322.076
34.84000 328.726
34.85000 337.345
34.86000 344.261
34.87000 342.171
34.88000 339.794
34.89000 335.550
34.90000 326.641
34.91000 317.509
34.92000 314.589
34.93000 322.150
34.94000 329.880
34.95000 333.950
34.96000 337.785
34.97000 340.360
34.98000 339.093
34.99000 335.071
35.00000 331.233
35.01000 333.329
35.02000 338.276
35.03000 342.973
35.04000 341.242
35.05000 337.715
35.06000 334.234
35.07000 331.128
35.08000 328.102
35.09000 325.414
35.10000 324.411
35.11000 323.640
35.12000 323.037
35.13000 318.147
35.14000 313.977
35.15000 312.443
35.16000 316.791
35.17000 321.357
35.18000 323.478
35.19000 321.928
35.20000 320.342
35.21000 321.743
35.22000 326.054
35.23000 330.308
35.24000 329.826
35.25000 326.328
35.26000 322.847
35.27000 319.751
35.28000 316.822
35.29000 314.073
35.30000 314.071
35.31000 314.795
35.32000 316.018
35.33000 320.692
35.34000 326.025
35.35000 329.769
35.36000 326.500
35.37000 322.402
35.38000 319.295
35.39000 314.726
35.40000 311.062
35.41000 310.309
35.42000 315.352
35.43000 320.555
35.44000 322.486
35.45000 320.059
35.46000 317.613
35.47000 318.474
35.48000 322.160
35.49000 325.717
35.50000 322.478
35.51000 315.388
35.52000 308.685
35.53000 309.410
35.54000 312.979
35.55000 316.285
35.56000 312.373
35.57000 307.183
35.58000 303.067
35.59000 305.418
35.60000 308.852
35.61000 313.559
35.62000 323.248
35.63000 333.441
35.64000 340.928
35.65000 335.654
35.66000 331.055
35.67000 326.105
35.68000 320.530
35.69000 314.942
35.70000 310.913
35.71000 308.719
35.72000 306.533
35.73000 309.265
35.74000 315.675
35.75000 321.994
35.76000 324.923
35.77000 326.140
35.78000 327.119
35.79000 324.413
35.80000 320.448
35.81000 316.828
35.82000 318.513
35.83000 321.082
35.84000 322.920
35.85000 320.892
35.86000 318.299
35.87000 316.917
35.88000 319.742
35.89000 322.928
35.90000 325.188
35.91000 317.509
35.92000 311.352
35.93000 307.614
35.94000 307.701
35.95000 307.837
35.96000 308.328
35.97000 309.188
35.98000 310.044
35.99000 312.467
36.00000 315.898
36.01000 319.050
36.02000 314.572
36.03000 306.652
36.04000 299.274
36.05000 298.824
36.06000 300.487
36.07000 301.981
36.08000 302.818
36.09000 303.434
36.10000 305.771
36.11000 316.128
36.12000 327.499
36.13000 334.220
36.14000 326.532
36.15000 317.819
36.16000 311.861
36.17000 306.070
36.18000 301.739
36.19000 300.575
36.20000 303.858
36.21000 307.172
36.22000 309.768
36.23000 311.713
36.24000 313.639
36.25000 312.565
36.26000 309.761
36.27000 306.958
36.28000 304.178
36.29000 301.407
36.30000 299.108
36.31000 301.880
36.32000 306.028
36.33000 309.690
36.34000 309.622
36.35000 308.991
36.36000 309.003
36.37000 311.664
36.38000 314.612
36.39000 315.580
36.40000 311.070
36.41000 306.241
36.42000 303.070
36.43000 302.525
36.44000 302.169
36.45000 301.754
36.46000 301.267
36.47000 300.778
36.48000 299.832
36.49000 298.521
36.50000 297.230
36.51000 295.346
36.52000 293.212
36.53000 291.305
36.54000 293.240
36.55000 296.558
36.56000 299.797
36.57000 302.316
36.58000 304.661
36.59000 306.692
36.60000 308.245
36.61000 309.504
36.62000 310.465
36.63000 310.335
36.64000 310.104
36.65000 308.188
36.66000 302.111
36.67000 295.841
36.68000 291.900
36.69000 300.196
36.70000 306.332
36.71000 309.335
36.72000 308.905
36.73000 308.491
36.74000 310.458
36.75000 314.110
36.76000 317.684
36.77000 317.011
36.78000 314.428
36.79000 311.810
36.80000 308.688
36.81000 305.404
36.82000 303.040
36.83000 307.889
36.84000 314.277
36.85000 319.696
36.86000 308.875
36.87000 297.963
36.88000 289.915
36.89000 291.210
36.90000 293.227
36.91000 296.235
36.92000 301.427
36.93000 306.697
36.94000 309.856
36.95000 314.859
36.96000 318.423
36.97000 319.084
36.98000 316.954
36.99000 314.780
37.00000 309.180
37.01000 301.427
37.02000 293.897
37.03000 299.921
37.04000 311.095
37.05000 320.942
37.06000 315.391
37.07000 305.438
37.08000 296.523
37.09000 294.664
37.10000 294.132
37.11000 293.691
37.12000 291.623
37.13000 289.757
37.14000 288.906
37.15000 291.003
37.16000 293.289
37.17000 295.927
37.18000 299.256
37.19000 302.603
37.20000 304.508
37.21000 300.494
37.22000 297.682
37.23000 297.278
37.24000 298.910
37.25000 300.534
37.26000 301.769
37.27000 302.784
37.28000 303.762
37.29000 301.567
37.30000 298.379
37.31000 295.339
37.32000 293.754
37.33000 292.538
37.34000 291.363
37.35000 290.427
37.36000 289.531
37.37000 288.806
37.38000 302.429
37.39000 314.678
37.40000 320.176
37.41000 308.143
37.42000 295.207
37.43000 287.712
37.44000 289.765
37.45000 291.995
37.46000 293.194
37.47000 290.007
37.48000 287.832
37.49000 286.872
37.50000 286.818
37.51000 286.845
37.52000 289.722
37.53000 294.022
37.54000 298.120
37.55000 297.993
37.56000 296.554
37.57000 295.395
37.58000 296.596
37.59000 298.329
37.60000 300.526
37.61000 305.139
37.62000 310.100
37.63000 314.010
37.64000 306.960
37.65000 300.570
37.66000 295.208
37.67000 292.228
37.68000 289.344
37.69000 287.765
37.70000 288.225
37.71000 288.709
37.72000 288.953
37.73000 291.885
37.74000 293.855
37.75000 296.796
37.76000 300.379
37.77000 303.764
37.78000 301.865
37.79000 297.612
37.80000 293.604
37.81000 292.781
37.82000 292.905
37.83000 292.461
37.84000 287.904
37.85000 282.529
37.86000 280.511
37.87000 293.940
37.88000 309.292
37.89000 321.052
37.90000 307.339
37.91000 295.110
37.92000 287.632
37.93000 289.991
37.94000 292.652
37.95000 293.543
37.96000 291.978
37.97000 290.399
37.98000 291.410
37.99000 294.733
38.00000 298.026
38.01000 299.459
38.02000 299.795
38.03000 299.981
38.04000 297.048
38.05000 292.875
38.06000 288.992
38.07000 295.039
38.08000 302.907
38.09000 309.386
38.10000 307.115
38.11000 303.313
38.12000 299.736
38.13000 297.074
38.14000 294.510
38.15000 292.605
38.16000 286.786
38.17000 282.090
38.18000 280.449
38.19000 284.450
38.20000 288.575
38.21000 293.101
38.22000 298.119
38.23000 303.128
38.24000 301.818
38.25000 295.556
38.26000 289.454
38.27000 289.996
38.28000 294.026
38.29000 298.356
38.30000 307.686
38.31000 318.791
38.32000 328.980
38.33000 327.351
38.34000 323.394
38.35000 320.402
38.36000 322.739
38.37000 325.892
38.38000 329.343
38.39000 333.870
38.40000 338.494
38.41000 341.815
38.42000 348.045
38.43000 352.911
38.44000 359.007
38.45000 367.126
38.46000 375.275
38.47000 384.789
38.48000 395.777
38.49000 406.716
38.50000 418.370
38.51000 430.394
38.52000 442.532
38.53000 458.112
38.54000 475.304
38.55000 492.618
38.56000 511.584
38.57000 531.073
38.58000 548.679
38.59000 581.405
38.60000 612.977
38.61000 644.593
38.62000 676.419
38.63000 708.272
38.64000 736.841
38.65000 754.824
38.66000 772.005
38.67000 783.905
38.68000 810.888
38.69000 831.591
38.70000 850.920
38.71000 868.239
38.72000 885.539
38.73000 886.936
38.74000 873.267
38.75000 859.712
38.76000 850.572
38.77000 844.289
38.78000 837.616
38.79000 821.920
38.80000 802.449
38.81000 782.724
38.82000 760.105
38.83000 736.669
38.84000 715.853
38.85000 690.082
38.86000 666.939
38.87000 644.616
38.88000 625.815
38.89000 607.417
38.90000 586.854
38.91000 560.068
38.92000 532.895
38.93000 514.798
38.94000 480.322
38.95000 454.496
38.96000 435.682
38.97000 425.962
38.98000 416.271
38.99000 402.900
39.00000 386.461
39.01000 370.237
39.02000 357.134
39.03000 346.061
39.04000 335.417
39.05000 332.615
39.06000 332.743
39.07000 331.289
39.08000 314.579
39.09000 294.043
39.10000 276.137
39.11000 285.372
39.12000 297.038
39.13000 304.822
39.14000 297.803
39.15000 289.338
39.16000 286.094
39.17000 296.238
39.18000 307.055
39.19000 313.958
39.20000 297.728
39.21000 285.622
39.22000 280.269
39.23000 282.643
39.24000 285.022
39.25000 286.647
39.26000 287.717
39.27000 288.766
39.28000 292.046
39.29000 296.267
39.30000 299.914
39.31000 295.029
39.32000 287.298
39.33000 280.276
39.34000 279.110
39.35000 279.245
39.36000 279.360
39.37000 274.616
39.38000 270.038
39.39000 266.814
39.40000 268.186
39.41000 269.935
39.42000 271.852
39.43000 274.153
39.44000 276.470
39.45000 277.882
39.46000 273.168
39.47000 269.751
39.48000 267.885
39.49000 267.577
39.50000 267.294
39.51000 269.266
39.52000 272.714
39.53000 276.071
39.54000 278.378
39.55000 280.135
39.56000 281.547
39.57000 278.699
39.58000 274.585
39.59000 270.612
39.60000 267.654
39.61000 264.895
39.62000 262.589
39.63000 262.194
39.64000 262.061
39.65000 263.309
39.66000 268.733
39.67000 274.443
39.68000 277.219
39.69000 273.997
39.70000 270.597
39.71000 268.628
39.72000 267.205
39.73000 266.211
39.74000 266.747
39.75000 268.633
39.76000 270.477
39.77000 269.862
39.78000 267.818
39.79000 265.843
39.80000 263.566
39.81000 261.308
39.82000 259.670
39.83000 264.460
39.84000 270.949
39.85000 276.571
39.86000 276.803
39.87000 276.105
39.88000 275.535
39.89000 269.918
39.90000 264.889
39.91000 260.901
39.92000 259.725
39.93000 258.706
39.94000 259.086
39.95000 262.021
39.96000 265.009
39.97000 266.648
39.98000 263.315
39.99000 261.036
40.00000 264.041
40.01000 271.159
40.02000 278.105
40.03000 278.182
40.04000 274.695
40.05000 271.360
40.06000 268.157
40.07000 265.218
40.08000 262.771
40.09000 264.661
40.10000 267.569
40.11000 269.415
40.12000 265.480
40.13000 260.673
40.14000 256.849
40.15000 255.565
40.16000 254.711
40.17000 255.397
40.18000 259.789
40.19000 264.345
40.20000 263.915
40.21000 255.380
40.22000 246.732
40.23000 242.270
40.24000 247.939
40.25000 251.768
40.26000 256.604
40.27000 262.134
40.28000 267.444
40.29000 266.278
40.30000 262.115
40.31000 258.175
40.32000 258.097
40.33000 259.135
40.34000 259.635
40.35000 256.037
40.36000 251.588
40.37000 248.075
40.38000 249.054
40.39000 250.622
40.40000 251.834
40.41000 252.838
40.42000 253.623
40.43000 253.218
40.44000 250.253
40.45000 247.201
40.46000 246.321
40.47000 248.580
40.48000 250.863
40.49000 251.781
40.50000 251.424
40.51000 251.128
40.52000 255.136
40.53000 261.782
40.54000 268.148
40.55000 268.203
40.56000 265.648
40.57000 263.260
40.58000 259.919
40.59000 256.644
40.60000 253.761
40.61000 253.459
40.62000 253.630
40.63000 253.426
40.64000 251.635
40.65000 249.666
40.66000 248.187
40.67000 254.090
40.68000 259.055
40.69000 260.763
40.70000 256.219
40.71000 251.520
40.72000 250.484
40.73000 254.134
40.74000 257.797
40.75000 256.372
40.76000 250.781
40.77000 245.324
40.78000 246.102
40.79000 250.283
40.80000 254.399
40.81000 257.348
40.82000 259.865
40.83000 262.187
40.84000 256.413
40.85000 249.446
40.86000 243.589
40.87000 244.134
40.88000 245.705
40.89000 247.017
40.90000 247.352
40.91000 247.593
40.92000 247.768
40.93000 247.861
40.94000 247.930
40.95000 249.504
40.96000 253.655
40.97000 257.850
40.98000 257.230
40.99000 251.176
41.00000 245.138
41.01000 246.123
41.02000 252.165
41.03000 258.076
41.04000 259.596
41.05000 258.978
41.06000 258.268
41.07000 256.214
41.08000 253.717
41.09000 251.448
41.10000 246.618
41.11000 241.854
41.12000 238.477
41.13000 242.136
41.14000 246.777
41.15000 250.280
41.16000 249.970
41.17000 249.353
41.18000 248.920
41.19000 244.228
41.20000 240.554
41.21000 239.745
41.22000 243.300
41.23000 246.900
41.24000 246.425
41.25000 241.912
41.26000 237.430
41.27000 238.208
41.28000 242.318
41.29000 246.134
41.30000 242.530
41.31000 235.700
41.32000 229.704
41.33000 233.798
41.34000 240.854
41.35000 247.158
41.36000 250.393
41.37000 252.694
41.38000 253.719
41.39000 249.031
41.40000 243.654
41.41000 240.059
41.42000 241.785
41.43000 243.866
41.44000 245.271
41.45000 241.890
41.46000 239.271
41.47000 238.470
41.48000 240.123
41.49000 241.789
41.50000 242.620
41.51000 242.725
41.52000 242.828
41.53000 239.646
41.54000 234.696
41.55000 230.012
41.56000 230.599
41.57000 233.232
41.58000 236.295
41.59000 243.737
41.60000 252.322
41.61000 259.856
41.62000 256.948
41.63000 252.925
41.64000 249.678
41.65000 249.513
41.66000 249.667
41.67000 248.013
41.68000 241.544
41.69000 234.813
41.70000 230.454
41.71000 239.509
41.72000 246.334
41.73000 248.938
41.74000 246.500
41.75000 244.062
41.76000 243.935
41.77000 245.584
41.78000 247.204
41.79000 242.552
41.80000 234.945
41.81000 227.704
41.82000 226.296
41.83000 226.909
41.84000 228.198
41.85000 235.357
41.86000 243.876
41.87000 251.207
41.88000 253.185
41.89000 254.187
41.90000 253.758
41.91000 248.277
41.92000 242.355
41.93000 237.707
41.94000 236.094
41.95000 234.611
41.96000 233.693
41.97000 228.246
41.98000 224.287
41.99000 224.652
42.00000 229.562
42.01000 234.435
42.02000 235.014
42.03000 232.669
42.04000 230.379
42.05000 231.162
42.06000 233.255
42.07000 235.354
42.08000 237.520
42.09000 239.706
42.10000 241.254
42.11000 238.024
42.12000 233.815
42.13000 230.270
42.14000 234.181
42.15000 238.247
42.16000 239.901
42.17000 233.972
42.18000 227.490
42.19000 223.466
42.20000 224.664
42.21000 226.034
42.22000 226.841
42.23000 233.095
42.24000 237.537
42.25000 239.794
42.26000 240.037
42.27000 240.278
42.28000 240.422
42.29000 240.507
42.30000 240.589
42.31000 241.631
42.32000 242.987
42.33000 243.741
42.34000 237.896
42.35000 230.235
42.36000 223.803
42.37000 225.371
42.38000 228.380
42.39000 230.858
42.40000 226.315
42.41000 221.940
42.42000 220.225
42.43000 225.969
42.44000 232.158
42.45000 234.894
42.46000 231.080
42.47000 227.109
42.48000 224.890
42.49000 235.675
42.50000 243.153
42.51000 242.823
42.52000 236.158
42.53000 229.614
42.54000 228.523
42.55000 230.373
42.56000 232.148
42.57000 235.194
42.58000 238.476
42.59000 241.250
42.60000 239.304
42.61000 236.204
42.62000 233.533
42.63000 233.306
42.64000 233.464
42.65000 233.592
42.66000 233.177
42.67000 232.800
42.68000 233.853
42.69000 238.485
42.70000 243.288
42.71000 244.252
42.72000 238.726
42.73000 233.095
42.74000 230.128
42.75000 229.873
42.76000 229.724
42.77000 232.882
42.78000 238.415
42.79000 243.719
42.80000 241.625
42.81000 235.971
42.82000 230.601
42.83000 230.106
42.84000 231.115
42.85000 232.219
42.86000 234.094
42.87000 236.134
42.88000 236.877
42.89000 231.121
42.90000 224.473
42.91000 219.279
42.92000 226.083
42.93000 232.268
42.94000 235.345
42.95000 231.474
42.96000 227.344
42.97000 225.591
42.98000 227.411
42.99000 229.266
43.00000 230.705
43.01000 231.739
43.02000 232.759
43.03000 232.644
43.04000 231.806
43.05000 230.954
43.06000 229.745
43.07000 228.383
43.08000 227.104
43.09000 222.014
43.10000 216.367
43.11000 212.560
43.12000 221.485
43.13000 232.841
43.14000 241.785
43.15000 240.068
43.16000 237.087
43.17000 234.825
43.18000 230.084
43.19000 226.233
43.20000 223.621
43.21000 223.482
43.22000 223.412
43.23000 223.605
43.24000 224.150
43.25000 224.695
43.26000 223.228
43.27000 220.040
43.28000 216.953
43.29000 219.251
43.30000 224.606
43.31000 229.819
43.32000 232.307
43.33000 233.750
43.34000 235.087
43.35000 231.260
43.36000 226.619
43.37000 222.797
43.38000 223.917
43.39000 225.864
43.40000 227.200
43.41000 226.135
43.42000 224.828
43.43000 223.867
43.44000 223.531
43.45000 223.297
43.46000 224.788
43.47000 229.350
43.48000 233.972
43.49000 235.845
43.50000 234.480
43.51000 233.113
43.52000 230.253
43.53000 226.289
43.54000 222.300
43.55000 217.403
43.56000 212.046
43.57000 207.099
43.58000 208.538
43.59000 212.164
43.60000 215.474
43.61000 223.017
43.62000 230.569
43.63000 236.331
43.64000 232.605
43.65000 227.492
43.66000 224.990
43.67000 231.591
43.68000 238.972
43.69000 244.213
43.70000 231.465
43.71000 221.194
43.72000 215.899
43.73000 218.490
43.74000 221.180
43.75000 220.409
43.76000 216.051
43.77000 211.718
43.78000 213.814
43.79000 220.149
43.80000 226.243
43.81000 225.713
43.82000 222.188
43.83000 219.029
43.84000 220.557
43.85000 223.517
43.86000 226.176
43.87000 226.969
43.88000 227.333
43.89000 227.539
43.90000 227.010
43.91000 226.387
43.92000 226.397
43.93000 228.371
43.94000 230.484
43.95000 231.930
43.96000 224.871
43.97000 219.385
43.98000 217.281
43.99000 219.937
44.00000 222.625
44.01000 222.737
44.02000 220.510
44.03000 218.305
44.04000 220.195
44.05000 224.442
44.06000 228.502
44.07000 228.568
44.08000 227.023
44.09000 225.280
44.10000 221.413
44.11000 216.969
44.12000 213.044
44.13000 219.758
44.14000 227.185
44.15000 231.977
44.16000 225.877
44.17000 218.591
44.18000 213.398
44.19000 214.001
44.20000 214.942
44.21000 215.560
44.22000 218.907
44.23000 221.416
44.24000 224.784
44.25000 229.220
44.26000 233.658
44.27000 237.331
44.28000 240.391
44.29000 243.407
44.30000 242.382
44.31000 239.300
44.32000 236.097
44.33000 230.809
44.34000 224.771
44.35000 219.766
44.36000 224.213
44.37000 230.942
44.38000 236.772
44.39000 233.965
44.40000 230.433
44.41000 227.631
44.42000 227.513
44.43000 227.643
44.44000 228.075
44.45000 229.252
44.46000 230.465
44.47000 231.228
44.48000 230.097
44.49000 229.258
44.50000 230.293
44.51000 233.388
44.52000 236.489
44.53000 240.310
44.54000 244.642
44.55000 248.882
44.56000 243.223
44.57000 233.271
44.58000 224.189
44.59000 227.263
44.60000 234.244
44.61000 240.400
44.62000 240.073
44.63000 238.360
44.64000 236.907
44.65000 233.084
44.66000 229.609
44.67000 227.646
44.68000 230.624
44.69000 233.984
44.70000 237.961
44.71000 243.299
44.72000 248.687
44.73000 251.917
44.74000 253.248
44.75000 254.180
44.76000 255.544
44.77000 257.324
44.78000 259.059
44.79000 257.290
44.80000 253.316
44.81000 249.455
44.82000 257.672
44.83000 270.344
44.84000 282.159
44.85000 284.007
44.86000 283.000
44.87000 282.796
44.88000 288.058
44.89000 294.350
44.90000 299.570
44.91000 314.107
44.92000 327.018
44.93000 338.897
44.94000 347.771
44.95000 356.452
44.96000 361.702
44.97000 360.187
44.98000 358.492
44.99000 357.527
45.00000 376.701
45.01000 390.120
45.02000 397.212
45.03000 398.948
45.04000 400.704
45.05000 403.504
45.06000 406.888
45.07000 410.146
45.08000 411.051
45.09000 411.062
45.10000 411.346
45.11000 414.301
45.12000 417.937
45.13000 421.023
45.14000 420.835
45.15000 420.105
45.16000 419.515
45.17000 412.115
45.18000 405.538
45.19000 398.729
45.20000 391.318
45.21000 383.876
45.22000 374.791
45.23000 362.819
45.24000 350.792
45.25000 344.323
45.26000 342.213
45.27000 340.757
45.28000 335.740
45.29000 328.057
45.30000 320.444
45.31000 315.353
45.32000 311.521
45.33000 307.869
45.34000 304.002
45.35000 300.348
45.36000 296.053
45.37000 286.364
45.38000 275.458
45.39000 265.916
45.40000 263.500
45.41000 262.111
45.42000 261.015
45.43000 257.527
45.44000 254.568
45.45000 251.699
45.46000 249.038
45.47000 246.385
45.48000 246.763
45.49000 251.880
45.50000 257.055
45.51000 259.669
45.52000 252.867
45.53000 248.323
45.54000 244.404
45.55000 240.900
45.56000 237.535
45.57000 237.875
45.58000 239.869
45.59000 241.748
45.60000 239.005
45.61000 235.218
45.62000 231.762
45.63000 230.714
45.64000 230.146
45.65000 228.842
45.66000 224.152
45.67000 219.040
45.68000 215.121
45.69000 221.260
45.70000 226.663
45.71000 229.140
45.72000 225.552
45.73000 221.777
45.74000 219.277
45.75000 218.549
45.76000 217.833
45.77000 217.656
45.78000 217.960
45.79000 218.221
45.80000 215.770
45.81000 211.718
45.82000 207.761
45.83000 205.755
45.84000 204.528
45.85000 203.386
45.86000 205.180
45.87000 207.514
45.88000 209.913
45.89000 212.728
45.90000 215.615
45.91000 217.470
45.92000 215.110
45.93000 212.298
45.94000 210.209
45.95000 208.664
45.96000 207.486
45.97000 207.196
45.98000 208.547
45.99000 209.935
46.00000 210.038
46.01000 208.564
46.02000 207.088
46.03000 208.646
46.04000 212.584
46.05000 216.407
46.06000 215.482
46.07000 212.059
46.08000 208.562
46.09000 203.842
46.10000 198.687
46.11000 193.956
46.12000 201.001
46.13000 209.784
46.14000 217.061
46.15000 216.013
46.16000 213.689
46.17000 211.283
46.18000 208.581
46.19000 205.852
46.20000 203.891
46.21000 201.586
46.22000 199.810
46.23000 201.189
46.24000 207.768
46.25000 214.424
46.26000 215.319
46.27000 209.976
46.28000 204.655
46.29000 200.469
46.30000 197.113
46.31000 193.923
46.32000 195.779
46.33000 200.003
46.34000 204.126
46.35000 206.858
46.36000 209.149
46.37000 211.218
46.38000 209.766
46.39000 207.836
46.40000 206.707
46.41000 209.478
46.42000 212.769
46.43000 214.154
46.44000 209.387
46.45000 204.152
46.46000 200.525
46.47000 207.182
46.48000 212.464
46.49000 214.853
46.50000 213.002
46.51000 211.115
46.52000 208.252
46.53000 204.464
46.54000 200.706
46.55000 198.159
46.56000 196.396
46.57000 194.706
46.58000 194.713
46.59000 195.430
46.60000 196.339
46.61000 199.431
46.62000 203.140
46.63000 206.435
46.64000 204.720
46.65000 202.426
46.66000 201.709
46.67000 207.784
46.68000 214.638
46.69000 218.894
46.70000 215.674
46.71000 211.987
46.72000 209.530
46.73000 203.813
46.74000 199.518
46.75000 197.421
46.76000 198.177
46.77000 198.946
46.78000 200.349
46.79000 202.281
46.80000 204.188
46.81000 208.580
46.82000 214.195
46.83000 219.197
46.84000 212.962
46.85000 202.520
46.86000 193.120
46.87000 193.799
46.88000 197.011
46.89000 199.813
46.90000 197.699
46.91000 195.207
46.92000 193.732
46.93000 196.141
46.94000 198.930
46.95000 200.671
46.96000 199.721
46.97000 198.635
46.98000 197.941
46.99000 198.623
47.00000 199.137
47.01000 198.016
47.02000 195.020
47.03000 192.033
47.04000 191.037
47.05000 191.512
47.06000 191.978
47.07000 194.918
47.08000 198.930
47.09000 202.815
47.10000 204.823
47.11000 206.203
47.12000 206.679
47.13000 199.684
47.14000 191.024
47.15000 183.622
47.16000 187.086
47.17000 191.306
47.18000 194.296
47.19000 193.110
47.20000 191.578
47.21000 192.379
47.22000 198.532
47.23000 204.896
47.24000 208.776
47.25000 204.822
47.26000 201.933
47.27000 198.390
47.28000 194.190
47.29000 190.012
47.30000 187.941
47.31000 187.251
47.32000 186.579
47.33000 187.183
47.34000 188.295
47.35000 189.653
47.36000 194.054
47.37000 199.360
47.38000 203.904
47.39000 202.994
47.40000 201.012
47.41000 199.355
47.42000 199.639
47.43000 200.072
47.44000 200.299
47.45000 199.897
47.46000 199.453
47.47000 199.695
47.48000 201.345
47.49000 203.037
47.50000 204.017
47.51000 198.550
47.52000 194.689
47.53000 193.413
47.54000 194.422
47.55000 195.404
47.56000 194.890
47.57000 193.504
47.58000 192.165
47.59000 193.029
47.60000 194.660
47.61000 195.779
47.62000 191.573
47.63000 185.955
47.64000 181.760
47.65000 186.419
47.66000 192.609
47.67000 197.663
47.68000 195.491
47.69000 193.092
47.70000 191.903
47.71000 193.985
47.72000 196.250
47.73000 195.612
47.74000 189.672
47.75000 183.619
47.76000 180.298
47.77000 187.678
47.78000 192.762
47.79000 195.258
47.80000 195.736
47.81000 196.169
47.82000 194.855
47.83000 192.632
47.84000 190.505
47.85000 189.542
47.86000 189.026
47.87000 189.024
47.88000 193.568
47.89000 199.180
47.90000 203.530
47.91000 200.995
47.92000 197.420
47.93000 194.574
47.94000 189.166
47.95000 184.622
47.96000 181.026
47.97000 179.719
47.98000 178.513
47.99000 178.864
48.00000 181.750
48.01000 184.671
48.02000 186.180
48.03000 185.542
48.04000 185.112
48.05000 184.782
48.06000 184.520
48.07000 184.212
48.08000 182.566
48.09000 180.299
48.10000 178.153
48.11000 178.545
48.12000 179.636
48.13000 180.840
48.14000 182.903
48.15000 185.146
48.16000 186.944
48.17000 186.607
48.18000 185.989
48.19000 185.512
48.20000 189.132
48.21000 192.248
48.22000 194.003
48.23000 192.823
48.24000 191.543
48.25000 189.272
48.26000 185.567
48.27000 181.850
48.28000 179.897
48.29000 179.593
48.30000 179.359
48.31000 184.142
48.32000 192.004
48.33000 199.606
48.34000 201.326
48.35000 200.610
48.36000 199.941
48.37000 195.398
48.38000 190.292
48.39000 186.322
48.40000 189.863
48.41000 194.781
48.42000 197.770
48.43000 192.561
48.44000 186.426
48.45000 181.819
48.46000 187.596
48.47000 192.609
48.48000 193.267
48.49000 185.549
48.50000 177.622
48.51000 176.248
48.52000 183.273
48.53000 190.321
48.54000 191.913
48.55000 189.019
48.56000 186.164
48.57000 185.089
48.58000 184.989
48.59000 184.940
48.60000 185.807
48.61000 187.012
48.62000 188.123
48.63000 187.496
48.64000 186.548
48.65000 185.820
48.66000 186.361
48.67000 187.106
48.68000 187.256
48.69000 185.162
48.70000 182.852
48.71000 181.173
48.72000 179.035
48.73000 177.373
48.74000 176.148
48.75000 175.671
48.76000 175.207
48.77000 175.021
48.78000 175.149
48.79000 175.278
48.80000 176.130
48.81000 177.499
48.82000 178.912
48.83000 181.801
48.84000 185.411
48.85000 188.633
48.86000 186.193
48.87000 181.885
48.88000 177.971
48.89000 180.584
48.90000 184.160
48.91000 186.944
48.92000 185.706
48.93000 183.904
48.94000 182.264
48.95000 181.163
48.96000 180.105
48.97000 179.363
48.98000 183.136
48.99000 186.123
49.00000 184.949
49.01000 177.427
49.02000 169.838
49.03000 170.398
49.04000 179.046
49.05000 187.636
49.06000 188.811
49.07000 185.245
49.08000 181.820
49.09000 181.973
49.10000 183.685
49.11000 185.027
49.12000 181.884
49.13000 177.422
49.14000 173.434
49.15000 172.978
49.16000 173.176
49.17000 173.386
49.18000 173.645
49.19000 173.910
49.20000 174.860
49.21000 177.860
49.22000 180.997
49.23000 183.116
49.24000 183.133
49.25000 183.101
49.26000 181.818
49.27000 178.845
49.28000 175.864
49.29000 175.475
49.30000 177.345
49.31000 179.193
49.32000 179.320
49.33000 178.477
49.34000 177.675
49.35000 177.687
49.36000 178.015
49.37000 178.290
49.38000 178.020
49.39000 177.607
49.40000 177.245
49.41000 183.448
49.42000 189.739
49.43000 194.737
49.44000 194.595
49.45000 193.921
49.46000 191.290
49.47000 183.435
49.48000 175.295
49.49000 170.020
49.50000 177.404
49.51000 182.998
49.52000 184.924
49.53000 182.463
49.54000 179.994
49.55000 177.844
49.56000 175.938
49.57000 174.065
49.58000 178.814
49.59000 186.694
49.60000 193.898
49.61000 190.308
49.62000 182.970
49.63000 176.434
49.64000 176.874
49.65000 178.933
49.66000 180.706
49.67000 182.127
49.68000 183.286
49.69000 183.449
49.70000 180.092
49.71000 176.427
49.72000 174.154
49.73000 175.200
49.74000 176.389
49.75000 177.126
49.76000 177.015
49.77000 176.927
49.78000 176.848
49.79000 176.781
49.80000 176.701
49.81000 175.196
49.82000 172.721
49.83000 170.304
49.84000 172.957
49.85000 177.717
49.86000 182.430
49.87000 186.515
49.88000 190.404
49.89000 193.956
49.90000 194.973
49.91000 195.470
49.92000 195.890
49.93000 190.798
49.94000 185.955
49.95000 182.973
49.96000 185.850
49.97000 189.155
49.98000 189.501
49.99000 183.549
50.00000 177.389
50.01000 173.754
50.02000 171.420
50.03000 169.781
50.04000 173.289
50.05000 181.548
50.06000 189.640
50.07000 186.489
50.08000 176.521
50.09000 166.865
50.10000 168.152
50.11000 173.607
50.12000 178.820
50.13000 181.379
50.14000 183.206
50.15000 184.341
50.16000 180.962
50.17000 176.769
50.18000 173.316
50.19000 172.474
50.20000 172.020
50.21000 172.453
50.22000 175.379
50.23000 178.455
50.24000 181.644
50.25000 185.051
50.26000 188.463
50.27000 190.371
50.28000 180.475
50.29000 173.612
50.30000 174.406
50.31000 181.426
50.32000 188.410
50.33000 193.812
50.34000 198.359
50.35000 202.723
50.36000 198.885
50.37000 192.494
50.38000 187.124
50.39000 191.279
50.40000 197.768
50.41000 203.366
50.42000 203.886
50.43000 203.603
50.44000 203.375
50.45000 204.379
50.46000 205.287
50.47000 206.749
50.48000 209.600
50.49000 212.518
50.50000 217.833
50.51000 227.208
50.52000 236.649
50.53000 241.629
50.54000 233.155
50.55000 227.459
50.56000 231.334
50.57000 242.094
50.58000 252.643
50.59000 256.341
50.60000 256.735
50.61000 257.110
50.62000 257.946
50.63000 258.856
50.64000 260.302
50.65000 266.042
50.66000 272.713
50.67000 278.629
50.68000 280.763
50.69000 282.377
50.70000 283.638
50.71000 278.135
50.72000 273.315
50.73000 270.030
50.74000 270.179
50.75000 270.457
50.76000 271.494
50.77000 273.675
50.78000 275.867
50.79000 274.365
50.80000 269.249
50.81000 264.138
50.82000 259.410
50.83000 254.926
50.84000 250.687
50.85000 252.448
50.86000 256.791
50.87000 260.869
50.88000 249.497
50.89000 235.036
50.90000 222.382
50.91000 222.260
50.92000 224.535
50.93000 225.371
50.94000 219.836
50.95000 213.545
50.96000 208.769
50.97000 207.118
50.98000 205.982
50.99000 203.076
51.00000 196.633
51.01000 190.091
51.02000 186.225
51.03000 185.934
51.04000 185.661
51.05000 189.531
51.06000 196.948
51.07000 204.208
51.08000 203.129
51.09000 197.307
51.10000 191.638
51.11000 188.924
51.12000 187.344
51.13000 185.880
51.14000 186.185
51.15000 186.870
51.16000 186.891
51.17000 182.889
51.18000 178.211
51.19000 174.139
51.20000 172.442
51.21000 170.987
51.22000 169.917
51.23000 171.752
51.24000 173.290
51.25000 173.305
51.26000 170.602
51.27000 167.846
51.28000 164.950
51.29000 161.888
51.30000 158.834
51.31000 161.752
51.32000 169.156
51.33000 176.415
51.34000 178.224
51.35000 177.270
51.36000 176.231
51.37000 173.873
51.38000 171.062
51.39000 168.495
51.40000 168.190
51.41000 168.378
51.42000 168.512
51.43000 168.356
51.44000 168.158
51.45000 168.003
51.46000 167.995
51.47000 168.000
51.48000 168.004
51.49000 168.751
51.50000 169.343
51.51000 168.367
51.52000 164.901
51.53000 161.404
51.54000 160.218
51.55000 161.432
51.56000 162.639
51.57000 166.735
51.58000 172.698
51.59000 178.341
51.60000 175.119
51.61000 167.885
51.62000 161.181
51.63000 161.297
51.64000 163.499
51.65000 165.477
51.66000 165.200
51.67000 164.556
51.68000 163.793
51.69000 162.471
51.70000 161.076
51.71000 159.075
51.72000 155.183
51.73000 151.157
51.74000 148.400
51.75000 157.417
51.76000 164.450
51.77000 167.319
51.78000 164.319
51.79000 161.278
51.80000 159.866
51.81000 159.937
51.82000 160.007
51.83000 161.170
51.84000 162.948
51.85000 164.675
51.86000 165.293
51.87000 165.463
51.88000 165.685
51.89000 166.474
51.90000 167.417
51.91000 168.250
51.92000 169.249
51.93000 170.137
51.94000 170.797
51.95000 170.516
51.96000 170.133
51.97000 169.818
51.98000 169.695
51.99000 169.583
52.00000 169.510
52.01000 166.093
52.02000 163.520
52.03000 162.237
52.04000 162.564
52.05000 162.905
52.06000 166.405
52.07000 172.438
52.08000 178.382
52.09000 178.506
52.10000 175.614
52.11000 172.483
52.12000 165.258
52.13000 156.555
52.14000 149.235
52.15000 154.608
52.16000 163.050
52.17000 170.366
52.18000 167.937
52.19000 164.576
52.20000 161.998
52.21000 162.297
52.22000 162.863
52.23000 163.488
52.24000 164.258
52.25000 165.034
52.26000 165.522
52.27000 159.315
52.28000 154.749
52.29000 154.228
52.30000 158.158
52.31000 162.043
52.32000 159.225
52.33000 151.647
52.34000 144.229
52.35000 146.257
52.36000 152.524
52.37000 158.490
52.38000 160.246
52.39000 160.646
52.40000 160.755
52.41000 158.578
52.42000 155.912
52.43000 153.648
52.44000 157.579
52.45000 161.581
52.46000 165.405
52.47000 168.646
52.48000 171.841
52.49000 172.586
52.50000 167.909
52.51000 163.036
52.52000 160.111
52.53000 165.741
52.54000 169.797
52.55000 168.054
52.56000 160.717
52.57000 153.448
52.58000 151.622
52.59000 153.230
52.60000 154.792
52.61000 159.039
52.62000 164.159
52.63000 168.599
52.64000 165.118
52.65000 159.365
52.66000 154.954
52.67000 159.713
52.68000 166.203
52.69000 171.589
52.70000 166.795
52.71000 161.848
52.72000 157.723
52.73000 156.000
52.74000 154.430
52.75000 154.119
52.76000 156.290
52.77000 158.528
52.78000 159.803
52.79000 156.489
52.80000 154.168
52.81000 154.516
52.82000 157.127
52.83000 159.701
52.84000 160.344
52.85000 159.902
52.86000 159.477
52.87000 159.298
52.88000 159.218
52.89000 159.216
52.90000 159.985
52.91000 160.952
52.92000 161.720
52.93000 161.307
52.94000 160.699
52.95000 160.206
52.96000 156.573
52.97000 153.360
52.98000 151.628
52.99000 153.757
53.00000 156.085
53.01000 156.809
53.02000 154.704
53.03000 152.547
53.04000 151.385
53.05000 147.714
53.06000 145.244
53.07000 151.217
53.08000 163.516
53.09000 175.460
53.10000 174.564
53.11000 167.237
53.12000 160.252
53.13000 160.555
53.14000 163.127
53.15000 165.448
53.16000 165.656
53.17000 165.386
53.18000 165.917
53.19000 170.639
53.20000 175.966
53.21000 180.168
53.22000 170.018
53.23000 160.906
53.24000 156.334
53.25000 162.322
53.26000 168.740
53.27000 169.450
53.28000 161.210
53.29000 152.863
53.30000 148.641
53.31000 161.054
53.32000 169.253
53.33000 166.643
53.34000 156.846
53.35000 147.459
53.36000 149.077
53.37000 155.615
53.38000 161.779
53.39000 162.136
53.40000 160.856
53.41000 159.721
53.42000 159.644
53.43000 159.778
53.44000 159.781
53.45000 159.182
53.46000 158.508
53.47000 157.991
53.48000 165.506
53.49000 171.886
53.50000 175.329
53.51000 172.668
53.52000 169.819
53.53000 166.066
53.54000 161.057
53.55000 156.041
53.56000 157.465
53.57000 164.664
53.58000 171.712
53.59000 169.474
53.60000 161.747
53.61000 154.368
53.62000 154.267
53.63000 157.073
53.64000 159.685
53.65000 161.905
53.66000 163.816
53.67000 165.527
53.68000 165.974
53.69000 166.199
53.70000 165.757
53.71000 162.589
53.72000 159.128
53.73000 156.555
53.74000 157.134
53.75000 157.724
53.76000 157.267
53.77000 154.873
53.78000 152.434
53.79000 151.927
53.80000 153.796
53.81000 155.668
53.82000 156.481
53.83000 156.456
53.84000 156.357
53.85000 153.174
53.86000 148.366
53.87000 144.057
53.88000 148.106
53.89000 155.134
53.90000 161.584
53.91000 164.330
53.92000 165.990
53.93000 166.812
53.94000 162.982
53.95000 158.439
53.96000 155.583
53.97000 158.859
53.98000 162.692
53.99000 165.449
54.00000 167.533
54.01000 169.105
54.02000 170.050
54.03000 169.961
54.04000 169.857
54.05000 168.420
54.06000 165.537
54.07000 162.666
54.08000 162.347
54.09000 163.801
54.10000 165.185
54.11000 164.406
54.12000 162.610
54.13000 160.635
54.14000 156.211
54.15000 151.008
54.16000 146.306
54.17000 149.410
54.18000 153.591
54.19000 157.386
54.20000 159.297
54.21000 160.958
54.22000 161.420
54.23000 158.006
54.24000 154.296
54.25000 151.724
54.26000 153.128
54.27000 154.291
54.28000 152.680
54.29000 146.997
54.30000 141.280
54.31000 141.538
54.32000 147.481
54.33000 153.375
54.34000 153.135
54.35000 149.147
54.36000 145.471
54.37000 149.042
54.38000 155.657
54.39000 161.328
54.40000 156.196
54.41000 148.004
54.42000 140.724
54.43000 146.263
54.44000 153.136
54.45000 158.945
54.46000 160.155
54.47000 160.836
54.48000 160.876
54.49000 159.066
54.50000 157.141
54.51000 155.856
54.52000 163.026
54.53000 168.498
54.54000 168.707
54.55000 162.069
54.56000 155.413
54.57000 154.244
54.58000 157.666
54.59000 161.043
54.60000 162.435
54.61000 162.718
54.62000 162.993
54.63000 163.111
54.64000 163.171
54.65000 163.178
54.66000 162.662
54.67000 162.016
54.68000 161.452
54.69000 156.001
54.70000 150.658
54.71000 147.232
54.72000 151.149
54.73000 155.786
54.74000 158.603
54.75000 156.735
54.76000 154.631
54.77000 153.287
54.78000 157.143
54.79000 160.018
54.80000 162.991
54.81000 166.077
54.82000 169.136
54.83000 167.208
54.84000 161.591
54.85000 156.080
54.86000 155.176
54.87000 156.501
54.88000 157.724
54.89000 157.410
54.90000 156.582
54.91000 155.736
54.92000 154.732
54.93000 153.694
54.94000 152.806
54.95000 153.788
54.96000 154.840
54.97000 155.297
54.98000 153.729
54.99000 151.994
55.00000 151.599
55.01000 154.285
55.02000 157.093
55.03000 158.807
55.04000 156.305
55.05000 154.483
55.06000 154.209
55.07000 155.498
55.08000 156.815
55.09000 160.760
55.10000 166.429
55.11000 171.952
55.12000 169.973
55.13000 164.927
55.14000 160.082
55.15000 157.733
55.16000 156.128
55.17000 154.719
55.18000 154.707
55.19000 154.971
55.20000 155.192
55.21000 157.311
55.22000 159.266
55.23000 160.895
55.24000 161.533
55.25000 162.104
55.26000 161.195
55.27000 157.248
55.28000 153.211
55.29000 150.869
55.30000 173.142
55.31000 188.866
55.32000 190.658
55.33000 180.116
55.34000 169.651
55.35000 163.727
55.36000 160.455
55.37000 157.294
55.38000 161.706
55.39000 168.680
55.40000 175.184
55.41000 176.793
55.42000 177.102
55.43000 177.084
55.44000 175.028
55.45000 172.619
55.46000 170.650
55.47000 179.024
55.48000 186.770
55.49000 193.140
55.50000 195.782
55.51000 198.217
55.52000 200.064
55.53000 200.834
55.54000 201.582
55.55000 201.993
55.56000 200.064
55.57000 198.754
55.58000 203.076
55.59000 211.797
55.60000 220.510
55.61000 228.886
55.62000 237.087
55.63000 244.934
55.64000 251.420
55.65000 257.015
55.66000 262.647
55.67000 268.596
55.68000 274.621
55.69000 282.381
55.70000 299.625
55.71000 318.304
55.72000 333.176
55.73000 352.134
55.74000 367.715
55.75000 381.009
55.76000 388.775
55.77000 396.297
55.78000 410.941
55.79000 437.201
55.80000 463.626
55.81000 477.285
55.82000 490.268
55.83000 499.071
55.84000 514.013
55.85000 533.205
55.86000 552.287
55.87000 568.137
55.88000 582.484
55.89000 596.063
55.90000 602.557
55.91000 606.484
55.92000 610.971
55.93000 619.743
55.94000 629.408
55.95000 639.006
55.96000 648.288
55.97000 657.529
55.98000 664.684
55.99000 653.985
56.00000 644.429
56.01000 632.905
56.02000 617.129
56.03000 601.208
56.04000 585.908
56.05000 571.508
56.06000 557.118
56.07000 547.204
56.08000 541.489
56.09000 535.578
56.10000 515.598
56.11000 486.965
56.12000 458.729
56.13000 439.477
56.14000 423.954
56.15000 409.440
56.16000 393.381
56.17000 378.410
56.18000 363.730
56.19000 350.989
56.20000 338.604
56.21000 326.473
56.22000 315.429
56.23000 304.507
56.24000 296.300
56.25000 282.590
56.26000 271.607
56.27000 261.986
56.28000 254.986
56.29000 248.052
56.30000 240.990
56.31000 233.764
56.32000 226.547
56.33000 218.507
56.34000 209.818
56.35000 201.237
56.36000 197.784
56.37000 197.142
56.38000 196.243
56.39000 190.742
56.40000 183.535
56.41000 176.888
56.42000 174.098
56.43000 172.458
56.44000 170.502
56.45000 166.720
56.46000 162.644
56.47000 160.479
56.48000 165.537
56.49000 171.291
56.50000 175.476
56.51000 167.740
56.52000 161.334
56.53000 157.388
56.54000 157.664
56.55000 158.013
56.56000 156.392
56.57000 152.538
56.58000 148.696
56.59000 151.378
56.60000 158.760
56.61000 165.972
56.62000 167.446
56.63000 166.117
56.64000 164.619
56.65000 160.659
56.66000 155.884
56.67000 151.546
56.68000 154.086
56.69000 157.669
56.70000 160.151
56.71000 157.028
56.72000 153.119
56.73000 150.901
56.74000 154.368
56.75000 158.297
56.76000 161.055
56.77000 157.346
56.78000 154.348
56.79000 152.466
56.80000 152.287
56.81000 152.127
56.82000 153.724
56.83000 157.069
56.84000 160.391
56.85000 159.637
56.86000 156.293
56.87000 153.185
56.88000 156.067
56.89000 161.563
56.90000 166.196
56.91000 160.344
56.92000 151.402
56.93000 143.409
56.94000 145.525
56.95000 149.082
56.96000 151.917
56.97000 151.505
56.98000 150.699
56.99000 150.638
57.00000 152.807
57.01000 155.126
57.02000 156.694
57.03000 153.660
57.04000 151.301
57.05000 147.660
57.06000 142.281
57.07000 136.900
57.08000 138.904
57.09000 147.357
57.10000 155.715
57.11000 158.012
57.12000 156.843
57.13000 155.641
57.14000 153.812
57.15000 151.738
57.16000 149.773
57.17000 148.921
57.18000 148.361
57.19000 147.869
57.20000 148.354
57.21000 148.914
57.22000 149.645
57.23000 151.055
57.24000 152.535
57.25000 151.877
57.26000 145.502
57.27000 138.814
57.28000 134.477
57.29000 139.571
57.30000 143.443
57.31000 143.721
57.32000 139.692
57.33000 135.670
57.34000 135.415
57.35000 138.063
57.36000 140.667
57.37000 141.884
57.38000 142.371
57.39000 142.945
57.40000 144.909
57.41000 147.357
57.42000 149.792
57.43000 152.116
57.44000 154.414
57.45000 156.393
57.46000 153.121
57.47000 149.686
57.48000 146.086
57.49000 141.900
57.50000 137.662
57.51000 135.113
57.52000 136.597
57.53000 138.254
57.54000 139.282
57.55000 144.266
57.56000 147.890
57.57000 146.320
57.58000 139.271
57.59000 132.279
57.60000 131.997
57.61000 136.298
57.62000 140.499
57.63000 141.298
57.64000 140.569
57.65000 139.972
57.66000 141.111
57.67000 142.788
57.68000 144.189
57.69000 143.505
57.70000 142.394
57.71000 141.457
57.72000 140.790
57.73000 140.263
57.74000 140.351
57.75000 142.380
57.76000 144.552
57.77000 145.973
57.78000 145.794
57.79000 145.562
57.80000 145.425
57.81000 137.728
57.82000 132.252
57.83000 129.027
57.84000 127.885
57.85000 126.785
57.86000 128.544
57.87000 132.039
57.88000 135.425
57.89000 136.551
57.90000 136.740
57.91000 137.242
57.92000 141.179
57.93000 146.066
57.94000 149.703
57.95000 145.172
57.96000 139.164
57.97000 134.215
57.98000 135.455
57.99000 137.042
58.00000 138.973
58.01000 141.874
58.02000 144.833
58.03000 145.849
58.04000 143.170
58.05000 140.401
58.06000 138.851
58.07000 144.554
58.08000 148.514
58.09000 148.908
58.10000 146.399
58.11000 143.914
58.12000 142.539
58.13000 141.763
58.14000 141.018
58.15000 141.378
58.16000 142.092
58.17000 142.678
58.18000 142.068
58.19000 141.165
58.20000 139.812
58.21000 135.897
58.22000 131.576
58.23000 128.104
58.24000 132.818
58.25000 137.267
58.26000 139.821
58.27000 137.615
58.28000 135.180
58.29000 133.834
58.30000 134.333
58.31000 134.862
58.32000 135.141
58.33000 137.988
58.34000 139.916
58.35000 140.824
58.36000 140.997
58.37000 141.190
58.38000 142.030
58.39000 143.182
58.40000 144.277
58.41000 144.542
58.42000 144.537
58.43000 144.471
58.44000 143.912
58.45000 143.246
58.46000 142.444
58.47000 140.960
58.48000 139.382
58.49000 138.148
58.50000 138.134
58.51000 138.201
58.52000 138.390
58.53000 138.853
58.54000 139.326
58.55000 139.199
58.56000 138.167
58.57000 137.125
58.58000 136.282
58.59000 135.634
58.60000 135.016
58.61000 136.925
58.62000 140.452
58.63000 143.876
58.64000 144.743
58.65000 144.508
58.66000 144.287
58.67000 139.392
58.68000 133.688
58.69000 128.287
58.70000 124.988
58.71000 122.093
58.72000 120.626
58.73000 125.494
58.74000 131.117
58.75000 135.386
58.76000 130.473
58.77000 126.138
58.78000 124.671
58.79000 128.948
58.80000 133.386
58.81000 137.670
58.82000 141.747
58.83000 145.821
58.84000 144.625
58.85000 138.902
58.86000 133.248
58.87000 131.325
58.88000 131.526
58.89000 131.879
58.90000 135.161
58.91000 139.572
58.92000 143.660
58.93000 143.160
58.94000 141.642
58.95000 140.078
58.96000 138.234
58.97000 136.343
58.98000 134.712
58.99000 134.106
59.00000 133.605
59.01000 133.236
59.02000 134.009
59.03000 134.655
59.04000 135.656
59.05000 137.294
59.06000 138.945
59.07000 139.964
59.08000 140.237
59.09000 140.509
59.10000 139.420
59.11000 137.311
59.12000 135.235
59.13000 134.413
59.14000 134.228
59.15000 134.027
59.16000 133.565
59.17000 133.014
59.18000 132.510
59.19000 133.484
59.20000 134.650
59.21000 135.627
59.22000 135.603
59.23000 135.432
59.24000 135.660
59.25000 137.286
59.26000 139.032
59.27000 140.273
59.28000 140.585
59.29000 140.793
59.30000 140.137
59.31000 138.108
59.32000 136.062
59.33000 136.179
59.34000 138.545
59.35000 140.898
59.36000 142.112
59.37000 142.552
59.38000 142.958
59.39000 142.425
59.40000 141.467
59.41000 140.650
59.42000 141.655
59.43000 143.217
59.44000 144.622
59.45000 140.370
59.46000 135.642
59.47000 132.409
59.48000 136.183
59.49000 140.850
59.50000 143.763
59.51000 141.210
59.52000 138.265
59.53000 136.248
59.54000 136.694
59.55000 137.088
59.56000 137.192
59.57000 136.889
59.58000 136.582
59.59000 136.288
59.60000 136.005
59.61000 135.724
59.62000 137.073
59.63000 139.350
59.64000 141.416
59.65000 138.930
59.66000 134.601
59.67000 130.512
59.68000 129.034
59.69000 128.267
59.70000 127.590
59.71000 128.343
59.72000 129.213
59.73000 130.111
59.74000 131.125
59.75000 132.152
59.76000 133.230
59.77000 134.448
59.78000 135.673
59.79000 136.480
59.80000 136.112
59.81000 135.821
59.82000 135.554
59.83000 135.317
59.84000 135.077
59.85000 133.731
59.86000 131.496
59.87000 129.294
59.88000 131.093
59.89000 134.914
59.90000 138.300
59.91000 134.212
59.92000 127.423
59.93000 121.478
59.94000 123.306
59.95000 127.018
59.96000 130.235
59.97000 133.220
59.98000 135.731
59.99000 138.136
60.00000 140.151
60.01000 142.130
60.02000 142.925
60.03000 140.782
60.04000 138.501
60.05000 137.064
60.06000 136.558
60.07000 136.202
60.08000 135.545
60.09000 134.557
60.10000 133.588
60.11000 135.366
60.12000 139.099
60.13000 142.754
60.14000 140.991
60.15000 136.817
60.16000 132.828
60.17000 131.455
60.18000 130.926
60.19000 130.745
60.20000 133.324
60.21000 136.495
60.22000 139.188
60.23000 140.147
60.24000 140.753
60.25000 139.923
60.26000 134.381
60.27000 128.472
60.28000 125.388
60.29000 128.565
60.30000 131.969
60.31000 134.013
60.32000 134.723
60.33000 135.219
60.34000 134.656
60.35000 133.071
60.36000 131.492
60.37000 130.367
60.38000 129.528
60.39000 128.714
60.40000 131.797
60.41000 136.303
60.42000 140.299
60.43000 138.336
60.44000 134.661
60.45000 131.485
60.46000 131.728
60.47000 132.617
60.48000 133.356
60.49000 136.506
60.50000 139.344
60.51000 139.868
60.52000 133.624
60.53000 126.944
60.54000 123.925
60.55000 128.147
60.56000 132.564
60.57000 135.082
60.58000 136.186
60.59000 136.949
60.60000 136.368
60.61000 134.645
60.62000 133.011
60.63000 135.986
60.64000 141.553
60.65000 146.915
60.66000 145.919
60.67000 142.714
60.68000 139.686
60.69000 138.406
60.70000 137.572
60.71000 136.701
60.72000 135.599
60.73000 134.459
60.74000 133.535
60.75000 137.683
60.76000 141.475
60.77000 143.185
60.78000 139.461
60.79000 135.453
60.80000 131.237
60.81000 126.652
60.82000 122.061
60.83000 119.586
60.84000 133.044
60.85000 142.227
60.86000 144.448
60.87000 141.442
60.88000 138.515
60.89000 138.461
60.90000 139.850
60.91000 141.173
60.92000 143.093
60.93000 145.062
60.94000 146.715
60.95000 145.697
60.96000 144.074
60.97000 142.870
60.98000 143.858
60.99000 145.164
61.00000 146.194
61.01000 141.272
61.02000 136.919
61.03000 134.907
61.04000 138.348
61.05000 142.013
61.06000 143.435
61.07000 141.335
61.08000 139.194
61.09000 138.109
61.10000 136.527
61.11000 135.496
61.12000 137.224
61.13000 140.791
61.14000 144.082
61.15000 139.914
61.16000 132.406
61.17000 125.327
61.18000 124.377
61.19000 125.205
61.20000 126.284
61.21000 129.193
61.22000 132.467
61.23000 135.491
61.24000 137.349
61.25000 139.062
61.26000 140.376
61.27000 137.241
61.28000 134.516
61.29000 133.157
61.30000 134.641
61.31000 136.213
61.32000 138.178
61.33000 140.691
61.34000 143.206
61.35000 144.234
61.36000 143.923
61.37000 143.566
61.38000 140.405
61.39000 135.582
61.40000 131.022
61.41000 131.978
61.42000 135.141
61.43000 138.086
61.44000 141.014
61.45000 143.656
61.46000 146.034
61.47000 146.734
61.48000 147.138
61.49000 147.757
61.50000 149.255
61.51000 150.847
61.52000 152.031
61.53000 165.294
61.54000 176.149
61.55000 185.463
61.56000 191.916
61.57000 198.305
61.58000 208.681
61.59000 223.974
61.60000 239.253
61.61000 251.473
61.62000 261.221
61.63000 270.905
61.64000 277.868
61.65000 283.394
61.66000 288.875
61.67000 293.584
61.68000 298.018
61.69000 302.089
61.70000 301.795
61.71000 300.603
61.72000 299.239
61.73000 296.924
61.74000 294.463
61.75000 292.032
61.76000 289.712
61.77000 287.401
61.78000 285.740
61.79000 265.486
61.80000 249.330
61.81000 236.285
61.82000 228.384
61.83000 220.561
61.84000 209.968
61.85000 196.365
61.86000 182.821
61.87000 173.875
61.88000 168.219
61.89000 162.611
61.90000 158.492
61.91000 155.074
61.92000 151.730
61.93000 149.404
61.94000 147.403
61.95000 145.593
61.96000 144.613
61.97000 143.905
61.98000 143.504
61.99000 144.609
62.00000 145.916
62.01000 146.515
62.02000 144.822
62.03000 142.955
62.04000 141.659
62.05000 143.187
62.06000 144.413
62.07000 145.200
62.08000 145.343
62.09000 145.481
62.10000 144.626
62.11000 142.825
62.12000 141.038
62.13000 139.896
62.14000 139.169
62.15000 138.433
62.16000 137.484
62.17000 136.444
62.18000 135.724
62.19000 138.662
62.20000 142.638
62.21000 146.172
62.22000 144.546
62.23000 142.300
62.24000 140.667
62.25000 141.685
62.26000 143.007
62.27000 144.616
62.28000 147.052
62.29000 149.540
62.30000 151.200
62.31000 149.186
62.32000 147.624
62.33000 145.980
62.34000 144.230
62.35000 142.483
62.36000 142.495
62.37000 143.980
62.38000 145.446
62.39000 147.403
62.40000 149.575
62.41000 151.704
62.42000 153.040
62.43000 154.078
62.44000 154.388
62.45000 147.633
62.46000 139.096
62.47000 131.647
62.48000 139.044
62.49000 147.448
62.50000 153.818
62.51000 152.385
62.52000 150.186
62.53000 147.311
62.54000 142.697
62.55000 137.995
62.56000 134.988
62.57000 139.318
62.58000 142.567
62.59000 142.933
62.60000 139.981
62.61000 137.036
62.62000 136.232
62.63000 137.014
62.64000 137.782
62.65000 136.231
62.66000 133.628
62.67000 131.418
62.68000 135.109
62.69000 140.778
62.70000 145.960
62.71000 147.093
62.72000 147.320
62.73000 147.515
62.74000 145.317
62.75000 143.177
62.76000 141.798
62.77000 143.013
62.78000 144.444
62.79000 144.908
62.80000 143.150
62.81000 141.304
62.82000 140.176
62.83000 142.777
62.84000 144.668
62.85000 144.782
62.86000 143.099
62.87000 141.460
62.88000 144.017
62.89000 149.333
62.90000 154.512
62.91000 151.468
62.92000 145.094
62.93000 139.414
62.94000 142.353
62.95000 147.867
62.96000 152.716
62.97000 152.784
62.98000 151.909
62.99000 151.176
63.00000 149.279
63.01000 147.582
63.02000 146.136
63.03000 145.451
63.04000 144.817
63.05000 145.334
63.06000 148.215
63.07000 151.168
63.08000 152.882
63.09000 150.041
63.10000 148.027
63.11000 146.312
63.12000 144.861
63.13000 143.436
63.14000 143.508
63.15000 144.456
63.16000 145.372
63.17000 145.365
63.18000 145.016
63.19000 144.994
63.20000 148.390
63.21000 152.695
63.22000 155.913
63.23000 152.331
63.24000 147.570
63.25000 143.679
63.26000 149.226
63.27000 154.584
63.28000 157.969
63.29000 156.005
63.30000 153.741
63.31000 151.885
63.32000 150.776
63.33000 149.683
63.34000 149.082
63.35000 148.927
63.36000 148.823
63.37000 149.018
63.38000 149.446
63.39000 149.877
63.40000 150.401
63.41000 150.973
63.42000 151.521
63.43000 151.213
63.44000 150.645
63.45000 149.768
63.46000 146.143
63.47000 141.869
63.48000 138.844
63.49000 142.662
63.50000 147.517
63.51000 151.384
63.52000 147.732
63.53000 144.243
63.54000 142.978
63.55000 147.096
63.56000 151.454
63.57000 153.602
63.58000 152.141
63.59000 150.628
63.60000 149.845
63.61000 153.082
63.62000 155.257
63.63000 156.248
63.64000 156.418
63.65000 156.533
63.66000 155.007
63.67000 152.718
63.68000 150.552
63.69000 148.958
63.70000 147.658
63.71000 147.027
63.72000 151.509
63.73000 157.058
63.74000 161.587
63.75000 161.192
63.76000 160.148
63.77000 159.340
63.78000 156.507
63.79000 154.137
63.80000 152.627
63.81000 152.980
63.82000 153.396
63.83000 153.471
63.84000 153.051
63.85000 152.626
63.86000 154.327
63.87000 158.024
63.88000 161.670
63.89000 161.603
63.90000 159.249
63.91000 156.999
63.92000 157.096
63.93000 158.168
63.94000 159.171
63.95000 158.790
63.96000 158.091
63.97000 156.963
63.98000 152.979
63.99000 148.469
64.00000 145.098
64.01000 146.582
64.02000 148.617
64.03000 150.147
64.04000 150.820
64.05000 151.305
64.06000 152.501
64.07000 155.069
64.08000 157.670
64.09000 157.895
64.10000 155.062
64.11000 152.221
64.12000 150.657
64.13000 150.152
64.14000 149.703
64.15000 151.958
64.16000 155.695
64.17000 159.227
64.18000 159.044
64.19000 157.484
64.20000 156.045
64.21000 159.022
64.22000 162.676
64.23000 165.495
64.24000 163.468
64.25000 160.659
64.26000 160.237
64.27000 168.845
64.28000 178.325
64.29000 185.224
64.30000 174.991
64.31000 166.461
64.32000 159.876
64.33000 156.635
64.34000 153.452
64.35000 151.823
64.36000 151.956
64.37000 152.091
64.38000 153.360
64.39000 155.440
64.40000 157.508
64.41000 159.160
64.42000 160.609
64.43000 162.072
64.44000 163.754
64.45000 165.507
64.46000 167.101
64.47000 168.931
64.48000 170.594
64.49000 171.777
64.50000 170.511
64.51000 168.901
64.52000 167.504
64.53000 166.825
64.54000 166.204
64.55000 165.767
64.56000 160.299
64.57000 156.011
64.58000 156.793
64.59000 165.337
64.60000 173.964
64.61000 178.368
64.62000 178.566
64.63000 178.762
64.64000 177.020
64.65000 174.066
64.66000 171.206
64.67000 170.743
64.68000 171.328
64.69000 171.644
64.70000 168.681
64.71000 164.752
64.72000 161.238
64.73000 168.268
64.74000 176.186
64.75000 182.323
64.76000 180.432
64.77000 177.567
64.78000 174.605
64.79000 171.351
64.80000 168.077
64.81000 165.862
64.82000 168.025
64.83000 169.731
64.84000 171.688
64.85000 173.988
64.86000 176.288
64.87000 177.235
64.88000 176.999
64.89000 176.765
64.90000 176.412
64.91000 176.000
64.92000 175.735
64.93000 178.412
64.94000 182.236
64.95000 185.865
64.96000 187.489
64.97000 188.587
64.98000 189.551
64.99000 189.572
65.00000 189.452
65.01000 190.561
65.02000 196.573
65.03000 203.095
65.04000 206.484
65.05000 201.480
65.06000 196.016
65.07000 192.471
65.08000 196.510
65.09000 199.583
65.10000 202.936
65.11000 206.626
65.12000 210.305
65.13000 211.024
65.14000 209.458
65.15000 207.918
65.16000 211.107
65.17000 216.548
65.18000 221.845
65.19000 224.837
65.20000 227.025
65.21000 229.406
65.22000 233.480
65.23000 237.949
65.24000 241.798
65.25000 243.965
65.26000 245.589
65.27000 248.761
65.28000 257.423
65.29000 266.568
65.30000 272.007
65.31000 268.579
65.32000 264.768
65.33000 262.402
65.34000 287.879
65.35000 306.482
65.36000 316.153
65.37000 316.382
65.38000 316.680
65.39000 325.156
65.40000 339.227
65.41000 352.971
65.42000 360.970
65.43000 366.100
65.44000 371.030
65.45000 373.320
65.46000 374.789
65.47000 377.079
65.48000 385.556
65.49000 395.308
65.50000 403.530
65.51000 417.978
65.52000 430.717
65.53000 440.503
65.54000 440.965
65.55000 440.741
65.56000 441.737
65.57000 445.342
65.58000 449.033
65.59000 451.215
65.60000 459.308
65.61000 465.057
65.62000 468.298
65.63000 469.215
65.64000 470.211
65.65000 476.628
65.66000 486.344
65.67000 495.759
65.68000 512.495
65.69000 531.184
65.70000 550.501
65.71000 576.778
65.72000 604.981
65.73000 637.322
65.74000 696.746
65.75000 761.083
65.76000 814.092
65.77000 886.035
65.78000 946.969
65.79000 1000.660
65.80000 1033.944
65.81000 1065.999
65.82000 1097.145
65.83000 1126.559
65.84000 1155.931
65.85000 1172.386
65.86000 1169.503
65.87000 1167.454
65.88000 1163.622
65.89000 1158.335
65.90000 1153.044
65.91000 1147.581
65.92000 1142.025
65.93000 1136.690
65.94000 1111.849
65.95000 1081.924
65.96000 1049.693
65.97000 995.839
65.98000 936.669
65.99000 875.158
66.00000 800.242
66.01000 723.196
66.02000 661.282
66.03000 598.048
66.04000 546.690
66.05000 497.759
66.06000 454.934
66.07000 412.403
66.08000 380.456
66.09000 366.491
66.10000 352.824
66.11000 345.603
66.12000 329.803
66.13000 319.121
66.14000 316.878
66.15000 320.727
66.16000 324.422
66.17000 323.071
66.18000 319.280
66.19000 315.678
66.20000 316.019
66.21000 317.526
66.22000 318.083
66.23000 310.994
66.24000 302.240
66.25000 296.825
66.26000 308.210
66.27000 321.917
66.28000 332.639
66.29000 349.336
66.30000 363.046
66.31000 377.530
66.32000 393.753
66.33000 410.041
66.34000 417.836
66.35000 412.795
66.36000 407.623
66.37000 415.754
66.38000 436.951
66.39000 457.984
66.40000 465.030
66.41000 463.112
66.42000 461.362
66.43000 463.802
66.44000 468.051
66.45000 472.042
66.46000 463.966
66.47000 453.392
66.48000 444.738
66.49000 449.454
66.50000 456.738
66.51000 460.362
66.52000 447.719
66.53000 433.134
66.54000 422.054
66.55000 406.813
66.56000 394.615
66.57000 380.968
66.58000 364.410
66.59000 347.771
66.60000 338.025
66.61000 337.520
66.62000 337.063
66.63000 332.548
66.64000 324.546
66.65000 316.670
66.66000 315.581
66.67000 318.365
66.68000 321.191
66.69000 324.835
66.70000 328.795
66.71000 332.466
66.72000 329.143
66.73000 324.520
66.74000 320.584
66.75000 320.813
66.76000 321.746
66.77000 321.233
66.78000 315.025
66.79000 308.235
66.80000 303.238
66.81000 312.336
66.82000 319.959
66.83000 322.994
66.84000 317.823
66.85000 312.488
66.86000 313.536
66.87000 322.144
66.88000 330.745
66.89000 333.975
66.90000 333.118
66.91000 332.352
66.92000 335.000
66.93000 339.384
66.94000 343.490
66.95000 343.235
66.96000 341.480
66.97000 339.876
66.98000 343.184
66.99000 347.126
67.00000 350.693
67.01000 352.266
67.02000 353.547
67.03000 353.298
67.04000 347.693
67.05000 341.626
67.06000 337.311
67.07000 346.386
67.08000 353.727
67.09000 358.614
67.10000 359.591
67.11000 360.518
67.12000 361.259
67.13000 361.807
67.14000 362.352
67.15000 366.559
67.16000 373.157
67.17000 379.543
67.18000 380.009
67.19000 377.786
67.20000 375.758
67.21000 376.241
67.22000 377.494
67.23000 378.621
67.24000 382.807
67.25000 387.019
67.26000 390.630
67.27000 391.421
67.28000 391.852
67.29000 392.001
67.30000 391.269
67.31000 390.473
67.32000 389.928
67.33000 388.479
67.34000 387.371
67.35000 387.548
67.36000 389.543
67.37000 391.551
67.38000 395.629
67.39000 401.599
67.40000 407.511
67.41000 410.700
67.42000 412.220
67.43000 413.744
67.44000 415.366
67.45000 417.027
67.46000 418.749
67.47000 421.141
67.48000 423.715
67.49000 425.990
67.50000 433.492
67.51000 440.777
67.52000 446.001
67.53000 442.653
67.54000 438.366
67.55000 435.472
67.56000 436.455
67.57000 437.667
67.58000 438.465
67.59000 450.936
67.60000 460.323
67.61000 464.757
67.62000 462.989
67.63000 461.203
67.64000 459.770
67.65000 458.621
67.66000 457.489
67.67000 461.058
67.68000 466.965
67.69000 472.661
67.70000 474.729
67.71000 475.485
67.72000 476.880
67.73000 484.181
67.74000 492.915
67.75000 500.488
67.76000 505.888
67.77000 510.195
67.78000 513.286
67.79000 511.889
67.80000 510.073
67.81000 507.460
67.82000 502.865
67.83000 498.177
67.84000 495.222
67.85000 500.678
67.86000 504.723
67.87000 509.278
67.88000 514.398
67.89000 519.467
67.90000 517.294
67.91000 509.958
67.92000 502.775
67.93000 501.380
67.94000 502.696
67.95000 504.280
67.96000 509.629
67.97000 516.194
67.98000 523.915
67.99000 540.776
68.00000 559.601
68.01000 575.591
68.02000 574.674
68.03000 571.974
68.04000 570.247
68.05000 571.721
68.06000 573.444
68.07000 571.648
68.08000 562.039
68.09000 552.144
68.10000 546.197
68.11000 569.985
68.12000 587.099
68.13000 596.272
68.14000 597.755
68.15000 599.189
68.16000 596.655
68.17000 591.612
68.18000 586.710
68.19000 593.124
68.20000 603.805
68.21000 613.539
68.22000 612.162
68.23000 607.588
68.24000 605.406
68.25000 619.634
68.26000 636.971
68.27000 651.370
68.28000 656.600
68.29000 660.034
68.30000 662.290
68.31000 661.096
68.32000 659.680
68.33000 663.975
68.34000 679.586
68.35000 695.504
68.36000 704.588
68.37000 697.299
68.38000 692.172
68.39000 694.693
68.40000 703.727
68.41000 712.710
68.42000 719.092
68.43000 724.008
68.44000 728.743
68.45000 741.864
68.46000 757.188
68.47000 771.560
68.48000 776.515
68.49000 779.060
68.50000 782.623
68.51000 792.285
68.52000 802.960
68.53000 811.614
68.54000 838.546
68.55000 861.983
68.56000 883.476
68.57000 899.887
68.58000 916.032
68.59000 934.935
68.60000 958.711
68.61000 982.579
68.62000 995.452
68.63000 1049.158
68.64000 1086.027
68.65000 1142.209
68.66000 1212.919
68.67000 1283.265
68.68000 1340.379
68.69000 1390.843
68.70000 1438.970
68.71000 1501.192
68.72000 1563.368
68.73000 1624.686
68.74000 1678.743
68.75000 1731.151
68.76000 1783.742
68.77000 1837.288
68.78000 1890.973
68.79000 1933.359
68.80000 2012.457
68.81000 2078.428
68.82000 2143.783
68.83000 2207.698
68.84000 2271.553
68.85000 2357.229
68.86000 2477.227
68.87000 2597.644
68.88000 2658.667
68.89000 2955.481
68.90000 3156.329
68.91000 3569.207
68.92000 4123.523
68.93000 4706.693
68.94000 6072.196
68.95000 7788.656
68.96000 9407.271
68.97000 12935.722
68.98000 16698.557
68.99000 20633.619
69.00000 25826.787
69.01000 31272.166
69.02000 36742.395
69.03000 42327.746
69.04000 47927.559
69.05000 52224.727
69.06000 56511.363
69.07000 59898.301
69.08000 62571.191
69.09000 63755.723
69.10000 64893.879
69.11000 65646.953
69.12000 65862.172
69.13000 66073.711
69.14000 66461.313
69.15000 67007.023
69.16000 67555.484
69.17000 68275.008
69.18000 69096.023
69.19000 69862.953
69.20000 69491.430
69.21000 68663.813
69.22000 67893.133
69.23000 65035.137
69.24000 61941.730
69.25000 58802.652
69.26000 55373.336
69.27000 51892.844
69.28000 48509.992
69.29000 45527.699
69.30000 42588.594
69.31000 40401.613
69.32000 38278.105
69.33000 36628.875
69.34000 35294.008
69.35000 34543.805
69.36000 33806.742
69.37000 32948.406
69.38000 31940.160
69.39000 30933.311
69.40000 29329.943
69.41000 27262.236
69.42000 25182.061
69.43000 22575.275
69.44000 19690.051
69.45000 16828.311
69.46000 14362.168
69.47000 12037.532
69.48000 9902.872
69.49000 8068.870
69.50000 6496.884
69.51000 5034.720
69.52000 4183.600
69.53000 3426.735
69.54000 2771.225
69.55000 2485.008
69.56000 2232.595
69.57000 2050.931
69.58000 1900.286
69.59000 1786.029
69.60000 1683.110
69.61000 1598.981
69.62000 1515.136
69.63000 1450.262
69.64000 1406.049
69.65000 1362.037
69.66000 1317.755
69.67000 1273.742
69.68000 1229.643
69.69000 1182.895
69.70000 1134.898
69.71000 1088.641
69.72000 1066.394
69.73000 1051.808
69.74000 1038.619
69.75000 1019.178
69.76000 1000.904
69.77000 982.776
69.78000 965.364
69.79000 948.047
69.80000 931.310
69.81000 916.452
69.82000 901.738
69.83000 891.524
69.84000 870.331
69.85000 854.074
69.86000 840.911
69.87000 832.309
69.88000 823.748
69.89000 811.625
69.90000 796.101
69.91000 780.701
69.92000 779.036
69.93000 785.833
69.94000 791.882
69.95000 780.393
69.96000 761.516
69.97000 743.399
69.98000 734.046
69.99000 727.183
70.00000 721.081
