20.00000 571.883
20.01000 569.814
20.02000 567.448
20.03000 564.972
20.04000 562.067
20.05000 559.118
20.06000 556.955
20.07000 564.926
20.08000 571.497
20.09000 576.018
20.10000 576.909
20.11000 577.731
20.12000 574.985
20.13000 568.059
20.14000 561.145
20.15000 562.725
20.16000 570.654
20.17000 578.292
20.18000 575.250
20.19000 566.830
20.20000 559.027
20.21000 560.747
20.22000 565.711
20.23000 570.241
20.24000 570.927
20.25000 570.760
20.26000 570.455
20.27000 569.418
20.28000 568.275
20.29000 566.108
20.30000 560.392
20.31000 554.375
20.32000 550.109
20.33000 551.854
20.34000 553.370
20.35000 555.639
20.36000 559.094
20.37000 562.563
20.38000 564.781
20.39000 565.711
20.40000 566.635
20.41000 560.164
20.42000 548.902
20.43000 538.066
20.44000 538.870
20.45000 544.908
20.46000 550.595
20.47000 551.811
20.48000 551.670
20.49000 551.543
20.50000 553.662
20.51000 555.911
20.52000 556.789
20.53000 551.301
20.54000 545.011
20.55000 541.816
20.56000 548.183
20.57000 555.226
20.58000 560.036
20.59000 549.384
20.60000 541.053
20.61000 539.032
20.62000 545.846
20.63000 552.719
20.64000 558.460
20.65000 563.179
20.66000 567.851
20.67000 570.466
20.68000 571.828
20.69000 572.934
20.70000 568.624
20.71000 562.141
20.72000 555.819
20.73000 551.230
20.74000 547.110
20.75000 543.474
20.76000 545.817
20.77000 548.749
20.78000 551.036
20.79000 550.670
20.80000 550.016
20.81000 548.802
20.82000 546.045
20.83000 543.198
20.84000 541.331
20.85000 545.000
20.86000 547.790
20.87000 549.161
20.88000 548.771
20.89000 548.382
20.90000 549.469
20.91000 551.731
20.92000 553.959
20.93000 558.017
20.94000 562.892
20.95000 567.463
20.96000 566.874
20.97000 564.435
20.98000 562.038
20.99000 560.026
21.00000 558.106
21.01000 556.444
21.02000 556.358
21.03000 556.493
21.04000 556.535
21.05000 556.237
21.06000 555.909
21.07000 554.572
21.08000 550.757
21.09000 546.826
21.10000 544.359
21.11000 549.565
21.12000 553.412
21.13000 548.209
21.14000 533.125
21.15000 518.175
21.16000 522.140
21.17000 539.443
21.18000 556.374
21.19000 555.783
21.20000 547.263
21.21000 538.888
21.22000 532.519
21.23000 526.791
21.24000 522.372
21.25000 528.177
21.26000 536.153
21.27000 542.916
21.28000 543.508
21.29000 543.308
21.30000 543.386
21.31000 544.364
21.32000 545.412
21.33000 545.401
21.34000 543.065
21.35000 540.646
21.36000 539.199
21.37000 549.470
21.38000 556.835
21.39000 558.802
21.40000 555.601
21.41000 552.448
21.42000 552.888
21.43000 555.579
21.44000 558.193
21.45000 556.335
21.46000 552.780
21.47000 548.935
21.48000 541.748
21.49000 533.608
21.50000 526.705
21.51000 528.173
21.52000 531.208
21.53000 533.724
21.54000 539.322
21.55000 544.240
21.56000 545.953
21.57000 538.376
21.58000 530.210
21.59000 527.051
21.60000 533.714
21.61000 540.636
21.62000 544.568
21.63000 547.718
21.64000 549.905
21.65000 549.720
21.66000 547.538
21.67000 545.490
21.68000 550.182
21.69000 558.632
21.70000 566.765
21.71000 565.372
21.72000 560.693
21.73000 555.924
21.74000 550.264
21.75000 544.379
21.76000 539.960
21.77000 544.216
21.78000 549.897
21.79000 554.492
21.80000 561.799
21.81000 567.963
21.82000 574.296
21.83000 581.069
21.84000 587.864
21.85000 590.738
21.86000 586.755
21.87000 582.646
21.88000 580.442
21.89000 588.837
21.90000 594.538
21.91000 592.536
21.92000 584.802
21.93000 577.387
21.94000 581.279
21.95000 590.795
21.96000 599.861
21.97000 610.975
21.98000 621.913
21.99000 631.686
22.00000 631.740
22.01000 629.612
22.02000 628.782
22.03000 634.691
22.04000 641.565
22.05000 646.979
22.06000 644.611
22.07000 642.194
22.08000 641.822
22.09000 646.177
22.10000 650.722
22.11000 651.931
22.12000 647.948
22.13000 643.904
22.14000 641.866
22.15000 637.067
22.16000 633.866
22.17000 631.341
22.18000 629.263
22.19000 627.297
22.20000 628.330
22.21000 630.695
22.22000 632.922
22.23000 626.942
22.24000 619.216
22.25000 611.334
22.26000 602.321
22.27000 593.084
22.28000 585.211
22.29000 583.585
22.30000 582.734
22.31000 582.083
22.32000 580.185
22.33000 578.619
22.34000 573.418
22.35000 560.717
22.36000 547.788
22.37000 543.098
22.38000 549.794
22.39000 556.558
22.40000 560.107
22.41000 560.791
22.42000 561.452
22.43000 560.698
22.44000 559.115
22.45000 557.307
22.46000 550.888
22.47000 542.640
22.48000 534.969
22.49000 542.317
22.50000 552.574
22.51000 560.618
22.52000 554.759
22.53000 546.476
22.54000 539.533
22.55000 538.025
22.56000 537.095
22.57000 536.404
22.58000 539.429
22.59000 541.942
22.60000 539.794
22.61000 529.065
22.62000 518.149
22.63000 516.380
22.64000 525.793
22.65000 535.215
22.66000 533.578
22.67000 523.302
22.68000 513.147
22.69000 507.963
22.70000 505.382
22.71000 503.358
22.72000 510.549
22.73000 521.003
22.74000 530.591
22.75000 536.320
22.76000 540.610
22.77000 543.784
22.78000 540.814
22.79000 536.908
22.80000 532.877
22.81000 528.397
22.82000 523.876
22.83000 520.632
22.84000 516.210
22.85000 512.789
22.86000 512.757
22.87000 518.285
22.88000 523.894
22.89000 523.043
22.90000 515.239
22.91000 507.468
22.92000 506.093
22.93000 509.137
22.94000 511.882
22.95000 505.707
22.96000 495.365
22.97000 485.980
22.98000 489.575
22.99000 497.270
23.00000 504.218
23.01000 506.528
23.02000 507.703
23.03000 509.338
23.04000 513.198
23.05000 517.353
23.06000 519.682
23.07000 516.148
23.08000 512.171
23.09000 509.420
23.10000 505.683
23.11000 502.846
23.12000 501.511
23.13000 502.364
23.14000 503.236
23.15000 503.720
23.16000 503.840
23.17000 503.958
23.18000 503.494
23.19000 502.684
23.20000 502.064
23.21000 505.823
23.22000 511.408
23.23000 516.754
23.24000 519.392
23.25000 521.268
23.26000 522.934
23.27000 522.228
23.28000 521.237
23.29000 519.254
23.30000 513.021
23.31000 506.304
23.32000 502.776
23.33000 508.381
23.34000 514.552
23.35000 518.656
23.36000 509.267
23.37000 502.068
23.38000 501.726
23.39000 510.242
23.40000 518.775
23.41000 518.883
23.42000 511.992
23.43000 505.193
23.44000 502.786
23.45000 502.799
23.46000 503.086
23.47000 508.336
23.48000 515.437
23.49000 521.805
23.50000 521.145
23.51000 518.729
23.52000 516.623
23.53000 511.811
23.54000 507.325
23.55000 503.374
23.56000 501.460
23.57000 499.743
23.58000 499.439
23.59000 502.746
23.60000 506.233
23.61000 508.456
23.62000 513.225
23.63000 516.724
23.64000 518.238
23.65000 517.486
23.66000 516.690
23.67000 508.453
23.68000 494.751
23.69000 481.313
23.70000 480.374
23.71000 485.388
23.72000 490.690
23.73000 500.253
23.74000 511.234
23.75000 520.490
23.76000 515.583
23.77000 507.538
23.78000 500.668
23.79000 503.952
23.80000 507.924
23.81000 512.326
23.82000 518.182
23.83000 524.157
23.84000 528.794
23.85000 530.377
23.86000 531.841
23.87000 532.732
23.88000 524.978
23.89000 519.372
23.90000 519.029
23.91000 523.954
23.92000 528.778
23.93000 524.370
23.94000 513.945
23.95000 503.794
23.96000 507.320
23.97000 516.399
23.98000 524.734
23.99000 523.972
24.00000 520.515
24.01000 517.254
24.02000 515.386
24.03000 513.790
24.04000 512.457
24.05000 520.960
24.06000 529.013
24.07000 532.883
24.08000 524.147
24.09000 514.555
24.10000 510.407
24.11000 517.354
24.12000 524.628
24.13000 528.835
24.14000 526.598
24.15000 525.008
24.16000 527.835
24.17000 534.545
24.18000 541.150
24.19000 541.803
24.20000 539.004
24.21000 536.302
24.22000 530.724
24.23000 524.408
24.24000 518.374
24.25000 515.249
24.26000 512.890
24.27000 510.663
24.28000 509.245
24.29000 507.968
24.30000 506.925
24.31000 508.880
24.32000 510.734
24.33000 511.795
24.34000 510.721
24.35000 509.529
24.36000 507.646
24.37000 504.508
24.38000 501.342
24.39000 499.610
24.40000 501.024
24.41000 501.991
24.42000 500.422
24.43000 496.886
24.44000 493.371
24.45000 490.695
24.46000 488.452
24.47000 486.308
24.48000 490.654
24.49000 496.812
24.50000 501.795
24.51000 496.452
24.52000 488.693
24.53000 482.177
24.54000 482.397
24.55000 483.628
24.56000 484.607
24.57000 491.292
24.58000 497.083
24.59000 499.412
24.60000 493.427
24.61000 487.079
24.62000 482.008
24.63000 479.009
24.64000 476.038
24.65000 474.508
24.66000 476.367
24.67000 477.657
24.68000 483.415
24.69000 492.244
24.70000 500.556
24.71000 493.827
24.72000 480.157
24.73000 467.229
24.74000 467.206
24.75000 470.885
24.76000 474.405
24.77000 476.718
24.78000 478.781
24.79000 480.458
24.80000 480.285
24.81000 479.871
24.82000 479.551
24.83000 486.403
24.84000 492.259
24.85000 495.655
24.86000 493.779
24.87000 491.725
24.88000 489.344
24.89000 486.491
24.90000 483.635
24.91000 478.431
24.92000 471.046
24.93000 463.680
24.94000 457.644
24.95000 452.419
24.96000 447.808
24.97000 456.905
24.98000 471.652
24.99000 485.428
25.00000 480.813
25.01000 471.990
25.02000 465.333
25.03000 472.918
25.04000 483.097
25.05000 490.600
25.06000 486.788
25.07000 481.707
25.08000 477.896
25.09000 467.216
25.10000 458.549
25.11000 457.449
25.12000 470.830
25.13000 484.567
25.14000 488.794
25.15000 480.900
25.16000 472.973
25.17000 465.646
25.18000 458.836
25.19000 452.289
25.20000 457.937
25.21000 470.219
25.22000 481.612
25.23000 477.211
25.24000 466.996
25.25000 457.583
25.26000 467.314
25.27000 480.254
25.28000 490.519
25.29000 485.404
25.30000 477.835
25.31000 471.800
25.32000 471.525
25.33000 471.800
25.34000 472.000
25.35000 474.665
25.36000 476.806
25.37000 474.412
25.38000 464.281
25.39000 454.021
25.40000 452.434
25.41000 460.601
25.42000 468.748
25.43000 470.455
25.44000 467.520
25.45000 464.581
25.46000 461.482
25.47000 458.305
25.48000 455.276
25.49000 454.386
25.50000 454.198
25.51000 454.027
25.52000 456.817
25.53000 459.852
25.54000 462.118
25.55000 460.502
25.56000 458.347
25.57000 458.391
25.58000 465.778
25.59000 473.755
25.60000 479.345
25.61000 470.360
25.62000 463.146
25.63000 459.160
25.64000 460.071
25.65000 461.033
25.66000 460.032
25.67000 457.092
25.68000 454.173
25.69000 457.422
25.70000 464.526
25.71000 471.473
25.72000 474.484
25.73000 475.789
25.74000 476.423
25.75000 468.985
25.76000 459.185
25.77000 450.433
25.78000 458.844
25.79000 469.052
25.80000 477.612
25.81000 478.819
25.82000 479.145
25.83000 477.697
25.84000 470.971
25.85000 463.896
25.86000 459.124
25.87000 445.977
25.88000 436.019
25.89000 435.406
25.90000 447.372
25.91000 459.400
25.92000 467.323
25.93000 471.688
25.94000 476.003
25.95000 465.936
25.96000 448.071
25.97000 431.203
25.98000 433.879
25.99000 444.120
26.00000 453.430
26.01000 453.316
26.02000 450.750
26.03000 448.498
26.04000 450.078
26.05000 451.992
26.06000 452.005
26.07000 444.495
26.08000 436.213
26.09000 431.700
26.10000 437.197
26.11000 443.233
26.12000 447.138
26.13000 450.216
26.14000 452.456
26.15000 451.067
26.16000 445.360
26.17000 439.670
26.18000 439.563
26.19000 443.731
26.20000 447.827
26.21000 451.963
26.22000 455.982
26.23000 460.035
26.24000 464.645
26.25000 469.446
26.26000 473.346
26.27000 469.450
26.28000 463.753
26.29000 458.855
26.30000 457.986
26.31000 457.756
26.32000 458.413
26.33000 462.192
26.34000 466.241
26.35000 469.258
26.36000 469.823
26.37000 470.285
26.38000 470.570
26.39000 466.256
26.40000 463.114
26.41000 459.519
26.42000 455.450
26.43000 451.430
26.44000 452.716
26.45000 457.602
26.46000 462.372
26.47000 466.107
26.48000 469.230
26.49000 471.829
26.50000 467.618
26.51000 461.309
26.52000 455.993
26.53000 458.085
26.54000 461.689
26.55000 464.722
26.56000 456.795
26.57000 449.011
26.58000 444.757
26.59000 451.558
26.60000 459.160
26.61000 463.659
26.62000 461.586
26.63000 459.300
26.64000 457.955
26.65000 449.318
26.66000 443.187
26.67000 438.701
26.68000 435.724
26.69000 432.736
26.70000 428.971
26.71000 424.740
26.72000 420.641
26.73000 427.992
26.74000 439.353
26.75000 450.589
26.76000 460.453
26.77000 469.941
26.78000 477.872
26.79000 475.717
26.80000 471.751
26.81000 468.488
26.82000 472.603
26.83000 476.653
26.84000 475.400
26.85000 459.329
26.86000 442.379
26.87000 434.831
26.88000 445.057
26.89000 455.702
26.90000 461.642
26.91000 454.690
26.92000 449.855
26.93000 446.656
26.94000 444.779
26.95000 442.992
26.96000 445.130
26.97000 449.380
26.98000 453.456
26.99000 451.256
27.00000 447.068
27.01000 442.894
27.02000 438.851
27.03000 434.840
27.04000 432.242
27.05000 437.645
27.06000 444.306
27.07000 449.649
27.08000 447.431
27.09000 445.061
27.10000 444.223
27.11000 447.204
27.12000 450.367
27.13000 450.049
27.14000 443.867
27.15000 437.590
27.16000 434.289
27.17000 429.683
27.18000 426.571
27.19000 425.347
27.20000 425.473
27.21000 425.846
27.22000 434.171
27.23000 446.307
27.24000 457.830
27.25000 454.319
27.26000 446.577
27.27000 440.530
27.28000 447.973
27.29000 458.326
27.30000 464.509
27.31000 449.899
27.32000 432.444
27.33000 418.820
27.34000 429.066
27.35000 438.734
27.36000 443.515
27.37000 437.403
27.38000 430.891
27.39000 429.991
27.40000 437.500
27.41000 445.092
27.42000 448.469
27.43000 447.746
27.44000 447.000
27.45000 444.302
27.46000 440.364
27.47000 436.559
27.48000 435.964
27.49000 436.744
27.50000 437.476
27.51000 443.021
27.52000 449.342
27.53000 453.575
27.54000 443.419
27.55000 430.526
27.56000 421.044
27.57000 426.590
27.58000 433.911
27.59000 439.460
27.60000 440.955
27.61000 441.923
27.62000 440.130
27.63000 432.849
27.64000 425.417
27.65000 425.032
27.66000 434.011
27.67000 443.027
27.68000 446.834
27.69000 446.187
27.70000 445.515
27.71000 443.566
27.72000 440.894
27.73000 438.025
27.74000 431.389
27.75000 423.311
27.76000 415.832
27.77000 421.785
27.78000 430.242
27.79000 437.004
27.80000 433.572
27.81000 428.438
27.82000 424.790
27.83000 426.947
27.84000 429.690
27.85000 431.704
27.86000 430.885
27.87000 430.137
27.88000 429.145
27.89000 427.723
27.90000 426.292
27.91000 425.333
27.92000 424.929
27.93000 424.527
27.94000 426.313
27.95000 429.727
27.96000 432.935
27.97000 428.532
27.98000 420.290
27.99000 412.334
28.00000 408.796
28.01000 406.766
28.02000 404.914
28.03000 408.232
28.04000 412.222
28.05000 416.564
28.06000 422.762
28.07000 429.232
28.08000 433.980
28.09000 432.751
28.10000 431.012
28.11000 429.778
28.12000 429.556
28.13000 429.418
28.14000 429.426
28.15000 429.663
28.16000 429.903
28.17000 434.828
28.18000 444.590
28.19000 454.297
28.20000 453.372
28.21000 445.434
28.22000 437.624
28.23000 433.309
28.24000 430.568
28.25000 427.636
28.26000 422.263
28.27000 416.147
28.28000 410.654
28.29000 421.686
28.30000 434.251
28.31000 444.315
28.32000 442.742
28.33000 439.701
28.34000 436.877
28.35000 434.727
28.36000 432.624
28.37000 431.188
28.38000 426.663
28.39000 423.204
28.40000 422.059
28.41000 424.156
28.42000 426.272
28.43000 422.096
28.44000 412.226
28.45000 402.453
28.46000 408.905
28.47000 424.680
28.48000 439.731
28.49000 439.408
28.50000 432.903
28.51000 426.842
28.52000 425.551
28.53000 425.552
28.54000 425.552
28.55000 429.635
28.56000 433.782
28.57000 436.332
28.58000 432.304
28.59000 427.564
28.60000 423.490
28.61000 421.257
28.62000 419.131
28.63000 417.736
28.64000 414.511
28.65000 412.108
28.66000 411.542
28.67000 413.257
28.68000 414.986
28.69000 419.255
28.70000 425.550
28.71000 431.751
28.72000 428.564
28.73000 420.640
28.74000 413.570
28.75000 420.979
28.76000 433.588
28.77000 443.659
28.78000 430.606
28.79000 411.992
28.80000 395.876
28.81000 406.720
28.82000 419.497
28.83000 428.431
28.84000 423.307
28.85000 416.889
28.86000 414.070
28.87000 420.123
28.88000 426.586
28.89000 430.646
28.90000 414.744
28.91000 403.028
28.92000 397.490
28.93000 398.710
28.94000 399.953
28.95000 403.943
28.96000 409.875
28.97000 415.679
28.98000 415.701
28.99000 413.092
29.00000 410.752
29.01000 412.127
29.02000 414.694
29.03000 417.030
29.04000 417.568
29.05000 417.723
29.06000 417.854
29.07000 424.396
29.08000 430.604
29.09000 434.784
29.10000 432.356
29.11000 429.419
29.12000 426.679
29.13000 424.370
29.14000 422.077
29.15000 420.704
29.16000 409.060
29.17000 400.728
29.18000 398.510
29.19000 402.156
29.20000 405.813
29.21000 410.305
29.22000 415.321
29.23000 420.192
29.24000 420.882
29.25000 419.857
29.26000 419.309
29.27000 424.272
29.28000 430.807
29.29000 435.848
29.30000 430.741
29.31000 423.730
29.32000 417.918
29.33000 409.676
29.34000 402.636
29.35000 397.596
29.36000 398.367
29.37000 399.508
29.38000 402.468
29.39000 409.004
29.40000 415.634
29.41000 419.403
29.42000 419.199
29.43000 419.041
29.44000 416.966
29.45000 413.274
29.46000 409.530
29.47000 403.199
29.48000 395.421
29.49000 387.935
29.50000 388.193
29.51000 391.180
29.52000 394.478
29.53000 400.829
29.54000 407.954
29.55000 413.925
29.56000 413.052
29.57000 411.052
29.58000 409.434
29.59000 408.035
29.60000 406.913
29.61000 406.806
29.62000 409.329
29.63000 411.988
29.64000 415.800
29.65000 421.634
29.66000 427.505
29.67000 430.657
29.68000 414.122
29.69000 402.844
29.70000 397.719
29.71000 397.181
29.72000 396.762
29.73000 400.595
29.74000 406.546
29.75000 412.217
29.76000 413.351
29.77000 412.984
29.78000 412.817
29.79000 414.317
29.80000 416.192
29.81000 418.171
29.82000 420.689
29.83000 423.284
29.84000 425.329
29.85000 415.976
29.86000 407.714
29.87000 401.218
29.88000 398.808
29.89000 396.563
29.90000 401.325
29.91000 417.015
29.92000 432.834
29.93000 440.812
29.94000 426.752
29.95000 417.427
29.96000 415.415
29.97000 418.238
29.98000 421.126
29.99000 425.714
30.00000 431.059
30.01000 436.095
30.02000 436.408
30.03000 435.395
30.04000 433.682
30.05000 426.908
30.06000 419.129
30.07000 413.021
30.08000 414.586
30.09000 417.105
30.10000 419.033
30.11000 426.032
30.12000 431.836
30.13000 437.815
30.14000 444.158
30.15000 450.513
30.16000 452.465
30.17000 448.322
30.18000 444.142
30.19000 439.198
30.20000 433.577
30.21000 427.952
30.22000 422.114
30.23000 416.151
30.24000 410.602
30.25000 413.615
30.26000 420.029
30.27000 425.997
30.28000 421.250
30.29000 414.374
30.30000 408.184
30.31000 406.314
30.32000 405.199
30.33000 405.743
30.34000 413.034
30.35000 421.043
30.36000 426.989
30.37000 422.860
30.38000 419.209
30.39000 414.812
30.40000 409.041
30.41000 403.239
30.42000 400.955
30.43000 402.979
30.44000 405.009
30.45000 408.823
30.46000 414.016
30.47000 419.158
30.48000 422.223
30.49000 424.199
30.50000 425.777
30.51000 420.763
30.52000 413.411
30.53000 406.667
30.54000 411.805
30.55000 418.898
30.56000 424.043
30.57000 418.451
30.58000 411.220
30.59000 406.489
30.60000 410.789
30.61000 415.906
30.62000 419.580
30.63000 410.562
30.64000 403.228
30.65000 400.133
30.66000 404.002
30.67000 407.973
30.68000 411.092
30.69000 413.291
30.70000 415.480
30.71000 419.699
30.72000 425.274
30.73000 430.625
30.74000 429.225
30.75000 424.668
30.76000 420.748
30.77000 425.506
30.78000 433.010
30.79000 439.788
30.80000 434.482
30.81000 427.587
30.82000 422.715
30.83000 427.666
30.84000 433.920
30.85000 439.272
30.86000 441.723
30.87000 443.954
30.88000 445.499
30.89000 445.525
30.90000 445.504
30.91000 448.170
30.92000 454.757
30.93000 461.378
30.94000 465.495
30.95000 467.244
30.96000 468.979
30.97000 468.713
30.98000 467.234
30.99000 465.717
31.00000 463.318
31.01000 460.552
31.02000 458.942
31.03000 470.467
31.04000 485.693
31.05000 499.214
31.06000 518.099
31.07000 535.333
31.08000 552.659
31.09000 570.383
31.10000 588.154
31.11000 606.111
31.12000 624.603
31.13000 643.129
31.14000 655.459
31.15000 692.516
31.16000 720.402
31.17000 758.156
31.18000 808.679
31.19000 859.260
31.20000 913.124
31.21000 969.719
31.22000 1025.570
31.23000 1092.375
31.24000 1163.262
31.25000 1234.096
31.26000 1303.970
31.27000 1373.486
31.28000 1444.335
31.29000 1528.012
31.30000 1614.901
31.31000 1690.636
31.32000 1804.121
31.33000 1906.350
31.34000 1999.632
31.35000 2058.860
31.36000 2114.769
31.37000 2163.219
31.38000 2192.568
31.39000 2220.960
31.40000 2239.069
31.41000 2259.730
31.42000 2274.790
31.43000 2278.754
31.44000 2270.045
31.45000 2261.188
31.46000 2228.716
31.47000 2178.871
31.48000 2129.978
31.49000 2066.300
31.50000 1997.938
31.51000 1928.882
31.52000 1849.532
31.53000 1766.755
31.54000 1685.166
31.55000 1613.353
31.56000 1543.710
31.57000 1484.222
31.58000 1389.765
31.59000 1306.026
31.60000 1222.261
31.61000 1138.408
31.62000 1054.548
31.63000 982.787
31.64000 938.693
31.65000 895.682
31.66000 869.495
31.67000 791.219
31.68000 734.887
31.69000 691.204
31.70000 660.206
31.71000 629.253
31.72000 602.427
31.73000 578.295
31.74000 554.795
31.75000 546.458
31.76000 544.862
31.77000 541.942
31.78000 522.759
31.79000 498.749
31.80000 476.849
31.81000 469.972
31.82000 466.038
31.83000 462.750
31.84000 447.203
31.85000 433.052
31.86000 423.685
31.87000 428.758
31.88000 434.813
31.89000 435.704
31.90000 426.047
31.91000 416.079
31.92000 410.309
31.93000 415.380
31.94000 418.973
31.95000 414.969
31.96000 404.276
31.97000 393.821
31.98000 397.079
31.99000 408.303
32.00000 419.142
32.01000 418.708
32.02000 414.132
32.03000 409.490
32.04000 404.173
32.05000 398.678
32.06000 394.058
32.07000 394.863
32.08000 396.603
32.09000 398.023
32.10000 388.817
32.11000 380.377
32.12000 375.667
32.13000 381.004
32.14000 386.897
32.15000 390.440
32.16000 389.702
32.17000 388.873
32.18000 388.419
32.19000 387.788
32.20000 387.367
32.21000 390.452
32.22000 396.258
32.23000 401.898
32.24000 400.904
32.25000 396.475
32.26000 392.239
32.27000 390.253
32.28000 389.139
32.29000 388.336
32.30000 390.280
32.31000 392.868
32.32000 395.479
32.33000 398.214
32.34000 400.968
32.35000 403.158
32.36000 394.411
32.37000 386.581
32.38000 382.510
32.39000 387.480
32.40000 392.847
32.41000 396.530
32.42000 397.481
32.43000 398.394
32.44000 398.865
32.45000 394.308
32.46000 391.256
32.47000 390.386
32.48000 391.019
32.49000 391.643
32.50000 392.007
32.51000 392.250
32.52000 392.480
32.53000 385.376
32.54000 376.739
32.55000 369.475
32.56000 372.632
32.57000 377.948
32.58000 382.537
32.59000 383.646
32.60000 384.301
32.61000 384.808
32.62000 383.082
32.63000 381.581
32.64000 380.039
32.65000 378.408
32.66000 376.775
32.67000 375.544
32.68000 374.893
32.69000 374.246
32.70000 375.514
32.71000 378.564
32.72000 381.580
32.73000 382.165
32.74000 381.261
32.75000 380.056
32.76000 372.082
32.77000 361.314
32.78000 351.252
32.79000 358.937
32.80000 370.392
32.81000 381.005
32.82000 386.071
32.83000 390.126
32.84000 391.133
32.85000 379.233
32.86000 365.884
32.87000 355.867
32.88000 362.366
32.89000 368.229
32.90000 373.011
32.91000 375.719
32.92000 378.376
32.93000 380.366
32.94000 381.504
32.95000 382.637
32.96000 381.745
32.97000 379.200
32.98000 376.721
32.99000 377.345
33.00000 379.660
33.01000 382.283
33.02000 390.394
33.03000 400.527
33.04000 409.868
33.05000 405.602
33.06000 398.770
33.07000 393.204
33.08000 394.924
33.09000 397.810
33.10000 398.607
33.11000 391.555
33.12000 383.751
33.13000 378.083
33.14000 373.114
33.15000 369.318
33.16000 368.474
33.17000 372.672
33.18000 376.955
33.19000 375.931
33.20000 368.929
33.21000 361.946
33.22000 359.513
33.23000 360.377
33.24000 361.286
33.25000 363.695
33.26000 366.834
33.27000 369.329
33.28000 362.473
33.29000 352.542
33.30000 343.523
33.31000 344.305
33.32000 346.891
33.33000 348.801
33.34000 347.291
33.35000 345.304
33.36000 344.677
33.37000 348.599
33.38000 352.886
33.39000 355.892
33.40000 353.045
33.41000 350.721
33.42000 351.358
33.43000 356.492
33.44000 361.674
33.45000 363.252
33.46000 361.267
33.47000 359.296
33.48000 352.419
33.49000 342.535
33.50000 333.112
33.51000 335.269
33.52000 342.453
33.53000 348.902
33.54000 346.493
33.55000 341.486
33.56000 337.014
33.57000 339.391
33.58000 342.614
33.59000 345.209
33.60000 344.992
33.61000 344.437
33.62000 343.997
33.63000 343.900
33.64000 343.827
33.65000 343.777
33.66000 348.350
33.67000 351.851
33.68000 352.912
33.69000 350.681
33.70000 348.431
33.71000 344.592
33.72000 339.372
33.73000 334.212
33.74000 334.363
33.75000 337.484
33.76000 340.383
33.77000 338.923
33.78000 335.773
33.79000 333.215
33.80000 336.677
33.81000 341.707
33.82000 346.120
33.83000 345.006
33.84000 343.244
33.85000 340.705
33.86000 335.095
33.87000 329.167
33.88000 328.108
33.89000 340.002
33.90000 352.595
33.91000 360.747
33.92000 352.394
33.93000 346.040
33.94000 345.066
33.95000 350.507
33.96000 355.936
33.97000 355.902
33.98000 351.679
33.99000 347.527
34.00000 350.432
34.01000 356.730
34.02000 362.287
34.03000 356.087
34.04000 345.817
34.05000 336.675
34.06000 337.312
34.07000 340.211
34.08000 342.705
34.09000 345.380
34.10000 347.668
34.11000 350.595
34.12000 355.772
34.13000 361.145
34.14000 365.010
34.15000 365.295
34.16000 365.427
34.17000 365.508
34.18000 351.101
34.19000 340.608
34.20000 337.227
34.21000 341.305
34.22000 345.411
34.23000 352.544
34.24000 361.733
34.25000 370.705
34.26000 368.758
34.27000 362.125
34.28000 355.717
34.29000 352.236
34.30000 349.658
34.31000 347.603
34.32000 349.446
34.33000 352.087
34.34000 354.310
34.35000 361.331
34.36000 367.703
34.37000 371.598
34.38000 367.724
34.39000 363.286
34.40000 360.265
34.41000 360.250
34.42000 360.333
34.43000 360.382
34.44000 355.636
34.45000 352.262
34.46000 351.930
34.47000 354.392
34.48000 356.847
34.49000 358.755
34.50000 360.332
34.51000 361.860
34.52000 363.810
34.53000 365.818
34.54000 367.483
34.55000 365.383
34.56000 362.250
34.57000 359.141
34.58000 356.195
34.59000 353.279
34.60000 350.880
34.61000 350.255
34.62000 349.903
34.63000 350.064
34.64000 351.661
34.65000 353.344
34.66000 352.392
34.67000 346.453
34.68000 340.395
34.69000 337.012
34.70000 348.690
34.71000 356.785
34.72000 356.506
34.73000 349.443
34.74000 342.509
34.75000 341.307
34.76000 343.191
34.77000 344.999
34.78000 344.549
34.79000 343.361
34.80000 341.813
34.81000 336.931
34.82000 331.234
34.83000 326.071
34.84000 323.937
34.85000 322.281
34.86000 320.952
34.87000 323.803
34.88000 326.429
34.89000 329.832
34.90000 335.177
34.91000 340.615
34.92000 343.028
34.93000 340.339
34.94000 337.568
34.95000 336.109
34.96000 332.868
34.97000 330.682
34.98000 330.352
34.99000 331.353
35.00000 332.314
35.01000 331.990
35.02000 331.048
35.03000 330.154
35.04000 328.384
35.05000 326.487
35.06000 324.350
35.07000 320.302
35.08000 315.841
35.09000 313.278
35.10000 320.197
35.11000 328.416
35.12000 334.834
35.13000 327.360
35.14000 320.524
35.15000 316.923
35.16000 320.541
35.17000 324.426
35.18000 322.804
35.19000 312.916
35.20000 302.946
35.21000 303.238
35.22000 313.530
35.23000 323.753
35.24000 328.293
35.25000 329.215
35.26000 329.932
35.27000 325.639
35.28000 319.199
35.29000 313.154
35.30000 314.217
35.31000 317.061
35.32000 319.118
35.33000 315.735
35.34000 311.315
35.35000 308.137
35.36000 310.438
35.37000 313.387
35.38000 315.623
35.39000 313.120
35.40000 310.912
35.41000 310.666
35.42000 314.329
35.43000 318.100
35.44000 318.872
35.45000 315.654
35.46000 312.418
35.47000 310.995
35.48000 311.125
35.49000 311.252
35.50000 311.228
35.51000 311.120
35.52000 311.066
35.53000 312.063
35.54000 313.462
35.55000 314.758
35.56000 310.884
35.57000 306.203
35.58000 302.414
35.59000 304.004
35.60000 306.493
35.61000 308.959
35.62000 311.331
35.63000 313.694
35.64000 315.430
35.65000 317.576
35.66000 319.253
35.67000 318.885
35.68000 314.886
35.69000 310.816
35.70000 307.778
35.71000 305.955
35.72000 304.138
35.73000 304.567
35.74000 306.681
35.75000 308.692
35.76000 306.864
35.77000 303.096
35.78000 299.703
35.79000 302.132
35.80000 306.552
35.81000 310.586
35.82000 302.255
35.83000 292.358
35.84000 284.242
35.85000 285.541
35.86000 288.214
35.87000 291.313
35.88000 295.891
35.89000 300.595
35.90000 303.934
35.91000 298.196
35.92000 293.543
35.93000 295.512
35.94000 307.955
35.95000 320.530
35.96000 324.271
35.97000 318.879
35.98000 313.517
35.99000 309.923
36.00000 307.547
36.01000 305.297
36.02000 306.536
36.03000 309.347
36.04000 311.804
36.05000 309.716
36.06000 306.241
36.07000 303.120
36.08000 311.866
36.09000 321.615
36.10000 328.646
36.11000 323.010
36.12000 315.771
36.13000 310.624
36.14000 311.956
36.15000 313.750
36.16000 314.977
36.17000 305.226
36.18000 297.669
36.19000 294.086
36.20000 296.085
36.21000 298.121
36.22000 297.096
36.23000 293.295
36.24000 289.531
36.25000 292.841
36.26000 300.214
36.27000 307.308
36.28000 308.460
36.29000 307.219
36.30000 306.045
36.31000 305.590
36.32000 305.330
36.33000 305.100
36.34000 307.724
36.35000 310.426
36.36000 311.440
36.37000 305.493
36.38000 298.789
36.39000 294.813
36.40000 298.380
36.41000 302.387
36.42000 305.018
36.43000 306.123
36.44000 306.911
36.45000 304.462
36.46000 297.988
36.47000 291.523
36.48000 291.987
36.49000 297.990
36.50000 303.903
36.51000 301.115
36.52000 293.924
36.53000 287.313
36.54000 290.586
36.55000 297.413
36.56000 303.535
36.57000 303.208
36.58000 301.327
36.59000 299.699
36.60000 296.205
36.61000 292.986
36.62000 290.834
36.63000 292.591
36.64000 294.710
36.65000 297.373
36.66000 301.382
36.67000 305.453
36.68000 308.013
36.69000 299.321
36.70000 292.911
36.71000 291.020
36.72000 294.082
36.73000 297.139
36.74000 299.233
36.75000 300.646
36.76000 302.029
36.77000 300.089
36.78000 296.713
36.79000 293.606
36.80000 294.247
36.81000 296.091
36.82000 298.276
36.83000 303.133
36.84000 308.561
36.85000 313.165
36.86000 302.699
36.87000 292.219
36.88000 285.166
36.89000 289.294
36.90000 294.288
36.91000 298.091
36.92000 299.272
36.93000 300.359
36.94000 301.010
36.95000 308.383
36.96000 313.663
36.97000 312.765
36.98000 305.932
36.99000 299.186
37.00000 299.224
37.01000 303.526
37.02000 307.705
37.03000 308.483
37.04000 307.854
37.05000 307.488
37.06000 310.175
37.07000 313.736
37.08000 317.053
37.09000 318.716
37.10000 320.067
37.11000 321.188
37.12000 307.035
37.13000 293.872
37.14000 285.958
37.15000 293.308
37.16000 301.632
37.17000 305.013
37.18000 298.665
37.19000 292.059
37.20000 288.301
37.21000 298.898
37.22000 306.317
37.23000 307.164
37.24000 302.456
37.25000 297.864
37.26000 299.088
37.27000 303.567
37.28000 307.879
37.29000 301.510
37.30000 291.738
37.31000 282.910
37.32000 283.332
37.33000 286.106
37.34000 289.385
37.35000 295.666
37.36000 302.443
37.37000 307.928
37.38000 301.582
37.39000 295.460
37.40000 292.714
37.41000 298.735
37.42000 305.208
37.43000 306.645
37.44000 299.245
37.45000 291.682
37.46000 287.617
37.47000 289.839
37.48000 291.371
37.49000 294.369
37.50000 298.463
37.51000 302.514
37.52000 305.035
37.53000 306.792
37.54000 308.468
37.55000 304.494
37.56000 299.042
37.57000 294.337
37.58000 295.901
37.59000 298.877
37.60000 300.950
37.61000 298.312
37.62000 294.998
37.63000 292.385
37.64000 295.298
37.65000 298.005
37.66000 297.208
37.67000 288.286
37.68000 279.036
37.69000 276.346
37.70000 283.905
37.71000 291.584
37.72000 295.461
37.73000 300.536
37.74000 303.831
37.75000 297.282
37.76000 284.213
37.77000 271.602
37.78000 271.225
37.79000 276.300
37.80000 281.082
37.81000 286.983
37.82000 292.693
37.83000 296.997
37.84000 291.112
37.85000 283.200
37.86000 276.949
37.87000 278.344
37.88000 280.690
37.89000 282.487
37.90000 281.437
37.91000 280.451
37.92000 281.411
37.93000 286.399
37.94000 291.510
37.95000 294.546
37.96000 294.703
37.97000 294.842
37.98000 294.283
37.99000 293.101
38.00000 291.873
38.01000 287.808
38.02000 282.072
38.03000 276.876
38.04000 282.904
38.05000 293.399
38.06000 303.163
38.07000 295.638
38.08000 284.653
38.09000 276.365
38.10000 285.078
38.11000 296.765
38.12000 305.782
38.13000 303.919
38.14000 300.895
38.15000 298.649
38.16000 300.548
38.17000 302.207
38.18000 302.335
38.19000 299.631
38.20000 296.866
38.21000 295.274
38.22000 295.122
38.23000 294.974
38.24000 294.449
38.25000 293.632
38.26000 292.958
38.27000 298.278
38.28000 306.745
38.29000 314.639
38.30000 313.019
38.31000 308.019
38.32000 303.431
38.33000 309.185
38.34000 316.507
38.35000 322.687
38.36000 322.556
38.37000 321.460
38.38000 323.703
38.39000 338.030
38.40000 353.452
38.41000 364.529
38.42000 357.775
38.43000 351.993
38.44000 349.054
38.45000 350.795
38.46000 352.605
38.47000 359.697
38.48000 372.498
38.49000 385.243
38.50000 401.894
38.51000 421.067
38.52000 440.290
38.53000 461.037
38.54000 482.499
38.55000 504.133
38.56000 528.112
38.57000 552.835
38.58000 575.169
38.59000 608.575
38.60000 639.997
38.61000 672.108
38.62000 707.567
38.63000 743.470
38.64000 779.455
38.65000 815.704
38.66000 851.973
38.67000 877.096
38.68000 915.853
38.69000 945.380
38.70000 975.856
38.71000 1007.723
38.72000 1039.600
38.73000 1057.350
38.74000 1061.715
38.75000 1066.044
38.76000 1077.924
38.77000 1094.189
38.78000 1109.748
38.79000 1108.977
38.80000 1101.371
38.81000 1093.069
38.82000 1076.845
38.83000 1058.384
38.84000 1041.987
38.85000 1019.821
38.86000 999.673
38.87000 977.830
38.88000 948.697
38.89000 918.729
38.90000 884.105
38.91000 836.103
38.92000 787.266
38.93000 754.740
38.94000 713.954
38.95000 683.611
38.96000 653.718
38.97000 624.406
38.98000 595.097
38.99000 565.422
39.00000 535.443
39.01000 505.856
39.02000 480.583
39.03000 458.308
39.04000 436.215
39.05000 417.429
39.06000 399.880
39.07000 382.616
39.08000 368.100
39.09000 354.274
39.10000 342.219
39.11000 334.878
39.12000 329.258
39.13000 323.428
39.14000 316.794
39.15000 310.082
39.16000 304.223
39.17000 300.553
39.18000 296.993
39.19000 294.721
39.20000 287.766
39.21000 282.645
39.22000 282.624
39.23000 288.438
39.24000 294.241
39.25000 296.885
39.26000 297.199
39.27000 297.508
39.28000 297.783
39.29000 298.033
39.30000 298.027
39.31000 294.213
39.32000 289.130
39.33000 284.836
39.34000 287.049
39.35000 290.709
39.36000 293.837
39.37000 290.928
39.38000 287.757
39.39000 284.991
39.40000 283.604
39.41000 282.330
39.42000 280.436
39.43000 277.118
39.44000 273.744
39.45000 271.688
39.46000 276.521
39.47000 280.029
39.48000 279.966
39.49000 276.316
39.50000 272.748
39.51000 276.895
39.52000 286.089
39.53000 295.042
39.54000 291.845
39.55000 283.698
39.56000 275.806
39.57000 271.070
39.58000 267.271
39.59000 263.957
39.60000 264.098
39.61000 264.917
39.62000 265.603
39.63000 271.532
39.64000 276.988
39.65000 280.520
39.66000 278.233
39.67000 275.548
39.68000 273.667
39.69000 273.431
39.70000 273.244
39.71000 273.135
39.72000 272.301
39.73000 271.714
39.74000 271.267
39.75000 270.944
39.76000 270.609
39.77000 269.497
39.78000 267.935
39.79000 266.425
39.80000 270.897
39.81000 277.327
39.82000 282.932
39.83000 279.992
39.84000 274.791
39.85000 270.665
39.86000 273.211
39.87000 276.908
39.88000 279.925
39.89000 277.455
39.90000 274.963
39.91000 272.687
39.92000 270.995
39.93000 269.336
39.94000 269.850
39.95000 274.329
39.96000 278.893
39.97000 281.394
39.98000 272.653
39.99000 266.634
40.00000 263.535
40.01000 262.708
40.02000 261.906
40.03000 262.083
40.04000 262.769
40.05000 263.425
40.06000 262.113
40.07000 260.248
40.08000 258.644
40.09000 259.339
40.10000 260.574
40.11000 261.396
40.12000 259.970
40.13000 258.205
40.14000 256.801
40.15000 255.381
40.16000 254.236
40.17000 254.805
40.18000 259.507
40.19000 264.391
40.20000 267.564
40.21000 267.955
40.22000 268.307
40.23000 268.488
40.24000 259.737
40.25000 253.866
40.26000 251.103
40.27000 250.484
40.28000 249.817
40.29000 247.751
40.30000 245.037
40.31000 242.470
40.32000 249.824
40.33000 259.442
40.34000 267.951
40.35000 268.034
40.36000 266.367
40.37000 263.430
40.38000 254.407
40.39000 244.586
40.40000 236.988
40.41000 240.329
40.42000 243.626
40.43000 247.078
40.44000 250.864
40.45000 254.662
40.46000 257.896
40.47000 260.319
40.48000 262.734
40.49000 265.332
40.50000 268.101
40.51000 270.787
40.52000 267.580
40.53000 260.761
40.54000 254.265
40.55000 255.008
40.56000 258.744
40.57000 262.236
40.58000 257.890
40.59000 251.962
40.60000 246.652
40.61000 245.417
40.62000 244.928
40.63000 243.864
40.64000 240.361
40.65000 236.582
40.66000 233.746
40.67000 239.250
40.68000 243.949
40.69000 246.851
40.70000 246.304
40.71000 245.671
40.72000 244.670
40.73000 243.198
40.74000 241.725
40.75000 240.776
40.76000 240.260
40.77000 239.816
40.78000 242.800
40.79000 247.655
40.80000 252.195
40.81000 251.101
40.82000 247.927
40.83000 245.001
40.84000 245.264
40.85000 246.208
40.86000 247.944
40.87000 254.256
40.88000 261.300
40.89000 265.447
40.90000 258.679
40.91000 250.864
40.92000 245.186
40.93000 243.202
40.94000 241.815
40.95000 240.775
40.96000 240.330
40.97000 239.896
40.98000 243.883
40.99000 252.862
41.00000 261.815
41.01000 266.331
41.02000 267.608
41.03000 268.720
41.04000 264.292
41.05000 257.164
41.06000 250.277
41.07000 246.893
41.08000 244.663
41.09000 242.637
41.10000 242.516
41.11000 242.777
41.12000 242.817
41.13000 241.728
41.14000 240.482
41.15000 239.267
41.16000 238.155
41.17000 237.051
41.18000 236.276
41.19000 239.389
41.20000 241.857
41.21000 243.089
41.22000 242.438
41.23000 241.768
41.24000 245.386
41.25000 253.250
41.26000 261.061
41.27000 261.592
41.28000 257.486
41.29000 253.404
41.30000 249.904
41.31000 246.656
41.32000 243.419
41.33000 240.312
41.34000 237.243
41.35000 234.501
41.36000 232.720
41.37000 231.331
41.38000 231.368
41.39000 237.794
41.40000 244.990
41.41000 250.595
41.42000 251.448
41.43000 251.984
41.44000 252.346
41.45000 249.005
41.46000 246.439
41.47000 243.327
41.48000 239.477
41.49000 235.629
41.50000 236.652
41.51000 241.912
41.52000 247.112
41.53000 250.504
41.54000 252.800
41.55000 254.828
41.56000 251.565
41.57000 246.246
41.58000 241.277
41.59000 239.869
41.60000 239.391
41.61000 238.972
41.62000 242.517
41.63000 246.141
41.64000 247.898
41.65000 242.239
41.66000 235.816
41.67000 232.180
41.68000 235.972
41.69000 240.167
41.70000 242.885
41.71000 245.035
41.72000 246.601
41.73000 247.830
41.74000 248.657
41.75000 249.487
41.76000 250.957
41.77000 252.918
41.78000 254.846
41.79000 253.682
41.80000 251.023
41.81000 248.298
41.82000 244.518
41.83000 240.371
41.84000 236.989
41.85000 240.242
41.86000 245.033
41.87000 249.155
41.88000 250.514
41.89000 251.317
41.90000 250.684
41.91000 244.986
41.92000 238.846
41.93000 235.000
41.94000 236.614
41.95000 238.461
41.96000 239.605
41.97000 244.004
41.98000 247.198
41.99000 247.296
42.00000 244.141
42.01000 241.015
42.02000 241.213
42.03000 243.673
42.04000 246.075
42.05000 250.885
42.06000 256.543
42.07000 261.601
42.08000 258.805
42.09000 253.581
42.10000 248.611
42.11000 245.543
42.12000 242.864
42.13000 240.608
42.14000 245.133
42.15000 249.639
42.16000 252.579
42.17000 250.600
42.18000 248.263
42.19000 244.621
42.20000 238.204
42.21000 231.696
42.22000 227.859
42.23000 236.841
42.24000 243.248
42.25000 247.593
42.26000 250.037
42.27000 252.393
42.28000 248.830
42.29000 241.685
42.30000 234.764
42.31000 231.317
42.32000 229.399
42.33000 227.564
42.34000 226.651
42.35000 225.992
42.36000 226.694
42.37000 236.257
42.38000 247.418
42.39000 256.604
42.40000 251.889
42.41000 246.747
42.42000 242.677
42.43000 241.610
42.44000 240.723
42.45000 241.588
42.46000 245.777
42.47000 250.045
42.48000 252.431
42.49000 242.671
42.50000 235.893
42.51000 232.079
42.52000 230.671
42.53000 229.385
42.54000 233.603
42.55000 240.789
42.56000 247.686
42.57000 247.322
42.58000 244.506
42.59000 241.878
42.60000 240.999
42.61000 240.549
42.62000 241.048
42.63000 246.952
42.64000 253.710
42.65000 259.134
42.66000 244.297
42.67000 230.731
42.68000 222.175
42.69000 226.154
42.70000 230.733
42.71000 232.252
42.72000 228.598
42.73000 224.860
42.74000 222.890
42.75000 229.208
42.76000 233.468
42.77000 233.201
42.78000 229.682
42.79000 226.258
42.80000 225.926
42.81000 227.082
42.82000 228.179
42.83000 229.630
42.84000 231.076
42.85000 233.225
42.86000 240.986
42.87000 249.962
42.88000 256.859
42.89000 253.353
42.90000 248.418
42.91000 244.563
42.92000 242.438
42.93000 240.851
42.94000 237.857
42.95000 231.719
42.96000 225.463
42.97000 220.333
42.98000 216.894
42.99000 213.473
43.00000 216.091
43.01000 224.607
43.02000 233.100
43.03000 239.690
43.04000 245.066
43.05000 250.191
43.06000 249.159
43.07000 245.482
43.08000 242.031
43.09000 237.078
43.10000 232.166
43.11000 227.911
43.12000 228.203
43.13000 229.362
43.14000 230.175
43.15000 229.458
43.16000 228.560
43.17000 227.878
43.18000 227.531
43.19000 227.276
43.20000 226.483
43.21000 224.617
43.22000 222.721
43.23000 221.783
43.24000 222.122
43.25000 222.468
43.26000 222.853
43.27000 223.272
43.28000 223.670
43.29000 222.911
43.30000 221.495
43.31000 220.271
43.32000 222.743
43.33000 226.634
43.34000 230.238
43.35000 226.948
43.36000 222.388
43.37000 218.624
43.38000 219.658
43.39000 221.497
43.40000 222.421
43.41000 219.760
43.42000 216.735
43.43000 214.512
43.44000 226.102
43.45000 235.630
43.46000 237.900
43.47000 227.252
43.48000 216.351
43.49000 213.522
43.50000 220.202
43.51000 226.881
43.52000 226.913
43.53000 221.939
43.54000 217.113
43.55000 217.773
43.56000 221.210
43.57000 224.621
43.58000 227.619
43.59000 230.476
43.60000 233.085
43.61000 226.561
43.62000 218.918
43.63000 213.642
43.64000 220.904
43.65000 230.001
43.66000 237.067
43.67000 237.062
43.68000 236.451
43.69000 236.017
43.70000 238.750
43.71000 240.931
43.72000 241.110
43.73000 238.118
43.74000 235.086
43.75000 232.738
43.76000 231.098
43.77000 229.467
43.78000 228.746
43.79000 228.639
43.80000 228.465
43.81000 226.449
43.82000 223.601
43.83000 221.084
43.84000 222.808
43.85000 225.828
43.86000 228.542
43.87000 220.661
43.88000 211.889
43.89000 205.308
43.90000 208.965
43.91000 213.919
43.92000 218.464
43.93000 221.736
43.94000 224.917
43.95000 227.093
43.96000 226.797
43.97000 226.516
43.98000 225.880
43.99000 224.743
44.00000 223.603
44.01000 222.339
44.02000 220.964
44.03000 219.602
44.04000 219.422
44.05000 219.939
44.06000 220.538
44.07000 222.917
44.08000 226.012
44.09000 228.444
44.10000 223.715
44.11000 217.039
44.12000 211.145
44.13000 216.021
44.14000 221.884
44.15000 226.606
44.16000 226.618
44.17000 226.117
44.18000 225.046
44.19000 222.397
44.20000 219.656
44.21000 217.855
44.22000 222.335
44.23000 225.738
44.24000 226.628
44.25000 224.385
44.26000 222.145
44.27000 223.928
44.28000 228.930
44.29000 233.858
44.30000 230.681
44.31000 223.410
44.32000 216.525
44.33000 216.233
44.34000 218.316
44.35000 220.407
44.36000 222.569
44.37000 224.749
44.38000 226.637
44.39000 229.921
44.40000 232.900
44.41000 233.871
44.42000 227.470
44.43000 220.387
44.44000 216.836
44.45000 222.019
44.46000 227.608
44.47000 231.124
44.48000 223.310
44.49000 217.531
44.50000 215.694
44.51000 218.186
44.52000 220.685
44.53000 223.941
44.54000 227.732
44.55000 231.443
44.56000 231.788
44.57000 230.583
44.58000 229.353
44.59000 227.781
44.60000 226.098
44.61000 224.876
44.62000 227.284
44.63000 230.466
44.64000 233.167
44.65000 240.236
44.66000 246.661
44.67000 250.260
44.68000 244.629
44.69000 238.281
44.70000 233.815
44.71000 233.508
44.72000 233.350
44.73000 233.256
44.74000 233.175
44.75000 233.119
44.76000 233.667
44.77000 234.798
44.78000 235.964
44.79000 239.836
44.80000 245.414
44.81000 250.832
44.82000 253.388
44.83000 254.661
44.84000 255.878
44.85000 256.441
44.86000 256.817
44.87000 256.423
44.88000 250.783
44.89000 244.155
44.90000 238.656
44.91000 247.559
44.92000 256.306
44.93000 262.473
44.94000 261.123
44.95000 259.292
44.96000 260.920
44.97000 269.368
44.98000 277.998
44.99000 282.912
45.00000 274.846
45.01000 269.198
45.02000 273.136
45.03000 285.189
45.04000 297.063
45.05000 299.833
45.06000 297.499
45.07000 295.251
45.08000 292.789
45.09000 290.401
45.10000 288.620
45.11000 292.808
45.12000 298.516
45.13000 303.987
45.14000 308.054
45.15000 311.888
45.16000 314.993
45.17000 306.171
45.18000 298.021
45.19000 292.292
45.20000 292.858
45.21000 293.750
45.22000 294.187
45.23000 293.824
45.24000 293.446
45.25000 293.242
45.26000 293.295
45.27000 293.317
45.28000 290.492
45.29000 285.538
45.30000 280.594
45.31000 275.996
45.32000 271.571
45.33000 267.354
45.34000 267.600
45.35000 269.230
45.36000 270.313
45.37000 266.802
45.38000 262.255
45.39000 257.503
45.40000 251.682
45.41000 245.707
45.42000 240.995
45.43000 243.412
45.44000 245.831
45.45000 246.504
45.46000 243.119
45.47000 239.571
45.48000 235.741
45.49000 231.471
45.50000 227.197
45.51000 225.037
45.52000 230.643
45.53000 234.341
45.54000 232.807
45.55000 227.801
45.56000 222.954
45.57000 222.336
45.58000 223.607
45.59000 224.804
45.60000 225.146
45.61000 225.223
45.62000 224.714
45.63000 219.945
45.64000 214.328
45.65000 209.897
45.66000 210.929
45.67000 212.642
45.68000 213.955
45.69000 220.363
45.70000 225.705
45.71000 228.053
45.72000 224.194
45.73000 220.144
45.74000 217.379
45.75000 216.401
45.76000 215.435
45.77000 214.451
45.78000 213.452
45.79000 212.481
45.80000 213.213
45.81000 214.949
45.82000 216.570
45.83000 215.784
45.84000 214.038
45.85000 212.413
45.86000 209.769
45.87000 207.133
45.88000 204.980
45.89000 205.880
45.90000 207.316
45.91000 208.418
45.92000 208.157
45.93000 207.751
45.94000 207.449
45.95000 203.924
45.96000 201.041
45.97000 198.630
45.98000 197.092
45.99000 195.574
46.00000 197.208
46.01000 202.716
46.02000 208.223
46.03000 209.497
46.04000 207.434
46.05000 205.430
46.06000 205.856
46.07000 207.560
46.08000 209.065
46.09000 207.234
46.10000 204.216
46.11000 201.447
46.12000 204.144
46.13000 207.709
46.14000 211.055
46.15000 213.187
46.16000 215.133
46.17000 215.608
46.18000 210.751
46.19000 205.410
46.20000 201.572
46.21000 201.420
46.22000 201.432
46.23000 201.948
46.24000 203.296
46.25000 204.657
46.26000 206.544
46.27000 209.003
46.28000 211.451
46.29000 209.024
46.30000 203.250
46.31000 197.724
46.32000 199.744
46.33000 205.306
46.34000 210.256
46.35000 206.818
46.36000 200.717
46.37000 195.204
46.38000 200.356
46.39000 206.865
46.40000 211.621
46.41000 207.845
46.42000 202.933
46.43000 199.841
46.44000 202.626
46.45000 205.857
46.46000 208.097
46.47000 203.339
46.48000 199.573
46.49000 198.470
46.50000 201.268
46.51000 204.100
46.52000 204.078
46.53000 201.347
46.54000 198.639
46.55000 200.485
46.56000 205.078
46.57000 209.532
46.58000 210.744
46.59000 210.597
46.60000 210.454
46.61000 210.342
46.62000 210.240
46.63000 210.149
46.64000 203.429
46.65000 196.534
46.66000 192.050
46.67000 197.955
46.68000 205.051
46.69000 210.179
46.70000 209.642
46.71000 208.749
46.72000 208.154
46.73000 200.791
46.74000 195.211
46.75000 193.028
46.76000 195.257
46.77000 197.508
46.78000 201.697
46.79000 207.504
46.80000 213.236
46.81000 213.653
46.82000 211.195
46.83000 208.813
46.84000 207.831
46.85000 207.372
46.86000 206.493
46.87000 201.541
46.88000 195.567
46.89000 190.356
46.90000 194.237
46.91000 198.823
46.92000 203.326
46.93000 207.517
46.94000 211.677
46.95000 213.587
46.96000 209.715
46.97000 205.552
46.98000 202.893
46.99000 200.031
47.00000 197.947
47.01000 201.174
47.02000 210.493
47.03000 219.765
47.04000 219.399
47.05000 211.916
47.06000 204.575
47.07000 200.301
47.08000 197.642
47.09000 195.386
47.10000 199.131
47.11000 204.883
47.12000 210.408
47.13000 214.065
47.14000 217.305
47.15000 220.075
47.16000 214.921
47.17000 209.628
47.18000 204.361
47.19000 199.179
47.20000 194.003
47.21000 190.764
47.22000 191.965
47.23000 193.341
47.24000 194.180
47.25000 196.333
47.26000 197.882
47.27000 197.379
47.28000 194.811
47.29000 192.242
47.30000 189.682
47.31000 187.127
47.32000 184.638
47.33000 186.083
47.34000 189.114
47.35000 191.962
47.36000 192.561
47.37000 192.490
47.38000 191.813
47.39000 186.813
47.40000 180.962
47.41000 176.069
47.42000 178.018
47.43000 180.335
47.44000 182.230
47.45000 182.852
47.46000 183.387
47.47000 183.860
47.48000 184.207
47.49000 184.550
47.50000 184.749
47.51000 185.665
47.52000 186.312
47.53000 188.512
47.54000 192.085
47.55000 195.586
47.56000 194.859
47.57000 191.668
47.58000 188.585
47.59000 184.412
47.60000 180.074
47.61000 176.353
47.62000 179.055
47.63000 183.458
47.64000 187.918
47.65000 192.726
47.66000 197.594
47.67000 201.570
47.68000 197.684
47.69000 193.828
47.70000 189.802
47.71000 185.315
47.72000 180.804
47.73000 178.308
47.74000 179.499
47.75000 180.768
47.76000 181.464
47.77000 179.412
47.78000 178.011
47.79000 180.724
47.80000 186.643
47.81000 192.451
47.82000 193.763
47.83000 192.739
47.84000 191.759
47.85000 186.895
47.86000 181.094
47.87000 175.594
47.88000 172.771
47.89000 170.577
47.90000 168.946
47.91000 170.384
47.92000 172.285
47.93000 173.799
47.94000 174.524
47.95000 175.052
47.96000 176.625
47.97000 180.722
47.98000 184.931
47.99000 187.530
48.00000 187.510
48.01000 187.454
48.02000 187.424
48.03000 189.001
48.04000 190.044
48.05000 188.762
48.06000 185.872
48.07000 183.019
48.08000 181.231
48.09000 179.936
48.10000 178.712
48.11000 183.949
48.12000 190.628
48.13000 196.279
48.14000 194.095
48.15000 190.282
48.16000 186.944
48.17000 185.885
48.18000 185.126
48.19000 184.538
48.20000 190.049
48.21000 194.784
48.22000 196.404
48.23000 191.310
48.24000 185.988
48.25000 182.367
48.26000 181.207
48.27000 180.067
48.28000 177.341
48.29000 173.132
48.30000 169.037
48.31000 173.037
48.32000 182.007
48.33000 190.597
48.34000 190.604
48.35000 187.054
48.36000 183.737
48.37000 185.124
48.38000 187.576
48.39000 189.586
48.40000 188.677
48.41000 187.234
48.42000 185.686
48.43000 183.693
48.44000 181.650
48.45000 180.115
48.46000 178.317
48.47000 176.899
48.48000 177.837
48.49000 183.305
48.50000 188.886
48.51000 191.252
48.52000 189.496
48.53000 187.727
48.54000 184.557
48.55000 180.247
48.56000 176.015
48.57000 175.458
48.58000 176.910
48.59000 178.384
48.60000 180.233
48.61000 182.221
48.62000 184.054
48.63000 184.473
48.64000 184.535
48.65000 184.552
48.66000 184.319
48.67000 184.045
48.68000 183.868
48.69000 184.058
48.70000 184.283
48.71000 184.446
48.72000 183.627
48.73000 182.960
48.74000 181.900
48.75000 180.166
48.76000 178.421
48.77000 177.191
48.78000 176.545
48.79000 175.901
48.80000 177.433
48.81000 180.525
48.82000 183.614
48.83000 186.654
48.84000 189.669
48.85000 192.370
48.86000 190.490
48.87000 187.098
48.88000 184.016
48.89000 184.835
48.90000 186.317
48.91000 187.098
48.92000 184.318
48.93000 181.040
48.94000 179.107
48.95000 181.692
48.96000 184.643
48.97000 186.713
48.98000 180.471
48.99000 175.504
49.00000 172.867
49.01000 173.784
49.02000 174.738
49.03000 176.132
49.04000 177.961
49.05000 179.779
49.06000 183.041
49.07000 187.173
49.08000 191.197
49.09000 192.486
49.10000 192.584
49.11000 192.540
49.12000 190.787
49.13000 188.532
49.14000 186.517
49.15000 187.793
49.16000 189.461
49.17000 190.143
49.18000 186.399
49.19000 182.120
49.20000 177.836
49.21000 173.535
49.22000 169.234
49.23000 166.328
49.24000 170.374
49.25000 173.535
49.26000 176.539
49.27000 179.330
49.28000 182.118
49.29000 182.789
49.30000 181.616
49.31000 180.455
49.32000 177.962
49.33000 174.777
49.34000 171.831
49.35000 173.600
49.36000 177.204
49.37000 180.543
49.38000 181.187
49.39000 181.125
49.40000 181.071
49.41000 179.881
49.42000 178.693
49.43000 178.417
49.44000 181.772
49.45000 185.502
49.46000 187.212
49.47000 183.529
49.48000 179.552
49.49000 176.975
49.50000 173.722
49.51000 171.331
49.52000 170.918
49.53000 172.873
49.54000 174.829
49.55000 176.203
49.56000 177.128
49.57000 178.038
49.58000 175.422
49.59000 171.144
49.60000 167.082
49.61000 166.490
49.62000 167.102
49.63000 167.636
49.64000 167.492
49.65000 167.190
49.66000 166.930
49.67000 169.758
49.68000 172.542
49.69000 175.020
49.70000 176.415
49.71000 177.714
49.72000 179.411
49.73000 182.057
49.74000 184.743
49.75000 186.408
49.76000 177.610
49.77000 171.183
49.78000 168.893
49.79000 170.960
49.80000 173.001
49.81000 171.987
49.82000 168.890
49.83000 165.865
49.84000 168.224
49.85000 172.841
49.86000 176.863
49.87000 173.057
49.88000 166.826
49.89000 161.331
49.90000 161.348
49.91000 162.497
49.92000 163.465
49.93000 171.639
49.94000 179.239
49.95000 183.720
49.96000 178.383
49.97000 172.330
49.98000 168.834
49.99000 170.785
50.00000 172.915
50.01000 174.172
50.02000 175.137
50.03000 175.817
50.04000 176.298
50.05000 176.594
50.06000 176.861
50.07000 175.175
50.08000 172.305
50.09000 169.525
50.10000 173.437
50.11000 179.730
50.12000 185.458
50.13000 184.963
50.14000 182.751
50.15000 180.540
50.16000 178.334
50.17000 176.128
50.18000 174.312
50.19000 182.735
50.20000 190.598
50.21000 195.002
50.22000 189.691
50.23000 183.798
50.24000 178.369
50.25000 173.819
50.26000 169.290
50.27000 166.756
50.28000 173.674
50.29000 178.484
50.30000 181.484
50.31000 183.013
50.32000 184.489
50.33000 183.566
50.34000 181.348
50.35000 179.218
50.36000 178.160
50.37000 177.537
50.38000 177.294
50.39000 180.604
50.40000 184.783
50.41000 188.182
50.42000 187.134
50.43000 185.383
50.44000 183.976
50.45000 188.543
50.46000 192.700
50.47000 194.903
50.48000 192.205
50.49000 189.273
50.50000 189.628
50.51000 195.550
50.52000 201.564
50.53000 204.736
50.54000 203.263
50.55000 202.266
50.56000 201.978
50.57000 202.201
50.58000 202.637
50.59000 210.031
50.60000 220.777
50.61000 230.985
50.62000 224.814
50.63000 214.184
50.64000 205.294
50.65000 210.339
50.66000 218.406
50.67000 224.547
50.68000 221.034
50.69000 216.192
50.70000 212.408
50.71000 221.489
50.72000 229.551
50.73000 233.911
50.74000 229.983
50.75000 225.746
50.76000 224.517
50.77000 227.819
50.78000 231.165
50.79000 231.901
50.80000 230.082
50.81000 228.244
50.82000 224.739
50.83000 220.169
50.84000 215.721
50.85000 214.298
50.86000 214.175
50.87000 214.059
50.88000 212.889
50.89000 211.541
50.90000 210.393
50.91000 210.624
50.92000 211.118
50.93000 211.587
50.94000 211.939
50.95000 212.278
50.96000 212.535
50.97000 205.079
50.98000 198.823
50.99000 194.676
51.00000 194.744
51.01000 194.930
51.02000 193.409
51.03000 189.607
51.04000 185.796
51.05000 180.075
51.06000 172.726
51.07000 165.531
51.08000 166.563
51.09000 172.272
51.10000 177.699
51.11000 177.671
51.12000 175.545
51.13000 173.576
51.14000 176.545
51.15000 180.365
51.16000 182.490
51.17000 174.363
51.18000 164.514
51.19000 158.412
51.20000 167.020
51.21000 177.123
51.22000 184.551
51.23000 175.121
51.24000 167.135
51.25000 162.485
51.26000 163.782
51.27000 165.196
51.28000 166.310
51.29000 167.070
51.30000 167.826
51.31000 169.061
51.32000 170.649
51.33000 172.129
51.34000 169.579
51.35000 164.987
51.36000 160.846
51.37000 163.746
51.38000 169.061
51.39000 173.915
51.40000 170.587
51.41000 165.970
51.42000 161.659
51.43000 158.977
51.44000 156.534
51.45000 155.397
51.46000 158.815
51.47000 162.625
51.48000 165.331
51.49000 164.594
51.50000 163.923
51.51000 162.930
51.52000 161.426
51.53000 159.916
51.54000 161.739
51.55000 167.022
51.56000 172.276
51.57000 173.823
51.58000 172.887
51.59000 171.804
51.60000 166.678
51.61000 159.722
51.62000 153.352
51.63000 154.534
51.64000 158.026
51.65000 161.166
51.66000 169.182
51.67000 177.065
51.68000 182.357
51.69000 175.530
51.70000 167.163
51.71000 160.225
51.72000 157.732
51.73000 155.557
51.74000 154.068
51.75000 159.403
51.76000 163.561
51.77000 164.841
51.78000 162.063
51.79000 159.257
51.80000 157.730
51.81000 157.368
51.82000 157.010
51.83000 159.199
51.84000 162.836
51.85000 166.402
51.86000 168.440
51.87000 169.860
51.88000 171.061
51.89000 169.902
51.90000 168.101
51.91000 166.510
51.92000 165.718
51.93000 165.158
51.94000 164.309
51.95000 162.267
51.96000 160.094
51.97000 157.176
51.98000 152.188
51.99000 147.080
52.00000 143.721
52.01000 153.586
52.02000 161.073
52.03000 165.825
52.04000 167.161
52.05000 168.488
52.06000 169.857
52.07000 171.260
52.08000 172.643
52.09000 172.937
52.10000 172.658
52.11000 172.267
52.12000 169.948
52.13000 166.934
52.14000 163.902
52.15000 160.719
52.16000 157.498
52.17000 154.707
52.18000 156.021
52.19000 157.685
52.20000 159.435
52.21000 161.500
52.22000 163.594
52.23000 164.994
52.24000 164.676
52.25000 164.278
52.26000 164.027
52.27000 163.153
52.28000 162.513
52.29000 163.259
52.30000 165.529
52.31000 167.774
52.32000 166.498
52.33000 162.720
52.34000 159.023
52.35000 159.811
52.36000 162.618
52.37000 165.040
52.38000 162.072
52.39000 157.367
52.40000 153.613
52.41000 157.349
52.42000 162.688
52.43000 167.221
52.44000 159.000
52.45000 150.655
52.46000 145.083
52.47000 148.590
52.48000 152.804
52.49000 155.252
52.50000 153.795
52.51000 152.196
52.52000 151.237
52.53000 153.987
52.54000 155.966
52.55000 156.395
52.56000 155.330
52.57000 154.264
52.58000 153.098
52.59000 151.868
52.60000 150.674
52.61000 154.504
52.62000 160.170
52.63000 165.414
52.64000 165.721
52.65000 164.612
52.66000 163.483
52.67000 162.222
52.68000 160.935
52.69000 159.867
52.70000 156.465
52.71000 153.427
52.72000 151.888
52.73000 154.722
52.74000 157.836
52.75000 161.041
52.76000 164.423
52.77000 167.810
52.78000 169.740
52.79000 166.632
52.80000 164.452
52.81000 164.184
52.82000 165.539
52.83000 166.837
52.84000 165.268
52.85000 162.088
52.86000 159.025
52.87000 158.042
52.88000 157.860
52.89000 157.681
52.90000 157.527
52.91000 157.381
52.92000 157.148
52.93000 156.394
52.94000 155.554
52.95000 154.874
52.96000 154.747
52.97000 154.688
52.98000 155.733
52.99000 159.654
53.00000 163.724
53.01000 165.302
53.02000 162.495
53.03000 159.605
53.04000 158.049
53.05000 160.417
53.06000 162.043
53.07000 164.402
53.08000 167.312
53.09000 170.038
53.10000 166.167
53.11000 158.992
53.12000 152.151
53.13000 150.436
53.14000 150.457
53.15000 151.086
53.16000 156.838
53.17000 163.749
53.18000 169.134
53.19000 166.534
53.20000 162.780
53.21000 159.819
53.22000 164.598
53.23000 168.954
53.24000 170.893
53.25000 167.208
53.26000 163.293
53.27000 160.182
53.28000 158.329
53.29000 156.492
53.30000 155.563
53.31000 159.832
53.32000 162.656
53.33000 162.145
53.34000 159.418
53.35000 156.809
53.36000 157.383
53.37000 159.381
53.38000 161.265
53.39000 161.322
53.40000 160.869
53.41000 160.515
53.42000 160.880
53.43000 161.388
53.44000 161.605
53.45000 160.474
53.46000 159.174
53.47000 158.178
53.48000 160.743
53.49000 162.967
53.50000 165.025
53.51000 166.739
53.52000 168.443
53.53000 169.109
53.54000 168.329
53.55000 167.540
53.56000 167.529
53.57000 168.215
53.58000 168.847
53.59000 166.090
53.60000 161.330
53.61000 156.759
53.62000 156.145
53.63000 157.111
53.64000 158.011
53.65000 161.478
53.66000 165.235
53.67000 168.416
53.68000 167.943
53.69000 166.829
53.70000 164.876
53.71000 159.491
53.72000 153.738
53.73000 149.461
53.74000 156.648
53.75000 162.746
53.76000 166.093
53.77000 164.339
53.78000 162.471
53.79000 160.454
53.80000 158.252
53.81000 156.054
53.82000 155.734
53.83000 156.896
53.84000 158.019
53.85000 157.573
53.86000 156.300
53.87000 155.122
53.88000 155.533
53.89000 156.511
53.90000 157.409
53.91000 155.880
53.92000 154.000
53.93000 152.158
53.94000 150.527
53.95000 148.929
53.96000 147.882
53.97000 148.836
53.98000 149.973
53.99000 150.790
54.00000 152.684
54.01000 154.171
54.02000 157.775
54.03000 164.873
54.04000 172.024
54.05000 172.699
54.06000 166.349
54.07000 160.024
54.08000 157.589
54.09000 157.876
54.10000 158.100
54.11000 156.394
54.12000 153.779
54.13000 151.501
54.14000 153.842
54.15000 157.652
54.16000 161.096
54.17000 157.296
54.18000 152.608
54.19000 149.702
54.20000 155.487
54.21000 162.432
54.22000 165.784
54.23000 157.521
54.24000 148.372
54.25000 142.028
54.26000 148.935
54.27000 154.487
54.28000 157.345
54.29000 156.247
54.30000 155.114
54.31000 156.121
54.32000 159.163
54.33000 162.181
54.34000 161.933
54.35000 159.691
54.36000 157.569
54.37000 158.235
54.38000 160.073
54.39000 161.979
54.40000 164.666
54.41000 167.574
54.42000 170.158
54.43000 167.706
54.44000 164.766
54.45000 162.442
54.46000 162.780
54.47000 163.424
54.48000 164.028
54.49000 164.517
54.50000 164.998
54.51000 165.320
54.52000 161.807
54.53000 159.132
54.54000 156.642
54.55000 154.393
54.56000 152.149
54.57000 151.718
54.58000 152.805
54.59000 153.878
54.60000 154.477
54.61000 154.804
54.62000 154.987
54.63000 152.517
54.64000 149.053
54.65000 145.796
54.66000 144.554
54.67000 143.819
54.68000 143.177
54.69000 149.144
54.70000 155.170
54.71000 159.774
54.72000 158.939
54.73000 157.570
54.74000 157.209
54.75000 159.443
54.76000 161.808
54.77000 163.320
54.78000 158.625
54.79000 155.126
54.80000 152.212
54.81000 149.970
54.82000 147.747
54.83000 148.769
54.84000 152.193
54.85000 155.552
54.86000 152.864
54.87000 147.390
54.88000 142.482
54.89000 146.040
54.90000 152.433
54.91000 158.219
54.92000 158.973
54.93000 158.606
54.94000 158.291
54.95000 160.454
54.96000 162.573
54.97000 163.596
54.98000 160.882
54.99000 157.860
55.00000 154.988
55.01000 152.463
55.02000 149.952
55.03000 148.419
55.04000 149.507
55.05000 150.306
55.06000 152.006
55.07000 154.614
55.08000 157.206
55.09000 158.163
55.10000 158.049
55.11000 157.937
55.12000 158.411
55.13000 159.111
55.14000 159.789
55.15000 160.205
55.16000 160.544
55.17000 161.169
55.18000 163.846
55.19000 166.927
55.20000 169.504
55.21000 164.747
55.22000 160.047
55.23000 156.389
55.24000 155.895
55.25000 155.619
55.26000 156.944
55.27000 161.556
55.28000 166.266
55.29000 168.999
55.30000 166.240
55.31000 164.282
55.32000 163.807
55.33000 164.644
55.34000 165.511
55.35000 168.098
55.36000 171.689
55.37000 175.158
55.38000 177.510
55.39000 179.313
55.40000 180.777
55.41000 178.722
55.42000 175.733
55.43000 173.469
55.44000 175.736
55.45000 178.786
55.46000 181.278
55.47000 178.749
55.48000 176.246
55.49000 174.958
55.50000 176.961
55.51000 179.149
55.52000 180.724
55.53000 181.180
55.54000 181.611
55.55000 181.848
55.56000 183.396
55.57000 184.486
55.58000 191.510
55.59000 203.170
55.60000 214.628
55.61000 217.934
55.62000 216.998
55.63000 216.102
55.64000 226.656
55.65000 240.242
55.66000 252.627
55.67000 254.361
55.68000 253.586
55.69000 255.316
55.70000 270.739
55.71000 288.235
55.72000 302.165
55.73000 314.451
55.74000 324.238
55.75000 334.021
55.76000 343.793
55.77000 353.564
55.78000 363.862
55.79000 375.017
55.80000 386.185
55.81000 391.958
55.82000 421.853
55.83000 441.983
55.84000 458.617
55.85000 472.833
55.86000 487.127
55.87000 503.749
55.88000 521.453
55.89000 538.208
55.90000 545.404
55.91000 549.260
55.92000 554.021
55.93000 565.685
55.94000 578.789
55.95000 590.560
55.96000 595.922
55.97000 600.441
55.98000 603.941
55.99000 609.533
56.00000 614.098
56.01000 615.029
56.02000 608.116
56.03000 600.936
56.04000 594.258
56.05000 588.306
56.06000 582.362
56.07000 577.973
56.08000 575.044
56.09000 571.975
56.10000 558.851
56.11000 539.543
56.12000 520.483
56.13000 507.034
56.14000 495.913
56.15000 485.516
56.16000 466.985
56.17000 448.095
56.18000 429.801
56.19000 415.458
56.20000 401.839
56.21000 387.719
56.22000 371.465
56.23000 354.970
56.24000 342.576
56.25000 333.468
56.26000 326.506
56.27000 317.962
56.28000 306.368
56.29000 294.698
56.30000 281.920
56.31000 267.719
56.32000 253.531
56.33000 245.309
56.34000 242.024
56.35000 238.700
56.36000 233.549
56.37000 227.398
56.38000 221.220
56.39000 214.555
56.40000 207.710
56.41000 201.395
56.42000 198.127
56.43000 195.876
56.44000 193.457
56.45000 190.057
56.46000 186.499
56.47000 183.975
56.48000 185.358
56.49000 187.118
56.50000 188.398
56.51000 183.215
56.52000 178.981
56.53000 175.953
56.54000 174.998
56.55000 174.078
56.56000 174.215
56.57000 175.549
56.58000 176.879
56.59000 174.042
56.60000 168.211
56.61000 162.482
56.62000 160.230
56.63000 159.677
56.64000 159.100
56.65000 158.183
56.66000 157.153
56.67000 156.218
56.68000 160.695
56.69000 165.705
56.70000 169.386
56.71000 166.299
56.72000 162.263
56.73000 158.386
56.74000 155.041
56.75000 151.739
56.76000 149.420
56.77000 149.912
56.78000 150.366
56.79000 150.344
56.80000 149.593
56.81000 148.834
56.82000 150.130
56.83000 153.472
56.84000 156.790
56.85000 158.457
56.86000 159.045
56.87000 159.462
56.88000 155.523
56.89000 149.683
56.90000 144.237
56.91000 143.567
56.92000 144.304
56.93000 144.963
56.94000 146.858
56.95000 148.720
56.96000 150.475
56.97000 151.752
56.98000 152.971
56.99000 153.121
57.00000 150.070
57.01000 146.803
57.02000 144.595
57.03000 146.810
57.04000 148.555
57.05000 147.951
57.06000 144.162
57.07000 140.359
57.08000 140.017
57.09000 142.697
57.10000 145.347
57.11000 146.062
57.12000 145.671
57.13000 145.258
57.14000 144.410
57.15000 143.392
57.16000 142.623
57.17000 144.410
57.18000 146.867
57.19000 149.023
57.20000 148.690
57.21000 148.038
57.22000 146.702
57.23000 142.637
57.24000 138.290
57.25000 136.283
57.26000 140.533
57.27000 145.125
57.28000 148.103
57.29000 148.856
57.30000 149.375
57.31000 149.479
57.32000 149.086
57.33000 148.687
57.34000 146.778
57.35000 143.706
57.36000 140.685
57.37000 141.424
57.38000 144.009
57.39000 146.269
57.40000 143.325
57.41000 138.571
57.42000 134.814
57.43000 139.750
57.44000 146.708
57.45000 152.699
57.46000 150.530
57.47000 147.662
57.48000 145.772
57.49000 147.344
57.50000 149.221
57.51000 149.285
57.52000 145.024
57.53000 140.575
57.54000 137.817
57.55000 134.044
57.56000 131.321
57.57000 130.490
57.58000 131.654
57.59000 132.840
57.60000 136.478
57.61000 141.791
57.62000 146.980
57.63000 150.236
57.64000 152.502
57.65000 154.254
57.66000 149.246
57.67000 142.140
57.68000 136.287
57.69000 139.860
57.70000 145.372
57.71000 150.017
57.72000 145.024
57.73000 139.815
57.74000 136.825
57.75000 140.835
57.76000 145.358
57.77000 147.663
57.78000 145.239
57.79000 142.659
57.80000 141.135
57.81000 142.406
57.82000 143.319
57.83000 143.293
57.84000 142.400
57.85000 141.556
57.86000 144.089
57.87000 148.672
57.88000 153.113
57.89000 149.160
57.90000 142.164
57.91000 135.554
57.92000 133.211
57.93000 132.046
57.94000 131.282
57.95000 133.133
57.96000 135.458
57.97000 137.373
57.98000 134.462
57.99000 131.625
58.00000 132.222
58.01000 142.477
58.02000 153.313
58.03000 158.425
58.04000 152.644
58.05000 146.600
58.06000 143.217
58.07000 140.927
58.08000 139.349
58.09000 139.886
58.10000 142.145
58.11000 144.359
58.12000 144.477
58.13000 143.462
58.14000 142.488
58.15000 143.597
58.16000 145.347
58.17000 146.568
58.18000 142.839
58.19000 137.895
58.20000 134.044
58.21000 136.442
58.22000 139.830
58.23000 142.552
58.24000 140.529
58.25000 138.526
58.26000 136.859
58.27000 136.038
58.28000 135.257
58.29000 135.060
58.30000 135.850
58.31000 136.657
58.32000 137.083
58.33000 139.663
58.34000 141.392
58.35000 139.447
58.36000 134.853
58.37000 130.422
58.38000 131.271
58.39000 134.669
58.40000 137.898
58.41000 141.529
58.42000 145.005
58.43000 147.685
58.44000 143.978
58.45000 138.884
58.46000 134.177
58.47000 131.422
58.48000 128.936
58.49000 126.992
58.50000 126.512
58.51000 126.223
58.52000 127.519
58.53000 132.372
58.54000 137.358
58.55000 141.637
58.56000 144.848
58.57000 148.048
58.58000 147.373
58.59000 142.900
58.60000 138.482
58.61000 138.674
58.62000 141.817
58.63000 144.750
58.64000 142.514
58.65000 138.051
58.66000 133.859
58.67000 132.488
58.68000 131.985
58.69000 131.711
58.70000 133.024
58.71000 134.642
58.72000 135.695
58.73000 134.242
58.74000 132.491
58.75000 131.162
58.76000 133.712
58.77000 135.917
58.78000 138.930
58.79000 143.562
58.80000 148.239
58.81000 148.774
58.82000 143.765
58.83000 138.732
58.84000 136.200
58.85000 135.822
58.86000 135.449
58.87000 135.248
58.88000 135.145
58.89000 134.981
58.90000 133.640
58.91000 131.845
58.92000 130.182
58.93000 129.809
58.94000 129.774
58.95000 129.778
58.96000 130.021
58.97000 130.304
58.98000 131.272
58.99000 134.935
59.00000 138.872
59.01000 141.769
59.02000 139.587
59.03000 137.689
59.04000 135.911
59.05000 134.346
59.06000 132.785
59.07000 133.322
59.08000 136.339
59.09000 139.353
59.10000 141.893
59.11000 144.059
59.12000 146.153
59.13000 145.562
59.14000 143.608
59.15000 141.760
59.16000 141.572
59.17000 141.955
59.18000 142.304
59.19000 140.254
59.20000 137.944
59.21000 136.283
59.22000 138.064
59.23000 140.350
59.24000 141.343
59.25000 137.815
59.26000 133.896
59.27000 131.111
59.28000 127.693
59.29000 125.070
59.30000 124.725
59.31000 128.005
59.32000 131.331
59.33000 131.583
59.34000 128.637
59.35000 125.707
59.36000 124.376
59.37000 124.127
59.38000 123.939
59.39000 125.460
59.40000 127.756
59.41000 129.971
59.42000 131.134
59.43000 131.974
59.44000 132.730
59.45000 135.710
59.46000 138.715
59.47000 141.057
59.48000 140.288
59.49000 139.123
59.50000 138.133
59.51000 137.686
59.52000 137.278
59.53000 136.999
59.54000 136.167
59.55000 135.531
59.56000 133.367
59.57000 129.045
59.58000 124.709
59.59000 123.928
59.60000 126.389
59.61000 128.826
59.62000 132.029
59.63000 135.617
59.64000 138.904
59.65000 135.754
59.66000 129.996
59.67000 124.855
59.68000 126.391
59.69000 129.747
59.70000 132.713
59.71000 136.852
59.72000 140.607
59.73000 142.876
59.74000 138.987
59.75000 134.423
59.76000 131.625
59.77000 133.736
59.78000 136.134
59.79000 137.712
59.80000 139.548
59.81000 140.905
59.82000 139.929
59.83000 136.036
59.84000 132.145
59.85000 132.134
59.86000 135.243
59.87000 138.306
59.88000 140.100
59.89000 141.184
59.90000 142.097
59.91000 140.091
59.92000 137.029
59.93000 134.185
59.94000 133.355
59.95000 133.013
59.96000 132.716
59.97000 128.585
59.98000 124.558
59.99000 122.736
60.00000 129.034
60.01000 136.087
60.02000 140.386
60.03000 137.851
60.04000 134.996
60.05000 133.198
60.06000 130.691
60.07000 128.869
60.08000 129.228
60.09000 131.993
60.10000 134.745
60.11000 135.477
60.12000 134.772
60.13000 134.081
60.14000 135.252
60.15000 137.230
60.16000 138.986
60.17000 137.624
60.18000 135.257
60.19000 133.369
60.20000 135.275
60.21000 137.993
60.22000 140.301
60.23000 138.974
60.24000 137.446
60.25000 135.205
60.26000 130.628
60.27000 125.869
60.28000 122.803
60.29000 123.490
60.30000 124.313
60.31000 124.807
60.32000 128.804
60.33000 131.668
60.34000 135.206
60.35000 139.396
60.36000 143.482
60.37000 139.332
60.38000 129.978
60.39000 120.889
60.40000 122.230
60.41000 127.722
60.42000 133.002
60.43000 135.792
60.44000 137.867
60.45000 139.144
60.46000 134.958
60.47000 129.739
60.48000 125.406
60.49000 128.281
60.50000 131.357
60.51000 134.034
60.52000 135.543
60.53000 136.977
60.54000 136.050
60.55000 130.451
60.56000 124.725
60.57000 121.460
60.58000 127.647
60.59000 131.988
60.60000 133.252
60.61000 131.899
60.62000 130.602
60.63000 132.148
60.64000 135.295
60.65000 138.326
60.66000 136.851
60.67000 133.858
60.68000 131.252
60.69000 132.478
60.70000 134.684
60.71000 136.731
60.72000 137.833
60.73000 138.778
60.74000 139.544
60.75000 140.224
60.76000 140.771
60.77000 140.119
60.78000 136.342
60.79000 132.402
60.80000 131.080
60.81000 134.374
60.82000 137.756
60.83000 139.578
60.84000 133.376
60.85000 129.146
60.86000 128.507
60.87000 130.565
60.88000 132.585
60.89000 133.200
60.90000 133.111
60.91000 133.025
60.92000 135.306
60.93000 138.166
60.94000 140.837
60.95000 141.901
60.96000 142.601
60.97000 142.844
60.98000 140.693
60.99000 138.196
61.00000 136.225
61.01000 138.157
61.02000 139.972
61.03000 142.044
61.04000 144.717
61.05000 147.415
61.06000 147.316
61.07000 142.827
61.08000 138.285
61.09000 135.985
61.10000 135.299
61.11000 134.842
61.12000 134.635
61.13000 134.595
61.14000 134.550
61.15000 134.355
61.16000 134.092
61.17000 133.845
61.18000 135.879
61.19000 138.374
61.20000 140.031
61.21000 135.571
61.22000 129.888
61.23000 125.667
61.24000 128.208
61.25000 131.597
61.26000 134.196
61.27000 135.600
61.28000 136.642
61.29000 136.942
61.30000 135.698
61.31000 134.407
61.32000 135.294
61.33000 139.220
61.34000 143.165
61.35000 144.281
61.36000 142.855
61.37000 141.441
61.38000 140.838
61.39000 140.714
61.40000 140.596
61.41000 140.618
61.42000 140.695
61.43000 140.766
61.44000 141.575
61.45000 142.486
61.46000 143.230
61.47000 142.916
61.48000 142.416
61.49000 142.485
61.50000 144.885
61.51000 147.535
61.52000 149.507
61.53000 155.855
61.54000 160.989
61.55000 165.767
61.56000 169.888
61.57000 173.994
61.58000 181.728
61.59000 193.938
61.60000 206.138
61.61000 212.938
61.62000 215.445
61.63000 217.978
61.64000 221.645
61.65000 225.911
61.66000 230.379
61.67000 238.269
61.68000 247.379
61.69000 255.743
61.70000 258.071
61.71000 258.860
61.72000 258.602
61.73000 252.529
61.74000 245.561
61.75000 240.582
61.76000 242.837
61.77000 245.752
61.78000 247.849
61.79000 234.605
61.80000 223.930
61.81000 216.490
61.82000 214.402
61.83000 212.394
61.84000 204.859
61.85000 191.316
61.86000 177.830
61.87000 168.219
61.88000 161.400
61.89000 154.652
61.90000 150.100
61.91000 146.582
61.92000 143.454
61.93000 145.683
61.94000 149.619
61.95000 153.177
61.96000 152.167
61.97000 150.428
61.98000 148.486
61.99000 145.549
62.00000 142.478
62.01000 140.976
62.02000 144.550
62.03000 148.513
62.04000 151.262
62.05000 149.505
62.06000 148.062
62.07000 146.115
62.08000 143.428
62.09000 140.734
62.10000 140.319
62.11000 142.075
62.12000 143.817
62.13000 142.545
62.14000 139.450
62.15000 136.518
62.16000 137.394
62.17000 139.872
62.18000 142.258
62.19000 143.598
62.20000 144.641
62.21000 145.567
62.22000 145.998
62.23000 146.291
62.24000 145.679
62.25000 141.159
62.26000 136.187
62.27000 132.576
62.28000 132.895
62.29000 133.461
62.30000 133.839
62.31000 132.379
62.32000 131.263
62.33000 131.991
62.34000 135.123
62.35000 138.263
62.36000 139.691
62.37000 139.685
62.38000 139.678
62.39000 138.706
62.40000 137.237
62.41000 135.989
62.42000 138.820
62.43000 143.184
62.44000 147.140
62.45000 147.132
62.46000 146.124
62.47000 145.245
62.48000 142.682
62.49000 140.253
62.50000 138.126
62.51000 137.149
62.52000 136.286
62.53000 135.050
62.54000 132.857
62.55000 130.615
62.56000 129.181
62.57000 143.243
62.58000 153.684
62.59000 155.623
62.60000 147.775
62.61000 139.939
62.62000 136.579
62.63000 136.534
62.64000 136.490
62.65000 137.951
62.66000 140.079
62.67000 142.062
62.68000 141.876
62.69000 140.962
62.70000 140.462
62.71000 143.391
62.72000 147.086
62.73000 150.247
62.74000 148.154
62.75000 145.758
62.76000 143.462
62.77000 141.508
62.78000 139.582
62.79000 139.096
62.80000 141.928
62.81000 144.892
62.82000 146.701
62.83000 151.017
62.84000 154.125
62.85000 152.548
62.86000 146.235
62.87000 139.934
62.88000 134.687
62.89000 130.131
62.90000 125.694
62.91000 129.159
62.92000 135.799
62.93000 142.023
62.94000 143.087
62.95000 142.610
62.96000 142.391
62.97000 144.027
62.98000 146.030
62.99000 147.706
63.00000 147.208
63.01000 146.572
63.02000 145.713
63.03000 144.174
63.04000 142.588
63.05000 140.991
63.06000 139.371
63.07000 137.750
63.08000 136.809
63.09000 144.558
63.10000 150.030
63.11000 150.902
63.12000 147.693
63.13000 144.537
63.14000 144.495
63.15000 146.274
63.16000 147.993
63.17000 148.211
63.18000 147.857
63.19000 147.523
63.20000 147.402
63.21000 147.338
63.22000 147.599
63.23000 149.895
63.24000 152.544
63.25000 154.708
63.26000 153.394
63.27000 152.016
63.28000 150.721
63.29000 149.650
63.30000 148.591
63.31000 149.050
63.32000 152.293
63.33000 155.596
63.34000 157.411
63.35000 151.469
63.36000 147.372
63.37000 145.271
63.38000 144.731
63.39000 144.266
63.40000 146.848
63.41000 151.018
63.42000 155.009
63.43000 156.408
63.44000 156.861
63.45000 157.275
63.46000 157.349
63.47000 157.343
63.48000 156.323
63.49000 149.745
63.50000 142.324
63.51000 136.413
63.52000 142.292
63.53000 147.885
63.54000 151.063
63.55000 148.395
63.56000 145.467
63.57000 144.134
63.58000 145.407
63.59000 146.717
63.60000 147.394
63.61000 152.653
63.62000 156.180
63.63000 157.205
63.64000 156.495
63.65000 155.732
63.66000 153.401
63.67000 150.342
63.68000 147.445
63.69000 147.214
63.70000 147.773
63.71000 147.911
63.72000 144.825
63.73000 141.066
63.74000 138.732
63.75000 143.275
63.76000 148.722
63.77000 152.943
63.78000 147.248
63.79000 142.135
63.80000 138.140
63.81000 136.559
63.82000 135.061
63.83000 135.118
63.84000 137.435
63.85000 139.770
63.86000 143.067
63.87000 147.266
63.88000 151.464
63.89000 155.575
63.90000 159.633
63.91000 163.552
63.92000 164.303
63.93000 163.737
63.94000 163.209
63.95000 158.718
63.96000 153.632
63.97000 149.550
63.98000 152.134
63.99000 155.944
64.00000 158.337
64.01000 154.682
64.02000 150.342
64.03000 147.079
64.04000 148.658
64.05000 150.125
64.06000 152.051
64.07000 154.861
64.08000 157.693
64.09000 159.366
64.10000 159.549
64.11000 159.725
64.12000 157.246
64.13000 152.585
64.14000 148.055
64.15000 149.742
64.16000 154.841
64.17000 159.745
64.18000 161.133
64.19000 161.217
64.20000 161.295
64.21000 162.059
64.22000 162.898
64.23000 163.340
64.24000 161.480
64.25000 159.249
64.26000 158.092
64.27000 160.996
64.28000 164.293
64.29000 166.692
64.30000 160.546
64.31000 155.490
64.32000 152.372
64.33000 152.586
64.34000 152.858
64.35000 156.143
64.36000 162.849
64.37000 169.535
64.38000 170.186
64.39000 166.456
64.40000 162.795
64.41000 161.497
64.42000 161.356
64.43000 161.544
64.44000 166.562
64.45000 173.180
64.46000 179.195
64.47000 171.951
64.48000 162.963
64.49000 155.906
64.50000 158.704
64.51000 162.886
64.52000 166.307
64.53000 167.170
64.54000 167.825
64.55000 168.285
64.56000 169.740
64.57000 170.871
64.58000 171.165
64.59000 170.178
64.60000 169.177
64.61000 167.715
64.62000 165.794
64.63000 163.886
64.64000 162.200
64.65000 160.680
64.66000 159.357
64.67000 163.051
64.68000 168.937
64.69000 174.545
64.70000 176.756
64.71000 177.965
64.72000 179.046
64.73000 180.270
64.74000 181.360
64.75000 181.636
64.76000 178.243
64.77000 174.406
64.78000 170.343
64.79000 165.607
64.80000 160.825
64.81000 157.591
64.82000 157.809
64.83000 158.047
64.84000 161.276
64.85000 168.568
64.86000 175.877
64.87000 177.146
64.88000 173.131
64.89000 169.161
64.90000 167.854
64.91000 168.079
64.92000 168.191
64.93000 166.030
64.94000 162.982
64.95000 160.610
64.96000 165.164
64.97000 171.535
64.98000 177.131
64.99000 181.696
65.00000 185.469
65.01000 188.665
65.02000 189.562
65.03000 190.220
65.04000 191.293
65.05000 193.476
65.06000 195.720
65.07000 197.176
65.08000 190.514
65.09000 185.513
65.10000 183.978
65.11000 186.606
65.12000 189.234
65.13000 190.023
65.14000 189.391
65.15000 188.769
65.16000 190.722
65.17000 193.893
65.18000 197.217
65.19000 203.006
65.20000 209.654
65.21000 215.888
65.22000 218.512
65.23000 220.295
65.24000 221.830
65.25000 215.672
65.26000 209.480
65.27000 204.917
65.28000 206.133
65.29000 207.858
65.30000 210.849
65.31000 216.870
65.32000 223.021
65.33000 226.839
65.34000 232.785
65.35000 237.085
65.36000 240.386
65.37000 242.632
65.38000 244.894
65.39000 249.089
65.40000 254.606
65.41000 259.995
65.42000 263.731
65.43000 266.580
65.44000 269.283
65.45000 270.072
65.46000 270.266
65.47000 271.225
65.48000 277.951
65.49000 285.865
65.50000 292.538
65.51000 306.538
65.52000 319.022
65.53000 327.777
65.54000 324.749
65.55000 320.856
65.56000 321.717
65.57000 332.731
65.58000 344.083
65.59000 350.791
65.60000 345.953
65.61000 342.474
65.62000 344.052
65.63000 350.314
65.64000 356.585
65.65000 363.445
65.66000 370.662
65.67000 377.656
65.68000 380.078
65.69000 380.594
65.70000 383.015
65.71000 406.490
65.72000 435.792
65.73000 464.517
65.74000 489.472
65.75000 513.743
65.76000 533.740
65.77000 591.836
65.78000 643.134
65.79000 691.838
65.80000 733.231
65.81000 774.184
65.82000 809.620
65.83000 834.538
65.84000 859.202
65.85000 873.019
65.86000 890.471
65.87000 902.546
65.88000 902.642
65.89000 892.964
65.90000 883.449
65.91000 881.329
65.92000 883.218
65.93000 885.032
65.94000 879.174
65.95000 871.065
65.96000 860.480
65.97000 826.681
65.98000 787.177
65.99000 746.832
66.00000 701.672
66.01000 655.746
66.02000 618.841
66.03000 549.793
66.04000 491.350
66.05000 442.207
66.06000 416.459
66.07000 391.841
66.08000 368.407
66.09000 346.987
66.10000 325.600
66.11000 314.298
66.12000 302.066
66.13000 293.788
66.14000 290.250
66.15000 290.135
66.16000 289.842
66.17000 283.726
66.18000 274.795
66.19000 266.309
66.20000 268.862
66.21000 274.557
66.22000 279.858
66.23000 281.988
66.24000 283.427
66.25000 286.072
66.26000 294.779
66.27000 304.325
66.28000 311.791
66.29000 311.424
66.30000 310.632
66.31000 313.650
66.32000 325.231
66.33000 337.132
66.34000 346.174
66.35000 350.893
66.36000 355.568
66.37000 363.132
66.38000 373.534
66.39000 383.852
66.40000 387.060
66.41000 385.712
66.42000 384.559
66.43000 388.241
66.44000 394.010
66.45000 399.429
66.46000 400.822
66.47000 401.024
66.48000 400.236
66.49000 392.562
66.50000 383.565
66.51000 376.517
66.52000 378.128
66.53000 380.773
66.54000 382.783
66.55000 373.606
66.56000 365.813
66.57000 356.185
66.58000 342.881
66.59000 329.473
66.60000 319.134
66.61000 312.912
66.62000 306.715
66.63000 299.252
66.64000 290.713
66.65000 282.335
66.66000 282.683
66.67000 288.010
66.68000 293.071
66.69000 292.967
66.70000 290.871
66.71000 288.928
66.72000 286.799
66.73000 284.839
66.74000 283.376
66.75000 284.934
66.76000 287.001
66.77000 288.165
66.78000 285.772
66.79000 283.016
66.80000 280.987
66.81000 289.811
66.82000 297.088
66.83000 302.302
66.84000 303.827
66.85000 305.278
66.86000 305.035
66.87000 302.785
66.88000 300.537
66.89000 297.851
66.90000 294.849
66.91000 292.022
66.92000 295.765
66.93000 302.851
66.94000 309.864
66.95000 315.746
66.96000 321.239
66.97000 326.258
66.98000 327.858
66.99000 328.581
67.00000 328.960
67.01000 327.501
67.02000 325.771
67.03000 323.777
67.04000 320.854
67.05000 317.852
67.06000 315.717
67.07000 324.437
67.08000 331.426
67.09000 334.402
67.10000 330.986
67.11000 327.487
67.12000 326.737
67.13000 328.853
67.14000 330.957
67.15000 335.211
67.16000 340.845
67.17000 346.471
67.18000 351.883
67.19000 357.198
67.20000 361.931
67.21000 359.131
67.22000 354.020
67.23000 349.424
67.24000 347.800
67.25000 346.906
67.26000 346.338
67.27000 347.297
67.28000 348.451
67.29000 350.897
67.30000 357.376
67.31000 364.145
67.32000 368.784
67.33000 374.685
67.34000 379.136
67.35000 382.785
67.36000 385.298
67.37000 387.800
67.38000 385.319
67.39000 378.285
67.40000 371.318
67.41000 368.809
67.42000 368.977
67.43000 369.091
67.44000 368.064
67.45000 366.575
67.46000 365.819
67.47000 373.022
67.48000 382.398
67.49000 390.685
67.50000 388.432
67.51000 384.859
67.52000 383.218
67.53000 389.608
67.54000 396.878
67.55000 403.099
67.56000 406.396
67.57000 409.521
67.58000 411.578
67.59000 403.266
67.60000 396.964
67.61000 396.590
67.62000 403.640
67.63000 410.706
67.64000 415.616
67.65000 418.788
67.66000 421.914
67.67000 425.137
67.68000 428.314
67.69000 431.147
67.70000 428.044
67.71000 422.792
67.72000 418.542
67.73000 423.532
67.74000 430.764
67.75000 437.035
67.76000 435.914
67.77000 433.974
67.78000 432.971
67.79000 435.429
67.80000 438.210
67.81000 441.558
67.82000 446.316
67.83000 451.139
67.84000 454.180
67.85000 455.512
67.86000 456.457
67.87000 456.112
67.88000 454.343
67.89000 452.596
67.90000 454.161
67.91000 458.085
67.92000 461.928
67.93000 466.615
67.94000 471.507
67.95000 476.275
67.96000 479.308
67.97000 481.781
67.98000 484.180
67.99000 485.995
68.00000 487.685
68.01000 489.121
68.02000 494.447
68.03000 499.362
68.04000 503.331
68.05000 504.195
68.06000 504.816
68.07000 505.316
68.08000 505.548
68.09000 505.770
68.10000 505.903
68.11000 523.463
68.12000 536.064
68.13000 539.346
68.14000 533.601
68.15000 528.006
68.16000 534.368
68.17000 548.300
68.18000 561.837
68.19000 556.808
68.20000 544.504
68.21000 533.447
68.22000 537.011
68.23000 544.784
68.24000 552.075
68.25000 556.062
68.26000 559.423
68.27000 562.214
68.28000 565.440
68.29000 568.150
68.30000 570.197
68.31000 570.300
68.32000 570.277
68.33000 574.028
68.34000 585.255
68.35000 596.685
68.36000 603.208
68.37000 600.896
68.38000 599.267
68.39000 606.303
68.40000 620.716
68.41000 635.076
68.42000 646.631
68.43000 656.607
68.44000 666.217
68.45000 671.310
68.46000 674.477
68.47000 677.222
68.48000 675.792
68.49000 673.292
68.50000 672.702
68.51000 683.536
68.52000 696.270
68.53000 706.592
68.54000 727.880
68.55000 746.120
68.56000 762.937
68.57000 776.032
68.58000 788.933
68.59000 801.418
68.60000 813.168
68.61000 824.905
68.62000 831.234
68.63000 884.536
68.64000 921.036
68.65000 956.587
68.66000 991.426
68.67000 1026.170
68.68000 1057.459
68.69000 1087.013
68.70000 1115.199
68.71000 1167.924
68.72000 1224.585
68.73000 1278.739
68.74000 1311.672
68.75000 1339.790
68.76000 1373.164
68.77000 1434.145
68.78000 1499.129
68.79000 1550.438
68.80000 1581.665
68.81000 1605.358
68.82000 1637.250
68.83000 1688.277
68.84000 1740.089
68.85000 1803.216
68.86000 1884.139
68.87000 1965.279
68.88000 2006.398
68.89000 2179.726
68.90000 2296.580
68.91000 2493.009
68.92000 2742.519
68.93000 3004.333
68.94000 3599.732
68.95000 4344.779
68.96000 5047.355
68.97000 6870.054
68.98000 8850.916
68.99000 10980.253
69.00000 14194.185
69.01000 17625.543
69.02000 21178.912
69.03000 25297.566
69.04000 29487.217
69.05000 32702.258
69.06000 36876.465
69.07000 40228.570
69.08000 42947.941
69.09000 44348.453
69.10000 45707.871
69.11000 46631.305
69.12000 46945.797
69.13000 47256.098
69.14000 47485.441
69.15000 47641.691
69.16000 47803.125
69.17000 48287.086
69.18000 48962.395
69.19000 49616.184
69.20000 49816.926
69.21000 49836.168
69.22000 49854.082
69.23000 48508.496
69.24000 46959.195
69.25000 45314.703
69.26000 43065.328
69.27000 40709.289
69.28000 38327.785
69.29000 35841.801
69.30000 33344.551
69.31000 31486.354
69.32000 29366.475
69.33000 27705.508
69.34000 26369.434
69.35000 25637.600
69.36000 24919.354
69.37000 24309.389
69.38000 23833.268
69.39000 23358.363
69.40000 22517.068
69.41000 21389.906
69.42000 20250.992
69.43000 18615.803
69.44000 16718.209
69.45000 14822.737
69.46000 12963.037
69.47000 11116.134
69.48000 9420.164
69.49000 7785.312
69.50000 6339.816
69.51000 4983.039
69.52000 4119.892
69.53000 3332.889
69.54000 2647.267
69.55000 2331.033
69.56000 2048.612
69.57000 1845.351
69.58000 1688.533
69.59000 1570.091
69.60000 1470.586
69.61000 1402.461
69.62000 1334.810
69.63000 1273.034
69.64000 1217.655
69.65000 1162.521
69.66000 1117.833
69.67000 1080.882
69.68000 1044.518
69.69000 1026.229
69.70000 1016.469
69.71000 1006.108
69.72000 987.465
69.73000 966.180
69.74000 946.933
69.75000 926.767
69.76000 908.848
69.77000 888.381
69.78000 855.432
69.79000 820.811
69.80000 791.289
69.81000 778.311
69.82000 766.601
69.83000 758.472
69.84000 760.483
69.85000 762.269
69.86000 756.222
69.87000 738.635
69.88000 720.945
69.89000 709.113
69.90000 702.874
69.91000 696.684
69.92000 688.635
69.93000 679.587
69.94000 670.847
69.95000 669.320
69.96000 670.834
69.97000 671.414
69.98000 661.259
69.99000 648.054
70.00000 636.313
