20.00000 562.853
20.01000 568.475
20.02000 574.901
20.03000 579.634
20.04000 577.769
20.05000 575.239
20.06000 573.382
20.07000 577.277
20.08000 580.519
20.09000 581.081
20.10000 576.899
20.11000 572.625
20.12000 576.686
20.13000 590.512
20.14000 604.315
20.15000 601.157
20.16000 585.320
20.17000 569.939
20.18000 571.274
20.19000 581.027
20.20000 589.568
20.21000 579.401
20.22000 562.860
20.23000 547.768
20.24000 551.523
20.25000 558.657
20.26000 564.109
20.27000 560.704
20.28000 556.012
20.29000 552.853
20.30000 555.010
20.31000 557.618
20.32000 559.468
20.33000 568.998
20.34000 576.486
20.35000 578.787
20.36000 572.912
20.37000 566.937
20.38000 566.793
20.39000 572.654
20.40000 578.482
20.41000 581.024
20.42000 581.365
20.43000 581.658
20.44000 580.654
20.45000 579.066
20.46000 577.290
20.47000 573.103
20.48000 568.184
20.49000 563.766
20.50000 569.679
20.51000 576.668
20.52000 580.925
20.53000 572.496
20.54000 562.470
20.55000 555.401
20.56000 557.461
20.57000 560.166
20.58000 562.014
20.59000 567.294
20.60000 571.323
20.61000 572.675
20.62000 570.279
20.63000 567.855
20.64000 561.826
20.65000 552.540
20.66000 543.346
20.67000 542.322
20.68000 546.075
20.69000 549.753
20.70000 551.840
20.71000 553.289
20.72000 555.063
20.73000 560.313
20.74000 566.503
20.75000 571.965
20.76000 575.679
20.77000 578.617
20.78000 580.595
20.79000 578.630
20.80000 576.238
20.81000 573.176
20.82000 568.269
20.83000 563.255
20.84000 559.967
20.85000 566.896
20.86000 572.163
20.87000 579.004
20.88000 587.798
20.89000 596.557
20.90000 593.013
20.91000 579.670
20.92000 566.528
20.93000 563.453
20.94000 565.643
20.95000 567.737
20.96000 568.200
20.97000 568.078
20.98000 568.502
20.99000 573.895
21.00000 580.481
21.01000 586.181
21.02000 582.361
21.03000 577.861
21.04000 575.344
21.05000 580.067
21.06000 585.455
21.07000 589.093
21.08000 588.427
21.09000 587.563
21.10000 587.021
21.11000 563.863
21.12000 546.877
21.13000 541.178
21.14000 547.800
21.15000 554.404
21.16000 557.776
21.17000 558.870
21.18000 559.941
21.19000 553.619
21.20000 544.195
21.21000 535.942
21.22000 543.911
21.23000 557.068
21.24000 568.443
21.25000 565.890
21.26000 560.377
21.27000 555.704
21.28000 549.339
21.29000 543.813
21.30000 539.898
21.31000 541.216
21.32000 542.938
21.33000 547.009
21.34000 556.244
21.35000 565.662
21.36000 571.298
21.37000 556.299
21.38000 545.521
21.39000 542.443
21.40000 546.736
21.41000 551.114
21.42000 562.103
21.43000 577.233
21.44000 591.925
21.45000 588.458
21.46000 577.888
21.47000 567.754
21.48000 562.655
21.49000 558.989
21.50000 554.717
21.51000 546.333
21.52000 537.179
21.53000 529.592
21.54000 542.342
21.55000 554.819
21.56000 565.132
21.57000 569.175
21.58000 572.820
21.59000 577.535
21.60000 584.349
21.61000 591.219
21.62000 595.122
21.63000 591.077
21.64000 588.249
21.65000 592.974
21.66000 604.056
21.67000 614.964
21.68000 617.088
21.69000 614.314
21.70000 611.643
21.71000 607.766
21.72000 603.701
21.73000 601.523
21.74000 617.763
21.75000 638.667
21.76000 658.348
21.77000 670.792
21.78000 682.048
21.79000 691.151
21.80000 711.946
21.81000 729.807
21.82000 745.992
21.83000 757.841
21.84000 769.468
21.85000 782.016
21.86000 796.178
21.87000 810.369
21.88000 817.982
21.89000 851.823
21.90000 874.903
21.91000 889.190
21.92000 896.934
21.93000 904.897
21.94000 920.600
21.95000 940.154
21.96000 958.784
21.97000 968.788
21.98000 975.369
21.99000 981.670
22.00000 985.635
22.01000 989.075
22.02000 990.795
22.03000 983.583
22.04000 975.091
22.05000 968.404
22.06000 947.368
22.07000 929.551
22.08000 911.365
22.09000 892.325
22.10000 873.250
22.11000 854.771
22.12000 837.218
22.13000 819.676
22.14000 810.838
22.15000 767.943
22.16000 739.439
22.17000 727.184
22.18000 725.655
22.19000 723.610
22.20000 707.901
22.21000 686.123
22.22000 665.608
22.23000 655.742
22.24000 649.639
22.25000 642.315
22.26000 626.192
22.27000 608.325
22.28000 592.996
22.29000 589.297
22.30000 587.041
22.31000 585.314
22.32000 582.896
22.33000 580.951
22.34000 578.919
22.35000 576.707
22.36000 574.490
22.37000 575.248
22.38000 580.117
22.39000 585.009
22.40000 581.894
22.41000 571.656
22.42000 561.484
22.43000 555.290
22.44000 551.431
22.45000 547.677
22.46000 546.108
22.47000 545.405
22.48000 544.750
22.49000 553.094
22.50000 562.799
22.51000 570.127
22.52000 562.529
22.53000 552.330
22.54000 543.244
22.55000 538.679
22.56000 534.595
22.57000 531.564
22.58000 531.756
22.59000 532.046
22.60000 533.786
22.61000 538.197
22.62000 542.666
22.63000 545.194
22.64000 545.351
22.65000 545.502
22.66000 544.261
22.67000 541.939
22.68000 539.721
22.69000 541.803
22.70000 546.135
22.71000 550.018
22.72000 546.478
22.73000 540.309
22.74000 534.652
22.75000 534.299
22.76000 535.105
22.77000 536.573
22.78000 541.688
22.79000 547.358
22.80000 551.594
22.81000 550.659
22.82000 549.257
22.83000 548.252
22.84000 543.671
22.85000 540.046
22.86000 538.586
22.87000 540.676
22.88000 542.817
22.89000 542.846
22.90000 540.601
22.91000 538.366
22.92000 536.695
22.93000 535.431
22.94000 534.173
22.95000 533.083
22.96000 532.072
22.97000 531.736
22.98000 540.553
22.99000 552.262
23.00000 562.834
23.01000 557.414
23.02000 549.704
23.03000 542.793
23.04000 539.761
23.05000 537.241
23.06000 535.214
23.07000 534.770
23.08000 534.446
23.09000 534.221
23.10000 519.944
23.11000 508.839
23.12000 505.768
23.13000 514.411
23.14000 523.152
23.15000 530.360
23.16000 536.122
23.17000 541.834
23.18000 537.128
23.19000 526.182
23.20000 515.636
23.21000 514.257
23.22000 516.703
23.23000 518.652
23.24000 514.964
23.25000 509.690
23.26000 505.008
23.27000 518.991
23.28000 534.099
23.29000 544.504
23.30000 534.764
23.31000 522.728
23.32000 514.885
23.33000 519.047
23.34000 523.953
23.35000 527.217
23.36000 510.390
23.37000 497.564
23.38000 493.217
23.39000 499.822
23.40000 506.459
23.41000 507.532
23.42000 503.984
23.43000 500.483
23.44000 504.194
23.45000 511.669
23.46000 518.801
23.47000 519.661
23.48000 518.187
23.49000 516.994
23.50000 518.505
23.51000 520.693
23.52000 522.599
23.53000 517.802
23.54000 512.775
23.55000 508.145
23.56000 505.024
23.57000 502.050
23.58000 500.626
23.59000 503.166
23.60000 505.904
23.61000 507.649
23.62000 503.187
23.63000 499.863
23.64000 502.817
23.65000 512.927
23.66000 523.008
23.67000 526.676
23.68000 525.633
23.69000 524.611
23.70000 519.886
23.71000 513.581
23.72000 507.914
23.73000 511.677
23.74000 518.575
23.75000 524.534
23.76000 522.775
23.77000 519.306
23.78000 516.344
23.79000 513.480
23.80000 511.079
23.81000 509.634
23.82000 511.419
23.83000 513.468
23.84000 516.585
23.85000 522.138
23.86000 527.786
23.87000 531.223
23.88000 519.730
23.89000 511.404
23.90000 509.750
23.91000 514.774
23.92000 519.724
23.93000 517.872
23.94000 511.586
23.95000 505.466
23.96000 499.875
23.97000 494.769
23.98000 490.313
23.99000 493.830
24.00000 499.710
24.01000 505.378
24.02000 509.545
24.03000 513.417
24.04000 516.652
24.05000 513.873
24.06000 510.956
24.07000 509.442
24.08000 512.150
24.09000 515.144
24.10000 516.485
24.11000 514.457
24.12000 512.330
24.13000 511.099
24.14000 518.153
24.15000 523.123
24.16000 520.576
24.17000 511.422
24.18000 502.287
24.19000 494.258
24.20000 486.871
24.21000 479.738
24.22000 485.529
24.23000 495.755
24.24000 504.881
24.25000 502.655
24.26000 497.436
24.27000 493.451
24.28000 497.102
24.29000 502.065
24.30000 506.114
24.31000 503.171
24.32000 500.166
24.33000 495.582
24.34000 486.749
24.35000 477.682
24.36000 474.082
24.37000 480.422
24.38000 486.970
24.39000 490.553
24.40000 498.846
24.41000 504.536
24.42000 505.447
24.43000 502.653
24.44000 499.903
24.45000 498.894
24.46000 498.786
24.47000 498.683
24.48000 497.225
24.49000 495.427
24.50000 494.332
24.51000 499.419
24.52000 505.951
24.53000 511.585
24.54000 512.347
24.55000 512.378
24.56000 512.402
24.57000 511.942
24.58000 511.537
24.59000 508.234
24.60000 497.973
24.61000 487.409
24.62000 483.427
24.63000 490.108
24.64000 496.936
24.65000 500.452
24.66000 499.234
24.67000 498.400
24.68000 495.941
24.69000 492.366
24.70000 488.876
24.71000 487.901
24.72000 488.086
24.73000 488.262
24.74000 484.889
24.75000 480.772
24.76000 477.604
24.77000 481.623
24.78000 487.127
24.79000 491.980
24.80000 493.720
24.81000 495.055
24.82000 496.086
24.83000 489.808
24.84000 484.398
24.85000 480.797
24.86000 481.073
24.87000 481.479
24.88000 482.270
24.89000 483.613
24.90000 484.961
24.91000 486.745
24.92000 488.933
24.93000 491.154
24.94000 495.711
24.95000 501.694
24.96000 507.397
24.97000 506.822
24.98000 503.660
24.99000 500.706
25.00000 498.960
25.01000 497.680
25.02000 496.607
25.03000 496.892
25.04000 497.425
25.05000 496.994
25.06000 492.486
25.07000 487.521
25.08000 483.797
25.09000 484.545
25.10000 485.341
25.11000 485.854
25.12000 485.827
25.13000 485.786
25.14000 487.053
25.15000 489.986
25.16000 492.921
25.17000 495.544
25.18000 497.903
25.19000 500.090
25.20000 494.336
25.21000 484.261
25.22000 474.544
25.23000 471.203
25.24000 470.209
25.25000 469.292
25.26000 467.565
25.27000 465.839
25.28000 465.516
25.29000 473.262
25.30000 482.295
25.31000 488.894
25.32000 486.362
25.33000 482.958
25.34000 480.487
25.35000 478.746
25.36000 477.435
25.37000 476.236
25.38000 475.228
25.39000 474.222
25.40000 478.200
25.41000 487.781
25.42000 497.332
25.43000 496.561
25.44000 488.380
25.45000 480.341
25.46000 477.037
25.47000 476.032
25.48000 475.275
25.49000 478.108
25.50000 482.121
25.51000 485.765
25.52000 482.131
25.53000 477.518
25.54000 473.436
25.55000 472.037
25.56000 471.010
25.57000 470.805
25.58000 473.343
25.59000 476.102
25.60000 478.034
25.61000 484.009
25.62000 488.645
25.63000 489.636
25.64000 485.098
25.65000 480.502
25.66000 476.998
25.67000 474.572
25.68000 472.162
25.69000 474.426
25.70000 479.615
25.71000 484.549
25.72000 483.108
25.73000 478.906
25.74000 475.056
25.75000 475.448
25.76000 477.081
25.77000 478.539
25.78000 483.712
25.79000 488.840
25.80000 491.886
25.81000 485.640
25.82000 478.278
25.83000 473.975
25.84000 478.775
25.85000 484.180
25.86000 487.825
25.87000 493.665
25.88000 498.056
25.89000 500.627
25.90000 500.750
25.91000 500.853
25.92000 496.324
25.93000 487.781
25.94000 479.336
25.95000 476.971
25.96000 478.061
25.97000 478.937
25.98000 475.624
25.99000 470.689
26.00000 466.401
26.01000 468.672
26.02000 472.650
26.03000 476.139
26.04000 476.086
26.05000 475.525
26.06000 476.075
26.07000 481.017
26.08000 486.410
26.09000 488.736
26.10000 482.915
26.11000 476.655
26.12000 472.605
26.13000 476.469
26.14000 479.412
26.15000 480.908
26.16000 480.684
26.17000 480.445
26.18000 477.283
26.19000 471.885
26.20000 466.580
26.21000 464.587
26.22000 464.296
26.23000 464.471
26.24000 471.999
26.25000 482.069
26.26000 489.774
26.27000 477.018
26.28000 459.540
26.29000 444.509
26.30000 451.319
26.31000 459.817
26.32000 466.804
26.33000 468.478
26.34000 469.690
26.35000 468.396
26.36000 461.160
26.37000 453.671
26.38000 449.040
26.39000 461.290
26.40000 470.251
26.41000 474.243
26.42000 473.033
26.43000 471.810
26.44000 469.148
26.45000 465.512
26.46000 461.962
26.47000 467.010
26.48000 475.587
26.49000 482.860
26.50000 473.145
26.51000 458.194
26.52000 446.754
26.53000 461.483
26.54000 481.551
26.55000 498.444
26.56000 482.432
26.57000 465.556
26.58000 454.232
26.59000 460.303
26.60000 467.634
26.61000 470.491
26.62000 463.871
26.63000 456.944
26.64000 452.866
26.65000 459.479
26.66000 464.197
26.67000 463.555
26.68000 457.994
26.69000 452.535
26.70000 453.886
26.71000 459.344
26.72000 464.629
26.73000 466.203
26.74000 466.262
26.75000 466.866
26.76000 473.418
26.77000 481.602
26.78000 487.663
26.79000 479.967
26.80000 469.801
26.81000 461.440
26.82000 454.868
26.83000 449.630
26.84000 448.223
26.85000 457.522
26.86000 467.457
26.87000 470.287
26.88000 459.685
26.89000 448.766
26.90000 442.673
26.91000 460.381
26.92000 472.660
26.93000 474.187
26.94000 467.020
26.95000 459.993
26.96000 459.160
26.97000 461.656
26.98000 464.051
26.99000 471.630
27.00000 480.475
27.01000 488.101
27.02000 484.432
27.03000 478.012
27.04000 471.696
27.05000 465.965
27.06000 460.326
27.07000 455.804
27.08000 454.959
27.09000 454.553
27.10000 453.498
27.11000 450.818
27.12000 448.062
27.13000 444.114
27.14000 438.160
27.15000 432.173
27.16000 429.024
27.17000 433.483
27.18000 436.520
27.19000 440.786
27.20000 445.933
27.21000 451.123
27.22000 457.696
27.23000 464.932
27.24000 471.802
27.25000 469.444
27.26000 464.505
27.27000 459.836
27.28000 457.322
27.29000 455.271
27.30000 453.289
27.31000 451.648
27.32000 450.053
27.33000 448.808
27.34000 444.358
27.35000 440.607
27.36000 437.223
27.37000 434.657
27.38000 432.120
27.39000 435.370
27.40000 447.290
27.41000 459.295
27.42000 468.113
27.43000 473.830
27.44000 479.437
27.45000 475.958
27.46000 466.706
27.47000 457.648
27.48000 453.339
27.49000 451.063
27.50000 448.928
27.51000 453.286
27.52000 458.966
27.53000 463.256
27.54000 457.965
27.55000 450.851
27.56000 445.287
27.57000 446.553
27.58000 448.626
27.59000 450.197
27.60000 454.462
27.61000 457.949
27.62000 458.711
27.63000 454.054
27.64000 449.248
27.65000 446.403
27.66000 446.162
27.67000 445.934
27.68000 445.872
27.69000 445.949
27.70000 445.995
27.71000 444.342
27.72000 441.728
27.73000 439.506
27.74000 444.774
27.75000 452.908
27.76000 460.439
27.77000 450.291
27.78000 437.079
27.79000 426.305
27.80000 430.182
27.81000 436.505
27.82000 443.608
27.83000 453.757
27.84000 464.214
27.85000 471.891
27.86000 459.495
27.87000 449.098
27.88000 442.148
27.89000 441.313
27.90000 440.595
27.91000 441.978
27.92000 445.828
27.93000 449.671
27.94000 447.090
27.95000 439.707
27.96000 432.518
27.97000 432.442
27.98000 435.955
27.99000 439.205
28.00000 438.383
28.01000 436.171
28.02000 434.152
28.03000 435.776
28.04000 437.954
28.05000 440.296
28.06000 443.504
28.07000 446.839
28.08000 449.871
28.09000 451.851
28.10000 453.741
28.11000 455.082
28.12000 455.202
28.13000 455.256
28.14000 453.944
28.15000 450.476
28.16000 446.982
28.17000 444.644
28.18000 443.501
28.19000 442.365
28.20000 445.292
28.21000 450.867
28.22000 456.379
28.23000 460.147
28.24000 463.130
28.25000 465.062
28.26000 453.569
28.27000 437.990
28.28000 423.998
28.29000 431.891
28.30000 442.653
28.31000 452.081
28.32000 455.302
28.33000 457.739
28.34000 458.391
28.35000 453.518
28.36000 448.254
28.37000 444.657
28.38000 445.687
28.39000 446.567
28.40000 444.002
28.41000 436.604
28.42000 429.173
28.43000 422.940
28.44000 417.790
28.45000 412.690
28.46000 413.876
28.47000 418.702
28.48000 423.629
28.49000 430.710
28.50000 438.656
28.51000 445.730
28.52000 443.452
28.53000 438.639
28.54000 434.392
28.55000 427.543
28.56000 421.237
28.57000 418.385
28.58000 429.765
28.59000 442.688
28.60000 449.911
28.61000 441.404
28.62000 431.985
28.63000 425.803
28.64000 418.601
28.65000 413.286
28.66000 412.315
28.67000 416.737
28.68000 421.175
28.69000 425.490
28.70000 429.707
28.71000 433.861
28.72000 434.295
28.73000 432.802
28.74000 431.495
28.75000 433.331
28.76000 436.297
28.77000 438.521
28.78000 433.988
28.79000 427.830
28.80000 422.497
28.81000 425.828
28.82000 429.803
28.83000 432.506
28.84000 430.557
28.85000 428.180
28.86000 427.375
28.87000 430.445
28.88000 433.694
28.89000 435.735
28.90000 439.671
28.91000 442.537
28.92000 440.567
28.93000 433.306
28.94000 426.081
28.95000 424.232
28.96000 426.180
28.97000 428.086
28.98000 425.850
28.99000 421.819
29.00000 418.559
29.01000 425.992
29.02000 436.850
29.03000 445.705
29.04000 438.867
29.05000 428.688
29.06000 420.055
29.07000 419.927
29.08000 420.780
29.09000 422.829
29.10000 428.770
29.11000 435.011
29.12000 438.814
29.13000 437.250
29.14000 435.495
29.15000 434.443
29.16000 433.442
29.17000 432.732
29.18000 433.397
29.19000 435.381
29.20000 437.316
29.21000 435.469
29.22000 431.250
29.23000 427.153
29.24000 425.096
29.25000 423.963
29.26000 422.926
29.27000 422.993
29.28000 423.376
29.29000 424.858
29.30000 433.808
29.31000 444.158
29.32000 452.739
29.33000 450.734
29.34000 448.063
29.35000 444.836
29.36000 440.001
29.37000 435.063
29.38000 432.378
29.39000 434.121
29.40000 435.981
29.41000 437.039
29.42000 436.039
29.43000 435.340
29.44000 436.774
29.45000 440.007
29.46000 443.098
29.47000 439.083
29.48000 431.096
29.49000 423.408
29.50000 421.178
29.51000 421.020
29.52000 420.991
29.53000 422.220
29.54000 423.769
29.55000 424.934
29.56000 423.823
29.57000 422.338
29.58000 421.136
29.59000 418.689
29.60000 416.596
29.61000 418.153
29.62000 429.168
29.63000 440.669
29.64000 447.412
29.65000 445.821
29.66000 444.077
29.67000 443.140
29.68000 429.794
29.69000 420.712
29.70000 420.050
29.71000 425.666
29.72000 431.201
29.73000 433.899
29.74000 435.182
29.75000 436.405
29.76000 431.378
29.77000 424.765
29.78000 418.872
29.79000 419.007
29.80000 420.498
29.81000 422.974
29.82000 430.574
29.83000 438.910
29.84000 445.479
29.85000 458.324
29.86000 469.041
29.87000 474.987
29.88000 469.886
29.89000 464.340
29.90000 462.614
29.91000 466.845
29.92000 471.146
29.93000 473.316
29.94000 475.718
29.95000 477.295
29.96000 476.031
29.97000 472.890
29.98000 469.742
29.99000 466.399
30.00000 462.970
30.01000 459.739
30.02000 455.172
30.03000 450.625
30.04000 447.022
30.05000 450.240
30.06000 454.813
30.07000 459.310
30.08000 463.458
30.09000 467.563
30.10000 470.705
30.11000 465.752
30.12000 461.397
30.13000 458.610
30.14000 459.061
30.15000 459.611
30.16000 457.885
30.17000 453.007
30.18000 448.111
30.19000 445.098
30.20000 443.767
30.21000 442.585
30.22000 450.369
30.23000 463.428
30.24000 475.848
30.25000 475.071
30.26000 469.050
30.27000 463.448
30.28000 458.549
30.29000 454.293
30.30000 451.144
30.31000 454.967
30.32000 460.007
30.33000 462.625
30.34000 455.395
30.35000 447.116
30.36000 440.970
30.37000 441.450
30.38000 442.115
30.39000 442.253
30.40000 441.419
30.41000 440.565
30.42000 442.543
30.43000 447.992
30.44000 453.438
30.45000 452.100
30.46000 445.453
30.47000 438.974
30.48000 439.407
30.49000 443.464
30.50000 447.482
30.51000 450.872
30.52000 454.039
30.53000 456.944
30.54000 457.943
30.55000 458.430
30.56000 458.530
30.57000 456.501
30.58000 454.147
30.59000 453.011
30.60000 456.279
30.61000 459.945
30.62000 462.577
30.63000 459.417
30.64000 456.800
30.65000 457.707
30.66000 464.402
30.67000 471.182
30.68000 474.985
30.69000 475.579
30.70000 476.168
30.71000 473.723
30.72000 469.211
30.73000 465.046
30.74000 471.338
30.75000 482.523
30.76000 493.053
30.77000 494.657
30.78000 493.436
30.79000 492.334
30.80000 499.284
30.81000 506.880
30.82000 513.905
30.83000 518.162
30.84000 522.052
30.85000 526.191
30.86000 531.130
30.87000 536.129
30.88000 539.590
30.89000 543.726
30.90000 546.856
30.91000 553.223
30.92000 564.317
30.93000 575.453
30.94000 591.444
30.95000 612.028
30.96000 632.441
30.97000 654.057
30.98000 676.010
30.99000 698.131
31.00000 724.115
31.01000 751.713
31.02000 782.223
31.03000 845.798
31.04000 918.692
31.05000 983.419
31.06000 1057.064
31.07000 1122.340
31.08000 1194.027
31.09000 1293.225
31.10000 1395.566
31.11000 1506.502
31.12000 1642.090
31.13000 1779.212
31.14000 1870.478
31.15000 2057.253
31.16000 2197.256
31.17000 2352.193
31.18000 2526.457
31.19000 2700.784
31.20000 2868.583
31.21000 3030.949
31.22000 3191.177
31.23000 3351.104
31.24000 3506.560
31.25000 3659.984
31.26000 3776.335
31.27000 3878.852
31.28000 3979.333
31.29000 4060.234
31.30000 4136.233
31.31000 4202.476
31.32000 4190.948
31.33000 4170.310
31.34000 4141.801
31.35000 4083.325
31.36000 4021.929
31.37000 3942.345
31.38000 3816.186
31.39000 3687.695
31.40000 3605.745
31.41000 3391.748
31.42000 3234.419
31.43000 3072.256
31.44000 2904.573
31.45000 2736.847
31.46000 2562.800
31.47000 2384.100
31.48000 2208.818
31.49000 2047.454
31.50000 1898.591
31.51000 1751.303
31.52000 1627.364
31.53000 1511.200
31.54000 1396.302
31.55000 1291.825
31.56000 1189.662
31.57000 1102.394
31.58000 1004.161
31.59000 920.099
31.60000 845.721
31.61000 804.137
31.62000 765.244
31.63000 727.833
31.64000 693.812
31.65000 659.924
31.66000 639.290
31.67000 612.847
31.68000 593.910
31.69000 578.567
31.70000 566.827
31.71000 555.139
31.72000 548.156
31.73000 544.246
31.74000 540.438
31.75000 529.801
31.76000 516.801
31.77000 504.051
31.78000 494.369
31.79000 485.598
31.80000 477.751
31.81000 476.490
31.82000 476.520
31.83000 476.545
31.84000 472.032
31.85000 467.825
31.86000 465.067
31.87000 466.677
31.88000 468.586
31.89000 467.852
31.90000 461.724
31.91000 455.437
31.92000 451.798
31.93000 450.657
31.94000 449.864
31.95000 446.101
31.96000 439.723
31.97000 433.466
31.98000 434.108
31.99000 438.759
32.00000 443.249
32.01000 438.577
32.02000 430.787
32.03000 424.284
32.04000 431.090
32.05000 441.411
32.06000 449.467
32.07000 443.479
32.08000 435.074
32.09000 428.215
32.10000 425.050
32.11000 422.778
32.12000 422.098
32.13000 425.708
32.14000 429.555
32.15000 428.297
32.16000 417.741
32.17000 406.989
32.18000 401.100
32.19000 406.576
32.20000 410.353
32.21000 412.891
32.22000 414.466
32.23000 416.060
32.24000 418.406
32.25000 421.144
32.26000 423.761
32.27000 420.621
32.28000 415.820
32.29000 411.019
32.30000 406.214
32.31000 401.409
32.32000 397.278
32.33000 396.812
32.34000 396.899
32.35000 396.968
32.36000 391.136
32.37000 386.015
32.38000 384.160
32.39000 390.160
32.40000 396.505
32.41000 398.404
32.42000 393.093
32.43000 387.681
32.44000 384.891
32.45000 382.328
32.46000 380.666
32.47000 386.642
32.48000 397.876
32.49000 408.688
32.50000 407.208
32.51000 400.046
32.52000 393.271
32.53000 394.459
32.54000 397.837
32.55000 400.728
32.56000 399.913
32.57000 398.330
32.58000 396.108
32.59000 390.831
32.60000 385.154
32.61000 380.764
32.62000 374.604
32.63000 369.612
32.64000 369.722
32.65000 380.790
32.66000 392.227
32.67000 396.421
32.68000 390.172
32.69000 383.840
32.70000 382.384
32.71000 385.475
32.72000 388.474
32.73000 385.045
32.74000 377.684
32.75000 370.410
32.76000 365.096
32.77000 360.591
32.78000 356.382
32.79000 369.749
32.80000 386.316
32.81000 400.623
32.82000 400.037
32.83000 396.733
32.84000 395.314
32.85000 401.874
32.86000 409.330
32.87000 414.925
32.88000 421.768
32.89000 427.173
32.90000 432.783
32.91000 438.788
32.92000 444.802
32.93000 450.822
32.94000 456.849
32.95000 462.869
32.96000 469.498
32.97000 476.603
32.98000 483.599
32.99000 485.575
33.00000 484.813
33.01000 484.076
33.02000 483.772
33.03000 483.629
33.04000 483.496
33.05000 482.693
33.06000 481.825
33.07000 480.002
33.08000 472.676
33.09000 464.470
33.10000 457.340
33.11000 454.253
33.12000 451.552
33.13000 449.591
33.14000 434.076
33.15000 421.637
33.16000 411.614
33.17000 405.719
33.18000 399.894
33.19000 391.199
33.20000 379.270
33.21000 367.380
33.22000 366.190
33.23000 372.714
33.24000 379.049
33.25000 379.089
33.26000 376.067
33.27000 372.992
33.28000 369.155
33.29000 365.067
33.30000 361.355
33.31000 359.773
33.32000 358.787
33.33000 357.820
33.34000 356.942
33.35000 356.078
33.36000 355.569
33.37000 356.251
33.38000 357.030
33.39000 357.575
33.40000 351.707
33.41000 347.083
33.42000 346.265
33.43000 351.234
33.44000 356.263
33.45000 357.461
33.46000 354.872
33.47000 352.301
33.48000 353.756
33.49000 357.745
33.50000 361.652
33.51000 363.529
33.52000 364.523
33.53000 365.097
33.54000 360.591
33.55000 354.597
33.56000 349.243
33.57000 348.886
33.58000 349.416
33.59000 348.884
33.60000 343.603
33.61000 337.751
33.62000 334.631
33.63000 339.656
33.64000 345.222
33.65000 348.979
33.66000 359.778
33.67000 367.963
33.68000 371.019
33.69000 367.155
33.70000 363.251
33.71000 357.409
33.72000 349.885
33.73000 342.447
33.74000 338.337
33.75000 336.190
33.76000 334.336
33.77000 338.248
33.78000 344.396
33.79000 350.207
33.80000 352.604
33.81000 354.111
33.82000 355.433
33.83000 348.186
33.84000 340.713
33.85000 336.551
33.86000 345.512
33.87000 355.824
33.88000 361.929
33.89000 356.842
33.90000 351.150
33.91000 347.466
33.92000 346.360
33.93000 345.589
33.94000 345.553
33.95000 346.392
33.96000 347.212
33.97000 343.279
33.98000 335.702
33.99000 328.254
34.00000 328.368
34.01000 332.218
34.02000 335.852
34.03000 336.070
34.04000 335.105
34.05000 334.985
34.06000 342.193
34.07000 351.096
34.08000 358.754
34.09000 359.008
34.10000 358.294
34.11000 356.715
34.12000 352.089
34.13000 347.198
34.14000 344.085
34.15000 345.194
34.16000 346.485
34.17000 347.283
34.18000 349.582
34.19000 351.249
34.20000 350.169
34.21000 346.209
34.22000 342.269
34.23000 340.549
34.24000 340.338
34.25000 340.132
34.26000 341.013
34.27000 342.331
34.28000 343.602
34.29000 344.266
34.30000 344.743
34.31000 345.416
34.32000 347.549
34.33000 349.980
34.34000 352.027
34.35000 352.238
34.36000 352.216
34.37000 350.131
34.38000 341.571
34.39000 332.542
34.40000 327.581
34.41000 331.252
34.42000 335.206
34.43000 337.535
34.44000 339.621
34.45000 341.091
34.46000 339.015
34.47000 333.679
34.48000 328.432
34.49000 329.116
34.50000 333.384
34.51000 337.517
34.52000 341.873
34.53000 346.080
34.54000 349.425
34.55000 343.334
34.56000 334.651
34.57000 327.695
34.58000 331.949
34.59000 338.222
34.60000 343.382
34.61000 338.591
34.62000 333.748
34.63000 329.928
34.64000 328.971
34.65000 328.184
34.66000 324.727
34.67000 316.213
34.68000 307.579
34.69000 302.758
34.70000 318.632
34.71000 329.649
34.72000 333.884
34.73000 332.623
34.74000 331.305
34.75000 327.444
34.76000 322.214
34.77000 317.196
34.78000 321.671
34.79000 329.086
34.80000 335.944
34.81000 337.634
34.82000 338.063
34.83000 337.972
34.84000 334.931
34.85000 331.426
34.86000 328.613
34.87000 323.823
34.88000 319.793
34.89000 318.350
34.90000 323.374
34.91000 328.706
34.92000 332.975
34.93000 335.450
34.94000 337.897
34.95000 339.185
34.96000 343.314
34.97000 346.081
34.98000 343.595
34.99000 337.343
35.00000 331.224
35.01000 329.367
35.02000 329.558
35.03000 329.740
35.04000 328.565
35.05000 327.075
35.06000 325.912
35.07000 327.364
35.08000 329.382
35.09000 330.150
35.10000 324.678
35.11000 318.349
35.12000 313.408
35.13000 317.871
35.14000 322.024
35.15000 325.238
35.16000 326.359
35.17000 327.403
35.18000 328.505
35.19000 329.696
35.20000 330.887
35.21000 330.639
35.22000 328.987
35.23000 327.343
35.24000 326.325
35.25000 325.706
35.26000 325.158
35.27000 326.329
35.28000 328.238
35.29000 330.030
35.30000 329.585
35.31000 328.591
35.32000 328.096
35.33000 331.052
35.34000 334.667
35.35000 336.565
35.36000 330.893
35.37000 324.325
35.38000 319.345
35.39000 319.490
35.40000 319.867
35.41000 320.125
35.42000 320.146
35.43000 320.161
35.44000 320.123
35.45000 320.016
35.46000 319.909
35.47000 319.769
35.48000 319.603
35.49000 319.448
35.50000 319.914
35.51000 320.732
35.52000 321.267
35.53000 316.385
35.54000 309.429
35.55000 302.986
35.56000 308.320
35.57000 315.844
35.58000 321.800
35.59000 318.311
35.60000 313.242
35.61000 309.381
35.62000 310.248
35.63000 311.593
35.64000 312.581
35.65000 315.538
35.66000 317.903
35.67000 319.020
35.68000 317.916
35.69000 316.770
35.70000 317.514
35.71000 320.480
35.72000 323.442
35.73000 323.125
35.74000 320.346
35.75000 317.511
35.76000 312.599
35.77000 306.637
35.78000 301.218
35.79000 304.204
35.80000 310.064
35.81000 315.413
35.82000 311.838
35.83000 306.858
35.84000 302.294
35.85000 299.931
35.86000 297.890
35.87000 298.629
35.88000 309.037
35.89000 320.272
35.90000 328.245
35.91000 318.758
35.92000 310.987
35.93000 304.977
35.94000 301.751
35.95000 298.560
35.96000 295.732
35.97000 293.281
35.98000 290.843
35.99000 296.115
36.00000 306.423
36.01000 316.531
36.02000 321.151
36.03000 323.296
36.04000 325.082
36.05000 322.272
36.06000 318.060
36.07000 314.276
36.08000 312.166
36.09000 310.614
36.10000 308.450
36.11000 303.427
36.12000 298.044
36.13000 295.469
36.14000 301.598
36.15000 308.346
36.16000 312.960
36.17000 309.943
36.18000 307.504
36.19000 305.176
36.20000 303.004
36.21000 300.832
36.22000 298.554
36.23000 296.179
36.24000 293.827
36.25000 299.502
36.26000 309.745
36.27000 319.730
36.28000 324.199
36.29000 326.445
36.30000 328.266
36.31000 325.519
36.32000 321.532
36.33000 318.012
36.34000 317.166
36.35000 316.846
36.36000 315.619
36.37000 310.652
36.38000 305.279
36.39000 300.341
36.40000 296.608
36.41000 292.945
36.42000 290.540
36.43000 302.356
36.44000 311.290
36.45000 317.104
36.46000 319.036
36.47000 320.943
36.48000 318.151
36.49000 311.604
36.50000 305.155
36.51000 305.396
36.52000 309.082
36.53000 312.386
36.54000 309.189
36.55000 303.655
36.56000 298.961
36.57000 301.946
36.58000 306.781
36.59000 310.969
36.60000 308.155
36.61000 304.836
36.62000 301.893
36.63000 300.326
36.64000 298.886
36.65000 298.341
36.66000 300.006
36.67000 301.774
36.68000 302.886
36.69000 302.763
36.70000 302.660
36.71000 301.401
36.72000 298.873
36.73000 296.341
36.74000 293.250
36.75000 289.763
36.76000 286.350
36.77000 288.093
36.78000 292.115
36.79000 296.212
36.80000 301.363
36.81000 306.852
36.82000 311.375
36.83000 308.315
36.84000 303.638
36.85000 299.671
36.86000 304.798
36.87000 310.128
36.88000 312.766
36.89000 306.628
36.90000 299.812
36.91000 296.658
36.92000 301.580
36.93000 306.793
36.94000 309.917
36.95000 305.193
36.96000 301.787
36.97000 300.170
36.98000 300.271
36.99000 300.412
37.00000 303.630
37.01000 308.782
37.02000 313.786
37.03000 307.249
37.04000 296.396
37.05000 286.774
37.06000 291.418
37.07000 300.141
37.08000 308.273
37.09000 312.390
37.10000 315.752
37.11000 318.541
37.12000 311.273
37.13000 304.302
37.14000 299.571
37.15000 301.358
37.16000 303.560
37.17000 302.967
37.18000 296.873
37.19000 290.632
37.20000 287.081
37.21000 299.812
37.22000 308.719
37.23000 308.382
37.24000 300.234
37.25000 292.274
37.26000 293.833
37.27000 300.720
37.28000 307.351
37.29000 306.275
37.30000 302.528
37.31000 299.050
37.32000 298.213
37.33000 298.047
37.34000 298.335
37.35000 301.322
37.36000 304.754
37.37000 307.532
37.38000 307.828
37.39000 307.868
37.40000 306.701
37.41000 302.401
37.42000 297.941
37.43000 294.579
37.44000 293.145
37.45000 291.747
37.46000 290.995
37.47000 296.015
37.48000 299.447
37.49000 302.444
37.50000 305.117
37.51000 307.632
37.52000 304.552
37.53000 298.679
37.54000 293.082
37.55000 294.270
37.56000 297.497
37.57000 300.121
37.58000 297.694
37.59000 294.130
37.60000 292.089
37.61000 297.989
37.62000 305.030
37.63000 310.580
37.64000 304.198
37.65000 298.279
37.66000 294.449
37.67000 295.463
37.68000 296.673
37.69000 297.335
37.70000 297.139
37.71000 296.934
37.72000 296.830
37.73000 305.878
37.74000 311.820
37.75000 306.963
37.76000 294.953
37.77000 283.477
37.78000 286.234
37.79000 295.334
37.80000 303.909
37.81000 300.786
37.82000 294.703
37.83000 289.673
37.84000 292.262
37.85000 296.368
37.86000 299.367
37.87000 297.275
37.88000 294.549
37.89000 292.461
37.90000 303.805
37.91000 313.501
37.92000 318.530
37.93000 313.896
37.94000 308.967
37.95000 305.492
37.96000 304.033
37.97000 302.588
37.98000 298.665
37.99000 292.534
38.00000 286.454
38.01000 283.478
38.02000 282.331
38.03000 281.347
38.04000 283.752
38.05000 287.506
38.06000 290.999
38.07000 296.816
38.08000 302.635
38.09000 307.889
38.10000 309.581
38.11000 310.650
38.12000 310.720
38.13000 306.719
38.14000 302.284
38.15000 298.990
38.16000 304.246
38.17000 308.709
38.18000 309.275
38.19000 302.641
38.20000 295.849
38.21000 296.498
38.22000 306.278
38.23000 316.063
38.24000 323.147
38.25000 328.078
38.26000 332.906
38.27000 333.504
38.28000 331.881
38.29000 330.152
38.30000 326.670
38.31000 322.564
38.32000 318.797
38.33000 333.136
38.34000 349.757
38.35000 363.513
38.36000 361.452
38.37000 356.970
38.38000 355.599
38.39000 365.483
38.40000 376.387
38.41000 384.218
38.42000 385.047
38.43000 385.438
38.44000 389.800
38.45000 400.696
38.46000 411.688
38.47000 427.555
38.48000 448.691
38.49000 469.733
38.50000 477.252
38.51000 475.346
38.52000 473.946
38.53000 487.867
38.54000 508.969
38.55000 529.331
38.56000 539.606
38.57000 546.683
38.58000 553.077
38.59000 554.343
38.60000 554.508
38.61000 554.145
38.62000 551.216
38.63000 547.947
38.64000 551.448
38.65000 576.760
38.66000 603.727
38.67000 622.406
38.68000 605.896
38.69000 592.548
38.70000 580.058
38.71000 568.824
38.72000 557.601
38.73000 544.138
38.74000 528.554
38.75000 513.098
38.76000 503.443
38.77000 497.497
38.78000 491.340
38.79000 480.294
38.80000 467.203
38.81000 453.975
38.82000 439.201
38.83000 423.989
38.84000 410.478
38.85000 401.033
38.86000 393.497
38.87000 386.589
38.88000 382.383
38.89000 378.486
38.90000 373.133
38.91000 363.596
38.92000 353.798
38.93000 347.272
38.94000 337.117
38.95000 329.532
38.96000 323.894
38.97000 320.782
38.98000 317.688
38.99000 317.902
39.00000 320.877
39.01000 323.812
39.02000 321.549
39.03000 316.551
39.04000 311.448
39.05000 304.427
39.06000 296.690
39.07000 289.919
39.08000 292.465
39.09000 297.348
39.10000 301.606
39.11000 305.849
39.12000 309.475
39.13000 310.877
39.14000 303.799
39.15000 295.894
39.16000 290.334
39.17000 290.791
39.18000 291.550
39.19000 292.035
39.20000 288.247
39.21000 285.435
39.22000 282.767
39.23000 280.261
39.24000 277.773
39.25000 278.438
39.26000 281.426
39.27000 284.358
39.28000 284.815
39.29000 284.081
39.30000 283.227
39.31000 280.600
39.32000 277.382
39.33000 274.458
39.34000 273.964
39.35000 274.011
39.36000 274.051
39.37000 270.291
39.38000 266.670
39.39000 265.592
39.40000 273.141
39.41000 281.401
39.42000 287.117
39.43000 287.011
39.44000 286.675
39.45000 286.471
39.46000 279.489
39.47000 274.446
39.48000 272.406
39.49000 273.383
39.50000 274.374
39.51000 276.644
39.52000 279.751
39.53000 282.777
39.54000 277.874
39.55000 269.872
39.56000 262.634
39.57000 264.793
39.58000 269.748
39.59000 273.666
39.60000 270.194
39.61000 265.271
39.62000 261.156
39.63000 257.620
39.64000 254.744
39.65000 254.803
39.66000 263.741
39.67000 273.284
39.68000 279.308
39.69000 278.133
39.70000 276.744
39.71000 275.940
39.72000 263.548
39.73000 254.817
39.74000 256.068
39.75000 266.123
39.76000 276.101
39.77000 281.609
39.78000 284.516
39.79000 287.324
39.80000 281.155
39.81000 272.016
39.82000 263.333
39.83000 259.373
39.84000 256.663
39.85000 255.387
39.86000 263.025
39.87000 272.200
39.88000 279.690
39.89000 274.729
39.90000 269.601
39.91000 264.216
39.92000 258.141
39.93000 252.028
39.94000 248.883
39.95000 251.155
39.96000 253.542
39.97000 254.850
39.98000 251.115
39.99000 248.556
40.00000 250.579
40.01000 256.169
40.02000 261.598
40.03000 260.640
40.04000 256.368
40.05000 252.282
40.06000 251.246
40.07000 251.278
40.08000 251.763
40.09000 256.252
40.10000 261.680
40.11000 266.500
40.12000 268.006
40.13000 269.014
40.14000 269.815
40.15000 265.379
40.16000 261.429
40.17000 258.825
40.18000 259.464
40.19000 260.246
40.20000 261.912
40.21000 265.017
40.22000 268.142
40.23000 269.754
40.24000 266.574
40.25000 264.459
40.26000 265.698
40.27000 269.250
40.28000 272.633
40.29000 271.056
40.30000 267.183
40.31000 263.518
40.32000 263.047
40.33000 263.533
40.34000 263.376
40.35000 258.334
40.36000 252.277
40.37000 248.464
40.38000 255.415
40.39000 263.774
40.40000 270.241
40.41000 264.092
40.42000 258.467
40.43000 256.070
40.44000 260.615
40.45000 265.396
40.46000 267.687
40.47000 266.382
40.48000 265.049
40.49000 261.414
40.50000 255.632
40.51000 249.932
40.52000 250.048
40.53000 253.728
40.54000 257.442
40.55000 261.944
40.56000 266.772
40.57000 271.283
40.58000 269.649
40.59000 266.610
40.60000 263.937
40.61000 263.685
40.62000 263.875
40.63000 263.674
40.64000 261.811
40.65000 259.761
40.66000 258.221
40.67000 257.715
40.68000 257.369
40.69000 257.660
40.70000 259.176
40.71000 260.722
40.72000 261.346
40.73000 260.788
40.74000 260.227
40.75000 262.339
40.76000 266.634
40.77000 270.815
40.78000 269.674
40.79000 265.627
40.80000 261.721
40.81000 260.327
40.82000 259.861
40.83000 259.431
40.84000 264.649
40.85000 270.575
40.86000 275.295
40.87000 273.052
40.88000 269.694
40.89000 266.883
40.90000 266.136
40.91000 265.587
40.92000 265.188
40.93000 266.748
40.94000 268.022
40.95000 267.586
40.96000 264.223
40.97000 260.810
40.98000 257.642
40.99000 254.748
41.00000 251.866
41.01000 249.954
41.02000 248.758
41.03000 247.585
41.04000 247.155
41.05000 247.088
41.06000 247.220
41.07000 250.266
41.08000 254.273
41.09000 257.911
41.10000 254.802
41.11000 250.747
41.12000 247.910
41.13000 251.251
41.14000 255.453
41.15000 257.984
41.16000 254.914
41.17000 251.393
41.18000 248.923
41.19000 259.037
41.20000 267.055
41.21000 269.219
41.22000 262.470
41.23000 255.627
41.24000 253.799
41.25000 256.939
41.26000 260.058
41.27000 256.939
41.28000 249.902
41.29000 243.214
41.30000 245.314
41.31000 251.237
41.32000 256.398
41.33000 252.363
41.34000 245.628
41.35000 239.611
41.36000 249.404
41.37000 260.603
41.38000 268.716
41.39000 263.004
41.40000 255.625
41.41000 250.209
41.42000 250.651
41.43000 251.485
41.44000 252.047
41.45000 247.994
41.46000 244.878
41.47000 243.022
41.48000 242.870
41.49000 242.727
41.50000 243.611
41.51000 245.386
41.52000 247.142
41.53000 250.980
41.54000 255.894
41.55000 260.483
41.56000 258.623
41.57000 254.260
41.58000 250.337
41.59000 250.909
41.60000 252.655
41.61000 254.187
41.62000 257.472
41.63000 260.551
41.64000 260.911
41.65000 250.481
41.66000 238.937
41.67000 232.294
41.68000 238.710
41.69000 245.834
41.70000 250.448
41.71000 244.879
41.72000 240.653
41.73000 240.711
41.74000 245.885
41.75000 251.062
41.76000 254.284
41.77000 256.005
41.78000 257.697
41.79000 254.690
41.80000 249.455
41.81000 244.380
41.82000 241.850
41.83000 240.203
41.84000 238.729
41.85000 238.761
41.86000 239.141
41.87000 239.468
41.88000 239.941
41.89000 240.359
41.90000 242.553
41.91000 251.009
41.92000 260.012
41.93000 264.372
41.94000 257.679
41.95000 250.512
41.96000 246.074
41.97000 246.273
41.98000 246.459
41.99000 248.435
42.00000 252.292
42.01000 256.088
42.02000 253.034
42.03000 245.317
42.04000 237.781
42.05000 237.201
42.06000 239.689
42.07000 241.734
42.08000 237.959
42.09000 232.386
42.10000 228.011
42.11000 232.603
42.12000 239.031
42.13000 244.446
42.14000 243.338
42.15000 241.712
42.16000 240.983
42.17000 243.078
42.18000 245.377
42.19000 246.471
42.20000 245.000
42.21000 243.445
42.22000 242.529
42.23000 245.643
42.24000 247.862
42.25000 249.291
42.26000 249.991
42.27000 250.690
42.28000 251.324
42.29000 251.918
42.30000 252.494
42.31000 255.207
42.32000 258.599
42.33000 261.235
42.34000 255.568
42.35000 247.615
42.36000 240.782
42.37000 241.241
42.38000 243.014
42.39000 244.474
42.40000 238.502
42.41000 232.914
42.42000 228.666
42.43000 228.172
42.44000 227.901
42.45000 228.302
42.46000 229.975
42.47000 231.678
42.48000 232.630
42.49000 231.379
42.50000 230.519
42.51000 233.722
42.52000 240.223
42.53000 246.518
42.54000 243.556
42.55000 235.602
42.56000 227.969
42.57000 234.249
42.58000 244.865
42.59000 253.954
42.60000 248.831
42.61000 240.233
42.62000 232.809
42.63000 232.061
42.64000 232.369
42.65000 232.615
42.66000 236.778
42.67000 240.449
42.68000 242.334
42.69000 239.750
42.70000 236.951
42.71000 235.240
42.72000 235.368
42.73000 235.525
42.74000 235.607
42.75000 231.844
42.76000 229.323
42.77000 232.004
42.78000 238.422
42.79000 244.673
42.80000 245.548
42.81000 243.835
42.82000 242.209
42.83000 239.649
42.84000 237.003
42.85000 234.696
42.86000 235.090
42.87000 236.068
42.88000 235.640
42.89000 228.175
42.90000 219.742
42.91000 213.155
42.92000 218.932
42.93000 224.320
42.94000 230.289
42.95000 237.553
42.96000 244.865
42.97000 247.724
42.98000 243.886
42.99000 239.982
43.00000 240.240
43.01000 244.564
43.02000 248.798
43.03000 245.579
43.04000 237.609
43.05000 229.942
43.06000 229.699
43.07000 232.647
43.08000 235.413
43.09000 241.658
43.10000 248.271
43.11000 252.963
43.12000 244.364
43.13000 233.227
43.14000 224.669
43.15000 227.515
43.16000 231.713
43.17000 234.898
43.18000 236.910
43.19000 238.430
43.20000 238.667
43.21000 236.345
43.22000 233.951
43.23000 235.157
43.24000 241.164
43.25000 247.190
43.26000 247.272
43.27000 242.264
43.28000 237.297
43.29000 234.523
43.30000 232.995
43.31000 231.419
43.32000 228.916
43.33000 226.058
43.34000 223.410
43.35000 222.967
43.36000 223.080
43.37000 223.612
43.38000 226.671
43.39000 230.154
43.40000 232.530
43.41000 230.568
43.42000 228.167
43.43000 226.403
43.44000 227.587
43.45000 228.624
43.46000 230.447
43.47000 233.672
43.48000 236.924
43.49000 237.772
43.50000 235.788
43.51000 233.805
43.52000 231.793
43.53000 229.772
43.54000 227.732
43.55000 224.974
43.56000 221.852
43.57000 219.129
43.58000 222.612
43.59000 228.219
43.60000 233.339
43.61000 230.512
43.62000 226.389
43.63000 223.496
43.64000 227.112
43.65000 231.680
43.66000 234.988
43.67000 233.903
43.68000 232.441
43.69000 231.403
43.70000 229.323
43.71000 227.706
43.72000 226.823
43.73000 227.099
43.74000 227.391
43.75000 225.707
43.76000 221.976
43.77000 218.267
43.78000 218.323
43.79000 220.878
43.80000 223.332
43.81000 223.006
43.82000 221.425
43.83000 220.159
43.84000 222.950
43.85000 226.979
43.86000 230.600
43.87000 232.117
43.88000 233.073
43.89000 233.645
43.90000 232.423
43.91000 230.974
43.92000 230.452
43.93000 232.805
43.94000 235.363
43.95000 237.114
43.96000 233.750
43.97000 231.110
43.98000 228.974
43.99000 227.545
44.00000 226.124
44.01000 229.161
44.02000 236.250
44.03000 243.270
44.04000 243.383
44.05000 239.452
44.06000 235.459
44.07000 230.156
44.08000 224.323
44.09000 219.588
44.10000 226.665
44.11000 236.952
44.12000 246.037
44.13000 242.984
44.14000 238.487
44.15000 234.233
44.16000 230.987
44.17000 227.851
44.18000 226.343
44.19000 229.345
44.20000 232.611
44.21000 234.756
44.22000 235.506
44.23000 236.033
44.24000 235.607
44.25000 233.991
44.26000 232.382
44.27000 234.078
44.28000 238.421
44.29000 242.698
44.30000 240.897
44.31000 236.009
44.32000 231.519
44.33000 233.841
44.34000 238.616
44.35000 242.924
44.36000 242.951
44.37000 241.944
44.38000 241.072
44.39000 244.184
44.40000 247.358
44.41000 249.800
44.42000 249.551
44.43000 249.053
44.44000 248.043
44.45000 245.771
44.46000 243.439
44.47000 241.972
44.48000 248.684
44.49000 253.631
44.50000 255.325
44.51000 253.449
44.52000 251.612
44.53000 255.600
44.54000 263.718
44.55000 271.663
44.56000 274.498
44.57000 274.888
44.58000 275.596
44.59000 280.743
44.60000 287.317
44.61000 292.929
44.62000 290.974
44.63000 287.401
44.64000 284.370
44.65000 296.013
44.66000 307.442
44.67000 316.507
44.68000 317.848
44.69000 318.590
44.70000 323.962
44.71000 339.557
44.72000 355.521
44.73000 365.095
44.74000 385.987
44.75000 400.902
44.76000 415.693
44.77000 430.363
44.78000 444.968
44.79000 454.369
44.80000 460.495
44.81000 466.445
44.82000 478.435
44.83000 492.257
44.84000 506.227
44.85000 521.904
44.86000 538.070
44.87000 552.716
44.88000 556.991
44.89000 559.313
44.90000 561.239
44.91000 573.064
44.92000 583.791
44.93000 590.943
44.94000 587.675
44.95000 583.741
44.96000 582.808
44.97000 587.794
44.98000 592.937
44.99000 595.865
45.00000 594.193
45.01000 593.000
45.02000 584.558
45.03000 569.977
45.04000 555.556
45.05000 549.273
45.06000 547.552
45.07000 545.895
45.08000 526.820
45.09000 502.716
45.10000 480.330
45.11000 474.828
45.12000 473.623
45.13000 471.021
45.14000 460.106
45.15000 447.816
45.16000 437.865
45.17000 422.845
45.18000 410.205
45.19000 397.427
45.20000 384.288
45.21000 371.131
45.22000 359.678
45.23000 351.222
45.24000 342.821
45.25000 338.302
45.26000 328.358
45.27000 321.557
45.28000 314.490
45.29000 307.226
45.30000 299.970
45.31000 293.022
45.32000 286.228
45.33000 279.751
45.34000 278.634
45.35000 279.279
45.36000 279.652
45.37000 277.744
45.38000 275.320
45.39000 272.920
45.40000 270.642
45.41000 268.381
45.42000 266.598
45.43000 260.569
45.44000 255.448
45.45000 250.057
45.46000 244.038
45.47000 237.994
45.48000 236.886
45.49000 243.501
45.50000 250.209
45.51000 253.598
45.52000 244.279
45.53000 238.087
45.54000 236.245
45.55000 237.290
45.56000 238.298
45.57000 238.329
45.58000 237.924
45.59000 237.542
45.60000 234.244
45.61000 230.418
45.62000 227.100
45.63000 227.472
45.64000 228.579
45.65000 230.015
45.66000 232.968
45.67000 236.110
45.68000 238.518
45.69000 240.163
45.70000 241.419
45.71000 240.474
45.72000 234.961
45.73000 229.308
45.74000 227.551
45.75000 231.204
45.76000 234.891
45.77000 234.453
45.78000 230.325
45.79000 226.191
45.80000 221.730
45.81000 217.077
45.82000 212.735
45.83000 214.869
45.84000 219.585
45.85000 223.973
45.86000 219.800
45.87000 213.952
45.88000 209.495
45.89000 213.818
45.90000 219.680
45.91000 224.025
45.92000 222.185
45.93000 219.681
45.94000 217.821
45.95000 219.743
45.96000 221.404
45.97000 219.654
45.98000 211.593
45.99000 203.392
46.00000 200.721
46.01000 204.848
46.02000 208.985
46.03000 211.374
46.04000 212.375
46.05000 213.377
46.06000 214.388
46.07000 215.403
46.08000 216.451
46.09000 218.050
46.10000 219.845
46.11000 221.493
46.12000 220.194
46.13000 218.409
46.14000 216.953
46.15000 217.314
46.16000 217.953
46.17000 217.960
46.18000 215.674
46.19000 213.179
46.20000 211.386
46.21000 211.418
46.22000 211.507
46.23000 213.311
46.24000 217.944
46.25000 222.618
46.26000 220.281
46.27000 210.351
46.28000 200.462
46.29000 199.261
46.30000 204.088
46.31000 208.703
46.32000 206.920
46.33000 202.132
46.34000 197.884
46.35000 201.021
46.36000 206.503
46.37000 211.456
46.38000 210.359
46.39000 208.272
46.40000 207.348
46.41000 212.085
46.42000 217.576
46.43000 221.014
46.44000 217.830
46.45000 214.143
46.46000 211.587
46.47000 209.052
46.48000 207.145
46.49000 205.630
46.50000 204.691
46.51000 203.756
46.52000 203.646
46.53000 204.319
46.54000 204.986
46.55000 205.671
46.56000 206.354
46.57000 206.978
46.58000 206.223
46.59000 204.890
46.60000 203.641
46.61000 203.352
46.62000 203.334
46.63000 203.317
46.64000 202.991
46.65000 202.657
46.66000 202.542
46.67000 203.364
46.68000 204.295
46.69000 205.048
46.70000 205.292
46.71000 205.503
46.72000 205.644
46.73000 198.970
46.74000 193.899
46.75000 195.481
46.76000 205.704
46.77000 215.945
46.78000 217.709
46.79000 212.391
46.80000 207.142
46.81000 205.506
46.82000 205.861
46.83000 206.372
46.84000 209.758
46.85000 214.219
46.86000 218.098
46.87000 216.344
46.88000 213.175
46.89000 210.411
46.90000 208.219
46.91000 206.423
46.92000 204.341
46.93000 201.163
46.94000 197.877
46.95000 195.694
46.96000 196.343
46.97000 197.134
46.98000 197.639
46.99000 201.878
47.00000 205.010
47.01000 206.052
47.02000 204.696
47.03000 203.346
47.04000 203.483
47.05000 204.717
47.06000 205.928
47.07000 205.322
47.08000 203.875
47.09000 202.465
47.10000 201.624
47.11000 200.972
47.12000 199.924
47.13000 195.601
47.14000 190.548
47.15000 186.229
47.16000 186.798
47.17000 187.863
47.18000 188.458
47.19000 187.455
47.20000 186.320
47.21000 187.266
47.22000 192.988
47.23000 198.897
47.24000 202.501
47.25000 198.164
47.26000 195.001
47.27000 194.798
47.28000 197.576
47.29000 200.354
47.30000 203.017
47.31000 205.607
47.32000 208.129
47.33000 209.733
47.34000 210.875
47.35000 211.748
47.36000 209.307
47.37000 205.879
47.38000 203.003
47.39000 204.080
47.40000 205.933
47.41000 207.483
47.42000 208.318
47.43000 208.938
47.44000 207.526
47.45000 199.961
47.46000 191.975
47.47000 188.346
47.48000 193.640
47.49000 199.199
47.50000 202.422
47.51000 205.216
47.52000 207.172
47.53000 206.100
47.54000 202.354
47.55000 198.689
47.56000 199.815
47.57000 203.733
47.58000 207.518
47.59000 206.551
47.60000 203.877
47.61000 201.259
47.62000 199.221
47.63000 197.337
47.64000 195.869
47.65000 196.991
47.66000 198.561
47.67000 199.842
47.68000 195.970
47.69000 192.358
47.70000 190.677
47.71000 194.216
47.72000 198.047
47.73000 200.611
47.74000 200.862
47.75000 201.064
47.76000 201.175
47.77000 197.400
47.78000 194.808
47.79000 195.198
47.80000 197.913
47.81000 200.579
47.82000 201.236
47.83000 200.850
47.84000 200.481
47.85000 196.353
47.86000 191.277
47.87000 186.683
47.88000 186.345
47.89000 187.009
47.90000 187.477
47.91000 186.880
47.92000 186.122
47.93000 185.518
47.94000 192.789
47.95000 199.216
47.96000 202.900
47.97000 199.961
47.98000 196.730
47.99000 193.003
48.00000 188.467
48.01000 183.921
48.02000 181.572
48.03000 187.959
48.04000 192.227
48.05000 191.889
48.06000 188.369
48.07000 185.050
48.08000 187.629
48.09000 192.943
48.10000 197.972
48.11000 197.302
48.12000 195.043
48.13000 193.008
48.14000 192.691
48.15000 192.730
48.16000 193.158
48.17000 195.451
48.18000 197.988
48.19000 199.953
48.20000 190.919
48.21000 183.097
48.22000 179.597
48.23000 185.411
48.24000 191.542
48.25000 194.145
48.26000 191.641
48.27000 189.097
48.28000 187.811
48.29000 187.703
48.30000 187.599
48.31000 187.786
48.32000 188.152
48.33000 188.515
48.34000 188.812
48.35000 189.080
48.36000 189.331
48.37000 189.987
48.38000 190.684
48.39000 191.121
48.40000 189.834
48.41000 188.230
48.42000 186.392
48.43000 183.552
48.44000 180.600
48.45000 178.383
48.46000 180.320
48.47000 182.033
48.48000 182.966
48.49000 182.399
48.50000 181.796
48.51000 181.901
48.52000 182.917
48.53000 183.935
48.54000 187.706
48.55000 193.726
48.56000 199.631
48.57000 200.130
48.58000 197.672
48.59000 195.171
48.60000 191.879
48.61000 188.296
48.62000 184.992
48.63000 181.621
48.64000 178.587
48.65000 176.158
48.66000 177.220
48.67000 178.843
48.68000 180.298
48.69000 181.118
48.70000 181.877
48.71000 182.429
48.72000 184.516
48.73000 186.180
48.74000 188.927
48.75000 193.533
48.76000 198.171
48.77000 198.582
48.78000 194.212
48.79000 189.853
48.80000 188.055
48.81000 188.125
48.82000 188.156
48.83000 186.894
48.84000 185.001
48.85000 183.254
48.86000 183.630
48.87000 184.707
48.88000 185.686
48.89000 185.767
48.90000 185.665
48.91000 185.222
48.92000 183.046
48.93000 180.628
48.94000 178.765
48.95000 178.762
48.96000 178.910
48.97000 179.014
48.98000 174.725
48.99000 171.351
49.00000 171.035
49.01000 175.383
49.02000 179.781
49.03000 181.865
49.04000 181.652
49.05000 181.440
49.06000 180.504
49.07000 179.121
49.08000 177.726
49.09000 176.006
49.10000 174.146
49.11000 173.009
49.12000 180.640
49.13000 190.850
49.14000 199.975
49.15000 201.119
49.16000 200.766
49.17000 200.430
49.18000 200.166
49.19000 199.911
49.20000 198.274
49.21000 192.502
49.22000 186.453
49.23000 182.367
49.24000 186.440
49.25000 189.647
49.26000 191.103
49.27000 190.191
49.28000 189.267
49.29000 189.447
49.30000 190.591
49.31000 191.721
49.32000 191.072
49.33000 189.440
49.34000 187.809
49.35000 186.216
49.36000 184.638
49.37000 183.242
49.38000 183.700
49.39000 184.644
49.40000 185.472
49.41000 183.735
49.42000 181.867
49.43000 179.734
49.44000 176.543
49.45000 173.244
49.46000 172.254
49.47000 177.434
49.48000 182.949
49.49000 186.523
49.50000 186.214
49.51000 185.929
49.52000 186.306
49.53000 187.474
49.54000 188.638
49.55000 188.257
49.56000 186.688
49.57000 185.146
49.58000 188.745
49.59000 194.777
49.60000 200.125
49.61000 194.546
49.62000 185.172
49.63000 176.999
49.64000 179.289
49.65000 184.006
49.66000 188.067
49.67000 190.963
49.68000 193.269
49.69000 195.130
49.70000 195.423
49.71000 195.578
49.72000 194.430
49.73000 190.172
49.74000 185.781
49.75000 183.060
49.76000 181.552
49.77000 180.479
49.78000 178.901
49.79000 176.790
49.80000 174.728
49.81000 178.193
49.82000 185.425
49.83000 192.488
49.84000 194.021
49.85000 193.062
49.86000 192.064
49.87000 190.550
49.88000 188.877
49.89000 186.736
49.90000 181.088
49.91000 174.721
49.92000 169.357
49.93000 175.294
49.94000 181.467
49.95000 185.751
49.96000 184.083
49.97000 181.981
49.98000 180.369
49.99000 179.801
50.00000 179.267
50.01000 178.952
50.02000 176.925
50.03000 175.484
50.04000 175.813
50.05000 177.774
50.06000 179.720
50.07000 180.656
50.08000 180.979
50.09000 181.292
50.10000 180.190
50.11000 178.598
50.12000 177.356
50.13000 179.950
50.14000 183.603
50.15000 186.793
50.16000 186.968
50.17000 186.597
50.18000 186.292
50.19000 190.550
50.20000 194.469
50.21000 198.363
50.22000 202.186
50.23000 206.005
50.24000 205.900
50.25000 198.338
50.26000 190.597
50.27000 186.267
50.28000 204.364
50.29000 216.928
50.30000 220.648
50.31000 217.179
50.32000 213.729
50.33000 211.194
50.34000 209.152
50.35000 207.191
50.36000 212.386
50.37000 219.688
50.38000 226.741
50.39000 231.465
50.40000 235.618
50.41000 239.756
50.42000 243.800
50.43000 247.831
50.44000 251.067
50.45000 265.830
50.46000 278.674
50.47000 287.575
50.48000 286.592
50.49000 285.135
50.50000 284.886
50.51000 286.682
50.52000 288.511
50.53000 289.476
50.54000 291.017
50.55000 292.080
50.56000 295.769
50.57000 301.349
50.58000 306.791
50.59000 307.754
50.60000 306.558
50.61000 305.423
50.62000 306.717
50.63000 308.644
50.64000 309.355
50.65000 300.334
50.66000 289.201
50.67000 280.855
50.68000 286.475
50.69000 294.018
50.70000 299.913
50.71000 286.486
50.72000 274.548
50.73000 267.756
50.74000 272.485
50.75000 277.645
50.76000 276.057
50.77000 264.307
50.78000 252.455
50.79000 249.626
50.80000 255.627
50.81000 261.531
50.82000 259.417
50.83000 252.182
50.84000 244.938
50.85000 237.502
50.86000 229.982
50.87000 222.922
50.88000 221.309
50.89000 221.280
50.90000 220.878
50.91000 217.881
50.92000 214.388
50.93000 211.506
50.94000 211.331
50.95000 211.478
50.96000 211.590
50.97000 204.681
50.98000 198.891
50.99000 196.027
51.00000 199.014
51.01000 202.163
51.02000 202.709
51.03000 199.779
51.04000 196.833
51.05000 194.142
51.06000 191.674
51.07000 189.271
51.08000 190.264
51.09000 193.188
51.10000 195.784
51.11000 192.034
51.12000 185.844
51.13000 180.109
51.14000 175.927
51.15000 172.525
51.16000 170.023
51.17000 172.962
51.18000 176.815
51.19000 179.883
51.20000 179.863
51.21000 179.531
51.22000 179.286
51.23000 175.426
51.24000 172.292
51.25000 171.930
51.26000 176.508
51.27000 181.182
51.28000 181.992
51.29000 178.238
51.30000 174.486
51.31000 175.691
51.32000 180.628
51.33000 185.355
51.34000 182.241
51.35000 175.151
51.36000 168.627
51.37000 170.924
51.38000 176.246
51.39000 181.107
51.40000 178.013
51.41000 173.649
51.42000 169.960
51.43000 169.853
51.44000 170.272
51.45000 171.251
51.46000 174.188
51.47000 177.292
51.48000 179.498
51.49000 176.099
51.50000 173.334
51.51000 171.867
51.52000 172.459
51.53000 173.078
51.54000 171.338
51.55000 167.151
51.56000 162.987
51.57000 164.377
51.58000 169.439
51.59000 174.377
51.60000 175.845
51.61000 175.744
51.62000 175.538
51.63000 173.976
51.64000 172.000
51.65000 170.224
51.66000 171.884
51.67000 173.948
51.68000 175.495
51.69000 174.630
51.70000 173.458
51.71000 172.166
51.72000 170.504
51.73000 168.815
51.74000 167.658
51.75000 168.512
51.76000 169.199
51.77000 169.324
51.78000 168.659
51.79000 167.987
51.80000 167.265
51.81000 166.495
51.82000 165.733
51.83000 165.063
51.84000 164.460
51.85000 164.051
51.86000 167.767
51.87000 173.152
51.88000 177.948
51.89000 176.387
51.90000 173.095
51.91000 170.187
51.92000 168.761
51.93000 167.757
51.94000 167.096
51.95000 167.857
51.96000 168.772
51.97000 170.074
51.98000 172.445
51.99000 174.880
52.00000 176.481
52.01000 168.249
52.02000 162.020
52.03000 159.777
52.04000 162.508
52.05000 165.251
52.06000 167.067
52.07000 168.139
52.08000 169.196
52.09000 167.327
52.10000 164.000
52.11000 160.960
52.12000 162.834
52.13000 166.481
52.14000 169.489
52.15000 166.624
52.16000 162.339
52.17000 158.626
52.18000 164.591
52.19000 170.952
52.20000 175.686
52.21000 174.442
52.22000 172.643
52.23000 170.012
52.24000 165.318
52.25000 160.529
52.26000 157.514
52.27000 161.989
52.28000 165.311
52.29000 165.718
52.30000 162.917
52.31000 160.129
52.32000 159.376
52.33000 160.069
52.34000 160.748
52.35000 163.915
52.36000 168.096
52.37000 171.879
52.38000 170.096
52.39000 166.519
52.40000 163.187
52.41000 161.781
52.42000 160.788
52.43000 159.944
52.44000 164.699
52.45000 169.325
52.46000 172.283
52.47000 169.783
52.48000 166.859
52.49000 163.657
52.50000 159.839
52.51000 155.999
52.52000 153.694
52.53000 162.807
52.54000 169.359
52.55000 172.092
52.56000 171.143
52.57000 170.204
52.58000 170.143
52.59000 170.635
52.60000 171.113
52.61000 165.846
52.62000 158.523
52.63000 152.248
52.64000 158.200
52.65000 167.660
52.66000 175.653
52.67000 173.624
52.68000 169.705
52.69000 166.452
52.70000 163.092
52.71000 160.304
52.72000 158.931
52.73000 161.684
52.74000 164.703
52.75000 166.627
52.76000 166.387
52.77000 166.090
52.78000 165.921
52.79000 164.152
52.80000 162.911
52.81000 159.998
52.82000 155.668
52.83000 151.458
52.84000 153.361
52.85000 158.696
52.86000 163.835
52.87000 166.292
52.88000 167.644
52.89000 168.825
52.90000 168.331
52.91000 167.410
52.92000 166.221
52.93000 163.438
52.94000 160.390
52.95000 157.921
52.96000 160.871
52.97000 163.715
52.98000 166.524
52.99000 169.243
53.00000 171.958
53.01000 172.769
53.02000 170.229
53.03000 167.625
53.04000 166.223
53.05000 159.641
53.06000 155.162
53.07000 155.562
53.08000 159.620
53.09000 163.572
53.10000 163.717
53.11000 161.954
53.12000 160.274
53.13000 158.137
53.14000 156.011
53.15000 154.526
53.16000 158.432
53.17000 163.558
53.18000 167.433
53.19000 164.762
53.20000 161.145
53.21000 158.291
53.22000 155.123
53.23000 152.561
53.24000 152.845
53.25000 159.754
53.26000 166.933
53.27000 172.419
53.28000 175.250
53.29000 178.049
53.30000 179.465
53.31000 172.787
53.32000 168.338
53.33000 165.997
53.34000 165.056
53.35000 164.260
53.36000 167.340
53.37000 172.153
53.38000 176.690
53.39000 171.454
53.40000 163.956
53.41000 157.904
53.42000 162.369
53.43000 168.935
53.44000 173.939
53.45000 171.728
53.46000 168.616
53.47000 166.230
53.48000 164.624
53.49000 163.400
53.50000 161.817
53.51000 159.490
53.52000 157.139
53.53000 155.898
53.54000 156.199
53.55000 156.510
53.56000 158.294
53.57000 161.397
53.58000 164.480
53.59000 166.384
53.60000 167.591
53.61000 168.712
53.62000 168.047
53.63000 166.669
53.64000 165.387
53.65000 163.341
53.66000 161.306
53.67000 159.067
53.68000 155.537
53.69000 151.780
53.70000 149.671
53.71000 154.297
53.72000 159.646
53.73000 163.622
53.74000 164.507
53.75000 165.058
53.76000 163.722
53.77000 158.887
53.78000 153.974
53.79000 154.029
53.80000 160.202
53.81000 166.379
53.82000 168.259
53.83000 166.744
53.84000 165.196
53.85000 162.244
53.86000 158.552
53.87000 155.031
53.88000 154.362
53.89000 154.711
53.90000 155.031
53.91000 160.954
53.92000 167.429
53.93000 173.036
53.94000 173.829
53.95000 173.884
53.96000 173.317
53.97000 170.497
53.98000 167.471
53.99000 165.296
54.00000 161.185
54.01000 157.971
54.02000 157.364
54.03000 161.064
54.04000 164.828
54.05000 164.416
54.06000 159.473
54.07000 154.550
54.08000 153.951
54.09000 156.356
54.10000 158.790
54.11000 162.063
54.12000 165.730
54.13000 169.056
54.14000 167.683
54.15000 164.817
54.16000 162.226
54.17000 158.185
54.18000 154.361
54.19000 151.145
54.20000 150.895
54.21000 151.042
54.22000 152.269
54.23000 156.992
54.24000 161.982
54.25000 165.442
54.26000 164.360
54.27000 163.426
54.28000 161.833
54.29000 159.272
54.30000 156.703
54.31000 158.025
54.32000 163.046
54.33000 168.026
54.34000 167.131
54.35000 162.659
54.36000 158.353
54.37000 157.908
54.38000 159.086
54.39000 160.422
54.40000 163.579
54.41000 167.250
54.42000 170.513
54.43000 168.139
54.44000 165.170
54.45000 163.054
54.46000 164.615
54.47000 166.599
54.48000 167.522
54.49000 165.387
54.50000 163.059
54.51000 161.507
54.52000 154.030
54.53000 148.380
54.54000 148.278
54.55000 155.396
54.56000 162.535
54.57000 164.640
54.58000 162.534
54.59000 160.455
54.60000 161.343
54.61000 163.810
54.62000 166.051
54.63000 164.129
54.64000 160.645
54.65000 157.251
54.66000 154.716
54.67000 152.399
54.68000 150.377
54.69000 155.307
54.70000 160.493
54.71000 164.596
54.72000 164.555
54.73000 164.107
54.74000 161.785
54.75000 154.643
54.76000 147.256
54.77000 142.535
54.78000 157.640
54.79000 168.893
54.80000 173.439
54.81000 170.281
54.82000 167.118
54.83000 164.628
54.84000 162.638
54.85000 160.684
54.86000 162.301
54.87000 165.562
54.88000 168.496
54.89000 166.528
54.90000 162.920
54.91000 160.018
54.92000 162.965
54.93000 167.218
54.94000 170.854
54.95000 170.372
54.96000 169.472
54.97000 168.275
54.98000 166.065
54.99000 163.770
55.00000 163.609
55.01000 168.351
55.02000 173.287
55.03000 176.299
55.04000 171.204
55.05000 167.496
55.06000 165.548
55.07000 165.377
55.08000 165.216
55.09000 165.958
55.10000 167.293
55.11000 168.594
55.12000 166.689
55.13000 163.523
55.14000 160.671
55.15000 161.724
55.16000 163.943
55.17000 166.027
55.18000 167.152
55.19000 168.087
55.20000 168.870
55.21000 170.137
55.22000 171.240
55.23000 172.223
55.24000 172.839
55.25000 173.430
55.26000 174.683
55.27000 177.294
55.28000 179.947
55.29000 181.486
55.30000 181.082
55.31000 180.790
55.32000 180.981
55.33000 181.599
55.34000 182.264
55.35000 185.726
55.36000 190.820
55.37000 195.741
55.38000 200.909
55.39000 205.874
55.40000 210.712
55.41000 214.235
55.42000 217.409
55.43000 220.589
55.44000 223.804
55.45000 227.024
55.46000 229.655
55.47000 230.843
55.48000 231.690
55.49000 233.291
55.50000 236.933
55.51000 240.688
55.52000 248.441
55.53000 263.513
55.54000 278.741
55.55000 287.103
55.56000 299.038
55.57000 307.284
55.58000 322.781
55.59000 343.943
55.60000 364.832
55.61000 374.755
55.62000 378.971
55.63000 383.005
55.64000 400.234
55.65000 420.609
55.66000 440.032
55.67000 451.013
55.68000 460.007
55.69000 470.478
55.70000 489.025
55.71000 508.796
55.72000 524.536
55.73000 552.089
55.74000 575.155
55.75000 591.893
55.76000 593.335
55.77000 594.099
55.78000 595.927
55.79000 599.492
55.80000 603.082
55.81000 604.937
55.82000 622.085
55.83000 633.625
55.84000 642.330
55.85000 649.074
55.86000 655.418
55.87000 649.954
55.88000 639.004
55.89000 628.641
55.90000 613.161
55.91000 597.445
55.92000 582.688
55.93000 575.262
55.94000 569.365
55.95000 561.713
55.96000 545.618
55.97000 528.413
55.98000 515.091
55.99000 491.794
56.00000 472.704
56.01000 457.834
56.02000 452.075
56.03000 446.626
56.04000 433.831
56.05000 410.389
56.06000 386.862
56.07000 369.913
56.08000 359.137
56.09000 348.325
56.10000 334.971
56.11000 320.052
56.12000 305.341
56.13000 295.318
56.14000 287.241
56.15000 279.689
56.16000 269.922
56.17000 260.491
56.18000 251.003
56.19000 241.135
56.20000 231.198
56.21000 222.334
56.22000 218.041
56.23000 214.264
56.24000 211.427
56.25000 212.559
56.26000 213.634
56.27000 210.821
56.28000 200.518
56.29000 190.026
56.30000 184.599
56.31000 185.676
56.32000 186.776
56.33000 185.736
56.34000 182.937
56.35000 180.145
56.36000 177.636
56.37000 175.283
56.38000 173.007
56.39000 172.142
56.40000 171.800
56.41000 171.484
56.42000 172.241
56.43000 173.158
56.44000 173.165
56.45000 167.901
56.46000 161.790
56.47000 158.592
56.48000 166.402
56.49000 175.273
56.50000 181.725
56.51000 173.028
56.52000 165.760
56.53000 159.776
56.54000 155.997
56.55000 152.255
56.56000 151.954
56.57000 155.553
56.58000 159.142
56.59000 160.698
56.60000 160.768
56.61000 160.833
56.62000 160.709
56.63000 160.492
56.64000 160.287
56.65000 160.241
56.66000 160.248
56.67000 160.254
56.68000 158.815
56.69000 157.262
56.70000 155.976
56.71000 156.055
56.72000 156.325
56.73000 157.556
56.74000 162.021
56.75000 166.749
56.76000 170.068
56.77000 163.306
56.78000 157.892
56.79000 155.195
56.80000 156.651
56.81000 158.152
56.82000 157.670
56.83000 155.216
56.84000 152.778
56.85000 153.314
56.86000 155.739
56.87000 158.216
56.88000 162.020
56.89000 166.404
56.90000 169.928
56.91000 163.024
56.92000 153.047
56.93000 144.128
56.94000 145.686
56.95000 148.819
56.96000 151.085
56.97000 149.459
56.98000 147.362
56.99000 146.084
57.00000 147.262
57.01000 148.604
57.02000 149.512
57.03000 146.655
57.04000 144.447
57.05000 144.813
57.06000 148.671
57.07000 152.546
57.08000 153.606
57.09000 152.209
57.10000 150.828
57.11000 149.797
57.12000 148.987
57.13000 148.055
57.14000 144.695
57.15000 140.388
57.16000 136.701
57.17000 139.360
57.18000 143.683
57.19000 147.478
57.20000 144.673
57.21000 141.294
57.22000 139.264
57.23000 142.610
57.24000 146.513
57.25000 150.190
57.26000 153.264
57.27000 156.304
57.28000 158.276
57.29000 152.369
57.30000 147.925
57.31000 146.234
57.32000 147.841
57.33000 149.443
57.34000 148.029
57.35000 144.291
57.36000 140.615
57.37000 141.413
57.38000 144.410
57.39000 147.321
57.40000 148.860
57.41000 149.921
57.42000 151.253
57.43000 154.951
57.44000 159.200
57.45000 162.857
57.46000 156.327
57.47000 149.508
57.48000 144.593
57.49000 146.421
57.50000 148.840
57.51000 150.445
57.52000 150.103
57.53000 149.677
57.54000 149.413
57.55000 146.671
57.56000 144.674
57.57000 145.319
57.58000 148.752
57.59000 152.161
57.60000 152.764
57.61000 151.449
57.62000 150.165
57.63000 145.328
57.64000 139.137
57.65000 133.451
57.66000 134.414
57.67000 137.439
57.68000 140.288
57.69000 141.810
57.70000 143.061
57.71000 144.114
57.72000 150.986
57.73000 157.351
57.74000 161.390
57.75000 158.093
57.76000 154.258
57.77000 151.475
57.78000 150.938
57.79000 150.474
57.80000 150.201
57.81000 149.758
57.82000 149.445
57.83000 148.450
57.84000 146.825
57.85000 145.216
57.86000 144.672
57.87000 144.776
57.88000 144.876
57.89000 144.047
57.90000 142.902
57.91000 141.935
57.92000 142.941
57.93000 144.491
57.94000 145.930
57.95000 146.635
57.96000 147.208
57.97000 147.679
57.98000 147.079
57.99000 146.488
58.00000 145.785
58.01000 144.770
58.02000 143.736
58.03000 144.648
58.04000 149.263
58.05000 153.968
58.06000 156.602
58.07000 146.639
58.08000 139.718
58.09000 137.500
58.10000 139.114
58.11000 140.710
58.12000 141.493
58.13000 141.836
58.14000 142.165
58.15000 141.278
58.16000 140.032
58.17000 139.043
58.18000 140.458
58.19000 142.463
58.20000 143.796
58.21000 141.294
58.22000 138.184
58.23000 135.686
58.24000 140.550
58.25000 145.056
58.26000 147.763
58.27000 145.949
58.28000 143.918
58.29000 143.371
58.30000 145.341
58.31000 147.352
58.32000 148.414
58.33000 146.075
58.34000 144.470
58.35000 140.573
58.36000 135.023
58.37000 129.729
58.38000 132.784
58.39000 139.868
58.40000 146.598
58.41000 147.739
58.42000 147.107
58.43000 146.473
58.44000 145.820
58.45000 145.162
58.46000 144.561
58.47000 144.246
58.48000 143.970
58.49000 143.755
58.50000 139.530
58.51000 135.903
58.52000 132.953
58.53000 131.521
58.54000 130.146
58.55000 130.785
58.56000 134.462
58.57000 138.170
58.58000 140.995
58.59000 142.953
58.60000 144.885
58.61000 144.538
58.62000 142.732
58.63000 140.972
58.64000 140.327
58.65000 140.163
58.66000 140.009
58.67000 140.007
58.68000 140.045
58.69000 139.843
58.70000 137.981
58.71000 135.800
58.72000 134.252
58.73000 135.510
58.74000 137.102
58.75000 138.311
58.76000 136.547
58.77000 135.008
58.78000 134.080
58.79000 134.379
58.80000 134.712
58.81000 135.981
58.82000 138.503
58.83000 141.030
58.84000 140.840
58.85000 138.316
58.86000 135.793
58.87000 133.358
58.88000 130.975
58.89000 128.639
58.90000 127.237
58.91000 126.194
58.92000 125.228
58.93000 129.305
58.94000 134.148
58.95000 138.681
58.96000 141.333
58.97000 143.669
58.98000 144.404
58.99000 138.848
59.00000 132.650
59.01000 128.091
59.02000 134.477
59.03000 139.869
59.04000 143.628
59.05000 144.471
59.06000 145.256
59.07000 145.234
59.08000 144.258
59.09000 143.282
59.10000 139.965
59.11000 134.900
59.12000 130.042
59.13000 132.982
59.14000 139.883
59.15000 146.166
59.16000 142.777
59.17000 136.064
59.18000 129.932
59.19000 131.974
59.20000 135.453
59.21000 138.774
59.22000 141.258
59.23000 143.620
59.24000 144.594
59.25000 140.719
59.26000 136.426
59.27000 133.375
59.28000 139.307
59.29000 144.112
59.30000 146.780
59.31000 146.049
59.32000 145.275
59.33000 143.593
59.34000 140.967
59.35000 138.355
59.36000 139.095
59.37000 142.058
59.38000 144.941
59.39000 145.590
59.40000 145.227
59.41000 144.728
59.42000 142.470
59.43000 139.674
59.44000 137.160
59.45000 136.257
59.46000 135.752
59.47000 135.595
59.48000 137.068
59.49000 138.748
59.50000 140.232
59.51000 141.108
59.52000 141.940
59.53000 142.510
59.54000 135.958
59.55000 130.880
59.56000 129.153
59.57000 132.160
59.58000 135.199
59.59000 135.843
59.60000 134.302
59.61000 132.777
59.62000 130.309
59.63000 127.338
59.64000 124.585
59.65000 126.518
59.66000 130.348
59.67000 133.681
59.68000 131.627
59.69000 128.104
59.70000 124.991
59.71000 126.243
59.72000 127.996
59.73000 129.338
59.74000 128.968
59.75000 128.410
59.76000 130.001
59.77000 137.561
59.78000 145.472
59.79000 150.677
59.80000 140.222
59.81000 132.256
59.82000 127.700
59.83000 127.410
59.84000 127.131
59.85000 126.180
59.86000 124.689
59.87000 123.219
59.88000 124.649
59.89000 127.539
59.90000 130.344
59.91000 131.670
59.92000 132.463
59.93000 133.583
59.94000 137.718
59.95000 142.585
59.96000 146.803
59.97000 142.351
59.98000 137.408
59.99000 133.338
60.00000 132.486
60.01000 131.934
60.02000 131.311
60.03000 130.511
60.04000 129.703
60.05000 129.194
60.06000 137.696
60.07000 143.951
60.08000 144.598
60.09000 139.064
60.10000 133.557
60.11000 132.355
60.12000 134.215
60.13000 136.036
60.14000 138.994
60.15000 142.358
60.16000 145.432
60.17000 144.429
60.18000 142.112
60.19000 139.533
60.20000 134.885
60.21000 129.794
60.22000 125.470
60.23000 129.295
60.24000 133.433
60.25000 136.633
60.26000 136.755
60.27000 136.638
60.28000 135.819
60.29000 133.446
60.30000 131.017
60.31000 129.559
60.32000 135.980
60.33000 140.597
60.34000 142.706
60.35000 142.391
60.36000 142.052
60.37000 139.825
60.38000 136.406
60.39000 133.083
60.40000 138.381
60.41000 146.901
60.42000 154.816
60.43000 155.652
60.44000 154.454
60.45000 153.151
60.46000 151.133
60.47000 148.980
60.48000 147.193
60.49000 137.980
60.50000 129.644
60.51000 124.607
60.52000 129.212
60.53000 134.438
60.54000 136.110
60.55000 130.752
60.56000 125.203
60.57000 122.039
60.58000 128.004
60.59000 132.190
60.60000 134.151
60.61000 134.221
60.62000 134.267
60.63000 133.042
60.64000 131.103
60.65000 129.235
60.66000 128.828
60.67000 128.966
60.68000 129.334
60.69000 131.968
60.70000 135.181
60.71000 137.502
60.72000 134.497
60.73000 130.609
60.74000 127.459
60.75000 128.198
60.76000 129.118
60.77000 130.331
60.78000 132.310
60.79000 134.329
60.80000 135.235
60.81000 134.178
60.82000 133.085
60.83000 132.495
60.84000 139.622
60.85000 144.476
60.86000 144.100
60.87000 139.797
60.88000 135.611
60.89000 135.657
60.90000 137.826
60.91000 139.894
60.92000 141.615
60.93000 143.102
60.94000 144.533
60.95000 145.489
60.96000 146.338
60.97000 146.252
60.98000 141.267
60.99000 135.573
61.00000 131.080
61.01000 132.349
61.02000 133.758
61.03000 135.777
61.04000 139.218
61.05000 142.717
61.06000 146.081
61.07000 149.234
61.08000 152.384
61.09000 153.978
61.10000 143.354
61.11000 136.285
61.12000 133.602
61.13000 133.839
61.14000 134.010
61.15000 132.388
61.16000 129.963
61.17000 127.677
61.18000 130.041
61.19000 133.496
61.20000 136.664
61.21000 137.751
61.22000 138.421
61.23000 139.106
61.24000 139.862
61.25000 140.627
61.26000 141.214
61.27000 140.511
61.28000 139.884
61.29000 139.200
61.30000 138.398
61.31000 137.591
61.32000 136.699
61.33000 135.686
61.34000 134.672
61.35000 136.024
61.36000 139.499
61.37000 142.911
61.38000 142.417
61.39000 139.610
61.40000 136.963
61.41000 137.681
61.42000 139.745
61.43000 141.667
61.44000 145.192
61.45000 148.770
61.46000 152.218
61.47000 154.844
61.48000 157.326
61.49000 160.341
61.50000 165.541
61.51000 170.976
61.52000 175.018
61.53000 194.998
61.54000 211.250
61.55000 223.184
61.56000 227.103
61.57000 230.843
61.58000 241.536
61.59000 260.810
61.60000 280.072
61.61000 295.781
61.62000 308.613
61.63000 321.320
61.64000 328.769
61.65000 333.443
61.66000 337.892
61.67000 338.560
61.68000 337.879
61.69000 337.254
61.70000 338.375
61.71000 339.748
61.72000 341.330
61.73000 344.079
61.74000 347.008
61.75000 346.160
61.76000 331.575
61.77000 315.737
61.78000 304.344
61.79000 278.620
61.80000 258.427
61.81000 241.521
61.82000 230.052
61.83000 218.665
61.84000 204.478
61.85000 187.248
61.86000 170.092
61.87000 163.013
61.88000 163.009
61.89000 162.823
61.90000 157.070
61.91000 148.694
61.92000 140.912
61.93000 141.300
61.94000 144.292
61.95000 146.997
61.96000 149.927
61.97000 152.548
61.98000 154.650
61.99000 154.222
62.00000 153.455
62.01000 152.007
62.02000 148.357
62.03000 144.538
62.04000 141.888
62.05000 141.033
62.06000 140.437
62.07000 142.352
62.08000 147.960
62.09000 153.600
62.10000 153.893
62.11000 149.091
62.12000 144.328
62.13000 145.373
62.14000 149.959
62.15000 154.307
62.16000 153.105
62.17000 149.569
62.18000 146.126
62.19000 143.744
62.20000 141.663
62.21000 139.813
62.22000 141.081
62.23000 142.685
62.24000 142.857
62.25000 136.840
62.26000 130.109
62.27000 126.873
62.28000 133.730
62.29000 141.223
62.30000 146.222
62.31000 144.083
62.32000 142.360
62.33000 143.986
62.34000 149.976
62.35000 155.966
62.36000 152.658
62.37000 141.555
62.38000 130.594
62.39000 127.880
62.40000 129.698
62.41000 131.559
62.42000 134.192
62.43000 137.114
62.44000 139.702
62.45000 139.038
62.46000 137.553
62.47000 136.257
62.48000 138.089
62.49000 140.094
62.50000 141.647
62.51000 141.467
62.52000 141.117
62.53000 140.714
62.54000 140.176
62.55000 139.632
62.56000 139.284
62.57000 141.180
62.58000 142.590
62.59000 143.614
62.60000 144.192
62.61000 144.771
62.62000 145.624
62.63000 146.681
62.64000 147.717
62.65000 146.229
62.66000 143.587
62.67000 141.213
62.68000 142.852
62.69000 145.836
62.70000 148.745
62.71000 151.028
62.72000 153.170
62.73000 155.003
62.74000 154.043
62.75000 152.899
62.76000 151.493
62.77000 149.197
62.78000 146.826
62.79000 146.091
62.80000 149.119
62.81000 152.297
62.82000 154.238
62.83000 150.367
62.84000 147.550
62.85000 146.500
62.86000 147.235
62.87000 147.985
62.88000 150.167
62.89000 153.290
62.90000 156.332
62.91000 154.100
62.92000 149.744
62.93000 145.746
62.94000 146.191
62.95000 147.963
62.96000 149.567
62.97000 149.964
62.98000 150.123
62.99000 150.255
63.00000 148.399
63.01000 146.653
63.02000 146.028
63.03000 148.815
63.04000 151.835
63.05000 153.417
63.06000 152.039
63.07000 150.572
63.08000 149.721
63.09000 148.736
63.10000 148.045
63.11000 147.307
63.12000 146.529
63.13000 145.741
63.14000 144.364
63.15000 142.642
63.16000 140.979
63.17000 138.640
63.18000 136.184
63.19000 134.467
63.20000 140.474
63.21000 148.535
63.22000 155.761
63.23000 157.766
63.24000 158.865
63.25000 159.763
63.26000 155.074
63.27000 150.752
63.28000 146.744
63.29000 143.589
63.30000 140.481
63.31000 140.649
63.32000 146.825
63.33000 153.130
63.34000 156.595
63.35000 157.917
63.36000 158.819
63.37000 158.711
63.38000 157.813
63.39000 156.887
63.40000 154.846
63.41000 152.224
63.42000 149.714
63.43000 153.247
63.44000 158.523
63.45000 162.850
63.46000 158.734
63.47000 152.624
63.48000 147.405
63.49000 147.058
63.50000 147.450
63.51000 147.762
63.52000 147.468
63.53000 147.186
63.54000 146.615
63.55000 145.342
63.56000 144.037
63.57000 144.788
63.58000 148.896
63.59000 153.052
63.60000 155.202
63.61000 163.389
63.62000 168.847
63.63000 166.284
63.64000 158.160
63.65000 150.273
63.66000 149.424
63.67000 151.851
63.68000 154.148
63.69000 155.180
63.70000 155.764
63.71000 156.368
63.72000 157.123
63.73000 157.910
63.74000 158.804
63.75000 160.216
63.76000 161.696
63.77000 162.842
63.78000 159.161
63.79000 155.949
63.80000 152.939
63.81000 150.365
63.82000 147.806
63.83000 147.143
63.84000 149.232
63.85000 151.344
63.86000 152.321
63.87000 152.232
63.88000 152.177
63.89000 154.607
63.90000 158.567
63.91000 162.286
63.92000 160.517
63.93000 156.466
63.94000 152.678
63.95000 157.901
63.96000 164.935
63.97000 170.604
63.98000 167.201
63.99000 162.129
64.00000 158.301
64.01000 159.780
64.02000 161.861
64.03000 163.425
64.04000 159.703
64.05000 156.538
64.06000 154.404
64.07000 154.261
64.08000 154.168
64.09000 155.226
64.10000 157.767
64.11000 160.309
64.12000 159.804
64.13000 156.788
64.14000 153.908
64.15000 157.508
64.16000 164.664
64.17000 171.302
64.18000 168.601
64.19000 162.435
64.20000 156.746
64.21000 155.796
64.22000 156.003
64.23000 156.774
64.24000 160.826
64.25000 165.406
64.26000 168.876
64.27000 168.141
64.28000 166.999
64.29000 166.169
64.30000 167.859
64.31000 169.257
64.32000 170.450
64.33000 171.293
64.34000 172.130
64.35000 171.496
64.36000 169.192
64.37000 166.894
64.38000 166.195
64.39000 166.663
64.40000 167.083
64.41000 165.876
64.42000 163.872
64.43000 162.093
64.44000 163.592
64.45000 166.178
64.46000 168.529
64.47000 171.795
64.48000 174.861
64.49000 176.396
64.50000 170.119
64.51000 162.745
64.52000 157.706
64.53000 160.529
64.54000 163.990
64.55000 166.422
64.56000 169.210
64.57000 171.331
64.58000 173.915
64.59000 177.208
64.60000 180.508
64.61000 180.458
64.62000 177.069
64.63000 173.704
64.64000 172.770
64.65000 173.404
64.66000 173.930
64.67000 171.690
64.68000 168.240
64.69000 165.585
64.70000 172.613
64.71000 182.499
64.72000 191.338
64.73000 192.252
64.74000 191.702
64.75000 190.438
64.76000 185.954
64.77000 181.079
64.78000 178.412
64.79000 182.372
64.80000 186.778
64.81000 189.759
64.82000 190.143
64.83000 190.373
64.84000 190.357
64.85000 190.007
64.86000 189.660
64.87000 193.688
64.88000 201.546
64.89000 209.316
64.90000 206.994
64.91000 199.032
64.92000 191.428
64.93000 190.965
64.94000 193.290
64.95000 196.002
64.96000 202.682
64.97000 210.404
64.98000 217.186
64.99000 215.607
65.00000 213.021
65.01000 211.832
65.02000 216.220
65.03000 221.188
65.04000 224.562
65.05000 223.666
65.06000 222.536
65.07000 221.802
65.08000 236.742
65.09000 247.919
65.10000 254.368
65.11000 255.139
65.12000 255.888
65.13000 254.049
65.14000 250.212
65.15000 246.438
65.16000 255.317
65.17000 270.208
65.18000 284.765
65.19000 293.940
65.20000 301.239
65.21000 308.452
65.22000 314.905
65.23000 321.181
65.24000 326.586
65.25000 334.996
65.26000 342.501
65.27000 350.274
65.28000 358.997
65.29000 367.803
65.30000 375.285
65.31000 379.600
65.32000 383.777
65.33000 386.369
65.34000 404.549
65.35000 417.783
65.36000 420.522
65.37000 412.169
65.38000 403.956
65.39000 412.135
65.40000 431.532
65.41000 450.478
65.42000 455.796
65.43000 454.890
65.44000 454.161
65.45000 455.776
65.46000 458.118
65.47000 459.721
65.48000 455.749
65.49000 450.629
65.50000 446.313
65.51000 460.606
65.52000 474.556
65.53000 483.691
65.54000 477.614
65.55000 470.421
65.56000 464.927
65.57000 463.063
65.58000 461.320
65.59000 460.290
65.60000 463.691
65.61000 466.118
65.62000 468.641
65.63000 471.255
65.64000 473.964
65.65000 483.267
65.66000 496.580
65.67000 509.481
65.68000 543.213
65.69000 583.238
65.70000 623.896
65.71000 671.558
65.72000 721.158
65.73000 774.057
65.74000 848.542
65.75000 926.943
65.76000 991.539
65.77000 1056.228
65.78000 1109.464
65.79000 1161.953
65.80000 1212.340
65.81000 1262.600
65.82000 1297.037
65.83000 1301.313
65.84000 1304.856
65.85000 1306.842
65.86000 1338.558
65.87000 1360.574
65.88000 1367.526
65.89000 1362.186
65.90000 1356.603
65.91000 1339.962
65.92000 1317.327
65.93000 1295.594
65.94000 1238.851
65.95000 1173.769
65.96000 1106.443
65.97000 1018.086
65.98000 924.559
65.99000 833.376
66.00000 755.602
66.01000 679.959
66.02000 619.171
66.03000 558.160
66.04000 508.688
66.05000 465.412
66.06000 437.723
66.07000 410.786
66.08000 387.358
66.09000 369.890
66.10000 352.520
66.11000 343.342
66.12000 344.628
66.13000 345.466
66.14000 339.810
66.15000 329.466
66.16000 319.403
66.17000 318.533
66.18000 322.108
66.19000 325.505
66.20000 326.187
66.21000 325.996
66.22000 326.381
66.23000 331.392
66.24000 337.409
66.25000 344.085
66.26000 354.067
66.27000 364.507
66.28000 372.673
66.29000 395.712
66.30000 415.052
66.31000 434.311
66.32000 453.386
66.33000 472.454
66.34000 485.245
66.35000 488.548
66.36000 491.755
66.37000 495.824
66.38000 500.739
66.39000 505.639
66.40000 509.267
66.41000 512.080
66.42000 514.752
66.43000 513.923
66.44000 511.582
66.45000 509.384
66.46000 502.204
66.47000 494.331
66.48000 487.618
66.49000 488.985
66.50000 491.904
66.51000 490.114
66.52000 467.396
66.53000 442.179
66.54000 423.023
66.55000 413.530
66.56000 406.569
66.57000 398.127
66.58000 386.714
66.59000 375.217
66.60000 364.731
66.61000 355.601
66.62000 346.483
66.63000 343.857
66.64000 346.829
66.65000 349.652
66.66000 344.474
66.67000 334.732
66.68000 325.448
66.69000 325.068
66.70000 328.121
66.71000 330.951
66.72000 329.833
66.73000 327.905
66.74000 327.745
66.75000 338.326
66.76000 350.717
66.77000 359.736
66.78000 355.468
66.79000 349.843
66.80000 345.704
66.81000 350.082
66.82000 353.822
66.83000 355.542
66.84000 353.647
66.85000 351.680
66.86000 350.285
66.87000 349.567
66.88000 348.852
66.89000 351.012
66.90000 355.335
66.91000 359.585
66.92000 361.034
66.93000 361.060
66.94000 361.110
66.95000 361.551
66.96000 362.128
66.97000 362.654
66.98000 368.144
66.99000 374.033
67.00000 378.299
67.01000 373.920
67.02000 368.268
67.03000 364.936
67.04000 369.727
67.05000 375.219
67.06000 379.125
67.07000 381.236
67.08000 382.785
67.09000 382.624
67.10000 379.738
67.11000 376.816
67.12000 375.355
67.13000 375.414
67.14000 375.473
67.15000 376.768
67.16000 378.872
67.17000 381.003
67.18000 383.872
67.19000 387.076
67.20000 390.459
67.21000 396.142
67.22000 402.531
67.23000 408.276
67.24000 404.239
67.25000 398.961
67.26000 395.843
67.27000 402.871
67.28000 411.193
67.29000 418.415
67.30000 422.206
67.31000 425.750
67.32000 428.179
67.33000 429.877
67.34000 431.132
67.35000 431.687
67.36000 431.252
67.37000 430.809
67.38000 429.090
67.39000 426.205
67.40000 423.348
67.41000 427.513
67.42000 435.726
67.43000 443.741
67.44000 447.494
67.45000 449.517
67.46000 451.500
67.47000 453.041
67.48000 454.461
67.49000 455.715
67.50000 461.467
67.51000 467.129
67.52000 470.971
67.53000 467.247
67.54000 462.695
67.55000 461.735
67.56000 470.776
67.57000 480.406
67.58000 486.745
67.59000 475.441
67.60000 466.810
67.61000 469.546
67.62000 486.520
67.63000 503.503
67.64000 508.512
67.65000 503.878
67.66000 499.312
67.67000 501.358
67.68000 506.780
67.69000 511.885
67.70000 511.544
67.71000 509.231
67.72000 507.296
67.73000 508.845
67.74000 511.239
67.75000 513.315
67.76000 517.965
67.77000 522.268
67.78000 526.592
67.79000 530.991
67.80000 535.397
67.81000 539.244
67.82000 541.699
67.83000 544.089
67.84000 545.595
67.85000 546.060
67.86000 546.386
67.87000 550.014
67.88000 557.291
67.89000 564.540
67.90000 567.478
67.91000 567.344
67.92000 567.212
67.93000 569.919
67.94000 573.821
67.95000 578.230
67.96000 589.785
67.97000 603.647
67.98000 615.640
67.99000 612.826
68.00000 606.833
68.01000 601.742
68.02000 602.544
68.03000 603.891
68.04000 605.159
68.05000 606.166
68.06000 607.154
68.07000 609.007
68.08000 612.782
68.09000 616.626
68.10000 618.937
68.11000 619.390
68.12000 619.699
68.13000 620.793
68.14000 622.647
68.15000 624.577
68.16000 632.536
68.17000 644.311
68.18000 655.753
68.19000 663.619
68.20000 669.643
68.21000 675.127
68.22000 674.271
68.23000 671.589
68.24000 670.331
68.25000 678.835
68.26000 689.188
68.27000 697.788
68.28000 711.628
68.29000 723.582
68.30000 732.842
68.31000 734.212
68.32000 735.073
68.33000 738.888
68.34000 748.555
68.35000 758.381
68.36000 763.989
68.37000 776.070
68.38000 784.514
68.39000 789.489
68.40000 791.512
68.41000 793.650
68.42000 801.762
68.43000 813.241
68.44000 824.297
68.45000 827.764
68.46000 828.305
68.47000 830.692
68.48000 851.353
68.49000 876.692
68.50000 899.475
68.51000 906.972
68.52000 911.927
68.53000 915.944
68.54000 937.882
68.55000 957.221
68.56000 981.588
68.57000 1019.100
68.58000 1057.298
68.59000 1095.572
68.60000 1133.979
68.61000 1172.388
68.62000 1193.102
68.63000 1267.609
68.64000 1318.675
68.65000 1380.134
68.66000 1449.412
68.67000 1519.089
68.68000 1603.330
68.69000 1694.890
68.70000 1782.209
68.71000 1842.836
68.72000 1890.667
68.73000 1942.759
68.74000 2030.916
68.75000 2127.257
68.76000 2218.217
68.77000 2280.916
68.78000 2339.516
68.79000 2385.784
68.80000 2484.343
68.81000 2566.991
68.82000 2665.676
68.83000 2801.791
68.84000 2939.444
68.85000 3116.282
68.86000 3354.754
68.87000 3593.978
68.88000 3715.209
68.89000 4560.135
68.90000 5131.420
68.91000 6259.186
68.92000 7758.162
68.93000 9305.446
68.94000 12162.523
68.95000 15607.178
68.96000 18855.475
68.97000 24365.672
68.98000 30041.787
68.99000 35814.148
69.00000 42289.570
69.01000 48905.934
69.02000 55304.348
69.03000 60692.980
69.04000 65954.789
69.05000 69992.586
69.06000 73340.695
69.07000 75948.117
69.08000 77985.555
69.09000 78834.891
69.10000 79647.203
69.11000 80342.656
69.12000 80874.883
69.13000 81405.836
69.14000 82123.844
69.15000 83009.547
69.16000 83885.219
69.17000 84137.320
69.18000 84019.461
69.19000 83826.625
69.20000 82055.680
69.21000 79652.500
69.22000 77414.680
69.23000 73315.781
69.24000 69155.516
69.25000 65042.906
69.26000 61233.137
69.27000 57476.766
69.28000 53897.582
69.29000 51045.273
69.30000 48271.328
69.31000 46207.242
69.32000 44234.910
69.33000 42704.563
69.34000 41355.156
69.35000 40342.273
69.36000 39336.953
69.37000 37941.301
69.38000 36063.168
69.39000 34187.082
69.40000 31662.359
69.41000 28636.328
69.42000 25605.977
69.43000 22393.105
69.44000 19083.727
69.45000 15818.818
69.46000 13302.899
69.47000 11054.899
69.48000 8990.613
69.49000 7385.852
69.50000 6052.333
69.51000 4812.792
69.52000 4096.137
69.53000 3460.139
69.54000 2904.231
69.55000 2640.138
69.56000 2402.757
69.57000 2231.913
69.58000 2055.913
69.59000 1920.971
69.60000 1805.752
69.61000 1723.217
69.62000 1641.174
69.63000 1565.666
69.64000 1497.275
69.65000 1429.183
69.66000 1384.300
69.67000 1356.039
69.68000 1327.700
69.69000 1296.972
69.70000 1265.117
69.71000 1233.149
69.72000 1199.615
69.73000 1165.581
69.74000 1134.806
69.75000 1107.472
69.76000 1084.059
69.77000 1059.905
69.78000 1032.120
69.79000 1003.848
69.80000 982.522
69.81000 983.728
69.82000 986.662
69.83000 988.698
69.84000 966.616
69.85000 949.337
69.86000 934.658
69.87000 923.809
69.88000 912.994
69.89000 898.416
69.90000 880.245
69.91000 862.219
69.92000 847.470
69.93000 834.995
69.94000 822.791
69.95000 816.964
69.96000 813.824
69.97000 809.558
69.98000 792.355
69.99000 771.474
70.00000 752.908
