20.00000 572.466
20.01000 570.739
20.02000 568.765
20.03000 567.336
20.04000 568.035
20.05000 568.948
20.06000 569.618
20.07000 565.037
20.08000 561.284
20.09000 559.227
20.10000 560.174
20.11000 561.178
20.12000 556.494
20.13000 545.145
20.14000 533.817
20.15000 535.620
20.16000 547.243
20.17000 558.733
20.18000 565.348
20.19000 569.509
20.20000 573.344
20.21000 572.169
20.22000 569.285
20.23000 566.655
20.24000 564.077
20.25000 561.801
20.26000 559.874
20.27000 559.777
20.28000 559.946
20.29000 561.942
20.30000 570.269
20.31000 579.134
20.32000 585.419
20.33000 582.742
20.34000 580.424
20.35000 574.163
20.36000 561.684
20.37000 549.129
20.38000 546.356
20.39000 553.659
20.40000 560.920
20.41000 562.907
20.42000 561.388
20.43000 559.998
20.44000 562.116
20.45000 565.810
20.46000 568.453
20.47000 557.711
20.48000 542.902
20.49000 529.604
20.50000 539.551
20.51000 552.339
20.52000 562.857
20.53000 562.830
20.54000 561.475
20.55000 561.729
20.56000 566.949
20.57000 572.520
20.58000 576.325
20.59000 578.358
20.60000 579.837
20.61000 573.934
20.62000 557.695
20.63000 541.393
20.64000 537.670
20.65000 545.309
20.66000 552.872
20.67000 553.984
20.68000 551.317
20.69000 548.815
20.70000 549.793
20.71000 552.168
20.72000 554.253
20.73000 553.230
20.74000 551.367
20.75000 549.723
20.76000 557.581
20.77000 565.807
20.78000 571.471
20.79000 566.595
20.80000 560.580
20.81000 554.273
20.82000 547.164
20.83000 540.009
20.84000 535.316
20.85000 550.260
20.86000 561.579
20.87000 570.828
20.88000 577.512
20.89000 584.172
20.90000 585.278
20.91000 581.962
20.92000 578.696
20.93000 571.864
20.94000 563.406
20.95000 555.401
20.96000 555.054
20.97000 557.452
20.98000 559.525
20.99000 558.647
21.00000 557.059
21.01000 555.686
21.02000 554.181
21.03000 552.885
21.04000 550.878
21.05000 546.277
21.06000 541.438
21.07000 539.961
21.08000 546.756
21.09000 553.933
21.10000 558.438
21.11000 558.973
21.12000 559.316
21.13000 556.736
21.14000 550.965
21.15000 545.247
21.16000 546.988
21.17000 553.988
21.18000 560.838
21.19000 555.658
21.20000 545.224
21.21000 536.193
21.22000 546.565
21.23000 563.143
21.24000 576.200
21.25000 561.748
21.26000 541.451
21.27000 524.244
21.28000 534.767
21.29000 546.711
21.30000 554.855
21.31000 550.644
21.32000 545.483
21.33000 541.207
21.34000 538.878
21.35000 536.618
21.36000 535.266
21.37000 539.706
21.38000 542.895
21.39000 544.849
21.40000 545.622
21.41000 546.508
21.42000 556.028
21.43000 570.958
21.44000 585.455
21.45000 586.572
21.46000 582.269
21.47000 577.454
21.48000 566.723
21.49000 554.306
21.50000 543.860
21.51000 546.766
21.52000 552.172
21.53000 556.653
21.54000 560.530
21.55000 563.674
21.56000 565.092
21.57000 561.505
21.58000 557.602
21.59000 552.452
21.60000 544.858
21.61000 537.199
21.62000 532.849
21.63000 551.686
21.64000 564.852
21.65000 564.807
21.66000 553.636
21.67000 542.717
21.68000 544.346
21.69000 552.974
21.70000 561.278
21.71000 571.378
21.72000 581.489
21.73000 590.527
21.74000 589.084
21.75000 584.986
21.76000 580.633
21.77000 574.768
21.78000 568.655
21.79000 563.710
21.80000 575.529
21.81000 586.495
21.82000 595.567
21.83000 599.742
21.84000 603.667
21.85000 609.270
21.86000 617.808
21.87000 626.401
21.88000 631.010
21.89000 642.905
21.90000 651.024
21.91000 657.795
21.92000 663.563
21.93000 669.373
21.94000 676.722
21.95000 684.835
21.96000 692.565
21.97000 693.540
21.98000 692.336
21.99000 691.714
22.00000 695.954
22.01000 701.286
22.02000 706.384
22.03000 710.273
22.04000 713.989
22.05000 716.915
22.06000 711.331
22.07000 706.287
22.08000 702.239
22.09000 700.495
22.10000 698.843
22.11000 696.578
22.12000 693.356
22.13000 690.124
22.14000 688.495
22.15000 682.468
22.16000 678.411
22.17000 671.539
22.18000 662.808
22.19000 654.151
22.20000 647.406
22.21000 641.510
22.22000 635.956
22.23000 631.774
22.24000 628.324
22.25000 624.357
22.26000 616.665
22.27000 608.234
22.28000 599.693
22.29000 590.652
22.30000 581.548
22.31000 574.581
22.32000 567.177
22.33000 561.310
22.34000 555.958
22.35000 551.667
22.36000 547.408
22.37000 547.897
22.38000 554.946
22.39000 562.033
22.40000 563.758
22.41000 560.711
22.42000 557.588
22.43000 550.010
22.44000 539.815
22.45000 530.403
22.46000 537.124
22.47000 550.245
22.48000 562.448
22.49000 549.152
22.50000 530.997
22.51000 516.918
22.52000 528.436
22.53000 544.415
22.54000 555.429
22.55000 546.291
22.56000 535.010
22.57000 526.639
22.58000 526.907
22.59000 527.494
22.60000 529.482
22.61000 534.048
22.62000 538.670
22.63000 539.207
22.64000 534.752
22.65000 530.293
22.66000 530.060
22.67000 533.134
22.68000 536.077
22.69000 533.658
22.70000 528.434
22.71000 523.379
22.72000 521.134
22.73000 519.884
22.74000 518.737
22.75000 517.319
22.76000 515.997
22.77000 515.801
22.78000 521.799
22.79000 528.740
22.80000 533.334
22.81000 529.463
22.82000 524.828
22.83000 521.502
22.84000 527.567
22.85000 532.526
22.86000 532.969
22.87000 526.003
22.88000 518.930
22.89000 515.219
22.90000 515.127
22.91000 515.036
22.92000 514.873
22.93000 514.663
22.94000 514.578
22.95000 518.255
22.96000 523.691
22.97000 528.703
22.98000 527.987
22.99000 525.461
23.00000 523.179
23.01000 514.530
23.02000 505.754
23.03000 498.923
23.04000 501.516
23.05000 505.356
23.06000 508.086
23.07000 507.252
23.08000 506.149
23.09000 505.386
23.10000 513.407
23.11000 519.669
23.12000 519.243
23.13000 509.068
23.14000 498.812
23.15000 498.940
23.16000 508.869
23.17000 518.715
23.18000 523.187
23.19000 524.314
23.20000 525.287
23.21000 522.741
23.22000 518.727
23.23000 514.854
23.24000 512.590
23.25000 510.778
23.26000 509.170
23.27000 506.133
23.28000 503.271
23.29000 500.800
23.30000 500.003
23.31000 499.397
23.32000 499.332
23.33000 500.818
23.34000 502.400
23.35000 503.453
23.36000 508.010
23.37000 511.448
23.38000 513.521
23.39000 513.831
23.40000 514.136
23.41000 515.637
23.42000 518.131
23.43000 520.592
23.44000 515.733
23.45000 507.081
23.46000 499.019
23.47000 501.669
23.48000 508.309
23.49000 514.065
23.50000 511.348
23.51000 506.512
23.52000 502.298
23.53000 501.579
23.54000 501.448
23.55000 501.671
23.56000 503.238
23.57000 504.935
23.58000 506.232
23.59000 506.503
23.60000 506.723
23.61000 506.863
23.62000 500.548
23.63000 495.874
23.64000 497.707
23.65000 506.960
23.66000 516.161
23.67000 515.005
23.68000 506.242
23.69000 497.647
23.70000 504.625
23.71000 518.717
23.72000 531.748
23.73000 529.096
23.74000 521.231
23.75000 513.364
23.76000 505.486
23.77000 497.606
23.78000 490.877
23.79000 483.856
23.80000 477.908
23.81000 477.415
23.82000 495.359
23.83000 514.813
23.84000 526.773
23.85000 521.625
23.86000 515.809
23.87000 512.270
23.88000 511.757
23.89000 511.413
23.90000 514.537
23.91000 521.132
23.92000 527.677
23.93000 529.714
23.94000 528.813
23.95000 527.935
23.96000 527.851
23.97000 528.103
23.98000 528.087
23.99000 524.796
24.00000 520.534
24.01000 516.563
24.02000 514.660
24.03000 513.160
24.04000 511.907
24.05000 509.135
24.06000 506.679
24.07000 506.074
24.08000 511.043
24.09000 516.391
24.10000 519.923
24.11000 519.756
24.12000 519.480
24.13000 519.320
24.14000 515.520
24.15000 512.846
24.16000 515.113
24.17000 521.722
24.18000 528.274
24.19000 531.596
24.20000 533.044
24.21000 534.442
24.22000 528.446
24.23000 520.068
24.24000 512.123
24.25000 508.648
24.26000 506.352
24.27000 503.492
24.28000 497.141
24.29000 490.190
24.30000 484.520
24.31000 491.189
24.32000 497.698
24.33000 505.065
24.34000 514.740
24.35000 524.542
24.36000 528.233
24.37000 520.812
24.38000 513.158
24.39000 508.969
24.40000 499.971
24.41000 493.796
24.42000 491.958
24.43000 493.483
24.44000 495.056
24.45000 498.486
24.46000 502.877
24.47000 507.075
24.48000 509.347
24.49000 510.835
24.50000 511.452
24.51000 504.422
24.52000 495.604
24.53000 488.987
24.54000 494.317
24.55000 501.441
24.56000 507.104
24.57000 497.584
24.58000 488.832
24.59000 481.162
24.60000 476.091
24.61000 471.132
24.62000 469.019
24.63000 471.514
24.64000 474.072
24.65000 475.389
24.66000 481.148
24.67000 485.004
24.68000 486.223
24.69000 485.629
24.70000 485.207
24.71000 489.733
24.72000 496.543
24.73000 502.984
24.74000 503.065
24.75000 501.317
24.76000 499.277
24.77000 495.027
24.78000 490.321
24.79000 487.235
24.80000 491.896
24.81000 497.565
24.82000 501.948
24.83000 490.817
24.84000 481.076
24.85000 476.273
24.86000 482.058
24.87000 488.198
24.88000 490.370
24.89000 486.830
24.90000 483.246
24.91000 480.403
24.92000 478.250
24.93000 476.156
24.94000 478.219
24.95000 482.820
24.96000 487.274
24.97000 488.435
24.98000 488.240
24.99000 488.057
25.00000 491.575
25.01000 495.700
25.02000 498.602
25.03000 493.466
25.04000 486.865
25.05000 481.636
25.06000 482.202
25.07000 483.419
25.08000 484.331
25.09000 467.264
25.10000 453.081
25.11000 447.738
25.12000 459.312
25.13000 471.300
25.14000 476.915
25.15000 474.404
25.16000 471.868
25.17000 471.238
25.18000 472.167
25.19000 473.072
25.20000 472.867
25.21000 472.060
25.22000 471.275
25.23000 470.898
25.24000 470.670
25.25000 470.460
25.26000 474.615
25.27000 479.299
25.28000 482.994
25.29000 481.007
25.30000 478.112
25.31000 474.591
25.32000 468.724
25.33000 462.632
25.34000 458.211
25.35000 462.902
25.36000 466.849
25.37000 468.046
25.38000 464.551
25.39000 460.978
25.40000 458.796
25.41000 458.179
25.42000 457.566
25.43000 460.672
25.44000 466.422
25.45000 472.004
25.46000 472.027
25.47000 469.351
25.48000 466.724
25.49000 464.808
25.50000 463.125
25.51000 461.597
25.52000 470.199
25.53000 479.750
25.54000 487.145
25.55000 483.636
25.56000 478.612
25.57000 473.205
25.58000 466.518
25.59000 459.729
25.60000 454.972
25.61000 463.640
25.62000 470.582
25.63000 469.757
25.64000 457.144
25.65000 444.410
25.66000 442.236
25.67000 450.482
25.68000 458.671
25.69000 460.513
25.70000 458.306
25.71000 456.270
25.72000 458.525
25.73000 462.640
25.74000 466.587
25.75000 468.512
25.76000 469.845
25.77000 471.035
25.78000 462.237
25.79000 452.898
25.80000 447.134
25.81000 457.325
25.82000 469.430
25.83000 478.847
25.84000 480.261
25.85000 481.144
25.86000 481.739
25.87000 486.962
25.88000 490.945
25.89000 489.671
25.90000 481.320
25.91000 472.929
25.92000 462.865
25.93000 451.353
25.94000 439.972
25.95000 446.914
25.96000 463.932
25.97000 480.073
25.98000 479.028
25.99000 471.331
26.00000 464.154
26.01000 462.250
26.02000 461.718
26.03000 461.252
26.04000 466.296
26.05000 471.429
26.06000 474.602
26.07000 470.021
26.08000 464.644
26.09000 460.586
26.10000 460.032
26.11000 459.667
26.12000 459.431
26.13000 460.237
26.14000 460.841
26.15000 462.504
26.16000 465.425
26.17000 468.332
26.18000 467.405
26.19000 463.543
26.20000 459.748
26.21000 463.048
26.22000 469.741
26.23000 476.191
26.24000 478.785
26.25000 480.047
26.26000 480.962
26.27000 478.877
26.28000 476.099
26.29000 473.710
26.30000 477.593
26.31000 481.666
26.32000 483.650
26.33000 478.291
26.34000 472.294
26.35000 467.220
26.36000 464.332
26.37000 461.538
26.38000 459.810
26.39000 462.883
26.40000 465.136
26.41000 461.718
26.42000 452.363
26.43000 443.102
26.44000 444.281
26.45000 452.544
26.46000 460.610
26.47000 465.216
26.48000 468.114
26.49000 470.615
26.50000 467.949
26.51000 463.692
26.52000 459.522
26.53000 456.012
26.54000 452.637
26.55000 449.796
26.56000 443.643
26.57000 438.156
26.58000 435.583
26.59000 442.131
26.60000 449.341
26.61000 455.612
26.62000 459.896
26.63000 464.116
26.64000 466.600
26.65000 452.391
26.66000 442.282
26.67000 440.686
26.68000 446.902
26.69000 453.097
26.70000 457.864
26.71000 461.771
26.72000 465.554
26.73000 460.642
26.74000 452.648
26.75000 445.179
26.76000 443.445
26.77000 443.284
26.78000 443.286
26.79000 444.341
26.80000 445.585
26.81000 446.609
26.82000 447.898
26.83000 448.981
26.84000 450.343
26.85000 452.482
26.86000 454.668
26.87000 455.259
26.88000 452.835
26.89000 450.340
26.90000 448.948
26.91000 444.648
26.92000 441.680
26.93000 444.443
26.94000 451.837
26.95000 458.974
26.96000 454.654
26.97000 444.178
26.98000 434.126
26.99000 440.178
27.00000 451.305
27.01000 461.010
27.02000 457.525
27.03000 450.827
27.04000 444.934
27.05000 443.605
27.06000 442.994
27.07000 442.503
27.08000 443.335
27.09000 444.109
27.10000 445.418
27.11000 448.059
27.12000 450.764
27.13000 450.956
27.14000 446.916
27.15000 442.807
27.16000 440.646
27.17000 447.960
27.18000 452.896
27.19000 453.690
27.20000 451.521
27.21000 449.195
27.22000 441.844
27.23000 432.082
27.24000 422.814
27.25000 427.655
27.26000 436.348
27.27000 444.333
27.28000 446.697
27.29000 447.848
27.30000 448.739
27.31000 448.332
27.32000 447.747
27.33000 447.291
27.34000 445.868
27.35000 444.672
27.36000 443.586
27.37000 442.742
27.38000 441.907
27.39000 441.884
27.40000 443.079
27.41000 444.285
27.42000 443.464
27.43000 440.670
27.44000 437.905
27.45000 437.538
27.46000 438.695
27.47000 439.694
27.48000 436.875
27.49000 432.422
27.50000 428.244
27.51000 424.294
27.52000 420.753
27.53000 418.655
27.54000 426.496
27.55000 436.227
27.56000 444.158
27.57000 444.155
27.58000 443.215
27.59000 442.503
27.60000 440.664
27.61000 439.163
27.62000 440.403
27.63000 447.096
27.64000 453.939
27.65000 453.882
27.66000 444.658
27.67000 435.396
27.68000 434.092
27.69000 439.581
27.70000 444.975
27.71000 445.369
27.72000 442.934
27.73000 440.664
27.74000 441.544
27.75000 443.629
27.76000 445.559
27.77000 442.356
27.78000 438.289
27.79000 434.904
27.80000 435.623
27.81000 437.026
27.82000 437.873
27.83000 436.551
27.84000 435.009
27.85000 433.877
27.86000 426.480
27.87000 420.507
27.88000 420.697
27.89000 431.817
27.90000 443.147
27.91000 445.544
27.92000 437.454
27.93000 429.370
27.94000 421.885
27.95000 414.900
27.96000 408.226
27.97000 412.971
27.98000 423.477
27.99000 433.781
28.00000 440.960
28.01000 447.072
28.02000 452.650
28.03000 448.810
28.04000 443.500
28.05000 439.035
28.06000 439.036
28.07000 439.687
28.08000 440.196
28.09000 440.209
28.10000 440.180
28.11000 440.160
28.12000 445.219
28.13000 449.228
28.14000 448.240
28.15000 439.363
28.16000 430.388
28.17000 426.503
28.18000 427.871
28.19000 429.232
28.20000 431.912
28.21000 435.429
28.22000 438.848
28.23000 439.573
28.24000 439.084
28.25000 438.449
28.26000 435.951
28.27000 432.886
28.28000 430.133
28.29000 433.457
28.30000 437.436
28.31000 438.482
28.32000 425.877
28.33000 411.549
28.34000 403.178
28.35000 413.236
28.36000 424.602
28.37000 432.369
28.38000 435.559
28.39000 437.838
28.40000 438.323
28.41000 436.292
28.42000 434.244
28.43000 432.827
28.44000 431.979
28.45000 431.140
28.46000 428.412
28.47000 424.640
28.48000 421.203
28.49000 424.860
28.50000 431.371
28.51000 436.725
28.52000 429.686
28.53000 419.290
28.54000 410.115
28.55000 413.319
28.56000 417.975
28.57000 421.369
28.58000 419.564
28.59000 417.196
28.60000 418.229
28.61000 428.651
28.62000 439.618
28.63000 446.815
28.64000 436.377
28.65000 428.403
28.66000 423.639
28.67000 422.860
28.68000 422.092
28.69000 421.435
28.70000 420.865
28.71000 420.304
28.72000 419.860
28.73000 419.488
28.74000 419.100
28.75000 418.428
28.76000 417.653
28.77000 417.104
28.78000 418.621
28.79000 420.635
28.80000 422.378
28.81000 430.914
28.82000 439.070
28.83000 444.884
28.84000 442.131
28.85000 438.589
28.86000 435.527
28.87000 433.652
28.88000 431.832
28.89000 430.688
28.90000 420.735
28.91000 413.442
28.92000 410.245
28.93000 411.529
28.94000 412.796
28.95000 411.376
28.96000 408.057
28.97000 404.809
28.98000 401.828
28.99000 399.087
29.00000 396.729
29.01000 399.676
29.02000 404.323
29.03000 409.437
29.04000 418.212
29.05000 427.767
29.06000 435.870
29.07000 430.604
29.08000 424.681
29.09000 419.260
29.10000 415.478
29.11000 411.822
29.12000 410.756
29.13000 415.389
29.14000 420.226
29.15000 423.122
29.16000 414.002
29.17000 407.449
29.18000 402.069
29.19000 397.814
29.20000 393.683
29.21000 399.175
29.22000 410.706
29.23000 421.904
29.24000 418.562
29.25000 409.550
29.26000 401.919
29.27000 410.269
29.28000 423.180
29.29000 434.427
29.30000 434.389
29.31000 432.233
29.32000 430.445
29.33000 430.803
29.34000 431.304
29.35000 430.369
29.36000 425.263
29.37000 419.891
29.38000 414.657
29.39000 409.694
29.40000 404.737
29.41000 401.920
29.42000 403.357
29.43000 404.374
29.44000 406.320
29.45000 409.052
29.46000 411.791
29.47000 414.948
29.48000 418.338
29.49000 421.601
29.50000 425.098
29.51000 428.463
29.52000 431.232
29.53000 428.165
29.54000 423.618
29.55000 420.051
29.56000 422.294
29.57000 425.493
29.58000 428.082
29.59000 417.796
29.60000 408.386
29.61000 401.262
29.62000 400.060
29.63000 399.163
29.64000 400.445
29.65000 405.546
29.66000 410.718
29.67000 413.494
29.68000 422.839
29.69000 429.176
29.70000 425.720
29.71000 414.963
29.72000 404.587
29.73000 407.730
29.74000 417.611
29.75000 427.027
29.76000 426.080
29.77000 421.963
29.78000 418.257
29.79000 417.987
29.80000 418.489
29.81000 419.785
29.82000 425.206
29.83000 431.220
29.84000 435.959
29.85000 435.776
29.86000 435.299
29.87000 433.430
29.88000 428.338
29.89000 423.115
29.90000 424.761
29.91000 437.115
29.92000 449.596
29.93000 455.890
29.94000 451.445
29.95000 448.494
29.96000 447.618
29.97000 448.113
29.98000 448.540
29.99000 447.154
30.00000 444.960
30.01000 442.893
30.02000 440.505
30.03000 438.232
30.04000 436.958
30.05000 442.912
30.06000 450.301
30.07000 455.935
30.08000 453.511
30.09000 450.086
30.10000 447.463
30.11000 440.455
30.12000 434.683
30.13000 431.141
30.14000 432.209
30.15000 433.417
30.16000 435.600
30.17000 439.133
30.18000 442.674
30.19000 441.788
30.20000 436.957
30.21000 432.205
30.22000 432.221
30.23000 435.041
30.24000 437.896
30.25000 441.465
30.26000 445.318
30.27000 448.902
30.28000 438.897
30.29000 426.575
30.30000 416.737
30.31000 422.525
30.32000 431.041
30.33000 437.059
30.34000 432.921
30.35000 427.701
30.36000 423.826
30.37000 421.754
30.38000 420.223
30.39000 420.488
30.40000 424.065
30.41000 427.713
30.42000 429.946
30.43000 430.445
30.44000 430.939
30.45000 434.912
30.46000 441.592
30.47000 448.203
30.48000 452.034
30.49000 454.407
30.50000 456.311
30.51000 450.445
30.52000 441.823
30.53000 433.914
30.54000 436.068
30.55000 440.116
30.56000 442.539
30.57000 436.008
30.58000 428.109
30.59000 421.989
30.60000 422.293
30.61000 423.179
30.62000 423.814
30.63000 419.381
30.64000 415.815
30.65000 418.527
30.66000 431.552
30.67000 444.727
30.68000 449.043
30.69000 443.802
30.70000 438.582
30.71000 439.895
30.72000 445.701
30.73000 451.363
30.74000 452.709
30.75000 452.036
30.76000 450.964
30.77000 444.472
30.78000 436.266
30.79000 428.853
30.80000 449.142
30.81000 472.093
30.82000 490.843
30.83000 489.210
30.84000 484.873
30.85000 481.685
30.86000 482.194
30.87000 482.982
30.88000 483.528
30.89000 490.913
30.90000 496.649
30.91000 502.765
30.92000 509.437
30.93000 516.113
30.94000 522.192
30.95000 527.705
30.96000 533.173
30.97000 542.392
30.98000 553.723
30.99000 564.908
31.00000 572.719
31.01000 579.120
31.02000 587.516
31.03000 618.575
31.04000 656.020
31.05000 689.269
31.06000 708.932
31.07000 723.799
31.08000 745.259
31.09000 795.012
31.10000 847.998
31.11000 904.392
31.12000 970.564
31.13000 1037.345
31.14000 1081.793
31.15000 1199.090
31.16000 1287.258
31.17000 1377.418
31.18000 1470.156
31.19000 1562.943
31.20000 1674.461
31.21000 1801.566
31.22000 1926.999
31.23000 2080.733
31.24000 2245.521
31.25000 2408.991
31.26000 2548.403
31.27000 2678.837
31.28000 2809.176
31.29000 2938.593
31.30000 3067.781
31.31000 3180.384
31.32000 3290.500
31.33000 3384.269
31.34000 3467.542
31.35000 3510.860
31.36000 3550.285
31.37000 3581.892
31.38000 3593.480
31.39000 3604.065
31.40000 3610.817
31.41000 3583.852
31.42000 3563.808
31.43000 3494.705
31.44000 3369.563
31.45000 3244.246
31.46000 3098.685
31.47000 2938.230
31.48000 2780.844
31.49000 2650.229
31.50000 2537.087
31.51000 2421.787
31.52000 2274.491
31.53000 2116.541
31.54000 1959.433
31.55000 1809.255
31.56000 1660.616
31.57000 1533.649
31.58000 1425.390
31.59000 1336.416
31.60000 1243.881
31.61000 1139.282
31.62000 1033.693
31.63000 945.480
31.64000 897.001
31.65000 850.079
31.66000 821.509
31.67000 747.755
31.68000 694.708
31.69000 652.796
31.70000 622.052
31.71000 591.476
31.72000 576.375
31.73000 571.378
31.74000 566.512
31.75000 549.916
31.76000 529.185
31.77000 509.378
31.78000 500.916
31.79000 495.821
31.80000 490.216
31.81000 480.973
31.82000 471.018
31.83000 462.699
31.84000 452.157
31.85000 443.179
31.86000 437.125
31.87000 439.893
31.88000 443.261
31.89000 443.994
31.90000 439.347
31.91000 434.541
31.92000 431.760
31.93000 422.308
31.94000 415.653
31.95000 408.747
31.96000 401.620
31.97000 394.646
31.98000 396.482
31.99000 403.437
32.00000 410.153
32.01000 414.018
32.02000 416.605
32.03000 418.749
32.04000 416.302
32.05000 412.642
32.06000 409.330
32.07000 408.177
32.08000 407.395
32.09000 406.757
32.10000 411.404
32.11000 415.658
32.12000 418.808
32.13000 418.984
32.14000 418.996
32.15000 416.436
32.16000 409.189
32.17000 401.844
32.18000 397.821
32.19000 399.101
32.20000 399.987
32.21000 400.230
32.22000 399.974
32.23000 399.752
32.24000 400.906
32.25000 402.772
32.26000 404.556
32.27000 405.000
32.28000 404.975
32.29000 404.486
32.30000 399.908
32.31000 394.373
32.32000 390.139
32.33000 392.980
32.34000 396.885
32.35000 399.991
32.36000 394.169
32.37000 388.841
32.38000 385.685
32.39000 387.757
32.40000 390.057
32.41000 389.450
32.42000 384.124
32.43000 378.733
32.44000 375.954
32.45000 382.848
32.46000 387.475
32.47000 390.036
32.48000 391.174
32.49000 392.304
32.50000 393.208
32.51000 394.009
32.52000 394.766
32.53000 397.501
32.54000 400.582
32.55000 402.266
32.56000 393.342
32.57000 382.220
32.58000 373.519
32.59000 376.412
32.60000 380.819
32.61000 384.227
32.62000 377.693
32.63000 371.923
32.64000 369.709
32.65000 375.134
32.66000 380.816
32.67000 383.062
32.68000 380.354
32.69000 377.606
32.70000 378.797
32.71000 383.658
32.72000 388.415
32.73000 385.917
32.74000 378.978
32.75000 372.236
32.76000 369.890
32.77000 369.359
32.78000 368.863
32.79000 369.103
32.80000 369.507
32.81000 370.208
32.82000 372.865
32.83000 375.879
32.84000 378.023
32.85000 376.477
32.86000 374.516
32.87000 373.045
32.88000 381.144
32.89000 387.926
32.90000 393.855
32.91000 398.149
32.92000 402.402
32.93000 406.446
32.94000 410.223
32.95000 413.994
32.96000 416.981
32.97000 419.316
32.98000 421.596
32.99000 421.308
33.00000 419.621
33.01000 417.879
33.02000 415.160
33.03000 412.081
33.04000 409.243
33.05000 406.281
33.06000 403.603
33.07000 400.843
33.08000 397.612
33.09000 394.307
33.10000 390.561
33.11000 385.160
33.12000 379.600
33.13000 375.561
33.14000 383.760
33.15000 390.524
33.16000 390.447
33.17000 378.679
33.18000 366.713
33.19000 357.027
33.20000 349.910
33.21000 342.819
33.22000 342.620
33.23000 347.382
33.24000 352.039
33.25000 353.161
33.26000 352.565
33.27000 351.710
33.28000 347.085
33.29000 341.221
33.30000 335.896
33.31000 344.203
33.32000 354.177
33.33000 362.024
33.34000 359.109
33.35000 354.695
33.36000 351.613
33.37000 352.989
33.38000 354.723
33.39000 355.939
33.40000 350.843
33.41000 346.806
33.42000 345.102
33.43000 346.946
33.44000 348.827
33.45000 350.577
33.46000 352.199
33.47000 353.809
33.48000 355.391
33.49000 356.928
33.50000 358.364
33.51000 357.225
33.52000 354.969
33.53000 352.115
33.54000 342.069
33.55000 329.915
33.56000 319.059
33.57000 321.544
33.58000 325.955
33.59000 330.559
33.60000 336.021
33.61000 341.586
33.62000 345.691
33.63000 345.443
33.64000 344.905
33.65000 344.542
33.66000 337.321
33.67000 331.802
33.68000 328.154
33.69000 327.030
33.70000 325.924
33.71000 328.312
33.72000 333.736
33.73000 339.097
33.74000 342.545
33.75000 344.838
33.76000 347.051
33.77000 347.703
33.78000 347.749
33.79000 347.825
33.80000 348.209
33.81000 348.673
33.82000 349.081
33.83000 348.420
33.84000 347.696
33.85000 347.234
33.86000 347.809
33.87000 348.490
33.88000 348.817
33.89000 348.200
33.90000 347.533
33.91000 347.101
33.92000 348.588
33.93000 349.704
33.94000 347.369
33.95000 340.919
33.96000 334.478
33.97000 331.950
33.98000 332.423
33.99000 332.887
34.00000 331.566
34.01000 329.406
34.02000 327.264
34.03000 325.418
34.04000 323.675
34.05000 322.726
34.06000 328.657
34.07000 336.179
34.08000 342.650
34.09000 341.777
34.10000 340.117
34.11000 337.794
34.12000 333.139
34.13000 328.281
34.14000 325.036
34.15000 325.626
34.16000 326.380
34.17000 326.846
34.18000 337.744
34.19000 345.676
34.20000 351.380
34.21000 354.748
34.22000 358.081
34.23000 357.453
34.24000 354.132
34.25000 350.891
34.26000 348.736
34.27000 347.149
34.28000 345.558
34.29000 343.920
34.30000 342.268
34.31000 341.524
34.32000 347.567
34.33000 354.999
34.34000 361.257
34.35000 355.229
34.36000 348.882
34.37000 343.165
34.38000 339.426
34.39000 335.830
34.40000 334.174
34.41000 336.634
34.42000 339.227
34.43000 340.755
34.44000 346.476
34.45000 350.531
34.46000 344.936
34.47000 330.468
34.48000 316.241
34.49000 318.038
34.50000 329.518
34.51000 340.636
34.52000 344.669
34.53000 345.752
34.54000 346.828
34.55000 347.836
34.56000 348.825
34.57000 349.916
34.58000 351.668
34.59000 353.539
34.60000 355.078
34.61000 348.699
34.62000 342.736
34.63000 338.421
34.64000 338.719
34.65000 339.291
34.66000 340.622
34.67000 343.390
34.68000 346.191
34.69000 347.756
34.70000 335.237
34.71000 326.563
34.72000 326.749
34.73000 334.113
34.74000 341.307
34.75000 340.864
34.76000 336.311
34.77000 331.942
34.78000 328.611
34.79000 325.851
34.80000 322.858
34.81000 317.707
34.82000 312.028
34.83000 308.381
34.84000 316.273
34.85000 325.984
34.86000 333.775
34.87000 333.863
34.88000 333.348
34.89000 333.256
34.90000 334.225
34.91000 335.245
34.92000 334.120
34.93000 329.376
34.94000 324.573
34.95000 322.044
34.96000 331.175
34.97000 337.306
34.98000 333.079
34.99000 321.428
35.00000 310.136
35.01000 310.413
35.02000 316.248
35.03000 321.788
35.04000 321.550
35.05000 319.596
35.06000 317.704
35.07000 316.297
35.08000 314.995
35.09000 314.113
35.10000 315.330
35.11000 316.834
35.12000 318.009
35.13000 321.376
35.14000 324.200
35.15000 325.340
35.16000 322.720
35.17000 319.962
35.18000 318.045
35.19000 317.391
35.20000 316.750
35.21000 320.049
35.22000 327.190
35.23000 334.194
35.24000 329.993
35.25000 318.659
35.26000 307.536
35.27000 301.570
35.28000 297.814
35.29000 294.290
35.30000 298.384
35.31000 304.125
35.32000 309.636
35.33000 313.562
35.34000 317.185
35.35000 320.602
35.36000 323.110
35.37000 325.509
35.38000 327.329
35.39000 321.296
35.40000 316.156
35.41000 314.217
35.42000 318.653
35.43000 323.265
35.44000 322.545
35.45000 314.727
35.46000 306.879
35.47000 307.552
35.48000 315.506
35.49000 323.250
35.50000 319.913
35.51000 310.296
35.52000 301.366
35.53000 305.624
35.54000 314.933
35.55000 323.554
35.56000 319.061
35.57000 311.982
35.58000 306.837
35.59000 313.338
35.60000 321.787
35.61000 326.330
35.62000 315.591
35.63000 303.305
35.64000 294.281
35.65000 296.849
35.66000 299.308
35.67000 301.554
35.68000 303.423
35.69000 305.285
35.70000 307.525
35.71000 310.211
35.72000 312.891
35.73000 310.954
35.74000 305.559
35.75000 300.353
35.76000 302.075
35.77000 307.298
35.78000 312.273
35.79000 313.403
35.80000 313.217
35.81000 313.049
35.82000 312.650
35.83000 312.250
35.84000 311.609
35.85000 309.697
35.86000 307.598
35.87000 305.802
35.88000 305.056
35.89000 304.400
35.90000 303.934
35.91000 301.277
35.92000 299.187
35.93000 298.738
35.94000 300.886
35.95000 303.066
35.96000 302.361
35.97000 298.672
35.98000 295.004
35.99000 294.922
36.00000 297.215
36.01000 299.516
36.02000 302.025
36.03000 304.628
36.04000 307.018
36.05000 306.677
36.06000 305.503
36.07000 304.448
36.08000 307.043
36.09000 309.959
36.10000 312.205
36.11000 311.332
36.12000 310.064
36.13000 309.076
36.14000 308.954
36.15000 308.894
36.16000 308.852
36.17000 303.795
36.18000 299.891
36.19000 297.078
36.20000 295.797
36.21000 294.527
36.22000 294.326
36.23000 295.094
36.24000 295.855
36.25000 301.043
36.26000 308.708
36.27000 315.925
36.28000 313.583
36.29000 307.391
36.30000 301.851
36.31000 303.323
36.32000 306.698
36.33000 309.678
36.34000 303.475
36.35000 296.716
36.36000 290.589
36.37000 287.065
36.38000 283.825
36.39000 283.047
36.40000 289.074
36.41000 295.497
36.42000 299.716
36.43000 290.018
36.44000 282.648
36.45000 281.240
36.46000 287.246
36.47000 293.273
36.48000 299.208
36.49000 305.071
36.50000 310.845
36.51000 312.303
36.52000 311.491
36.53000 310.719
36.54000 310.628
36.55000 310.781
36.56000 310.580
36.57000 307.139
36.58000 302.918
36.59000 299.262
36.60000 301.449
36.61000 304.082
36.62000 306.094
36.63000 305.829
36.64000 305.354
36.65000 304.311
36.66000 301.868
36.67000 299.361
36.68000 297.784
36.69000 298.279
36.70000 298.660
36.71000 296.367
36.72000 291.144
36.73000 285.965
36.74000 287.158
36.75000 292.860
36.76000 298.440
36.77000 297.035
36.78000 292.502
36.79000 288.344
36.80000 289.403
36.81000 292.136
36.82000 294.918
36.83000 298.093
36.84000 301.351
36.85000 304.116
36.86000 305.306
36.87000 306.125
36.88000 306.755
36.89000 306.767
36.90000 306.731
36.91000 307.923
36.92000 311.823
36.93000 315.820
36.94000 318.215
36.95000 323.747
36.96000 327.695
36.97000 322.627
36.98000 308.895
36.99000 295.267
37.00000 289.687
37.01000 289.166
37.02000 288.660
37.03000 288.254
37.04000 287.910
37.05000 288.233
37.06000 296.315
37.07000 306.615
37.08000 314.938
37.09000 309.816
37.10000 302.166
37.11000 295.822
37.12000 296.422
37.13000 297.586
37.14000 298.917
37.15000 300.730
37.16000 302.575
37.17000 304.709
37.18000 307.412
37.19000 310.131
37.20000 311.677
37.21000 306.695
37.22000 303.203
37.23000 300.146
37.24000 297.459
37.25000 294.939
37.26000 300.946
37.27000 311.724
37.28000 322.101
37.29000 320.926
37.30000 315.722
37.31000 310.813
37.32000 308.796
37.33000 307.513
37.34000 305.978
37.35000 302.942
37.36000 299.659
37.37000 297.001
37.38000 294.593
37.39000 292.653
37.40000 291.354
37.41000 291.718
37.42000 292.168
37.43000 291.149
37.44000 287.553
37.45000 283.910
37.46000 281.952
37.47000 288.373
37.48000 292.756
37.49000 294.965
37.50000 295.549
37.51000 296.175
37.52000 298.257
37.53000 301.066
37.54000 303.743
37.55000 304.466
37.56000 304.525
37.57000 303.999
37.58000 298.556
37.59000 292.007
37.60000 286.172
37.61000 284.064
37.62000 282.492
37.63000 281.252
37.64000 285.595
37.65000 289.452
37.66000 292.538
37.67000 293.836
37.68000 295.061
37.69000 295.243
37.70000 293.794
37.71000 292.326
37.72000 291.584
37.73000 288.663
37.74000 286.773
37.75000 291.140
37.76000 299.652
37.77000 307.870
37.78000 308.230
37.79000 305.088
37.80000 302.128
37.81000 298.735
37.82000 295.509
37.83000 292.909
37.84000 294.835
37.85000 297.663
37.86000 299.752
37.87000 298.444
37.88000 296.714
37.89000 295.388
37.90000 292.717
37.91000 290.535
37.92000 290.874
37.93000 296.435
37.94000 302.157
37.95000 304.409
37.96000 301.852
37.97000 299.265
37.98000 298.755
37.99000 300.101
38.00000 301.409
38.01000 300.461
38.02000 298.184
38.03000 296.011
38.04000 295.998
38.05000 296.843
38.06000 297.630
38.07000 301.999
38.08000 306.812
38.09000 309.897
38.10000 302.086
38.11000 292.368
38.12000 285.162
38.13000 288.187
38.14000 292.304
38.15000 295.362
38.16000 298.227
38.17000 300.445
38.18000 302.412
38.19000 303.913
38.20000 305.404
38.21000 305.772
38.22000 304.762
38.23000 303.750
38.24000 305.983
38.25000 310.751
38.26000 315.402
38.27000 315.213
38.28000 312.482
38.29000 310.286
38.30000 316.983
38.31000 326.842
38.32000 335.886
38.33000 336.484
38.34000 335.225
38.35000 335.082
38.36000 341.096
38.37000 348.052
38.38000 354.236
38.39000 357.627
38.40000 360.765
38.41000 363.018
38.42000 376.265
38.43000 386.779
38.44000 394.329
38.45000 397.001
38.46000 399.601
38.47000 412.406
38.48000 436.240
38.49000 459.970
38.50000 480.019
38.51000 497.309
38.52000 514.736
38.53000 536.276
38.54000 559.744
38.55000 582.942
38.56000 602.443
38.57000 620.773
38.58000 637.332
38.59000 669.652
38.60000 700.987
38.61000 731.914
38.62000 760.860
38.63000 789.542
38.64000 816.360
38.65000 837.168
38.66000 857.520
38.67000 871.617
38.68000 892.548
38.69000 908.479
38.70000 922.379
38.71000 933.309
38.72000 944.212
38.73000 950.132
38.74000 951.330
38.75000 952.518
38.76000 944.217
38.77000 930.285
38.78000 915.953
38.79000 892.409
38.80000 865.009
38.81000 837.824
38.82000 813.102
38.83000 789.075
38.84000 767.734
38.85000 746.172
38.86000 727.439
38.87000 705.787
38.88000 671.583
38.89000 635.942
38.90000 601.651
38.91000 571.236
38.92000 541.064
38.93000 520.969
38.94000 489.416
38.95000 465.847
38.96000 446.452
38.97000 432.471
38.98000 418.507
38.99000 402.193
39.00000 383.921
39.01000 365.888
39.02000 350.969
39.03000 338.125
39.04000 325.898
39.05000 324.958
39.06000 328.237
39.07000 330.911
39.08000 327.757
39.09000 323.140
39.10000 319.115
39.11000 315.986
39.12000 313.435
39.13000 310.447
39.14000 305.788
39.15000 300.966
39.16000 296.712
39.17000 293.915
39.18000 291.191
39.19000 289.453
39.20000 285.265
39.21000 282.187
39.22000 279.659
39.23000 277.760
39.24000 275.910
39.25000 282.579
39.26000 295.528
39.27000 308.230
39.28000 303.848
39.29000 291.510
39.30000 279.441
39.31000 271.379
39.32000 264.654
39.33000 259.427
39.34000 266.563
39.35000 276.446
39.36000 284.892
39.37000 283.095
39.38000 280.358
39.39000 278.955
39.40000 282.073
39.41000 285.564
39.42000 285.805
39.43000 278.602
39.44000 271.106
39.45000 266.539
39.46000 264.312
39.47000 262.740
39.48000 264.059
39.49000 268.284
39.50000 272.485
39.51000 274.455
39.52000 274.965
39.53000 275.463
39.54000 273.771
39.55000 271.239
39.56000 268.725
39.57000 266.425
39.58000 264.188
39.59000 262.966
39.60000 268.979
39.61000 276.413
39.62000 282.627
39.63000 278.606
39.64000 274.225
39.65000 271.187
39.66000 272.204
39.67000 273.499
39.68000 274.690
39.69000 275.671
39.70000 276.646
39.71000 277.210
39.72000 275.102
39.73000 273.611
39.74000 270.022
39.75000 264.584
39.76000 259.268
39.77000 261.069
39.78000 267.011
39.79000 272.750
39.80000 275.417
39.81000 276.792
39.82000 277.714
39.83000 273.939
39.84000 268.921
39.85000 264.327
39.86000 262.375
39.87000 260.877
39.88000 259.655
39.89000 270.088
39.90000 279.625
39.91000 283.256
39.92000 270.954
39.93000 257.768
39.94000 251.040
39.95000 256.096
39.96000 261.401
39.97000 264.309
39.98000 271.693
39.99000 276.744
40.00000 272.868
40.01000 262.043
40.02000 251.504
40.03000 252.367
40.04000 259.144
40.05000 265.627
40.06000 262.651
40.07000 256.791
40.08000 251.149
40.09000 247.440
40.10000 244.184
40.11000 242.567
40.12000 249.873
40.13000 258.524
40.14000 265.406
40.15000 264.344
40.16000 262.919
40.17000 261.436
40.18000 259.815
40.19000 258.189
40.20000 256.844
40.21000 255.959
40.22000 255.081
40.23000 254.627
40.24000 265.074
40.25000 272.063
40.26000 272.848
40.27000 269.356
40.28000 265.837
40.29000 261.564
40.30000 256.940
40.31000 252.566
40.32000 255.523
40.33000 260.351
40.34000 264.148
40.35000 260.105
40.36000 254.434
40.37000 250.375
40.38000 254.047
40.39000 258.731
40.40000 262.355
40.41000 258.258
40.42000 254.550
40.43000 252.100
40.44000 252.354
40.45000 252.699
40.46000 252.971
40.47000 253.135
40.48000 253.299
40.49000 258.866
40.50000 269.477
40.51000 279.913
40.52000 277.944
40.53000 268.372
40.54000 259.122
40.55000 257.096
40.56000 258.059
40.57000 258.958
40.58000 256.823
40.59000 254.119
40.60000 252.781
40.61000 260.472
40.62000 269.814
40.63000 276.577
40.64000 272.396
40.65000 266.982
40.66000 262.918
40.67000 255.601
40.68000 249.728
40.69000 247.675
40.70000 252.960
40.71000 258.426
40.72000 260.386
40.73000 257.861
40.74000 255.323
40.75000 256.122
40.76000 259.654
40.77000 263.078
40.78000 261.477
40.79000 257.132
40.80000 253.050
40.81000 253.657
40.82000 255.995
40.83000 258.151
40.84000 250.636
40.85000 241.762
40.86000 234.392
40.87000 235.699
40.88000 238.398
40.89000 241.846
40.90000 248.116
40.91000 254.658
40.92000 259.411
40.93000 250.763
40.94000 243.606
40.95000 241.083
40.96000 246.490
40.97000 252.032
40.98000 256.629
40.99000 260.159
41.00000 263.676
41.01000 265.586
41.02000 266.321
41.03000 266.867
41.04000 261.082
41.05000 252.212
41.06000 244.118
41.07000 247.299
41.08000 254.196
41.09000 260.460
41.10000 252.703
41.11000 243.132
41.12000 236.302
41.13000 243.373
41.14000 252.384
41.15000 259.191
41.16000 258.617
41.17000 257.447
41.18000 256.626
41.19000 252.032
41.20000 248.446
41.21000 246.131
41.22000 245.753
41.23000 245.394
41.24000 242.904
41.25000 238.301
41.26000 233.729
41.27000 235.599
41.28000 241.536
41.29000 247.203
41.30000 246.075
41.31000 241.992
41.32000 238.522
41.33000 242.458
41.34000 248.568
41.35000 254.027
41.36000 256.391
41.37000 257.928
41.38000 258.495
41.39000 254.714
41.40000 250.409
41.41000 246.912
41.42000 245.828
41.43000 244.906
41.44000 244.283
41.45000 249.352
41.46000 253.246
41.47000 253.229
41.48000 247.927
41.49000 242.602
41.50000 241.819
41.51000 244.987
41.52000 248.120
41.53000 247.235
41.54000 244.118
41.55000 241.254
41.56000 243.401
41.57000 247.493
41.58000 250.848
41.59000 246.692
41.60000 240.576
41.61000 235.208
41.62000 236.288
41.63000 238.158
41.64000 239.832
41.65000 240.728
41.66000 241.545
41.67000 243.606
41.68000 248.984
41.69000 254.542
41.70000 258.143
41.71000 243.821
41.72000 233.074
41.73000 232.443
41.74000 243.893
41.75000 255.322
41.76000 256.304
41.77000 249.261
41.78000 242.337
41.79000 239.772
41.80000 239.452
41.81000 239.113
41.82000 238.474
41.83000 237.732
41.84000 237.191
41.85000 238.404
41.86000 240.024
41.87000 241.417
41.88000 242.269
41.89000 242.922
41.90000 242.156
41.91000 236.382
41.92000 230.170
41.93000 228.251
41.94000 236.550
41.95000 245.286
41.96000 250.696
41.97000 244.587
41.98000 240.086
41.99000 236.057
42.00000 232.525
42.01000 229.016
42.02000 228.039
42.03000 228.785
42.04000 229.514
42.05000 234.802
42.06000 241.858
42.07000 248.463
42.08000 249.174
42.09000 248.063
42.10000 246.913
42.11000 245.472
42.12000 243.970
42.13000 242.706
42.14000 239.131
42.15000 235.900
42.16000 232.650
42.17000 229.341
42.18000 226.027
42.19000 224.085
42.20000 225.060
42.21000 226.131
42.22000 226.762
42.23000 238.509
42.24000 246.858
42.25000 246.630
42.26000 238.503
42.27000 230.550
42.28000 234.267
42.29000 245.047
42.30000 255.488
42.31000 251.349
42.32000 241.797
42.33000 233.052
42.34000 233.163
42.35000 235.711
42.36000 238.204
42.37000 240.341
42.38000 242.413
42.39000 244.119
42.40000 235.718
42.41000 227.890
42.42000 222.765
42.43000 225.222
42.44000 228.131
42.45000 231.093
42.46000 234.159
42.47000 237.226
42.48000 238.941
42.49000 238.314
42.50000 237.870
42.51000 235.758
42.52000 232.291
42.53000 228.885
42.54000 228.252
42.55000 229.115
42.56000 229.942
42.57000 231.229
42.58000 232.588
42.59000 233.893
42.60000 234.688
42.61000 235.359
42.62000 235.353
42.63000 231.498
42.64000 227.034
42.65000 223.452
42.66000 228.712
42.67000 233.648
42.68000 235.844
42.69000 231.182
42.70000 226.193
42.71000 225.885
42.72000 233.491
42.73000 241.227
42.74000 245.303
42.75000 240.783
42.76000 237.718
42.77000 235.666
42.78000 234.340
42.79000 233.003
42.80000 231.289
42.81000 229.394
42.82000 227.594
42.83000 224.712
42.84000 221.726
42.85000 219.203
42.86000 220.390
42.87000 222.379
42.88000 224.702
42.89000 228.690
42.90000 232.906
42.91000 236.200
42.92000 229.655
42.93000 223.811
42.94000 219.654
42.95000 219.267
42.96000 219.020
42.97000 221.325
42.98000 227.468
42.99000 233.648
43.00000 236.422
43.01000 235.871
43.02000 235.290
43.03000 232.183
43.04000 227.466
43.05000 223.038
43.06000 225.700
43.07000 231.408
43.08000 236.765
43.09000 233.340
43.10000 227.895
43.11000 223.479
43.12000 226.177
43.13000 230.234
43.14000 232.337
43.15000 225.800
43.16000 218.238
43.17000 212.502
43.18000 219.015
43.19000 224.761
43.20000 229.665
43.21000 232.887
43.22000 236.063
43.23000 235.621
43.24000 230.356
43.25000 225.071
43.26000 222.894
43.27000 223.383
43.28000 223.886
43.29000 225.107
43.30000 226.737
43.31000 228.349
43.32000 229.609
43.33000 230.734
43.34000 231.777
43.35000 228.348
43.36000 224.225
43.37000 221.293
43.38000 225.539
43.39000 230.990
43.40000 235.251
43.41000 234.851
43.42000 233.979
43.43000 233.338
43.44000 225.452
43.45000 219.057
43.46000 217.539
43.47000 224.700
43.48000 232.030
43.49000 232.915
43.50000 226.205
43.51000 219.500
43.52000 218.828
43.53000 222.703
43.54000 226.471
43.55000 226.274
43.56000 224.069
43.57000 222.136
43.58000 224.429
43.59000 228.170
43.60000 231.586
43.61000 234.142
43.62000 236.235
43.63000 236.837
43.64000 229.538
43.65000 221.083
43.66000 214.388
43.67000 213.826
43.68000 213.788
43.69000 213.762
43.70000 210.751
43.71000 208.365
43.72000 211.932
43.73000 224.933
43.74000 238.052
43.75000 240.789
43.76000 232.768
43.77000 224.791
43.78000 221.153
43.79000 220.441
43.80000 219.704
43.81000 218.296
43.82000 216.584
43.83000 215.095
43.84000 216.473
43.85000 218.726
43.86000 220.751
43.87000 220.603
43.88000 220.089
43.89000 220.762
43.90000 226.978
43.91000 233.896
43.92000 237.745
43.93000 232.062
43.94000 225.700
43.95000 221.347
43.96000 221.792
43.97000 222.240
43.98000 223.373
43.99000 225.473
44.00000 227.576
44.01000 224.034
44.02000 215.364
44.03000 206.779
44.04000 211.124
44.05000 222.948
44.06000 234.372
44.07000 237.253
44.08000 236.688
44.09000 235.867
44.10000 232.290
44.11000 227.963
44.12000 224.143
44.13000 222.857
44.14000 222.135
44.15000 220.995
44.16000 218.129
44.17000 215.074
44.18000 213.320
44.19000 215.166
44.20000 217.222
44.21000 218.573
44.22000 223.442
44.23000 227.085
44.24000 228.095
44.25000 225.825
44.26000 223.544
44.27000 221.168
44.28000 218.715
44.29000 216.299
44.30000 222.148
44.31000 232.094
44.32000 241.543
44.33000 242.510
44.34000 240.422
44.35000 238.002
44.36000 232.547
44.37000 226.359
44.38000 220.998
44.39000 228.996
44.40000 237.570
44.41000 243.559
44.42000 240.058
44.43000 235.680
44.44000 231.358
44.45000 227.180
44.46000 223.008
44.47000 220.384
44.48000 232.124
44.49000 240.777
44.50000 241.727
44.51000 234.221
44.52000 226.729
44.53000 221.879
44.54000 218.903
44.55000 215.990
44.56000 220.824
44.57000 229.001
44.58000 236.784
44.59000 239.052
44.60000 239.547
44.61000 240.076
44.62000 240.872
44.63000 241.724
44.64000 242.447
44.65000 239.682
44.66000 236.968
44.67000 235.200
44.68000 236.524
44.69000 238.088
44.70000 239.480
44.71000 240.489
44.72000 241.485
44.73000 242.083
44.74000 233.605
44.75000 227.523
44.76000 231.098
44.77000 243.972
44.78000 256.757
44.79000 262.517
44.80000 263.855
44.81000 265.154
44.82000 265.150
44.83000 264.619
44.84000 264.853
44.85000 273.966
44.86000 285.623
44.87000 295.901
44.88000 296.783
44.89000 295.896
44.90000 295.159
44.91000 298.389
44.92000 301.441
44.93000 306.491
44.94000 317.365
44.95000 328.611
44.96000 338.911
44.97000 347.347
44.98000 355.733
44.99000 360.508
45.00000 355.668
45.01000 352.266
45.02000 349.719
45.03000 347.895
45.04000 346.164
45.05000 349.095
45.06000 354.640
45.07000 359.979
45.08000 363.094
45.09000 365.228
45.10000 367.452
45.11000 370.554
45.12000 373.881
45.13000 376.637
45.14000 376.000
45.15000 374.802
45.16000 373.832
45.17000 364.591
45.18000 356.397
45.19000 349.873
45.20000 347.690
45.21000 345.731
45.22000 342.046
45.23000 335.325
45.24000 328.547
45.25000 324.901
45.26000 322.329
45.27000 320.569
45.28000 318.040
45.29000 314.935
45.30000 311.814
45.31000 308.102
45.32000 304.096
45.33000 300.277
45.34000 286.929
45.35000 271.562
45.36000 257.987
45.37000 259.477
45.38000 264.367
45.39000 268.471
45.40000 268.472
45.41000 267.881
45.42000 267.415
45.43000 259.421
45.44000 252.502
45.45000 247.850
45.46000 248.466
45.47000 249.296
45.48000 250.342
45.49000 251.726
45.50000 253.115
45.51000 253.816
45.52000 245.613
45.53000 240.130
45.54000 235.217
45.55000 230.681
45.56000 226.340
45.57000 227.204
45.58000 230.391
45.59000 233.394
45.60000 231.226
45.61000 227.813
45.62000 224.514
45.63000 222.043
45.64000 219.739
45.65000 217.748
45.66000 217.203
45.67000 216.839
45.68000 216.560
45.69000 217.162
45.70000 217.687
45.71000 216.367
45.72000 211.224
45.73000 205.963
45.74000 204.385
45.75000 207.923
45.76000 211.493
45.77000 213.882
45.78000 215.211
45.79000 216.528
45.80000 217.067
45.81000 217.147
45.82000 217.063
45.83000 213.579
45.84000 208.740
45.85000 204.237
45.86000 209.270
45.87000 216.132
45.88000 221.843
45.89000 220.285
45.90000 217.452
45.91000 215.725
45.92000 218.512
45.93000 221.783
45.94000 224.213
45.95000 212.556
45.96000 202.870
45.97000 198.046
45.98000 202.221
45.99000 206.594
46.00000 212.786
46.01000 221.213
46.02000 229.629
46.03000 229.768
46.04000 223.398
46.05000 217.027
46.06000 210.638
46.07000 204.239
46.08000 198.229
46.09000 198.684
46.10000 201.441
46.11000 203.972
46.12000 207.163
46.13000 210.149
46.14000 212.362
46.15000 210.296
46.16000 207.573
46.17000 204.858
46.18000 202.168
46.19000 199.480
46.20000 197.549
46.21000 192.121
46.22000 187.846
46.23000 188.144
46.24000 195.983
46.25000 203.932
46.26000 207.499
46.27000 206.322
46.28000 205.147
46.29000 205.187
46.30000 206.068
46.31000 206.914
46.32000 206.726
46.33000 206.052
46.34000 205.396
46.35000 204.978
46.36000 204.635
46.37000 204.325
46.38000 205.906
46.39000 207.648
46.40000 209.325
46.41000 210.686
46.42000 212.006
46.43000 212.221
46.44000 208.876
46.45000 205.259
46.46000 202.753
46.47000 201.117
46.48000 199.908
46.49000 200.434
46.50000 203.505
46.51000 206.597
46.52000 204.785
46.53000 198.318
46.54000 191.904
46.55000 195.307
46.56000 204.643
46.57000 213.759
46.58000 217.764
46.59000 219.627
46.60000 220.989
46.61000 216.636
46.62000 210.667
46.63000 205.364
46.64000 207.337
46.65000 210.222
46.66000 212.074
46.67000 209.483
46.68000 206.382
46.69000 204.253
46.70000 204.922
46.71000 205.766
46.72000 206.329
46.73000 191.907
46.74000 180.944
46.75000 177.558
46.76000 184.014
46.77000 190.507
46.78000 194.768
46.79000 197.165
46.80000 199.531
46.81000 202.904
46.82000 206.728
46.83000 210.117
46.84000 205.508
46.85000 197.904
46.86000 191.182
46.87000 192.979
46.88000 196.917
46.89000 200.351
46.90000 202.927
46.91000 205.010
46.92000 205.031
46.93000 197.180
46.94000 188.558
46.95000 183.594
46.96000 188.029
46.97000 192.937
46.98000 196.072
46.99000 200.172
47.00000 203.168
47.01000 202.379
47.02000 197.249
47.03000 192.130
47.04000 189.856
47.05000 189.682
47.06000 189.511
47.07000 189.551
47.08000 189.690
47.09000 189.822
47.10000 189.860
47.11000 189.866
47.12000 190.056
47.13000 191.773
47.14000 193.829
47.15000 195.586
47.16000 193.584
47.17000 191.446
47.18000 189.549
47.19000 188.467
47.20000 187.452
47.21000 186.858
47.22000 187.230
47.23000 187.640
47.24000 187.890
47.25000 195.615
47.26000 201.197
47.27000 202.348
47.28000 199.038
47.29000 195.734
47.30000 193.047
47.31000 190.763
47.32000 188.538
47.33000 187.761
47.34000 187.629
47.35000 187.677
47.36000 189.948
47.37000 192.881
47.38000 195.342
47.39000 194.437
47.40000 192.869
47.41000 191.558
47.42000 191.989
47.43000 192.524
47.44000 193.798
47.45000 197.311
47.46000 200.976
47.47000 202.225
47.48000 198.523
47.49000 194.673
47.50000 192.441
47.51000 193.740
47.52000 194.665
47.53000 193.858
47.54000 191.519
47.55000 189.242
47.56000 190.576
47.57000 194.016
47.58000 197.338
47.59000 194.403
47.60000 189.314
47.61000 184.638
47.62000 184.257
47.63000 185.014
47.64000 186.330
47.65000 191.123
47.66000 196.517
47.67000 200.922
47.68000 193.126
47.69000 185.696
47.70000 180.879
47.71000 183.124
47.72000 185.762
47.73000 186.800
47.74000 184.912
47.75000 182.963
47.76000 181.893
47.77000 181.120
47.78000 180.589
47.79000 180.452
47.80000 180.621
47.81000 180.816
47.82000 182.030
47.83000 183.773
47.84000 185.441
47.85000 185.201
47.86000 184.352
47.87000 184.060
47.88000 188.699
47.89000 194.497
47.90000 199.382
47.91000 199.281
47.92000 198.426
47.93000 197.746
47.94000 193.987
47.95000 190.736
47.96000 188.500
47.97000 188.716
47.98000 189.041
47.99000 189.212
48.00000 189.134
48.01000 189.053
48.02000 189.011
48.03000 187.302
48.04000 186.170
48.05000 187.378
48.06000 190.204
48.07000 192.998
48.08000 194.881
48.09000 196.342
48.10000 197.724
48.11000 196.112
48.12000 193.766
48.13000 191.244
48.14000 187.381
48.15000 183.240
48.16000 180.025
48.17000 181.263
48.18000 183.085
48.19000 184.496
48.20000 183.297
48.21000 182.191
48.22000 182.466
48.23000 185.719
48.24000 189.074
48.25000 190.912
48.26000 190.557
48.27000 190.184
48.28000 189.217
48.29000 187.694
48.30000 186.240
48.31000 189.643
48.32000 196.026
48.33000 201.929
48.34000 196.969
48.35000 187.510
48.36000 178.668
48.37000 179.561
48.38000 182.839
48.39000 185.748
48.40000 186.213
48.41000 186.230
48.42000 185.356
48.43000 180.698
48.44000 175.612
48.45000 171.792
48.46000 179.783
48.47000 186.594
48.48000 189.960
48.49000 186.700
48.50000 183.274
48.51000 181.718
48.52000 182.558
48.53000 183.406
48.54000 182.403
48.55000 179.884
48.56000 177.436
48.57000 178.352
48.58000 181.108
48.59000 183.824
48.60000 185.821
48.61000 187.551
48.62000 189.147
48.63000 192.247
48.64000 195.358
48.65000 196.988
48.66000 190.051
48.67000 181.739
48.68000 175.290
48.69000 175.867
48.70000 177.120
48.71000 178.031
48.72000 181.169
48.73000 183.668
48.74000 183.859
48.75000 180.093
48.76000 176.259
48.77000 175.013
48.78000 176.693
48.79000 178.370
48.80000 179.865
48.81000 181.217
48.82000 182.464
48.83000 180.219
48.84000 176.270
48.85000 172.530
48.86000 171.825
48.87000 172.124
48.88000 172.394
48.89000 173.862
48.90000 175.391
48.91000 177.158
48.92000 180.132
48.93000 183.274
48.94000 185.229
48.95000 183.204
48.96000 180.856
48.97000 179.208
48.98000 181.063
48.99000 182.569
49.00000 183.873
49.01000 184.867
49.02000 185.858
49.03000 185.552
49.04000 183.958
49.05000 182.375
49.06000 183.938
49.07000 187.479
49.08000 190.716
49.09000 186.221
49.10000 178.359
49.11000 171.463
49.12000 176.272
49.13000 184.524
49.14000 191.898
49.15000 189.748
49.16000 186.264
49.17000 183.319
49.18000 182.789
49.19000 182.552
49.20000 182.069
49.21000 180.851
49.22000 179.584
49.23000 178.728
49.24000 174.589
49.25000 171.437
49.26000 169.614
49.27000 169.592
49.28000 169.581
49.29000 171.419
49.30000 174.869
49.31000 178.280
49.32000 181.959
49.33000 185.703
49.34000 189.126
49.35000 186.196
49.36000 180.793
49.37000 175.946
49.38000 176.765
49.39000 179.067
49.40000 181.088
49.41000 181.587
49.42000 181.793
49.43000 181.923
49.44000 181.751
49.45000 181.547
49.46000 182.871
49.47000 188.275
49.48000 193.900
49.49000 197.547
49.50000 184.871
49.51000 175.349
49.52000 170.453
49.53000 171.092
49.54000 171.748
49.55000 173.823
49.56000 176.990
49.57000 180.104
49.58000 181.228
49.59000 181.326
49.60000 181.408
49.61000 181.221
49.62000 180.940
49.63000 180.598
49.64000 179.723
49.65000 178.724
49.66000 177.865
49.67000 171.994
49.68000 166.391
49.69000 163.410
49.70000 169.700
49.71000 176.801
49.72000 182.251
49.73000 183.764
49.74000 185.108
49.75000 185.941
49.76000 187.790
49.77000 189.130
49.78000 185.790
49.79000 177.521
49.80000 169.322
49.81000 169.106
49.82000 174.336
49.83000 179.443
49.84000 180.246
49.85000 179.128
49.86000 178.172
49.87000 179.350
49.88000 181.189
49.89000 182.808
49.90000 182.779
49.91000 182.412
49.92000 182.103
49.93000 180.581
49.94000 179.180
49.95000 177.406
49.96000 174.455
49.97000 171.419
49.98000 170.073
49.99000 172.326
50.00000 174.697
50.01000 176.096
50.02000 180.238
50.03000 183.177
50.04000 181.966
50.05000 176.926
50.06000 171.996
50.07000 174.515
50.08000 181.552
50.09000 188.368
50.10000 182.829
50.11000 172.804
50.12000 163.810
50.13000 166.156
50.14000 171.629
50.15000 176.493
50.16000 177.381
50.17000 177.552
50.18000 177.692
50.19000 177.869
50.20000 178.017
50.21000 179.028
50.22000 182.459
50.23000 186.034
50.24000 187.762
50.25000 185.978
50.26000 184.110
50.27000 183.065
50.28000 180.367
50.29000 178.501
50.30000 179.297
50.31000 182.256
50.32000 185.210
50.33000 187.909
50.34000 190.472
50.35000 192.931
50.36000 191.366
50.37000 188.528
50.38000 186.279
50.39000 189.535
50.40000 194.138
50.41000 198.571
50.42000 202.034
50.43000 205.343
50.44000 208.000
50.45000 209.071
50.46000 209.817
50.47000 210.130
50.48000 209.353
50.49000 208.524
50.50000 209.536
50.51000 213.664
50.52000 217.843
50.53000 220.048
50.54000 230.069
50.55000 236.855
50.56000 240.459
50.57000 241.775
50.58000 243.256
50.59000 250.087
50.60000 259.495
50.61000 268.432
50.62000 268.314
50.63000 265.479
50.64000 263.349
50.65000 266.866
50.66000 271.608
50.67000 275.747
50.68000 276.861
50.69000 277.558
50.70000 278.103
50.71000 274.679
50.72000 271.695
50.73000 270.953
50.74000 275.228
50.75000 279.691
50.76000 279.031
50.77000 270.655
50.78000 262.203
50.79000 258.355
50.80000 259.012
50.81000 259.624
50.82000 256.525
50.83000 251.055
50.84000 245.648
50.85000 241.767
50.86000 238.543
50.87000 235.517
50.88000 227.231
50.89000 218.283
50.90000 210.874
50.91000 214.137
50.92000 219.443
50.93000 222.692
50.94000 216.832
50.95000 209.890
50.96000 204.621
50.97000 196.190
50.98000 189.402
50.99000 185.333
51.00000 186.700
51.01000 188.218
51.02000 189.355
51.03000 189.980
51.04000 190.603
51.05000 188.227
51.06000 183.283
51.07000 178.436
51.08000 178.768
51.09000 182.043
51.10000 185.076
51.11000 183.423
51.12000 179.969
51.13000 176.769
51.14000 175.467
51.15000 174.737
51.16000 174.425
51.17000 176.645
51.18000 179.291
51.19000 180.470
51.20000 175.897
51.21000 170.738
51.22000 166.945
51.23000 164.401
51.24000 162.485
51.25000 162.334
51.26000 165.331
51.27000 168.390
51.28000 172.835
51.29000 178.916
51.30000 184.984
51.31000 184.205
51.32000 178.266
51.33000 172.382
51.34000 168.569
51.35000 165.807
51.36000 163.154
51.37000 162.216
51.38000 161.867
51.39000 161.549
51.40000 163.253
51.41000 165.177
51.42000 167.660
51.43000 173.101
51.44000 178.977
51.45000 181.904
51.46000 174.540
51.47000 166.291
51.48000 160.431
51.49000 163.918
51.50000 166.870
51.51000 168.615
51.52000 168.443
51.53000 168.248
51.54000 168.510
51.55000 169.246
51.56000 169.978
51.57000 166.416
51.58000 160.046
51.59000 154.059
51.60000 158.698
51.61000 168.147
51.62000 176.827
51.63000 175.613
51.64000 171.372
51.65000 167.561
51.66000 167.143
51.67000 167.378
51.68000 166.732
51.69000 161.966
51.70000 156.675
51.71000 153.372
51.72000 156.248
51.73000 159.566
51.74000 161.837
51.75000 168.045
51.76000 172.787
51.77000 173.542
51.78000 168.676
51.79000 163.771
51.80000 160.817
51.81000 159.639
51.82000 158.472
51.83000 158.992
51.84000 160.491
51.85000 161.868
51.86000 160.642
51.87000 158.364
51.88000 156.294
51.89000 156.479
51.90000 157.277
51.91000 157.983
51.92000 162.072
51.93000 166.123
51.94000 169.515
51.95000 170.179
51.96000 170.544
51.97000 169.071
51.98000 162.499
51.99000 155.629
52.00000 151.112
52.01000 159.255
52.02000 165.466
52.03000 169.109
52.04000 169.547
52.05000 169.973
52.06000 169.687
52.07000 168.829
52.08000 167.984
52.09000 167.957
52.10000 168.355
52.11000 168.875
52.12000 171.505
52.13000 174.896
52.14000 177.335
52.15000 171.033
52.16000 162.619
52.17000 155.326
52.18000 160.898
52.19000 167.347
52.20000 172.233
52.21000 171.373
52.22000 169.979
52.23000 167.421
52.24000 161.976
52.25000 156.397
52.26000 152.885
52.27000 159.633
52.28000 164.630
52.29000 166.195
52.30000 163.983
52.31000 161.781
52.32000 161.284
52.33000 161.997
52.34000 162.696
52.35000 165.847
52.36000 169.993
52.37000 173.738
52.38000 171.854
52.39000 168.157
52.40000 164.632
52.41000 162.454
52.42000 160.566
52.43000 158.962
52.44000 159.022
52.45000 159.262
52.46000 159.937
52.47000 162.040
52.48000 164.254
52.49000 164.734
52.50000 161.379
52.51000 157.885
52.52000 155.788
52.53000 163.173
52.54000 168.483
52.55000 167.357
52.56000 160.022
52.57000 152.746
52.58000 150.100
52.59000 150.374
52.60000 150.640
52.61000 154.107
52.62000 158.692
52.63000 162.745
52.64000 160.585
52.65000 156.644
52.66000 153.341
52.67000 154.389
52.68000 156.259
52.69000 157.811
52.70000 161.006
52.71000 163.807
52.72000 166.091
52.73000 166.867
52.74000 167.547
52.75000 166.525
52.76000 162.142
52.77000 157.670
52.78000 155.122
52.79000 150.490
52.80000 147.265
52.81000 150.934
52.82000 160.451
52.83000 169.863
52.84000 173.905
52.85000 174.932
52.86000 175.920
52.87000 172.090
52.88000 166.777
52.89000 161.938
52.90000 161.782
52.91000 162.819
52.92000 163.680
52.93000 163.492
52.94000 163.130
52.95000 162.837
52.96000 164.280
52.97000 165.596
52.98000 165.252
52.99000 160.582
53.00000 155.688
53.01000 153.909
53.02000 157.613
53.03000 161.421
53.04000 163.471
53.05000 162.360
53.06000 161.592
53.07000 159.700
53.08000 156.966
53.09000 154.387
53.10000 157.393
53.11000 163.197
53.12000 168.730
53.13000 166.863
53.14000 162.806
53.15000 159.592
53.16000 163.485
53.17000 168.984
53.18000 172.861
53.19000 168.246
53.20000 162.405
53.21000 157.797
53.22000 159.181
53.23000 160.697
53.24000 161.297
53.25000 159.768
53.26000 158.151
53.27000 158.932
53.28000 163.472
53.29000 168.056
53.30000 170.374
53.31000 167.063
53.32000 164.866
53.33000 164.501
53.34000 165.354
53.35000 166.229
53.36000 167.703
53.37000 169.445
53.38000 171.087
53.39000 169.862
53.40000 167.946
53.41000 166.210
53.42000 165.785
53.43000 165.622
53.44000 165.966
53.45000 168.653
53.46000 171.634
53.47000 173.919
53.48000 171.574
53.49000 169.464
53.50000 165.401
53.51000 157.278
53.52000 149.030
53.53000 142.420
53.54000 138.089
53.55000 133.774
53.56000 136.765
53.57000 146.305
53.58000 155.759
53.59000 159.930
53.60000 160.978
53.61000 161.853
53.62000 159.097
53.63000 154.892
53.64000 150.978
53.65000 155.690
53.66000 162.046
53.67000 167.003
53.68000 163.113
53.69000 157.669
53.70000 154.063
53.71000 157.969
53.72000 162.682
53.73000 166.186
53.74000 161.769
53.75000 157.983
53.76000 155.368
53.77000 154.925
53.78000 154.531
53.79000 157.834
53.80000 165.689
53.81000 173.541
53.82000 174.811
53.83000 170.889
53.84000 166.940
53.85000 161.877
53.86000 156.226
53.87000 150.801
53.88000 149.159
53.89000 148.864
53.90000 148.594
53.91000 145.630
53.92000 142.413
53.93000 140.491
53.94000 145.749
53.95000 152.109
53.96000 157.648
53.97000 160.205
53.98000 162.490
53.99000 164.132
54.00000 164.110
54.01000 164.035
54.02000 161.448
54.03000 154.714
54.04000 147.918
54.05000 146.653
54.06000 151.388
54.07000 156.104
54.08000 154.748
54.09000 149.196
54.10000 143.857
54.11000 145.022
54.12000 149.246
54.13000 153.184
54.14000 153.197
54.15000 151.963
54.16000 150.847
54.17000 149.264
54.18000 147.785
54.19000 147.601
54.20000 153.732
54.21000 160.706
54.22000 165.575
54.23000 163.642
54.24000 161.190
54.25000 159.490
54.26000 159.737
54.27000 159.975
54.28000 160.278
54.29000 160.677
54.30000 161.078
54.31000 161.956
54.32000 163.290
54.33000 164.612
54.34000 162.656
54.35000 158.728
54.36000 154.959
54.37000 154.856
54.38000 156.293
54.39000 157.350
54.40000 154.055
54.41000 149.528
54.42000 145.504
54.43000 148.840
54.44000 152.921
54.45000 155.522
54.46000 151.731
54.47000 147.205
54.48000 144.957
54.49000 149.277
54.50000 154.009
54.51000 157.165
54.52000 154.438
54.53000 152.306
54.54000 152.947
54.55000 157.196
54.56000 161.454
54.57000 162.285
54.58000 160.248
54.59000 158.238
54.60000 161.306
54.61000 167.032
54.62000 172.347
54.63000 170.080
54.64000 164.968
54.65000 160.433
54.66000 161.475
54.67000 163.923
54.68000 166.058
54.69000 161.129
54.70000 155.927
54.71000 152.363
54.72000 155.064
54.73000 158.380
54.74000 160.806
54.75000 160.945
54.76000 160.969
54.77000 160.983
54.78000 156.142
54.79000 152.555
54.80000 152.745
54.81000 157.275
54.82000 161.790
54.83000 162.565
54.84000 160.574
54.85000 158.620
54.86000 158.382
54.87000 158.970
54.88000 159.524
54.89000 159.568
54.90000 159.441
54.91000 159.701
54.92000 163.169
54.93000 167.352
54.94000 170.929
54.95000 163.566
54.96000 156.046
54.97000 151.029
54.98000 154.532
54.99000 158.740
55.00000 160.201
55.01000 155.350
55.02000 150.250
55.03000 147.138
55.04000 149.340
55.05000 150.958
55.06000 153.624
55.07000 157.346
55.08000 161.009
55.09000 159.029
55.10000 153.345
55.11000 147.808
55.12000 147.985
55.13000 150.561
55.14000 153.252
55.15000 157.377
55.16000 161.929
55.17000 166.012
55.18000 166.728
55.19000 166.780
55.20000 166.824
55.21000 166.287
55.22000 165.782
55.23000 164.956
55.24000 163.159
55.25000 161.295
55.26000 160.930
55.27000 163.639
55.28000 166.440
55.29000 168.065
55.30000 170.226
55.31000 171.743
55.32000 170.956
55.33000 168.128
55.34000 165.338
55.35000 164.699
55.36000 165.316
55.37000 165.912
55.38000 169.303
55.39000 173.541
55.40000 177.373
55.41000 176.997
55.42000 175.502
55.43000 174.437
55.44000 176.045
55.45000 178.115
55.46000 179.807
55.47000 187.177
55.48000 193.699
55.49000 199.126
55.50000 201.588
55.51000 203.884
55.52000 207.282
55.53000 212.697
55.54000 218.155
55.55000 221.152
55.56000 212.254
55.57000 206.130
55.58000 205.043
55.59000 207.890
55.60000 210.973
55.61000 223.537
55.62000 241.036
55.63000 257.778
55.64000 264.871
55.65000 268.311
55.66000 272.005
55.67000 277.948
55.68000 284.421
55.69000 291.686
55.70000 303.285
55.71000 315.539
55.72000 325.296
55.73000 346.772
55.74000 364.933
55.75000 384.995
55.76000 409.652
55.77000 434.514
55.78000 453.937
55.79000 464.493
55.80000 474.924
55.81000 480.316
55.82000 503.944
55.83000 519.895
55.84000 538.224
55.85000 558.197
55.86000 577.823
55.87000 587.175
55.88000 591.755
55.89000 596.089
55.90000 609.713
55.91000 624.927
55.92000 638.475
55.93000 639.289
55.94000 637.449
55.95000 636.358
55.96000 638.873
55.97000 641.862
55.98000 644.176
55.99000 640.337
56.00000 636.925
56.01000 632.254
56.02000 624.868
56.03000 617.390
56.04000 606.679
56.05000 591.282
56.06000 575.849
56.07000 559.847
56.08000 543.318
56.09000 526.824
56.10000 512.829
56.11000 500.373
56.12000 487.638
56.13000 468.605
56.14000 446.958
56.15000 426.719
56.16000 422.329
56.17000 422.368
56.18000 418.816
56.19000 391.463
56.20000 359.741
56.21000 332.576
56.22000 324.813
56.23000 319.246
56.24000 315.062
56.25000 308.105
56.26000 302.533
56.27000 292.265
56.28000 272.952
56.29000 253.412
56.30000 241.083
56.31000 238.014
56.32000 234.984
56.33000 227.202
56.34000 215.533
56.35000 203.947
56.36000 196.266
56.37000 190.723
56.38000 185.445
56.39000 184.916
56.40000 186.147
56.41000 187.282
56.42000 184.503
56.43000 181.142
56.44000 178.890
56.45000 183.064
56.46000 188.272
56.47000 190.260
56.48000 180.077
56.49000 168.722
56.50000 160.462
56.51000 160.092
56.52000 160.106
56.53000 159.003
56.54000 155.978
56.55000 152.921
56.56000 151.364
56.57000 151.507
56.58000 151.652
56.59000 156.109
56.60000 163.652
56.61000 170.913
56.62000 168.703
56.63000 161.863
56.64000 155.327
56.65000 153.236
56.66000 152.615
56.67000 152.051
56.68000 153.853
56.69000 155.905
56.70000 157.274
56.71000 155.162
56.72000 152.564
56.73000 150.261
56.74000 148.954
56.75000 147.727
56.76000 146.866
56.77000 150.274
56.78000 152.980
56.79000 153.609
56.80000 151.067
56.81000 148.490
56.82000 147.475
56.83000 148.013
56.84000 148.546
56.85000 149.837
56.86000 151.591
56.87000 153.281
56.88000 153.334
56.89000 152.674
56.90000 152.272
56.91000 155.004
56.92000 158.659
56.93000 161.927
56.94000 155.821
56.95000 148.910
56.96000 142.898
56.97000 140.923
56.98000 139.436
56.99000 138.319
57.00000 138.314
57.01000 138.383
57.02000 138.429
57.03000 137.295
57.04000 136.424
57.05000 137.842
57.06000 142.362
57.07000 146.897
57.08000 149.578
57.09000 150.639
57.10000 151.689
57.11000 152.867
57.12000 154.091
57.13000 155.105
57.14000 151.948
57.15000 147.166
57.16000 142.961
57.17000 144.670
57.18000 147.928
57.19000 150.789
57.20000 146.706
57.21000 142.178
57.22000 138.659
57.23000 139.156
57.24000 140.070
57.25000 141.501
57.26000 144.314
57.27000 147.204
57.28000 149.078
57.29000 143.457
57.30000 139.229
57.31000 138.115
57.32000 140.736
57.33000 143.357
57.34000 144.427
57.35000 144.299
57.36000 144.174
57.37000 145.432
57.38000 147.337
57.39000 149.196
57.40000 150.331
57.41000 151.213
57.42000 152.013
57.43000 152.092
57.44000 152.004
57.45000 151.927
57.46000 152.804
57.47000 153.666
57.48000 153.856
57.49000 151.663
57.50000 149.262
57.51000 148.100
57.52000 149.897
57.53000 151.822
57.54000 153.016
57.55000 155.755
57.56000 157.740
57.57000 157.633
57.58000 155.318
57.59000 152.986
57.60000 148.843
57.61000 143.462
57.62000 138.207
57.63000 137.682
57.64000 139.258
57.65000 140.688
57.66000 140.186
57.67000 139.086
57.68000 138.141
57.69000 138.370
57.70000 138.839
57.71000 139.235
57.72000 141.590
57.73000 143.767
57.74000 144.942
57.75000 142.955
57.76000 140.736
57.77000 139.377
57.78000 139.855
57.79000 140.393
57.80000 140.711
57.81000 140.187
57.82000 139.813
57.83000 139.698
57.84000 139.823
57.85000 139.958
57.86000 140.788
57.87000 142.039
57.88000 143.252
57.89000 145.965
57.90000 149.116
57.91000 151.686
57.92000 147.866
57.93000 142.280
57.94000 137.885
57.95000 141.263
57.96000 146.048
57.97000 149.990
57.98000 144.798
57.99000 139.692
58.00000 136.887
58.01000 140.558
58.02000 144.619
58.03000 148.441
58.04000 151.809
58.05000 155.167
58.06000 157.046
58.07000 151.420
58.08000 147.506
58.09000 144.439
58.10000 142.063
58.11000 139.692
58.12000 137.518
58.13000 135.450
58.14000 133.466
58.15000 134.151
58.16000 135.706
58.17000 136.812
58.18000 133.714
58.19000 129.584
58.20000 126.273
58.21000 127.646
58.22000 129.761
58.23000 131.460
58.24000 135.345
58.25000 138.661
58.26000 141.990
58.27000 145.352
58.28000 148.716
58.29000 150.322
58.30000 148.948
58.31000 147.525
58.32000 146.774
58.33000 151.474
58.34000 154.639
58.35000 153.223
58.36000 148.508
58.37000 143.840
58.38000 140.757
58.39000 138.438
58.40000 136.235
58.41000 134.191
58.42000 132.351
58.43000 130.705
58.44000 130.614
58.45000 130.860
58.46000 131.416
58.47000 133.532
58.48000 135.863
58.49000 137.685
58.50000 134.082
58.51000 130.861
58.52000 129.110
58.53000 130.655
58.54000 132.323
58.55000 132.850
58.56000 131.656
58.57000 130.445
58.58000 129.988
58.59000 130.271
58.60000 130.592
58.61000 134.069
58.62000 139.567
58.63000 144.723
58.64000 141.464
58.65000 134.577
58.66000 128.111
58.67000 130.582
58.68000 135.208
58.69000 138.932
58.70000 136.383
58.71000 132.631
58.72000 130.073
58.73000 132.806
58.74000 136.170
58.75000 138.725
58.76000 134.549
58.77000 130.920
58.78000 129.682
58.79000 133.235
58.80000 136.923
58.81000 140.711
58.82000 144.635
58.83000 148.557
58.84000 147.310
58.85000 141.622
58.86000 135.991
58.87000 133.457
58.88000 132.686
58.89000 131.819
58.90000 129.096
58.91000 125.658
58.92000 122.472
58.93000 126.356
58.94000 131.497
58.95000 135.607
58.96000 133.460
58.97000 130.261
58.98000 128.022
58.99000 129.566
59.00000 131.494
59.01000 132.913
59.02000 134.873
59.03000 136.412
59.04000 137.105
59.05000 136.287
59.06000 135.439
59.07000 133.590
59.08000 130.557
59.09000 127.530
59.10000 129.837
59.11000 136.161
59.12000 142.282
59.13000 140.801
59.14000 135.459
59.15000 130.387
59.16000 129.548
59.17000 130.163
59.18000 130.725
59.19000 132.321
59.20000 133.950
59.21000 135.049
59.22000 133.334
59.23000 131.206
59.24000 129.765
59.25000 130.721
59.26000 131.885
59.27000 132.711
59.28000 137.543
59.29000 141.350
59.30000 141.732
59.31000 136.669
59.32000 131.536
59.33000 130.444
59.34000 133.555
59.35000 136.649
59.36000 137.874
59.37000 137.839
59.38000 137.767
59.39000 136.655
59.40000 135.071
59.41000 133.444
59.42000 131.259
59.43000 128.903
59.44000 126.785
59.45000 130.839
59.46000 135.486
59.47000 139.017
59.48000 137.314
59.49000 134.945
59.50000 133.229
59.51000 133.550
59.52000 134.018
59.53000 134.338
59.54000 127.932
59.55000 122.973
59.56000 121.203
59.57000 123.937
59.58000 126.702
59.59000 128.071
59.60000 128.166
59.61000 128.260
59.62000 131.288
59.63000 135.976
59.64000 140.303
59.65000 136.850
59.66000 130.247
59.67000 124.381
59.68000 126.488
59.69000 130.770
59.70000 134.554
59.71000 134.867
59.72000 134.603
59.73000 134.730
59.74000 136.481
59.75000 138.410
59.76000 138.743
59.77000 134.646
59.78000 130.288
59.79000 127.421
59.80000 131.694
59.81000 134.963
59.82000 136.682
59.83000 136.464
59.84000 136.236
59.85000 135.114
59.86000 133.273
59.87000 131.458
59.88000 132.359
59.89000 134.641
59.90000 136.838
59.91000 137.564
59.92000 137.758
59.93000 138.202
59.94000 140.945
59.95000 144.245
59.96000 147.106
59.97000 145.875
59.98000 144.282
59.99000 142.446
60.00000 139.714
60.01000 136.899
60.02000 134.955
60.03000 135.173
60.04000 135.492
60.05000 135.693
60.06000 138.750
60.07000 140.994
60.08000 140.188
60.09000 136.021
60.10000 131.881
60.11000 132.027
60.12000 135.221
60.13000 138.348
60.14000 138.841
60.15000 138.109
60.16000 137.315
60.17000 135.653
60.18000 133.711
60.19000 131.882
60.20000 130.944
60.21000 130.197
60.22000 129.563
60.23000 130.630
60.24000 131.720
60.25000 132.709
60.26000 133.369
60.27000 134.004
60.28000 135.217
60.29000 137.712
60.30000 140.253
60.31000 141.779
60.32000 136.418
60.33000 132.562
60.34000 132.194
60.35000 135.197
60.36000 138.144
60.37000 136.510
60.38000 131.983
60.39000 127.584
60.40000 128.086
60.41000 130.545
60.42000 132.774
60.43000 132.306
60.44000 131.063
60.45000 130.499
60.46000 134.586
60.47000 139.553
60.48000 143.676
60.49000 141.144
60.50000 138.406
60.51000 136.509
60.52000 137.074
60.53000 137.796
60.54000 137.700
60.55000 135.983
60.56000 134.223
60.57000 133.219
60.58000 131.889
60.59000 130.961
60.60000 130.613
60.61000 130.758
60.62000 130.940
60.63000 133.107
60.64000 136.389
60.65000 139.550
60.66000 135.190
60.67000 128.410
60.68000 122.305
60.69000 122.862
60.70000 125.121
60.71000 127.526
60.72000 130.808
60.73000 134.235
60.74000 137.012
60.75000 134.689
60.76000 132.382
60.77000 130.084
60.78000 127.809
60.79000 125.536
60.80000 123.949
60.81000 123.570
60.82000 123.214
60.83000 123.022
60.84000 124.863
60.85000 126.131
60.86000 128.855
60.87000 132.672
60.88000 136.389
60.89000 136.465
60.90000 134.714
60.91000 133.045
60.92000 134.602
60.93000 137.062
60.94000 139.379
60.95000 140.488
60.96000 141.323
60.97000 142.334
60.98000 144.269
60.99000 146.337
61.00000 147.970
61.01000 140.930
61.02000 134.694
61.03000 130.017
61.04000 128.971
61.05000 128.074
61.06000 131.103
61.07000 140.297
61.08000 149.566
61.09000 154.259
61.10000 153.400
61.11000 152.808
61.12000 150.629
61.13000 147.393
61.14000 144.182
61.15000 141.662
61.16000 139.452
61.17000 137.368
61.18000 137.648
61.19000 138.560
61.20000 139.021
61.21000 136.202
61.22000 132.725
61.23000 129.658
61.24000 128.487
61.25000 127.553
61.26000 126.837
61.27000 132.690
61.28000 137.679
61.29000 140.444
61.30000 138.582
61.31000 136.576
61.32000 135.511
61.33000 135.760
61.34000 136.017
61.35000 133.522
61.36000 128.557
61.37000 123.696
61.38000 125.256
61.39000 130.618
61.40000 135.835
61.41000 137.999
61.42000 138.942
61.43000 139.820
61.44000 140.190
61.45000 140.402
61.46000 141.357
61.47000 147.026
61.48000 153.525
61.49000 159.982
61.50000 166.273
61.51000 172.545
61.52000 177.211
61.53000 194.265
61.54000 208.083
61.55000 219.651
61.56000 227.039
61.57000 234.333
61.58000 243.455
61.59000 254.832
61.60000 266.194
61.61000 274.073
61.62000 279.167
61.63000 284.137
61.64000 283.935
61.65000 281.002
61.66000 278.356
61.67000 280.525
61.68000 284.414
61.69000 287.984
61.70000 291.392
61.71000 294.398
61.72000 296.253
61.73000 291.716
61.74000 286.195
61.75000 279.403
61.76000 267.993
61.77000 256.160
61.78000 247.649
61.79000 228.628
61.80000 213.699
61.81000 200.069
61.82000 188.588
61.83000 177.140
61.84000 170.657
61.85000 169.573
61.86000 168.496
61.87000 165.879
61.88000 162.220
61.89000 158.562
61.90000 154.958
61.91000 151.380
61.92000 147.709
61.93000 142.770
61.94000 137.425
61.95000 132.594
61.96000 134.832
61.97000 138.117
61.98000 140.831
61.99000 140.750
62.00000 140.295
62.01000 139.763
62.02000 138.979
62.03000 138.176
62.04000 137.619
62.05000 141.487
62.06000 144.518
62.07000 146.695
62.08000 147.619
62.09000 148.530
62.10000 146.505
62.11000 141.680
62.12000 136.895
62.13000 136.655
62.14000 139.205
62.15000 141.698
62.16000 142.857
62.17000 143.456
62.18000 143.923
62.19000 142.879
62.20000 141.407
62.21000 140.099
62.22000 136.251
62.23000 132.501
62.24000 129.964
62.25000 132.668
62.26000 135.976
62.27000 138.763
62.28000 140.041
62.29000 141.224
62.30000 142.013
62.31000 144.640
62.32000 146.621
62.33000 148.591
62.34000 150.548
62.35000 152.499
62.36000 151.249
62.37000 147.316
62.38000 143.434
62.39000 138.813
62.40000 133.916
62.41000 129.229
62.42000 128.441
62.43000 129.117
62.44000 130.269
62.45000 136.041
62.46000 142.977
62.47000 149.030
62.48000 150.044
62.49000 150.206
62.50000 149.626
62.51000 146.203
62.52000 142.499
62.53000 141.044
62.54000 145.386
62.55000 150.021
62.56000 152.985
62.57000 151.359
62.58000 150.114
62.59000 147.699
62.60000 143.938
62.61000 140.185
62.62000 138.397
62.63000 138.063
62.64000 137.736
62.65000 139.350
62.66000 141.835
62.67000 143.974
62.68000 140.940
62.69000 136.170
62.70000 132.241
62.71000 135.300
62.72000 139.921
62.73000 143.873
62.74000 146.532
62.75000 148.619
62.76000 150.202
62.77000 150.069
62.78000 149.794
62.79000 149.379
62.80000 148.643
62.81000 147.895
62.82000 147.438
62.83000 141.809
62.84000 137.740
62.85000 137.409
62.86000 140.856
62.87000 144.289
62.88000 146.311
62.89000 147.406
62.90000 148.472
62.91000 146.507
62.92000 143.353
62.93000 140.318
62.94000 138.766
62.95000 137.658
62.96000 137.034
62.97000 139.882
62.98000 143.415
62.99000 146.371
63.00000 145.207
63.01000 143.818
63.02000 143.781
63.03000 147.854
63.04000 152.209
63.05000 152.930
63.06000 146.178
63.07000 139.202
63.08000 135.152
63.09000 134.296
63.10000 133.711
63.11000 135.213
63.12000 138.567
63.13000 141.886
63.14000 143.110
63.15000 143.110
63.16000 143.110
63.17000 144.140
63.18000 145.495
63.19000 146.689
63.20000 146.205
63.21000 145.275
63.22000 144.576
63.23000 145.326
63.24000 146.327
63.25000 147.144
63.26000 148.108
63.27000 148.909
63.28000 149.963
63.29000 151.702
63.30000 153.480
63.31000 153.498
63.32000 150.288
63.33000 147.009
63.34000 145.207
63.35000 143.039
63.36000 141.548
63.37000 140.567
63.38000 139.985
63.39000 139.465
63.40000 141.438
63.41000 144.711
63.42000 147.843
63.43000 143.612
63.44000 137.252
63.45000 131.776
63.46000 134.165
63.47000 138.411
63.48000 142.936
63.49000 148.985
63.50000 155.266
63.51000 160.269
63.52000 159.137
63.53000 157.781
63.54000 154.334
63.55000 145.823
63.56000 137.087
63.57000 134.367
63.58000 141.472
63.59000 148.718
63.60000 152.467
63.61000 147.929
63.62000 144.888
63.63000 144.542
63.64000 146.064
63.65000 147.647
63.66000 151.017
63.67000 155.219
63.68000 159.196
63.69000 157.260
63.70000 153.768
63.71000 151.210
63.72000 155.800
63.73000 161.883
63.74000 166.209
63.75000 162.062
63.76000 156.799
63.77000 152.722
63.78000 153.096
63.79000 153.657
63.80000 155.107
63.81000 158.478
63.82000 161.915
63.83000 162.676
63.84000 159.553
63.85000 156.397
63.86000 153.929
63.87000 152.110
63.88000 150.266
63.89000 146.697
63.90000 142.065
63.91000 137.806
63.92000 142.048
63.93000 149.823
63.94000 157.094
63.95000 158.746
63.96000 158.817
63.97000 158.335
63.98000 154.183
63.99000 149.357
64.00000 145.884
64.01000 148.188
64.02000 151.147
64.03000 153.372
64.04000 154.085
64.05000 154.571
64.06000 155.848
64.07000 158.655
64.08000 161.500
64.09000 163.562
64.10000 164.616
64.11000 165.666
64.12000 163.464
64.13000 158.587
64.14000 153.829
64.15000 154.683
64.16000 158.616
64.17000 162.518
64.18000 165.844
64.19000 168.957
64.20000 171.829
64.21000 173.761
64.22000 175.283
64.23000 175.497
64.24000 168.124
64.25000 159.528
64.26000 153.711
64.27000 158.412
64.28000 164.130
64.29000 168.290
64.30000 159.847
64.31000 152.868
64.32000 150.261
64.33000 155.179
64.34000 160.226
64.35000 163.242
64.36000 163.952
64.37000 164.658
64.38000 165.241
64.39000 165.731
64.40000 166.156
64.41000 164.416
64.42000 161.615
64.43000 159.272
64.44000 163.638
64.45000 170.227
64.46000 176.216
64.47000 178.942
64.48000 180.717
64.49000 181.512
64.50000 177.314
64.51000 172.415
64.52000 169.517
64.53000 173.362
64.54000 177.755
64.55000 180.841
64.56000 178.923
64.57000 177.324
64.58000 175.930
64.59000 174.852
64.60000 173.777
64.61000 173.007
64.62000 172.541
64.63000 172.079
64.64000 170.348
64.65000 167.834
64.66000 165.493
64.67000 167.572
64.68000 171.582
64.69000 175.469
64.70000 177.858
64.71000 179.806
64.72000 181.547
64.73000 177.387
64.74000 172.758
64.75000 169.590
64.76000 172.997
64.77000 177.202
64.78000 180.349
64.79000 180.320
64.80000 180.077
64.81000 179.913
64.82000 180.188
64.83000 180.403
64.84000 182.482
64.85000 187.093
64.86000 191.712
64.87000 190.656
64.88000 184.634
64.89000 178.679
64.90000 177.356
64.91000 178.679
64.92000 180.207
64.93000 185.827
64.94000 193.044
64.95000 199.461
64.96000 197.668
64.97000 193.718
64.98000 190.250
64.99000 189.786
65.00000 189.828
65.01000 190.448
65.02000 193.375
65.03000 196.541
65.04000 199.433
65.05000 201.590
65.06000 203.708
65.07000 205.082
65.08000 205.258
65.09000 205.369
65.10000 204.642
65.11000 202.908
65.12000 201.179
65.13000 200.926
65.14000 201.813
65.15000 202.686
65.16000 206.401
65.17000 211.411
65.18000 216.590
65.19000 224.483
65.20000 233.321
65.21000 241.717
65.22000 246.235
65.23000 249.850
65.24000 252.963
65.25000 257.119
65.26000 260.773
65.27000 263.240
65.28000 261.496
65.29000 259.383
65.30000 261.963
65.31000 275.773
65.32000 290.070
65.33000 298.941
65.34000 294.870
65.35000 291.815
65.36000 295.231
65.37000 305.486
65.38000 315.732
65.39000 324.729
65.40000 332.870
65.41000 340.822
65.42000 349.998
65.43000 359.321
65.44000 368.638
65.45000 377.863
65.46000 387.060
65.47000 395.023
65.48000 393.686
65.49000 390.434
65.50000 387.692
65.51000 402.895
65.52000 417.534
65.53000 427.623
65.54000 423.343
65.55000 418.007
65.56000 420.179
65.57000 438.385
65.58000 457.125
65.59000 468.198
65.60000 460.045
65.61000 454.182
65.62000 458.324
65.63000 471.734
65.64000 485.200
65.65000 502.510
65.66000 522.158
65.67000 541.196
65.68000 567.106
65.69000 594.302
65.70000 623.077
65.71000 669.315
65.72000 720.384
65.73000 772.092
65.74000 827.982
65.75000 884.630
65.76000 931.304
65.77000 988.775
65.78000 1037.053
65.79000 1080.852
65.80000 1112.029
65.81000 1142.445
65.82000 1159.610
65.83000 1151.514
65.84000 1142.805
65.85000 1137.926
65.86000 1158.658
65.87000 1173.026
65.88000 1162.232
65.89000 1130.907
65.90000 1099.932
65.91000 1084.963
65.92000 1078.668
65.93000 1072.623
65.94000 1025.117
65.95000 966.462
65.96000 906.764
65.97000 837.282
65.98000 765.396
65.99000 694.440
66.00000 628.813
66.01000 564.033
66.02000 511.974
66.03000 464.688
66.04000 426.725
66.05000 394.678
66.06000 377.509
66.07000 361.059
66.08000 346.571
66.09000 335.417
66.10000 324.318
66.11000 318.453
66.12000 314.900
66.13000 312.483
66.14000 309.312
66.15000 305.597
66.16000 301.884
66.17000 298.267
66.18000 294.696
66.19000 291.303
66.20000 298.587
66.21000 308.544
66.22000 317.735
66.23000 320.766
66.24000 322.455
66.25000 325.721
66.26000 336.918
66.27000 349.212
66.28000 358.828
66.29000 371.553
66.30000 381.910
66.31000 393.205
66.32000 406.611
66.33000 420.096
66.34000 428.316
66.35000 428.581
66.36000 428.764
66.37000 429.614
66.38000 431.118
66.39000 432.666
66.40000 437.895
66.41000 445.484
66.42000 452.986
66.43000 458.323
66.44000 462.725
66.45000 466.859
66.46000 455.901
66.47000 441.894
66.48000 428.570
66.49000 419.997
66.50000 412.336
66.51000 404.477
66.52000 395.736
66.53000 386.889
66.54000 380.169
66.55000 366.615
66.56000 355.606
66.57000 345.772
66.58000 338.293
66.59000 330.880
66.60000 324.526
66.61000 319.591
66.62000 314.666
66.63000 312.707
66.64000 313.305
66.65000 313.944
66.66000 316.754
66.67000 320.802
66.68000 324.948
66.69000 330.984
66.70000 337.748
66.71000 344.019
66.72000 338.839
66.73000 331.505
66.74000 326.177
66.75000 333.023
66.76000 341.923
66.77000 349.424
66.78000 351.413
66.79000 352.839
66.80000 353.889
66.81000 341.779
66.82000 331.863
66.83000 324.832
66.84000 322.962
66.85000 321.194
66.86000 321.086
66.87000 322.944
66.88000 324.801
66.89000 325.992
66.90000 326.670
66.91000 327.338
66.92000 327.596
66.93000 327.645
66.94000 327.948
66.95000 332.233
66.96000 337.888
66.97000 343.055
66.98000 344.679
66.99000 345.398
67.00000 346.186
67.01000 347.343
67.02000 348.555
67.03000 350.442
67.04000 354.695
67.05000 359.152
67.06000 362.323
67.07000 361.186
67.08000 360.182
67.09000 360.401
67.10000 362.567
67.11000 364.759
67.12000 369.586
67.13000 377.160
67.14000 384.693
67.15000 387.815
67.16000 387.955
67.17000 388.036
67.18000 386.470
67.19000 384.157
67.20000 381.884
67.21000 380.129
67.22000 378.534
67.23000 377.099
67.24000 380.589
67.25000 384.522
67.26000 387.629
67.27000 386.859
67.28000 385.594
67.29000 384.414
67.30000 383.500
67.31000 382.605
67.32000 381.992
67.33000 391.734
67.34000 399.281
67.35000 406.400
67.36000 412.913
67.37000 419.419
67.38000 420.975
67.39000 418.008
67.40000 415.069
67.41000 412.684
67.42000 410.673
67.43000 408.871
67.44000 411.566
67.45000 416.085
67.46000 420.100
67.47000 418.650
67.48000 415.707
67.49000 413.106
67.50000 411.365
67.51000 409.995
67.52000 410.975
67.53000 421.724
67.54000 433.544
67.55000 441.969
67.56000 440.944
67.57000 439.362
67.58000 438.321
67.59000 430.856
67.60000 425.246
67.61000 426.639
67.62000 436.806
67.63000 446.994
67.64000 455.118
67.65000 461.578
67.66000 467.945
67.67000 468.097
67.68000 465.016
67.69000 461.878
67.70000 457.750
67.71000 453.262
67.72000 450.263
67.73000 460.983
67.74000 475.031
67.75000 487.212
67.76000 484.204
67.77000 479.618
67.78000 477.365
67.79000 483.723
67.80000 490.884
67.81000 496.693
67.82000 499.144
67.83000 501.436
67.84000 502.881
67.85000 512.623
67.86000 519.769
67.87000 522.249
67.88000 519.576
67.89000 516.911
67.90000 515.886
67.91000 516.030
67.92000 516.170
67.93000 518.123
67.94000 520.831
67.95000 523.425
67.96000 524.408
67.97000 524.872
67.98000 525.660
67.99000 529.016
68.00000 532.924
68.01000 536.244
68.02000 536.146
68.03000 535.674
68.04000 536.906
68.05000 543.732
68.06000 550.997
68.07000 558.565
68.08000 566.806
68.09000 575.072
68.10000 580.040
68.11000 585.218
68.12000 588.900
68.13000 589.456
68.14000 586.984
68.15000 584.599
68.16000 589.173
68.17000 598.151
68.18000 606.875
68.19000 607.269
68.20000 604.266
68.21000 601.933
68.22000 607.437
68.23000 615.196
68.24000 622.826
68.25000 629.562
68.26000 636.130
68.27000 641.584
68.28000 648.917
68.29000 655.163
68.30000 660.563
68.31000 663.488
68.32000 666.253
68.33000 670.891
68.34000 679.238
68.35000 687.686
68.36000 692.508
68.37000 708.772
68.38000 720.148
68.39000 726.414
68.40000 728.330
68.41000 730.277
68.42000 733.862
68.43000 738.371
68.44000 742.715
68.45000 756.391
68.46000 772.576
68.47000 787.760
68.48000 793.038
68.49000 795.781
68.50000 799.616
68.51000 809.988
68.52000 821.446
68.53000 830.734
68.54000 856.492
68.55000 878.825
68.56000 898.721
68.57000 912.246
68.58000 925.440
68.59000 955.719
68.60000 1016.186
68.61000 1077.228
68.62000 1110.148
68.63000 1168.524
68.64000 1208.515
68.65000 1256.063
68.66000 1309.296
68.67000 1362.395
68.68000 1410.649
68.69000 1456.467
68.70000 1500.163
68.71000 1571.464
68.72000 1646.328
68.73000 1720.357
68.74000 1787.330
68.75000 1852.701
68.76000 1915.269
68.77000 1963.112
68.78000 2008.818
68.79000 2044.906
68.80000 2127.176
68.81000 2196.338
68.82000 2276.036
68.83000 2380.331
68.84000 2485.635
68.85000 2618.705
68.86000 2795.447
68.87000 2972.721
68.88000 3062.558
68.89000 3716.808
68.90000 4159.729
68.91000 5090.604
68.92000 6346.977
68.93000 7650.918
68.94000 10244.612
68.95000 13416.894
68.96000 16408.342
68.97000 21340.357
68.98000 26397.555
68.99000 31497.824
69.00000 36912.734
69.01000 42390.715
69.02000 47605.352
69.03000 51599.863
69.04000 55441.137
69.05000 58388.844
69.06000 60380.367
69.07000 61900.906
69.08000 62993.598
69.09000 63194.504
69.10000 63367.617
69.11000 63622.207
69.12000 63990.598
69.13000 64359.621
69.14000 65014.098
69.15000 65924.898
69.16000 66826.648
69.17000 67165.898
69.18000 67171.414
69.19000 67093.234
69.20000 65253.234
69.21000 62707.395
69.22000 60336.730
69.23000 56378.414
69.24000 52411.965
69.25000 48570.535
69.26000 45523.543
69.27000 42616.633
69.28000 39918.410
69.29000 38076.270
69.30000 36326.422
69.31000 35024.367
69.32000 33902.277
69.33000 33037.359
69.34000 32214.680
69.35000 31470.563
69.36000 30728.211
69.37000 29606.582
69.38000 28016.148
69.39000 26427.283
69.40000 24195.035
69.41000 21464.285
69.42000 18735.000
69.43000 16067.659
69.44000 13433.070
69.45000 10839.915
69.46000 8944.628
69.47000 7298.973
69.48000 5787.806
69.49000 4731.404
69.50000 3886.096
69.51000 3110.342
69.52000 2721.582
69.53000 2392.518
69.54000 2102.278
69.55000 1953.495
69.56000 1817.661
69.57000 1719.901
69.58000 1590.690
69.59000 1490.650
69.60000 1413.313
69.61000 1373.598
69.62000 1334.449
69.63000 1297.359
69.64000 1262.510
69.65000 1227.814
69.66000 1191.218
69.67000 1153.679
69.68000 1116.402
69.69000 1087.204
69.70000 1061.819
69.71000 1036.814
69.72000 1017.068
69.73000 999.000
69.74000 982.662
69.75000 961.379
69.76000 941.727
69.77000 920.953
69.78000 894.685
69.79000 867.680
69.80000 843.770
69.81000 829.895
69.82000 816.791
69.83000 807.693
69.84000 809.317
69.85000 810.827
69.86000 807.463
69.87000 796.920
69.88000 786.313
69.89000 776.494
69.90000 767.430
69.91000 758.437
69.92000 753.689
69.93000 751.630
69.94000 749.333
69.95000 741.442
69.96000 731.193
69.97000 720.979
69.98000 711.164
69.99000 701.463
70.00000 692.838
