20.00000 569.226
20.01000 573.071
20.02000 577.466
20.03000 580.539
20.04000 578.458
20.05000 575.859
20.06000 573.952
20.07000 557.236
20.08000 543.718
20.09000 536.709
20.10000 541.223
20.11000 545.959
20.12000 552.356
20.13000 560.700
20.14000 569.025
20.15000 572.328
20.16000 571.849
20.17000 571.319
20.18000 568.918
20.19000 565.575
20.20000 562.615
20.21000 565.547
20.22000 570.488
20.23000 574.996
20.24000 577.072
20.25000 578.422
20.26000 579.098
20.27000 576.217
20.28000 572.819
20.29000 568.820
20.30000 562.740
20.31000 556.483
20.32000 552.046
20.33000 551.286
20.34000 550.824
20.35000 556.099
20.36000 570.421
20.37000 584.853
20.38000 590.157
20.39000 586.059
20.40000 581.984
20.41000 574.990
20.42000 566.162
20.43000 557.451
20.44000 551.902
20.45000 547.774
20.46000 544.097
20.47000 546.152
20.48000 549.948
20.49000 553.357
20.50000 553.970
20.51000 554.014
20.52000 554.249
20.53000 555.371
20.54000 556.605
20.55000 558.353
20.56000 561.690
20.57000 565.140
20.58000 567.496
20.59000 568.576
20.60000 569.354
20.61000 569.756
20.62000 569.632
20.63000 569.502
20.64000 566.317
20.65000 560.371
20.66000 554.485
20.67000 556.262
20.68000 562.461
20.69000 568.581
20.70000 573.040
20.71000 576.831
20.72000 580.280
20.73000 580.074
20.74000 578.879
20.75000 577.825
20.76000 572.227
20.77000 566.705
20.78000 562.156
20.79000 561.606
20.80000 561.489
20.81000 560.343
20.82000 556.359
20.83000 552.212
20.84000 549.492
20.85000 555.235
20.86000 559.601
20.87000 558.085
20.88000 549.285
20.89000 540.496
20.90000 542.005
20.91000 551.714
20.92000 561.277
20.93000 566.549
20.94000 569.457
20.95000 572.180
20.96000 571.796
20.97000 570.297
20.98000 568.926
20.99000 568.723
21.00000 568.801
21.01000 568.868
21.02000 562.376
21.03000 555.993
21.04000 549.175
21.05000 540.772
21.06000 532.223
21.07000 531.086
21.08000 548.186
21.09000 566.126
21.10000 577.387
21.11000 570.791
21.12000 565.828
21.13000 562.428
21.14000 560.734
21.15000 559.031
21.16000 555.862
21.17000 551.662
21.18000 547.551
21.19000 547.800
21.20000 550.017
21.21000 552.257
21.22000 554.800
21.23000 557.441
21.24000 559.599
21.25000 557.984
21.26000 555.567
21.27000 553.517
21.28000 554.338
21.29000 555.348
21.30000 556.536
21.31000 558.301
21.32000 560.109
21.33000 559.709
21.34000 554.453
21.35000 549.024
21.36000 545.776
21.37000 553.870
21.38000 559.688
21.39000 559.658
21.40000 554.031
21.41000 548.402
21.42000 542.664
21.43000 536.856
21.44000 531.216
21.45000 537.960
21.46000 549.326
21.47000 559.755
21.48000 559.380
21.49000 555.926
21.50000 553.390
21.51000 557.067
21.52000 561.908
21.53000 565.920
21.54000 569.560
21.55000 572.531
21.56000 573.479
21.57000 568.563
21.58000 563.276
21.59000 562.994
21.60000 572.531
21.61000 582.327
21.62000 587.891
21.63000 569.287
21.64000 556.287
21.65000 560.060
21.66000 577.955
21.67000 595.539
21.68000 597.557
21.69000 590.892
21.70000 584.477
21.71000 596.255
21.72000 613.743
21.73000 629.669
21.74000 630.352
21.75000 627.176
21.76000 625.063
21.77000 629.240
21.78000 634.451
21.79000 638.665
21.80000 661.444
21.81000 681.473
21.82000 699.110
21.83000 710.560
21.84000 721.693
21.85000 732.862
21.86000 744.093
21.87000 755.324
21.88000 761.350
21.89000 778.168
21.90000 789.684
21.91000 805.807
21.92000 825.359
21.93000 844.708
21.94000 856.879
21.95000 865.479
21.96000 873.673
21.97000 886.505
21.98000 899.843
21.99000 912.222
22.00000 916.579
22.01000 919.137
22.02000 921.301
22.03000 921.425
22.04000 921.257
22.05000 921.124
22.06000 907.776
22.07000 896.195
22.08000 881.586
22.09000 859.979
22.10000 838.092
22.11000 823.973
22.12000 821.947
22.13000 820.062
22.14000 819.112
22.15000 775.758
22.16000 746.960
22.17000 735.565
22.18000 735.658
22.19000 735.201
22.20000 720.179
22.21000 698.688
22.22000 678.443
22.23000 665.726
22.24000 656.155
22.25000 645.909
22.26000 630.797
22.27000 614.720
22.28000 601.242
22.29000 599.673
22.30000 599.580
22.31000 599.508
22.32000 592.685
22.33000 586.932
22.34000 581.782
22.35000 577.878
22.36000 574.012
22.37000 569.671
22.38000 564.676
22.39000 559.678
22.40000 557.824
22.41000 558.769
22.42000 559.637
22.43000 555.887
22.44000 549.426
22.45000 543.227
22.46000 542.420
22.47000 543.752
22.48000 544.991
22.49000 540.921
22.50000 535.966
22.51000 531.478
22.52000 529.923
22.53000 528.880
22.54000 529.448
22.55000 536.555
22.56000 544.357
22.57000 550.146
22.58000 543.917
22.59000 538.551
22.60000 534.407
22.61000 532.513
22.62000 530.668
22.63000 530.032
22.64000 530.872
22.65000 531.714
22.66000 532.375
22.67000 532.891
22.68000 533.534
22.69000 539.362
22.70000 547.905
22.71000 555.286
22.72000 543.471
22.73000 524.858
22.74000 507.789
22.75000 514.198
22.76000 524.867
22.77000 533.148
22.78000 528.295
22.79000 521.440
22.80000 517.948
22.81000 526.584
22.82000 536.313
22.83000 543.293
22.84000 532.518
22.85000 523.669
22.86000 520.710
22.87000 527.410
22.88000 534.249
22.89000 537.468
22.90000 536.788
22.91000 536.110
22.92000 533.256
22.93000 528.933
22.94000 524.577
22.95000 519.182
22.96000 513.302
22.97000 508.745
22.98000 522.135
22.99000 541.193
23.00000 558.401
23.01000 551.529
23.02000 541.050
23.03000 531.794
23.04000 528.456
23.05000 525.901
23.06000 523.664
23.07000 522.443
23.08000 521.299
23.09000 520.507
23.10000 531.763
23.11000 540.543
23.12000 543.348
23.13000 537.441
23.14000 531.460
23.15000 526.829
23.16000 523.472
23.17000 520.144
23.18000 521.262
23.19000 525.059
23.20000 528.775
23.21000 530.628
23.22000 531.704
23.23000 532.719
23.24000 533.035
23.25000 533.156
23.26000 533.263
23.27000 527.107
23.28000 520.769
23.29000 515.484
23.30000 514.713
23.31000 514.456
23.32000 513.289
23.33000 509.515
23.34000 505.580
23.35000 502.962
23.36000 500.222
23.37000 498.193
23.38000 496.090
23.39000 493.891
23.40000 491.700
23.41000 493.292
23.42000 498.028
23.43000 502.701
23.44000 505.329
23.45000 506.790
23.46000 508.253
23.47000 509.758
23.48000 511.278
23.49000 512.765
23.50000 513.941
23.51000 515.038
23.52000 515.994
23.53000 514.567
23.54000 513.017
23.55000 512.415
23.56000 515.412
23.57000 518.758
23.58000 517.776
23.59000 505.726
23.60000 493.123
23.61000 485.091
23.62000 505.515
23.63000 520.728
23.64000 524.426
23.65000 514.996
23.66000 505.579
23.67000 500.837
23.68000 499.528
23.69000 498.244
23.70000 500.404
23.71000 504.114
23.72000 507.698
23.73000 509.416
23.74000 510.513
23.75000 512.031
23.76000 517.003
23.77000 522.740
23.78000 527.639
23.79000 513.931
23.80000 500.174
23.81000 490.860
23.82000 496.568
23.83000 503.506
23.84000 506.050
23.85000 498.566
23.86000 490.690
23.87000 485.897
23.88000 499.912
23.89000 510.069
23.90000 515.788
23.91000 517.065
23.92000 518.340
23.93000 519.455
23.94000 520.465
23.95000 521.449
23.96000 522.783
23.97000 524.202
23.98000 524.451
23.99000 510.375
24.00000 492.053
24.01000 476.594
24.02000 481.463
24.03000 490.308
24.04000 497.696
24.05000 494.137
24.06000 490.073
24.07000 489.624
24.08000 500.062
24.09000 511.239
24.10000 517.611
24.11000 514.191
24.12000 510.484
24.13000 508.339
24.14000 495.597
24.15000 486.631
24.16000 486.148
24.17000 493.121
24.18000 499.987
24.19000 500.702
24.20000 497.852
24.21000 495.099
24.22000 495.385
24.23000 496.776
24.24000 497.617
24.25000 492.793
24.26000 486.475
24.27000 480.666
24.28000 478.002
24.29000 475.880
24.30000 474.148
24.31000 490.152
24.32000 504.756
24.33000 512.939
24.34000 503.856
24.35000 493.822
24.36000 487.134
24.37000 486.531
24.38000 486.056
24.39000 485.796
24.40000 496.470
24.41000 503.796
24.42000 504.102
24.43000 498.964
24.44000 493.859
24.45000 490.093
24.46000 487.018
24.47000 484.078
24.48000 490.747
24.49000 500.082
24.50000 508.244
24.51000 506.091
24.52000 501.525
24.53000 498.326
24.54000 502.547
24.55000 507.882
24.56000 512.122
24.57000 503.571
24.58000 495.770
24.59000 488.613
24.60000 483.002
24.61000 477.459
24.62000 478.326
24.63000 489.573
24.64000 500.964
24.65000 506.830
24.66000 493.103
24.67000 483.948
24.68000 485.503
24.69000 494.418
24.70000 503.039
24.71000 503.116
24.72000 499.251
24.73000 495.595
24.74000 491.537
24.75000 487.692
24.76000 484.632
24.77000 487.518
24.78000 491.635
24.79000 495.010
24.80000 494.836
24.81000 494.200
24.82000 493.708
24.83000 489.869
24.84000 486.628
24.85000 488.116
24.86000 499.747
24.87000 511.719
24.88000 511.707
24.89000 494.450
24.90000 477.059
24.91000 469.279
24.92000 470.444
24.93000 471.637
24.94000 474.712
24.95000 478.938
24.96000 483.207
24.97000 488.426
24.98000 494.036
24.99000 499.278
25.00000 497.505
25.01000 494.130
25.02000 490.680
25.03000 486.738
25.04000 482.708
25.05000 479.814
25.06000 481.726
25.07000 484.178
25.08000 486.016
25.09000 486.751
25.10000 487.272
25.11000 488.162
25.12000 489.756
25.13000 491.367
25.14000 493.099
25.15000 494.984
25.16000 496.867
25.17000 493.118
25.18000 484.782
25.19000 476.592
25.20000 475.173
25.21000 477.439
25.22000 479.809
25.23000 484.044
25.24000 488.965
25.25000 493.501
25.26000 483.949
25.27000 472.285
25.28000 462.881
25.29000 466.461
25.30000 472.114
25.31000 478.056
25.32000 485.081
25.33000 492.209
25.34000 497.383
25.35000 486.289
25.36000 477.152
25.37000 473.115
25.38000 477.779
25.39000 482.589
25.40000 483.357
25.41000 479.578
25.42000 475.809
25.43000 469.427
25.44000 461.225
25.45000 453.549
25.46000 463.311
25.47000 481.539
25.48000 498.428
25.49000 495.929
25.50000 487.065
25.51000 479.018
25.52000 469.351
25.53000 460.501
25.54000 454.952
25.55000 466.077
25.56000 479.519
25.57000 488.027
25.58000 480.065
25.59000 470.781
25.60000 464.276
25.61000 471.082
25.62000 476.613
25.63000 480.408
25.64000 481.569
25.65000 482.702
25.66000 483.387
25.67000 483.630
25.68000 483.870
25.69000 479.175
25.70000 471.427
25.71000 464.084
25.72000 466.864
25.73000 474.031
25.74000 480.501
25.75000 478.597
25.76000 474.244
25.77000 470.356
25.78000 472.171
25.79000 474.710
25.80000 476.430
25.81000 474.496
25.82000 472.123
25.83000 472.382
25.84000 480.473
25.85000 489.083
25.86000 494.890
25.87000 482.246
25.88000 472.449
25.89000 466.735
25.90000 466.517
25.91000 466.333
25.92000 469.278
25.93000 474.934
25.94000 480.526
25.95000 478.511
25.96000 472.294
25.97000 466.505
25.98000 469.135
25.99000 475.023
26.00000 479.730
26.01000 472.477
26.02000 462.112
26.03000 453.021
26.04000 462.273
26.05000 472.885
26.06000 480.751
26.07000 477.751
26.08000 473.635
26.09000 468.787
26.10000 461.991
26.11000 455.091
26.12000 450.627
26.13000 462.007
26.14000 470.563
26.15000 477.750
26.16000 483.307
26.17000 488.829
26.18000 487.097
26.19000 479.813
26.20000 472.653
26.21000 471.607
26.22000 473.613
26.23000 475.053
26.24000 467.548
26.25000 456.950
26.26000 448.085
26.27000 454.200
26.28000 463.774
26.29000 472.007
26.30000 472.293
26.31000 471.541
26.32000 470.141
26.33000 466.460
26.34000 462.582
26.35000 459.356
26.36000 457.679
26.37000 456.067
26.38000 455.070
26.39000 458.751
26.40000 461.440
26.41000 461.843
26.42000 459.854
26.43000 457.907
26.44000 460.805
26.45000 466.989
26.46000 473.026
26.47000 471.272
26.48000 466.199
26.49000 461.353
26.50000 459.471
26.51000 458.503
26.52000 457.337
26.53000 454.696
26.54000 451.754
26.55000 449.277
26.56000 449.815
26.57000 450.586
26.58000 452.606
26.59000 458.536
26.60000 464.750
26.61000 467.319
26.62000 462.170
26.63000 456.770
26.64000 453.591
26.65000 451.333
26.66000 449.746
26.67000 452.091
26.68000 458.044
26.69000 463.953
26.70000 466.971
26.71000 468.244
26.72000 469.477
26.73000 459.255
26.74000 445.177
26.75000 433.172
26.76000 443.795
26.77000 460.624
26.78000 474.894
26.79000 472.582
26.80000 467.292
26.81000 462.941
26.82000 462.093
26.83000 461.713
26.84000 459.756
26.85000 453.394
26.86000 446.770
26.87000 443.493
26.88000 446.543
26.89000 449.743
26.90000 451.529
26.91000 452.697
26.92000 453.509
26.93000 456.078
26.94000 460.066
26.95000 463.774
26.96000 455.002
26.97000 439.523
26.98000 424.671
26.99000 433.963
27.00000 450.850
27.01000 466.050
27.02000 465.613
27.03000 461.368
27.04000 457.486
27.05000 455.665
27.06000 454.168
27.07000 452.967
27.08000 453.825
27.09000 454.676
27.10000 456.114
27.11000 459.019
27.12000 461.993
27.13000 462.340
27.14000 458.259
27.15000 454.108
27.16000 451.924
27.17000 451.626
27.18000 451.398
27.19000 447.168
27.20000 440.077
27.21000 433.312
27.22000 437.033
27.23000 445.782
27.24000 454.088
27.25000 445.241
27.26000 431.939
27.27000 421.296
27.28000 431.808
27.29000 446.884
27.30000 458.453
27.31000 452.532
27.32000 444.220
27.33000 437.731
27.34000 437.250
27.35000 437.243
27.36000 439.588
27.37000 447.172
27.38000 454.949
27.39000 457.673
27.40000 452.828
27.41000 447.909
27.42000 444.753
27.43000 443.313
27.44000 441.918
27.45000 444.246
27.46000 448.938
27.47000 453.287
27.48000 449.299
27.49000 441.742
27.50000 434.651
27.51000 445.479
27.52000 460.065
27.53000 471.581
27.54000 461.939
27.55000 448.272
27.56000 438.388
27.57000 445.169
27.58000 453.917
27.59000 460.547
27.60000 451.612
27.61000 443.802
27.62000 438.758
27.63000 439.213
27.64000 439.820
27.65000 439.608
27.66000 438.308
27.67000 437.004
27.68000 439.502
27.69000 445.239
27.70000 450.951
27.71000 455.339
27.72000 458.980
27.73000 462.231
27.74000 458.020
27.75000 450.956
27.76000 444.415
27.77000 448.828
27.78000 455.328
27.79000 459.725
27.80000 451.481
27.81000 441.127
27.82000 433.855
27.83000 438.624
27.84000 444.608
27.85000 449.002
27.86000 441.830
27.87000 435.816
27.88000 432.731
27.89000 434.840
27.90000 437.049
27.91000 439.047
27.92000 440.798
27.93000 442.543
27.94000 450.055
27.95000 461.845
27.96000 473.182
27.97000 467.896
27.98000 454.223
27.99000 441.339
28.00000 440.655
28.01000 444.134
28.02000 447.310
28.03000 446.716
28.04000 445.426
28.05000 443.657
28.06000 439.354
28.07000 434.682
28.08000 431.158
28.09000 431.617
28.10000 432.416
28.11000 432.983
28.12000 435.921
28.13000 438.231
28.14000 441.531
28.15000 446.396
28.16000 451.280
28.17000 452.926
28.18000 451.231
28.19000 449.546
28.20000 448.440
28.21000 447.731
28.22000 447.067
28.23000 447.635
28.24000 448.757
28.25000 450.237
28.26000 456.284
28.27000 463.722
28.28000 470.402
28.29000 463.678
28.30000 455.433
28.31000 449.863
28.32000 456.735
28.33000 465.177
28.34000 469.961
28.35000 463.424
28.36000 456.085
28.37000 451.069
28.38000 443.623
28.39000 437.994
28.40000 435.729
28.41000 438.183
28.42000 440.667
28.43000 439.775
28.44000 435.826
28.45000 431.917
28.46000 430.382
28.47000 430.264
28.48000 430.054
28.49000 427.883
28.50000 424.923
28.51000 422.216
28.52000 422.235
28.53000 422.991
28.54000 423.658
28.55000 429.211
28.56000 434.748
28.57000 439.128
28.58000 438.743
28.59000 437.841
28.60000 438.306
28.61000 442.544
28.62000 447.000
28.63000 449.924
28.64000 439.080
28.65000 430.871
28.66000 425.871
28.67000 424.854
28.68000 423.853
28.69000 424.813
28.70000 427.337
28.71000 429.823
28.72000 432.305
28.73000 434.710
28.74000 437.067
28.75000 438.614
28.76000 439.869
28.77000 441.419
28.78000 445.660
28.79000 450.547
28.80000 454.779
28.81000 447.172
28.82000 439.141
28.83000 433.190
28.84000 434.846
28.85000 437.201
28.86000 438.741
28.87000 438.268
28.88000 437.702
28.89000 437.346
28.90000 437.852
28.91000 438.227
28.92000 440.101
28.93000 443.616
28.94000 447.102
28.95000 446.576
28.96000 443.216
28.97000 439.928
28.98000 436.013
28.99000 431.969
29.00000 428.232
29.01000 428.758
29.02000 430.649
29.03000 432.158
29.04000 430.679
29.05000 428.564
29.06000 426.771
29.07000 425.613
29.08000 424.714
29.09000 422.597
29.10000 416.516
29.11000 410.130
29.12000 407.435
29.13000 412.866
29.14000 418.587
29.15000 422.013
29.16000 425.015
29.17000 427.143
29.18000 425.823
29.19000 421.196
29.20000 416.720
29.21000 424.001
29.22000 438.660
29.23000 452.896
29.24000 449.337
29.25000 438.812
29.26000 428.785
29.27000 424.527
29.28000 421.915
29.29000 419.453
29.30000 418.006
29.31000 416.750
29.32000 415.709
29.33000 412.172
29.34000 409.010
29.35000 407.859
29.36000 412.545
29.37000 417.602
29.38000 422.686
29.39000 427.823
29.40000 432.961
29.41000 435.882
29.42000 430.222
29.43000 426.254
29.44000 423.880
29.45000 422.848
29.46000 421.846
29.47000 422.336
29.48000 423.660
29.49000 424.934
29.50000 424.116
29.51000 422.607
29.52000 421.052
29.53000 419.049
29.54000 416.933
29.55000 415.379
29.56000 417.157
29.57000 419.484
29.58000 421.366
29.59000 426.256
29.60000 430.478
29.61000 433.896
29.62000 435.228
29.63000 436.453
29.64000 434.760
29.65000 427.957
29.66000 421.058
29.67000 417.355
29.68000 418.614
29.69000 419.470
29.70000 418.627
29.71000 416.518
29.72000 414.545
29.73000 417.421
29.74000 422.712
29.75000 427.755
29.76000 426.861
29.77000 424.176
29.78000 422.333
29.79000 427.539
29.80000 434.329
29.81000 440.162
29.82000 441.009
29.83000 441.142
29.84000 441.246
29.85000 449.376
29.86000 456.432
29.87000 459.950
29.88000 455.282
29.89000 450.283
29.90000 447.719
29.91000 448.953
29.92000 450.231
29.93000 450.875
29.94000 463.566
29.95000 472.002
29.96000 475.518
29.97000 475.782
29.98000 476.126
29.99000 478.612
30.00000 482.050
30.01000 485.290
30.02000 484.438
30.03000 482.534
30.04000 479.565
30.05000 468.907
30.06000 456.722
30.07000 447.679
30.08000 453.068
30.09000 460.250
30.10000 465.749
30.11000 462.537
30.12000 459.525
30.13000 456.148
30.14000 452.018
30.15000 447.866
30.16000 446.242
30.17000 448.118
30.18000 450.016
30.19000 446.068
30.20000 436.913
30.21000 427.910
30.22000 428.102
30.23000 433.702
30.24000 439.044
30.25000 439.046
30.26000 436.927
30.27000 434.956
30.28000 441.417
30.29000 449.290
30.30000 455.653
30.31000 452.511
30.32000 447.711
30.33000 444.597
30.34000 448.344
30.35000 452.823
30.36000 456.147
30.37000 447.005
30.38000 439.352
30.39000 434.044
30.40000 433.060
30.41000 432.170
30.42000 437.954
30.43000 451.912
30.44000 465.863
30.45000 466.090
30.46000 455.567
30.47000 445.197
30.48000 441.179
30.49000 440.490
30.50000 440.125
30.51000 445.127
30.52000 452.033
30.53000 458.367
30.54000 456.768
30.55000 453.664
30.56000 451.512
30.57000 454.609
30.58000 458.507
30.59000 461.442
30.60000 460.897
30.61000 460.038
30.62000 459.422
30.63000 459.917
30.64000 460.335
30.65000 461.812
30.66000 465.030
30.67000 468.273
30.68000 468.580
30.69000 465.721
30.70000 462.873
30.71000 464.999
30.72000 470.533
30.73000 475.921
30.74000 476.903
30.75000 475.823
30.76000 475.201
30.77000 480.802
30.78000 488.371
30.79000 495.207
30.80000 497.357
30.81000 498.382
30.82000 499.303
30.83000 499.718
30.84000 500.066
30.85000 499.799
30.86000 497.549
30.87000 495.149
30.88000 493.488
30.89000 499.055
30.90000 503.431
30.91000 513.247
30.92000 531.007
30.93000 548.834
30.94000 560.147
30.95000 565.302
30.96000 570.413
30.97000 587.568
30.98000 611.736
30.99000 635.920
31.00000 660.482
31.01000 685.203
31.02000 710.711
31.03000 745.153
31.04000 782.114
31.05000 814.933
31.06000 863.620
31.07000 908.373
31.08000 958.485
31.09000 1031.591
31.10000 1107.324
31.11000 1191.384
31.12000 1299.328
31.13000 1408.759
31.14000 1481.594
31.15000 1671.146
31.16000 1813.606
31.17000 1962.152
31.18000 2118.575
31.19000 2275.051
31.20000 2441.508
31.21000 2616.271
31.22000 2788.733
31.23000 2955.019
31.24000 3113.507
31.25000 3272.455
31.26000 3439.773
31.27000 3610.214
31.28000 3776.429
31.29000 3902.002
31.30000 4017.397
31.31000 4117.979
31.32000 4159.834
31.33000 4187.464
31.34000 4214.311
31.35000 4238.178
31.36000 4261.754
31.37000 4258.471
31.38000 4186.412
31.39000 4110.908
31.40000 4062.752
31.41000 3902.008
31.42000 3783.657
31.43000 3636.080
31.44000 3455.119
31.45000 3274.180
31.46000 3103.477
31.47000 2940.306
31.48000 2780.256
31.49000 2593.148
31.50000 2400.051
31.51000 2208.110
31.52000 2033.311
31.53000 1864.220
31.54000 1699.476
31.55000 1570.521
31.56000 1449.508
31.57000 1346.140
31.58000 1237.886
31.59000 1146.107
31.60000 1057.674
31.61000 980.573
31.62000 904.402
31.63000 839.510
31.64000 800.412
31.65000 762.325
31.66000 739.134
31.67000 700.797
31.68000 673.290
31.69000 642.551
31.70000 608.573
31.71000 574.742
31.72000 554.648
31.73000 543.521
31.74000 532.685
31.75000 521.297
31.76000 510.212
31.77000 499.592
31.78000 494.682
31.79000 491.467
31.80000 488.278
31.81000 485.275
31.82000 482.309
31.83000 479.831
31.84000 477.193
31.85000 474.988
31.86000 469.932
31.87000 456.272
31.88000 442.026
31.89000 433.242
31.90000 435.609
31.91000 438.305
31.92000 439.865
31.93000 438.742
31.94000 437.946
31.95000 440.480
31.96000 445.946
31.97000 451.261
31.98000 447.903
31.99000 439.507
32.00000 431.400
32.01000 429.762
32.02000 430.611
32.03000 431.807
32.04000 436.600
32.05000 442.341
32.06000 446.323
32.07000 439.394
32.08000 430.585
32.09000 423.398
32.10000 415.608
32.11000 409.185
32.12000 406.165
32.13000 412.311
32.14000 418.965
32.15000 421.328
32.16000 415.878
32.17000 410.263
32.18000 407.187
32.19000 404.944
32.20000 403.412
32.21000 404.134
32.22000 406.609
32.23000 409.065
32.24000 410.806
32.25000 412.175
32.26000 413.485
32.27000 411.200
32.28000 407.899
32.29000 405.017
32.30000 405.816
32.31000 407.479
32.32000 409.118
32.33000 410.635
32.34000 412.133
32.35000 413.324
32.36000 411.359
32.37000 409.549
32.38000 408.737
32.39000 410.320
32.40000 412.009
32.41000 411.392
32.42000 407.032
32.43000 402.621
32.44000 400.347
32.45000 394.211
32.46000 390.103
32.47000 389.100
32.48000 390.235
32.49000 391.329
32.50000 391.225
32.51000 390.567
32.52000 389.945
32.53000 388.018
32.54000 385.871
32.55000 384.676
32.56000 390.703
32.57000 398.227
32.58000 403.317
32.59000 396.753
32.60000 388.668
32.61000 382.415
32.62000 386.855
32.63000 391.008
32.64000 394.412
32.65000 396.208
32.66000 397.950
32.67000 397.361
32.68000 393.409
32.69000 389.432
32.70000 385.939
32.71000 382.898
32.72000 379.906
32.73000 380.297
32.74000 382.758
32.75000 385.259
32.76000 388.639
32.77000 392.383
32.78000 395.881
32.79000 391.669
32.80000 385.899
32.81000 380.860
32.82000 380.634
32.83000 381.287
32.84000 384.564
32.85000 398.959
32.86000 414.602
32.87000 426.341
32.88000 434.000
32.89000 439.790
32.90000 444.326
32.91000 446.458
32.92000 448.531
32.93000 453.574
32.94000 462.410
32.95000 471.248
32.96000 479.866
32.97000 488.274
32.98000 496.635
32.99000 502.823
33.00000 507.826
33.01000 512.495
33.02000 511.202
33.03000 507.711
33.04000 504.493
33.05000 500.976
33.06000 497.760
33.07000 494.124
33.08000 488.062
33.09000 481.613
33.10000 475.338
33.11000 469.719
33.12000 464.163
33.13000 460.128
33.14000 454.038
33.15000 449.278
33.16000 441.686
33.17000 429.256
33.18000 416.743
33.19000 408.119
33.20000 403.875
33.21000 399.650
33.22000 388.792
33.23000 373.253
33.24000 358.086
33.25000 355.302
33.26000 358.539
33.27000 361.617
33.28000 362.390
33.29000 362.403
33.30000 362.415
33.31000 361.993
33.32000 361.535
33.33000 362.278
33.34000 369.095
33.35000 376.758
33.36000 380.346
33.37000 370.305
33.38000 359.168
33.39000 351.360
33.40000 353.802
33.41000 355.945
33.42000 357.963
33.43000 359.790
33.44000 361.615
33.45000 360.524
33.46000 356.552
33.47000 352.607
33.48000 351.776
33.49000 352.933
33.50000 353.990
33.51000 352.528
33.52000 349.971
33.53000 347.476
33.54000 345.710
33.55000 344.159
33.56000 342.773
33.57000 341.613
33.58000 340.642
33.59000 340.805
33.60000 346.045
33.61000 351.894
33.62000 355.479
33.63000 352.312
33.64000 348.696
33.65000 346.255
33.66000 340.303
33.67000 335.800
33.68000 340.164
33.69000 356.488
33.70000 372.859
33.71000 375.363
33.72000 365.824
33.73000 356.394
33.74000 354.915
33.75000 357.925
33.76000 360.606
33.77000 356.824
33.78000 350.535
33.79000 345.426
33.80000 352.293
33.81000 362.283
33.82000 371.046
33.83000 364.408
33.84000 356.461
33.85000 349.554
33.86000 346.767
33.87000 344.403
33.88000 344.711
33.89000 352.130
33.90000 359.932
33.91000 364.983
33.92000 368.405
33.93000 370.884
33.94000 368.046
33.95000 358.869
33.96000 349.686
33.97000 342.151
33.98000 335.878
33.99000 329.712
34.00000 327.636
34.01000 327.652
34.02000 327.905
34.03000 331.905
34.04000 337.203
34.05000 342.011
34.06000 342.573
34.07000 342.154
34.08000 341.792
34.09000 343.095
34.10000 344.407
34.11000 346.886
34.12000 353.477
34.13000 360.427
34.14000 362.305
34.15000 352.135
34.16000 341.451
34.17000 334.840
34.18000 338.883
34.19000 341.889
34.20000 344.030
34.21000 345.262
34.22000 346.478
34.23000 345.895
34.24000 344.090
34.25000 342.327
34.26000 342.994
34.27000 344.693
34.28000 346.107
34.29000 343.798
34.30000 340.340
34.31000 336.975
34.32000 334.306
34.33000 331.780
34.34000 329.652
34.35000 325.471
34.36000 321.762
34.37000 320.862
34.38000 328.778
34.39000 337.334
34.40000 343.327
34.41000 343.882
34.42000 344.260
34.43000 344.483
34.44000 343.981
34.45000 343.623
34.46000 343.085
34.47000 342.382
34.48000 341.619
34.49000 336.835
34.50000 329.621
34.51000 322.633
34.52000 328.928
34.53000 340.007
34.54000 349.389
34.55000 340.210
34.56000 325.930
34.57000 314.225
34.58000 319.228
34.59000 327.239
34.60000 333.830
34.61000 335.817
34.62000 337.033
34.63000 337.484
34.64000 335.797
34.65000 333.981
34.66000 331.023
34.67000 325.900
34.68000 320.725
34.69000 317.836
34.70000 315.085
34.71000 313.192
34.72000 315.501
34.73000 321.215
34.74000 326.805
34.75000 326.905
34.76000 324.051
34.77000 321.311
34.78000 328.673
34.79000 338.994
34.80000 347.521
34.81000 339.395
34.82000 327.203
34.83000 317.147
34.84000 319.214
34.85000 323.191
34.86000 326.382
34.87000 332.569
34.88000 337.807
34.89000 340.702
34.90000 337.746
34.91000 334.510
34.92000 331.428
34.93000 328.605
34.94000 325.787
34.95000 324.302
34.96000 328.129
34.97000 330.720
34.98000 332.124
34.99000 332.679
35.00000 333.120
35.01000 329.887
35.02000 324.889
35.03000 320.143
35.04000 314.643
35.05000 309.339
35.06000 305.526
35.07000 313.602
35.08000 324.248
35.09000 333.062
35.10000 332.724
35.11000 331.132
35.12000 329.888
35.13000 331.012
35.14000 332.058
35.15000 331.480
35.16000 327.280
35.17000 322.946
35.18000 319.266
35.19000 316.567
35.20000 313.877
35.21000 314.821
35.22000 319.305
35.23000 323.702
35.24000 320.879
35.25000 313.461
35.26000 306.495
35.27000 310.568
35.28000 319.377
35.29000 327.643
35.30000 323.617
35.31000 316.706
35.32000 310.809
35.33000 311.919
35.34000 314.365
35.35000 316.256
35.36000 315.695
35.37000 314.844
35.38000 314.198
35.39000 315.412
35.40000 316.461
35.41000 317.258
35.42000 317.555
35.43000 317.838
35.44000 320.204
35.45000 325.345
35.46000 330.496
35.47000 330.584
35.48000 326.345
35.49000 322.067
35.50000 315.719
35.51000 308.197
35.52000 301.165
35.53000 303.531
35.54000 309.498
35.55000 315.024
35.56000 319.229
35.57000 322.705
35.58000 325.735
35.59000 326.085
35.60000 325.986
35.61000 326.230
35.62000 327.815
35.63000 329.536
35.64000 330.799
35.65000 320.426
35.66000 311.931
35.67000 307.907
35.68000 311.828
35.69000 315.904
35.70000 319.324
35.71000 321.974
35.72000 324.617
35.73000 323.656
35.74000 319.995
35.75000 316.352
35.76000 313.412
35.77000 310.828
35.78000 308.474
35.79000 309.689
35.80000 312.125
35.81000 314.348
35.82000 308.978
35.83000 302.675
35.84000 298.476
35.85000 305.394
35.86000 313.936
35.87000 320.124
35.88000 318.129
35.89000 315.435
35.90000 313.523
35.91000 309.469
35.92000 306.317
35.93000 305.423
35.94000 308.102
35.95000 310.825
35.96000 310.610
35.97000 307.356
35.98000 304.120
35.99000 307.239
36.00000 314.524
36.01000 321.520
36.02000 320.581
36.03000 316.062
36.04000 311.900
36.05000 312.325
36.06000 314.147
36.07000 315.784
36.08000 314.608
36.09000 313.081
36.10000 312.242
36.11000 314.609
36.12000 317.381
36.13000 317.564
36.14000 309.726
36.15000 301.316
36.16000 295.566
36.17000 303.571
36.18000 309.888
36.19000 314.440
36.20000 316.515
36.21000 318.570
36.22000 317.576
36.23000 313.815
36.24000 310.092
36.25000 307.360
36.26000 305.265
36.27000 303.177
36.28000 301.245
36.29000 299.376
36.30000 297.861
36.31000 300.149
36.32000 303.468
36.33000 306.398
36.34000 300.293
36.35000 293.641
36.36000 289.025
36.37000 292.815
36.38000 297.518
36.39000 299.923
36.40000 295.974
36.41000 291.655
36.42000 288.819
36.43000 303.306
36.44000 314.257
36.45000 316.646
36.46000 308.387
36.47000 300.112
36.48000 296.329
36.49000 296.139
36.50000 295.951
36.51000 299.303
36.52000 304.380
36.53000 308.965
36.54000 305.173
36.55000 298.367
36.56000 292.586
36.57000 296.161
36.58000 301.990
36.59000 307.039
36.60000 306.653
36.61000 305.607
36.62000 304.763
36.63000 304.658
36.64000 304.622
36.65000 303.496
36.66000 299.683
36.67000 295.744
36.68000 293.269
36.69000 298.284
36.70000 301.994
36.71000 303.916
36.72000 303.879
36.73000 303.850
36.74000 305.015
36.75000 307.024
36.76000 308.991
36.77000 310.578
36.78000 311.929
36.79000 313.292
36.80000 314.813
36.81000 316.386
36.82000 317.504
36.83000 315.055
36.84000 311.845
36.85000 309.123
36.86000 306.790
36.87000 304.878
36.88000 303.534
36.89000 304.042
36.90000 304.693
36.91000 304.937
36.92000 304.283
36.93000 303.596
36.94000 303.184
36.95000 300.287
36.96000 298.214
36.97000 299.622
36.98000 304.375
36.99000 309.046
37.00000 307.304
37.01000 301.532
37.02000 295.926
37.03000 297.252
37.04000 301.302
37.05000 305.494
37.06000 311.339
37.07000 317.657
37.08000 322.485
37.09000 317.177
37.10000 309.962
37.11000 303.978
37.12000 306.881
37.13000 310.134
37.14000 310.359
37.15000 301.778
37.16000 292.636
37.17000 291.227
37.18000 305.040
37.19000 319.259
37.20000 327.348
37.21000 311.896
37.22000 301.069
37.23000 298.295
37.24000 302.328
37.25000 306.311
37.26000 307.787
37.27000 307.860
37.28000 307.930
37.29000 310.813
37.30000 314.518
37.31000 317.946
37.32000 318.666
37.33000 318.698
37.34000 317.676
37.35000 310.394
37.36000 302.080
37.37000 295.351
37.38000 297.764
37.39000 300.467
37.40000 301.320
37.41000 297.365
37.42000 293.163
37.43000 291.666
37.44000 294.915
37.45000 298.253
37.46000 300.046
37.47000 297.752
37.48000 296.190
37.49000 296.397
37.50000 297.926
37.51000 299.538
37.52000 304.131
37.53000 310.213
37.54000 316.010
37.55000 312.429
37.56000 306.174
37.57000 300.426
37.58000 298.938
37.59000 298.410
37.60000 296.348
37.61000 286.294
37.62000 275.091
37.63000 266.260
37.64000 277.086
37.65000 287.087
37.66000 293.582
37.67000 291.946
37.68000 289.981
37.69000 289.160
37.70000 290.124
37.71000 291.109
37.72000 291.606
37.73000 293.404
37.74000 294.639
37.75000 299.139
37.76000 305.801
37.77000 312.044
37.78000 307.125
37.79000 297.232
37.80000 287.909
37.81000 280.437
37.82000 274.108
37.83000 270.164
37.84000 283.504
37.85000 300.284
37.86000 312.187
37.87000 301.658
37.88000 288.336
37.89000 278.132
37.90000 287.374
37.91000 295.742
37.92000 302.928
37.93000 307.668
37.94000 312.334
37.95000 313.559
37.96000 310.012
37.97000 306.436
37.98000 304.314
37.99000 303.492
38.00000 302.702
38.01000 303.818
38.02000 306.056
38.03000 308.017
38.04000 304.239
38.05000 298.176
38.06000 292.534
38.07000 288.915
38.08000 286.135
38.09000 285.092
38.10000 295.008
38.11000 306.841
38.12000 315.933
38.13000 313.856
38.14000 310.587
38.15000 308.159
38.16000 301.344
38.17000 295.853
38.18000 293.368
38.19000 296.437
38.20000 299.627
38.21000 305.019
38.22000 313.114
38.23000 321.199
38.24000 323.971
38.25000 322.559
38.26000 321.141
38.27000 319.472
38.28000 317.670
38.29000 315.991
38.30000 316.356
38.31000 317.447
38.32000 318.448
38.33000 326.251
38.34000 334.648
38.35000 342.964
38.36000 350.827
38.37000 358.621
38.38000 365.806
38.39000 370.784
38.40000 375.563
38.41000 378.995
38.42000 377.774
38.43000 376.679
38.44000 377.148
38.45000 380.192
38.46000 383.272
38.47000 388.389
38.48000 395.705
38.49000 402.988
38.50000 411.212
38.51000 419.997
38.52000 428.976
38.53000 443.833
38.54000 461.445
38.55000 478.513
38.56000 488.158
38.57000 495.450
38.58000 502.038
38.59000 512.003
38.60000 521.390
38.61000 530.060
38.62000 535.246
38.63000 539.968
38.64000 545.579
38.65000 554.052
38.66000 562.742
38.67000 568.762
38.68000 563.140
38.69000 558.604
38.70000 555.362
38.71000 554.015
38.72000 552.685
38.73000 554.263
38.74000 558.595
38.75000 562.891
38.76000 557.739
38.77000 546.923
38.78000 536.169
38.79000 526.859
38.80000 518.154
38.81000 508.944
38.82000 493.987
38.83000 477.409
38.84000 462.684
38.85000 436.837
38.86000 412.637
38.87000 392.530
38.88000 390.016
38.89000 389.517
38.90000 386.056
38.91000 374.088
38.92000 361.589
38.93000 353.264
38.94000 346.998
38.95000 342.400
38.96000 337.235
38.97000 331.333
38.98000 325.433
38.99000 321.262
39.00000 318.532
39.01000 315.839
39.02000 315.605
39.03000 316.700
39.04000 317.420
39.05000 311.247
39.06000 302.499
39.07000 294.890
39.08000 298.258
39.09000 304.380
39.10000 309.717
39.11000 303.627
39.12000 296.834
39.13000 292.831
39.14000 299.470
39.15000 307.148
39.16000 311.164
39.17000 305.785
39.18000 299.935
39.19000 296.201
39.20000 292.762
39.21000 290.263
39.22000 289.406
39.23000 290.427
39.24000 291.432
39.25000 289.115
39.26000 284.350
39.27000 279.676
39.28000 278.671
39.29000 279.446
39.30000 280.174
39.31000 280.208
39.32000 280.010
39.33000 280.099
39.34000 282.561
39.35000 285.549
39.36000 288.103
39.37000 278.224
39.38000 268.415
39.39000 262.032
39.40000 267.272
39.41000 273.468
39.42000 278.509
39.43000 280.908
39.44000 283.203
39.45000 284.601
39.46000 277.924
39.47000 273.088
39.48000 270.997
39.49000 271.665
39.50000 272.350
39.51000 274.589
39.52000 277.843
39.53000 281.012
39.54000 277.478
39.55000 271.296
39.56000 265.323
39.57000 261.925
39.58000 259.293
39.59000 257.182
39.60000 258.784
39.61000 261.116
39.62000 263.065
39.63000 264.692
39.64000 266.011
39.65000 267.833
39.66000 271.177
39.67000 274.625
39.68000 276.958
39.69000 277.014
39.70000 277.001
39.71000 276.994
39.72000 269.110
39.73000 263.552
39.74000 263.484
39.75000 268.260
39.76000 272.938
39.77000 271.982
39.78000 267.748
39.79000 263.658
39.80000 262.306
39.81000 262.046
39.82000 262.183
39.83000 266.440
39.84000 271.786
39.85000 276.280
39.86000 275.481
39.87000 273.769
39.88000 272.372
39.89000 272.172
39.90000 272.111
39.91000 272.104
39.92000 272.244
39.93000 272.392
39.94000 269.778
39.95000 262.126
39.96000 254.368
39.97000 250.115
39.98000 270.587
39.99000 284.665
40.00000 288.136
40.01000 283.349
40.02000 278.512
40.03000 271.713
40.04000 263.896
40.05000 256.419
40.06000 262.261
40.07000 272.053
40.08000 280.646
40.09000 278.654
40.10000 274.176
40.11000 270.063
40.12000 267.933
40.13000 266.101
40.14000 264.645
40.15000 262.265
40.16000 260.281
40.17000 260.294
40.18000 265.116
40.19000 270.150
40.20000 272.136
40.21000 269.169
40.22000 266.132
40.23000 264.566
40.24000 255.694
40.25000 249.762
40.26000 249.407
40.27000 252.899
40.28000 256.337
40.29000 258.196
40.30000 259.326
40.31000 260.394
40.32000 258.299
40.33000 255.462
40.34000 253.055
40.35000 253.913
40.36000 255.448
40.37000 257.560
40.38000 262.432
40.39000 267.666
40.40000 271.715
40.41000 267.780
40.42000 264.186
40.43000 261.978
40.44000 262.749
40.45000 263.621
40.46000 262.866
40.47000 259.760
40.48000 256.635
40.49000 256.894
40.50000 260.312
40.51000 263.665
40.52000 262.374
40.53000 258.238
40.54000 254.189
40.55000 252.101
40.56000 250.824
40.57000 249.631
40.58000 249.179
40.59000 248.958
40.60000 249.475
40.61000 254.872
40.62000 261.161
40.63000 266.257
40.64000 266.288
40.65000 265.749
40.66000 265.345
40.67000 258.118
40.68000 252.146
40.69000 248.483
40.70000 249.253
40.71000 250.133
40.72000 251.923
40.73000 254.879
40.74000 257.835
40.75000 260.837
40.76000 263.865
40.77000 266.792
40.78000 264.975
40.79000 260.568
40.80000 256.238
40.81000 253.308
40.82000 250.893
40.83000 248.667
40.84000 254.187
40.85000 260.850
40.86000 266.607
40.87000 267.136
40.88000 266.828
40.89000 264.881
40.90000 256.758
40.91000 248.044
40.92000 241.711
40.93000 250.091
40.94000 257.090
40.95000 261.317
40.96000 260.796
40.97000 260.194
40.98000 256.892
40.99000 250.542
41.00000 244.211
41.01000 243.613
41.02000 247.157
41.03000 250.612
41.04000 251.135
41.05000 250.230
41.06000 249.306
41.07000 248.108
41.08000 246.819
41.09000 245.649
41.10000 250.155
41.11000 255.237
41.12000 258.846
41.13000 254.987
41.14000 250.086
41.15000 246.874
41.16000 249.319
41.17000 252.221
41.18000 254.257
41.19000 255.520
41.20000 256.454
41.21000 255.363
41.22000 251.188
41.23000 246.980
41.24000 245.905
41.25000 247.935
41.26000 249.950
41.27000 253.529
41.28000 258.048
41.29000 262.463
41.30000 264.288
41.31000 264.986
41.32000 265.223
41.33000 259.888
41.34000 252.917
41.35000 246.689
41.36000 249.154
41.37000 252.767
41.38000 255.071
41.39000 251.509
41.40000 247.239
41.41000 245.102
41.42000 249.330
41.43000 253.984
41.44000 257.126
41.45000 256.026
41.46000 255.116
41.47000 255.273
41.48000 256.870
41.49000 258.475
41.50000 260.131
41.51000 261.830
41.52000 263.511
41.53000 260.481
41.54000 254.880
41.55000 249.193
41.56000 241.825
41.57000 233.805
41.58000 226.877
41.59000 231.078
41.60000 238.187
41.61000 244.424
41.62000 246.010
41.63000 246.692
41.64000 245.698
41.65000 238.053
41.66000 229.722
41.67000 225.861
41.68000 233.916
41.69000 242.616
41.70000 248.252
41.71000 248.090
41.72000 247.885
41.73000 248.259
41.74000 249.326
41.75000 250.380
41.76000 248.010
41.77000 243.011
41.78000 238.096
41.79000 235.401
41.80000 233.895
41.81000 232.507
41.82000 232.990
41.83000 234.122
41.84000 235.364
41.85000 237.564
41.86000 239.987
41.87000 242.071
41.88000 239.996
41.89000 237.715
41.90000 236.559
41.91000 239.371
41.92000 242.529
41.93000 242.401
41.94000 234.451
41.95000 226.166
41.96000 221.036
41.97000 228.720
41.98000 234.368
41.99000 239.173
42.00000 243.092
42.01000 246.971
42.02000 246.270
42.03000 242.452
42.04000 238.724
42.05000 239.176
42.06000 241.439
42.07000 243.474
42.08000 242.514
42.09000 240.629
42.10000 238.729
42.11000 236.722
42.12000 234.693
42.13000 232.985
42.14000 236.423
42.15000 239.845
42.16000 243.482
42.17000 247.792
42.18000 252.151
42.19000 253.271
42.20000 247.508
42.21000 241.519
42.22000 237.988
42.23000 240.964
42.24000 243.099
42.25000 244.400
42.26000 244.932
42.27000 245.419
42.28000 242.919
42.29000 238.610
42.30000 234.436
42.31000 233.961
42.32000 234.942
42.33000 235.953
42.34000 237.291
42.35000 238.718
42.36000 239.598
42.37000 236.911
42.38000 233.581
42.39000 230.840
42.40000 234.406
42.41000 237.912
42.42000 240.675
42.43000 241.352
42.44000 241.906
42.45000 240.624
42.46000 235.862
42.47000 231.017
42.48000 228.309
42.49000 233.327
42.50000 236.818
42.51000 239.622
42.52000 241.869
42.53000 243.986
42.54000 240.302
42.55000 233.489
42.56000 226.950
42.57000 232.882
42.58000 242.680
42.59000 251.040
42.60000 246.016
42.61000 237.719
42.62000 230.622
42.63000 230.349
42.64000 231.154
42.65000 231.801
42.66000 236.007
42.67000 239.686
42.68000 241.172
42.69000 237.166
42.70000 232.898
42.71000 230.404
42.72000 230.910
42.73000 231.465
42.74000 231.757
42.75000 238.315
42.76000 242.743
42.77000 243.439
42.78000 241.456
42.79000 239.400
42.80000 234.965
42.81000 229.385
42.82000 224.087
42.83000 228.827
42.84000 236.220
42.85000 243.068
42.86000 245.546
42.87000 247.078
42.88000 248.057
42.89000 246.263
42.90000 244.089
42.91000 242.390
42.92000 231.698
42.93000 222.600
42.94000 218.457
42.95000 225.388
42.96000 232.730
42.97000 237.495
42.98000 238.385
42.99000 239.236
43.00000 238.900
43.01000 237.405
43.02000 235.952
43.03000 238.020
43.04000 242.333
43.05000 246.395
43.06000 244.294
43.07000 239.545
43.08000 235.088
43.09000 233.741
43.10000 233.335
43.11000 233.635
43.12000 238.818
43.13000 244.933
43.14000 248.588
43.15000 241.367
43.16000 232.856
43.17000 226.399
43.18000 232.764
43.19000 238.423
43.20000 240.546
43.21000 235.614
43.22000 230.485
43.23000 230.085
43.24000 235.988
43.25000 241.918
43.26000 241.485
43.27000 235.603
43.28000 229.867
43.29000 231.876
43.30000 238.280
43.31000 244.251
43.32000 241.859
43.33000 236.260
43.34000 231.072
43.35000 227.212
43.36000 224.047
43.37000 221.498
43.38000 222.671
43.39000 224.469
43.40000 224.794
43.41000 219.350
43.42000 213.322
43.43000 208.891
43.44000 217.879
43.45000 225.378
43.46000 230.886
43.47000 232.849
43.48000 234.743
43.49000 233.892
43.50000 229.807
43.51000 225.728
43.52000 227.726
43.53000 234.287
43.54000 240.592
43.55000 237.392
43.56000 229.381
43.57000 221.765
43.58000 220.276
43.59000 220.885
43.60000 221.442
43.61000 226.832
43.62000 232.598
43.63000 237.374
43.64000 236.916
43.65000 235.693
43.66000 233.035
43.67000 225.380
43.68000 217.297
43.69000 211.558
43.70000 216.877
43.71000 221.276
43.72000 226.189
43.73000 231.915
43.74000 237.652
43.75000 236.902
43.76000 229.431
43.77000 222.002
43.78000 221.982
43.79000 226.878
43.80000 231.669
43.81000 233.601
43.82000 234.241
43.83000 234.698
43.84000 232.811
43.85000 230.209
43.86000 227.871
43.87000 231.917
43.88000 236.588
43.89000 239.874
43.90000 236.688
43.91000 232.682
43.92000 230.691
43.93000 234.956
43.94000 239.667
43.95000 242.890
43.96000 235.787
43.97000 230.225
43.98000 227.220
43.99000 227.815
44.00000 228.434
44.01000 228.270
44.02000 227.394
44.03000 226.526
44.04000 221.391
44.05000 213.867
44.06000 206.944
44.07000 212.883
44.08000 224.012
44.09000 234.438
44.10000 237.284
44.11000 238.071
44.12000 238.766
44.13000 231.733
44.14000 224.475
44.15000 218.936
44.16000 220.496
44.17000 222.830
44.18000 225.261
44.19000 227.962
44.20000 230.679
44.21000 232.465
44.22000 232.876
44.23000 233.155
44.24000 233.581
44.25000 234.189
44.26000 234.795
44.27000 234.559
44.28000 233.650
44.29000 232.754
44.30000 231.295
44.31000 229.587
44.32000 227.980
44.33000 228.070
44.34000 228.772
44.35000 229.409
44.36000 229.438
44.37000 229.322
44.38000 229.220
44.39000 226.079
44.40000 223.004
44.41000 220.895
44.42000 222.333
44.43000 224.100
44.44000 226.377
44.45000 229.915
44.46000 233.513
44.47000 235.775
44.48000 239.572
44.49000 242.335
44.50000 245.105
44.51000 247.883
44.52000 250.620
44.53000 247.719
44.54000 240.823
44.55000 234.073
44.56000 240.992
44.57000 253.874
44.58000 266.091
44.59000 269.024
44.60000 268.973
44.61000 268.523
44.62000 264.942
44.63000 260.692
44.64000 257.085
44.65000 260.813
44.66000 264.773
44.67000 269.619
44.68000 277.364
44.69000 285.334
44.70000 292.447
44.71000 297.671
44.72000 302.826
44.73000 305.918
44.74000 322.458
44.75000 334.297
44.76000 346.397
44.77000 358.748
44.78000 371.036
44.79000 378.245
44.80000 382.257
44.81000 386.155
44.82000 401.298
44.83000 420.215
44.84000 438.435
44.85000 448.549
44.86000 456.343
44.87000 464.344
44.88000 473.766
44.89000 483.455
44.90000 491.493
44.91000 509.412
44.92000 525.172
44.93000 537.846
44.94000 541.528
44.95000 544.634
44.96000 550.398
44.97000 561.404
44.98000 572.549
44.99000 578.895
45.00000 566.406
45.01000 557.643
45.02000 550.965
45.03000 546.051
45.04000 541.183
45.05000 538.637
45.06000 537.393
45.07000 536.196
45.08000 527.376
45.09000 516.384
45.10000 505.404
45.11000 494.533
45.12000 483.690
45.13000 472.890
45.14000 462.346
45.15000 451.844
45.16000 443.340
45.17000 429.465
45.18000 417.733
45.19000 407.163
45.20000 399.618
45.21000 392.230
45.22000 382.760
45.23000 369.631
45.24000 356.434
45.25000 349.335
45.26000 343.684
45.27000 339.808
45.28000 332.933
45.29000 323.815
45.30000 314.758
45.31000 307.932
45.32000 302.220
45.33000 296.775
45.34000 289.559
45.35000 282.312
45.36000 275.709
45.37000 274.514
45.38000 274.541
45.39000 274.033
45.40000 270.734
45.41000 267.032
45.42000 264.113
45.43000 262.855
45.44000 261.958
45.45000 260.928
45.46000 259.588
45.47000 258.235
45.48000 253.490
45.49000 243.437
45.50000 233.321
45.51000 228.210
45.52000 228.690
45.53000 229.021
45.54000 230.238
45.55000 232.042
45.56000 233.817
45.57000 234.808
45.58000 235.449
45.59000 236.052
45.60000 238.635
45.61000 241.547
45.62000 243.189
45.63000 235.623
45.64000 226.220
45.65000 218.830
45.66000 220.710
45.67000 223.746
45.68000 226.073
45.69000 227.622
45.70000 228.802
45.71000 228.288
45.72000 224.258
45.73000 220.121
45.74000 217.998
45.75000 218.675
45.76000 219.370
45.77000 219.866
45.78000 220.185
45.79000 220.534
45.80000 222.745
45.81000 226.055
45.82000 229.173
45.83000 228.295
45.84000 225.824
45.85000 223.525
45.86000 225.830
45.87000 229.029
45.88000 231.808
45.89000 231.929
45.90000 231.585
45.91000 231.041
45.92000 229.683
45.93000 228.238
45.94000 227.164
45.95000 220.506
45.96000 215.083
45.97000 210.387
45.98000 207.040
45.99000 203.722
46.00000 204.014
46.01000 208.744
46.02000 213.476
46.03000 216.261
46.04000 217.499
46.05000 218.652
46.06000 216.247
46.07000 211.970
46.08000 207.782
46.09000 205.086
46.10000 202.922
46.11000 200.936
46.12000 204.751
46.13000 209.385
46.14000 213.475
46.15000 214.555
46.16000 215.173
46.17000 215.639
46.18000 215.552
46.19000 215.414
46.20000 215.316
46.21000 217.703
46.22000 219.616
46.23000 218.361
46.24000 211.884
46.25000 205.330
46.26000 202.187
46.27000 202.738
46.28000 203.287
46.29000 205.348
46.30000 208.434
46.31000 211.542
46.32000 215.345
46.33000 219.474
46.34000 223.241
46.35000 222.046
46.36000 219.277
46.37000 216.775
46.38000 213.779
46.39000 211.054
46.40000 209.017
46.41000 210.334
46.42000 212.098
46.43000 212.393
46.44000 207.952
46.45000 203.150
46.46000 199.822
46.47000 196.642
46.48000 194.252
46.49000 195.748
46.50000 202.940
46.51000 210.181
46.52000 212.881
46.53000 211.271
46.54000 209.674
46.55000 207.949
46.56000 206.176
46.57000 204.424
46.58000 203.138
46.59000 202.048
46.60000 201.326
46.61000 204.803
46.62000 209.468
46.63000 213.612
46.64000 211.177
46.65000 208.005
46.66000 205.319
46.67000 204.728
46.68000 204.377
46.69000 204.368
46.70000 205.343
46.71000 206.379
46.72000 207.069
46.73000 205.427
46.74000 204.168
46.75000 203.526
46.76000 203.687
46.77000 203.848
46.78000 202.576
46.79000 200.108
46.80000 197.671
46.81000 199.028
46.82000 202.394
46.83000 205.421
46.84000 202.225
46.85000 196.698
46.86000 192.185
46.87000 197.459
46.88000 205.194
46.89000 211.940
46.90000 209.548
46.91000 206.231
46.92000 202.748
46.93000 198.637
46.94000 194.463
46.95000 191.589
46.96000 192.054
46.97000 192.687
46.98000 193.091
46.99000 191.477
47.00000 190.276
47.01000 191.860
47.02000 196.638
47.03000 201.397
47.04000 201.873
47.05000 199.187
47.06000 196.553
47.07000 193.575
47.08000 190.541
47.09000 187.742
47.10000 188.442
47.11000 190.312
47.12000 192.021
47.13000 192.413
47.14000 192.510
47.15000 192.594
47.16000 195.082
47.17000 197.466
47.18000 199.107
47.19000 198.222
47.20000 197.128
47.21000 194.737
47.22000 189.372
47.23000 183.889
47.24000 180.546
47.25000 186.729
47.26000 191.226
47.27000 195.208
47.28000 198.672
47.29000 202.125
47.30000 204.417
47.31000 205.949
47.32000 207.442
47.33000 206.722
47.34000 205.105
47.35000 203.158
47.36000 197.120
47.37000 189.865
47.38000 183.786
47.39000 186.115
47.40000 190.097
47.41000 193.427
47.42000 196.345
47.43000 198.728
47.44000 200.096
47.45000 198.394
47.46000 196.482
47.47000 196.785
47.48000 201.627
47.49000 206.604
47.50000 209.489
47.51000 205.609
47.52000 202.857
47.53000 198.461
47.54000 192.612
47.55000 186.847
47.56000 186.018
47.57000 188.065
47.58000 190.042
47.59000 191.080
47.60000 191.709
47.61000 192.271
47.62000 192.145
47.63000 191.835
47.64000 190.855
47.65000 185.700
47.66000 179.824
47.67000 175.025
47.68000 180.370
47.69000 185.618
47.70000 189.447
47.71000 189.441
47.72000 189.223
47.73000 189.744
47.74000 191.618
47.75000 193.520
47.76000 194.564
47.77000 188.651
47.78000 184.584
47.79000 183.914
47.80000 185.894
47.81000 187.813
47.82000 187.279
47.83000 185.470
47.84000 183.739
47.85000 184.500
47.86000 186.024
47.87000 187.922
47.88000 193.126
47.89000 199.109
47.90000 203.557
47.91000 199.635
47.92000 194.448
47.93000 190.320
47.94000 185.584
47.95000 181.723
47.96000 179.675
47.97000 182.006
47.98000 184.530
47.99000 184.964
48.00000 181.995
48.01000 178.979
48.02000 177.420
48.03000 179.715
48.04000 181.249
48.05000 181.142
48.06000 179.901
48.07000 178.769
48.08000 180.830
48.09000 184.372
48.10000 187.723
48.11000 186.667
48.12000 184.426
48.13000 182.929
48.14000 187.100
48.15000 192.451
48.16000 196.220
48.17000 192.383
48.18000 187.548
48.19000 183.807
48.20000 182.880
48.21000 182.311
48.22000 182.360
48.23000 183.741
48.24000 185.167
48.25000 187.555
48.26000 191.334
48.27000 195.124
48.28000 195.417
48.29000 192.438
48.30000 189.470
48.31000 187.275
48.32000 185.556
48.33000 184.010
48.34000 186.407
48.35000 190.436
48.36000 194.202
48.37000 193.490
48.38000 191.710
48.39000 189.950
48.40000 188.329
48.41000 186.735
48.42000 185.894
48.43000 188.256
48.44000 190.981
48.45000 193.027
48.46000 195.125
48.47000 196.768
48.48000 196.788
48.49000 193.686
48.50000 190.506
48.51000 188.061
48.52000 186.557
48.53000 185.057
48.54000 185.386
48.55000 187.215
48.56000 188.965
48.57000 187.011
48.58000 183.030
48.59000 179.343
48.60000 180.909
48.61000 184.419
48.62000 187.656
48.63000 187.848
48.64000 187.344
48.65000 186.471
48.66000 183.473
48.67000 180.134
48.68000 178.549
48.69000 183.583
48.70000 189.253
48.71000 193.376
48.72000 186.751
48.73000 181.249
48.74000 179.779
48.75000 185.223
48.76000 190.785
48.77000 191.871
48.78000 187.895
48.79000 183.928
48.80000 181.322
48.81000 179.721
48.82000 178.137
48.83000 177.095
48.84000 176.317
48.85000 175.714
48.86000 177.659
48.87000 180.444
48.88000 182.975
48.89000 182.649
48.90000 181.807
48.91000 181.272
48.92000 182.304
48.93000 183.555
48.94000 185.006
48.95000 187.128
48.96000 189.305
48.97000 190.832
48.98000 193.549
48.99000 195.639
49.00000 193.360
49.01000 184.415
49.02000 175.398
49.03000 173.272
49.04000 177.983
49.05000 182.662
49.06000 183.990
49.07000 183.163
49.08000 182.408
49.09000 183.459
49.10000 185.298
49.11000 187.287
49.12000 191.089
49.13000 195.426
49.14000 199.301
49.15000 193.317
49.16000 186.435
49.17000 181.570
49.18000 185.755
49.19000 191.032
49.20000 193.710
49.21000 188.609
49.22000 182.987
49.23000 179.189
49.24000 182.555
49.25000 185.216
49.26000 185.984
49.27000 184.193
49.28000 182.392
49.29000 184.400
49.30000 189.728
49.31000 194.997
49.32000 192.356
49.33000 185.331
49.34000 178.598
49.35000 177.632
49.36000 178.909
49.37000 180.150
49.38000 181.024
49.39000 181.801
49.40000 182.484
49.41000 183.687
49.42000 184.797
49.43000 186.454
49.44000 190.286
49.45000 194.342
49.46000 197.169
49.47000 196.713
49.48000 196.078
49.49000 195.667
49.50000 192.845
49.51000 190.744
49.52000 190.096
49.53000 191.186
49.54000 192.261
49.55000 188.744
49.56000 181.694
49.57000 174.762
49.58000 172.794
49.59000 173.355
49.60000 173.963
49.61000 175.324
49.62000 176.946
49.63000 178.528
49.64000 179.759
49.65000 180.909
49.66000 181.898
49.67000 181.442
49.68000 180.873
49.69000 181.162
49.70000 184.480
49.71000 188.065
49.72000 190.135
49.73000 188.596
49.74000 186.902
49.75000 185.853
49.76000 183.272
49.77000 181.401
49.78000 179.232
49.79000 176.750
49.80000 174.294
49.81000 174.945
49.82000 177.714
49.83000 180.419
49.84000 184.212
49.85000 188.319
49.86000 191.794
49.87000 186.952
49.88000 179.535
49.89000 173.237
49.90000 175.339
49.91000 179.165
49.92000 182.389
49.93000 184.395
49.94000 185.939
49.95000 188.338
49.96000 193.429
49.97000 198.717
49.98000 198.784
49.99000 187.737
50.00000 176.324
50.01000 169.590
50.02000 169.039
50.03000 168.684
50.04000 169.990
50.05000 172.827
50.06000 175.677
50.07000 179.383
50.08000 183.608
50.09000 187.701
50.10000 188.688
50.11000 188.419
50.12000 188.175
50.13000 188.209
50.14000 188.319
50.15000 187.861
50.16000 183.701
50.17000 178.873
50.18000 174.897
50.19000 174.743
50.20000 174.965
50.21000 176.060
50.22000 179.609
50.23000 183.306
50.24000 185.067
50.25000 183.152
50.26000 181.149
50.27000 180.029
50.28000 198.097
50.29000 210.633
50.30000 214.031
50.31000 210.000
50.32000 206.103
50.33000 208.279
50.34000 213.734
50.35000 218.971
50.36000 218.345
50.37000 215.756
50.38000 214.007
50.39000 220.103
50.40000 228.119
50.41000 235.595
50.42000 239.981
50.43000 243.879
50.44000 247.009
50.45000 245.054
50.46000 243.081
50.47000 244.309
50.48000 253.558
50.49000 263.193
50.50000 268.686
50.51000 267.166
50.52000 265.531
50.53000 264.668
50.54000 275.571
50.55000 282.941
50.56000 284.636
50.57000 282.248
50.58000 280.212
50.59000 289.581
50.60000 304.448
50.61000 318.569
50.62000 315.579
50.63000 307.666
50.64000 300.616
50.65000 300.471
50.66000 301.824
50.67000 302.580
50.68000 300.342
50.69000 297.692
50.70000 295.621
50.71000 290.298
50.72000 285.844
50.73000 282.911
50.74000 283.382
50.75000 283.981
50.76000 282.842
50.77000 279.087
50.78000 275.306
50.79000 272.798
50.80000 271.535
50.81000 270.235
50.82000 265.817
50.83000 259.407
50.84000 253.189
50.85000 251.697
50.86000 252.239
50.87000 252.747
50.88000 243.825
50.89000 233.193
50.90000 223.443
50.91000 219.811
50.92000 217.348
50.93000 214.331
50.94000 208.853
50.95000 203.082
50.96000 198.703
50.97000 197.176
50.98000 196.123
50.99000 194.618
51.00000 192.208
51.01000 189.773
51.02000 187.279
51.03000 184.707
51.04000 182.137
51.05000 180.556
51.06000 179.827
51.07000 179.096
51.08000 178.250
51.09000 177.339
51.10000 176.719
51.11000 181.733
51.12000 188.912
51.13000 195.563
51.14000 192.838
51.15000 188.207
51.16000 183.828
51.17000 180.978
51.18000 178.385
51.19000 176.145
51.20000 175.294
51.21000 174.584
51.22000 174.062
51.23000 173.401
51.24000 172.885
51.25000 173.686
51.26000 176.836
51.27000 180.033
51.28000 180.296
51.29000 177.096
51.30000 173.898
51.31000 174.697
51.32000 178.507
51.33000 182.177
51.34000 180.659
51.35000 176.511
51.36000 172.555
51.37000 171.610
51.38000 171.697
51.39000 171.777
51.40000 169.254
51.41000 166.484
51.42000 164.611
51.43000 167.493
51.44000 171.072
51.45000 173.530
51.46000 172.080
51.47000 170.293
51.48000 169.023
51.49000 173.067
51.50000 176.315
51.51000 176.502
51.52000 171.833
51.53000 167.101
51.54000 164.096
51.55000 162.882
51.56000 161.675
51.57000 164.876
51.58000 170.964
51.59000 176.843
51.60000 176.927
51.61000 174.388
51.62000 171.822
51.63000 168.911
51.64000 165.895
51.65000 163.184
51.66000 160.289
51.67000 157.722
51.68000 156.197
51.69000 159.552
51.70000 163.526
51.71000 167.000
51.72000 168.920
51.73000 170.728
51.74000 171.965
51.75000 169.702
51.76000 167.924
51.77000 165.404
51.78000 161.836
51.79000 158.264
51.80000 159.597
51.81000 165.394
51.82000 171.136
51.83000 173.746
51.84000 174.467
51.85000 175.078
51.86000 173.355
51.87000 170.687
51.88000 168.122
51.89000 166.664
51.90000 165.507
51.91000 164.485
51.92000 162.582
51.93000 160.804
51.94000 160.026
51.95000 163.391
51.96000 167.208
51.97000 169.165
51.98000 165.962
51.99000 162.457
52.00000 160.153
52.01000 161.501
52.02000 162.555
52.03000 164.794
52.04000 168.510
52.05000 172.221
52.06000 172.573
52.07000 170.230
52.08000 167.922
52.09000 167.150
52.10000 167.196
52.11000 167.324
52.12000 168.858
52.13000 170.900
52.14000 172.780
52.15000 173.176
52.16000 173.215
52.17000 173.248
52.18000 174.243
52.19000 175.218
52.20000 175.233
52.21000 171.720
52.22000 167.879
52.23000 165.686
52.24000 167.574
52.25000 169.653
52.26000 170.961
52.27000 174.655
52.28000 177.355
52.29000 174.416
52.30000 165.272
52.31000 156.190
52.32000 156.185
52.33000 162.626
52.34000 168.931
52.35000 170.874
52.36000 170.744
52.37000 170.800
52.38000 173.457
52.39000 176.952
52.40000 179.872
52.41000 178.256
52.42000 175.669
52.43000 173.473
52.44000 171.125
52.45000 169.139
52.46000 168.305
52.47000 171.246
52.48000 174.481
52.49000 176.330
52.50000 175.114
52.51000 173.788
52.52000 172.992
52.53000 166.013
52.54000 161.012
52.55000 160.034
52.56000 162.937
52.57000 165.822
52.58000 167.268
52.59000 167.806
52.60000 168.329
52.61000 166.606
52.62000 164.062
52.63000 162.059
52.64000 166.363
52.65000 172.475
52.66000 177.270
52.67000 173.062
52.68000 167.156
52.69000 162.254
52.70000 161.011
52.71000 160.338
52.72000 159.644
52.73000 158.891
52.74000 158.135
52.75000 158.013
52.76000 159.146
52.77000 160.312
52.78000 160.976
52.79000 156.032
52.80000 152.572
52.81000 152.756
52.82000 156.031
52.83000 159.302
52.84000 162.406
52.85000 165.415
52.86000 168.312
52.87000 167.863
52.88000 166.247
52.89000 164.789
52.90000 164.874
52.91000 165.353
52.92000 166.123
52.93000 168.628
52.94000 171.419
52.95000 173.681
52.96000 170.903
52.97000 168.231
52.98000 165.848
52.99000 164.220
53.00000 162.631
53.01000 160.691
53.02000 158.135
53.03000 155.567
53.04000 154.185
53.05000 165.703
53.06000 173.556
53.07000 174.900
53.08000 171.365
53.09000 167.955
53.10000 169.086
53.11000 172.491
53.12000 175.737
53.13000 177.071
53.14000 177.707
53.15000 178.254
53.16000 178.053
53.17000 177.683
53.18000 176.267
53.19000 169.374
53.20000 161.690
53.21000 155.628
53.22000 161.388
53.23000 166.807
53.24000 170.803
53.25000 171.485
53.26000 172.032
53.27000 171.118
53.28000 167.912
53.29000 164.679
53.30000 163.044
53.31000 156.081
53.32000 151.483
53.33000 153.018
53.34000 158.630
53.35000 164.050
53.36000 164.288
53.37000 162.211
53.38000 160.252
53.39000 162.365
53.40000 165.427
53.41000 168.024
53.42000 167.249
53.43000 165.800
53.44000 164.558
53.45000 164.275
53.46000 164.112
53.47000 163.988
53.48000 158.327
53.49000 153.549
53.50000 151.328
53.51000 154.420
53.52000 157.675
53.53000 160.634
53.54000 163.179
53.55000 165.720
53.56000 168.069
53.57000 170.244
53.58000 172.373
53.59000 171.636
53.60000 169.204
53.61000 166.797
53.62000 164.884
53.63000 163.168
53.64000 161.570
53.65000 157.551
53.66000 153.329
53.67000 149.773
53.68000 150.427
53.69000 151.820
53.70000 153.540
53.71000 156.594
53.72000 159.791
53.73000 162.168
53.74000 159.516
53.75000 157.230
53.76000 155.814
53.77000 156.009
53.78000 156.240
53.79000 156.448
53.80000 156.628
53.81000 156.807
53.82000 158.988
53.83000 162.734
53.84000 166.358
53.85000 164.845
53.86000 160.625
53.87000 156.572
53.88000 155.320
53.89000 155.065
53.90000 154.831
53.91000 156.072
53.92000 157.493
53.93000 158.564
53.94000 157.698
53.95000 156.534
53.96000 155.594
53.97000 155.469
53.98000 155.419
53.99000 155.383
54.00000 161.839
54.01000 167.007
54.02000 169.467
54.03000 167.458
54.04000 165.382
54.05000 161.872
54.06000 156.804
54.07000 151.759
54.08000 152.688
54.09000 157.753
54.10000 162.649
54.11000 162.439
54.12000 159.826
54.13000 157.461
54.14000 158.498
54.15000 160.617
54.16000 162.532
54.17000 160.621
54.18000 158.230
54.19000 156.296
54.20000 156.600
54.21000 157.203
54.22000 157.141
54.23000 154.931
54.24000 152.557
54.25000 150.911
54.26000 152.703
54.27000 154.143
54.28000 154.864
54.29000 154.530
54.30000 154.187
54.31000 154.222
54.32000 154.619
54.33000 155.011
54.34000 156.555
54.35000 158.774
54.36000 160.771
54.37000 157.599
54.38000 152.256
54.39000 147.295
54.40000 146.700
54.41000 147.343
54.42000 147.914
54.43000 151.622
54.44000 155.346
54.45000 158.368
54.46000 158.360
54.47000 158.004
54.48000 157.451
54.49000 156.328
54.50000 155.169
54.51000 154.396
54.52000 159.995
54.53000 164.263
54.54000 166.432
54.55000 165.871
54.56000 165.294
54.57000 162.871
54.58000 158.902
54.59000 154.985
54.60000 153.959
54.61000 154.521
54.62000 155.188
54.63000 157.767
54.64000 161.065
54.65000 164.186
54.66000 165.606
54.67000 166.596
54.68000 167.461
54.69000 162.691
54.70000 157.826
54.71000 154.570
54.72000 157.471
54.73000 160.977
54.74000 161.818
54.75000 155.802
54.76000 149.438
54.77000 145.372
54.78000 148.724
54.79000 151.261
54.80000 155.749
54.81000 162.479
54.82000 169.171
54.83000 168.558
54.84000 162.540
54.85000 156.637
54.86000 155.621
54.87000 156.972
54.88000 158.267
54.89000 158.719
54.90000 158.890
54.91000 159.252
54.92000 161.205
54.93000 163.514
54.94000 165.487
54.95000 160.457
54.96000 155.376
54.97000 152.406
54.98000 156.622
54.99000 161.431
55.00000 164.286
55.01000 162.648
55.02000 160.832
55.03000 159.724
55.04000 159.979
55.05000 160.172
55.06000 161.250
55.07000 163.220
55.08000 165.191
55.09000 167.260
55.10000 169.393
55.11000 171.471
55.12000 169.325
55.13000 165.501
55.14000 162.067
55.15000 163.463
55.16000 166.300
55.17000 168.915
55.18000 169.942
55.19000 170.657
55.20000 171.254
55.21000 173.673
55.22000 175.869
55.23000 177.365
55.24000 176.735
55.25000 175.959
55.26000 176.608
55.27000 180.180
55.28000 183.840
55.29000 185.963
55.30000 180.779
55.31000 177.112
55.32000 175.683
55.33000 176.236
55.34000 176.805
55.35000 178.352
55.36000 180.471
55.37000 182.518
55.38000 186.423
55.39000 190.795
55.40000 194.635
55.41000 192.930
55.42000 189.752
55.43000 187.970
55.44000 194.887
55.45000 203.311
55.46000 210.192
55.47000 214.913
55.48000 218.591
55.49000 223.746
55.50000 232.896
55.51000 242.271
55.52000 252.229
55.53000 263.258
55.54000 274.310
55.55000 280.379
55.56000 272.456
55.57000 267.018
55.58000 271.603
55.59000 284.019
55.60000 296.432
55.61000 308.744
55.62000 321.004
55.63000 332.733
55.64000 351.548
55.65000 371.396
55.66000 391.122
55.67000 409.765
55.68000 428.153
55.69000 446.662
55.70000 465.833
55.71000 485.105
55.72000 500.449
55.73000 514.808
55.74000 526.315
55.75000 539.131
55.76000 555.110
55.77000 571.229
55.78000 584.344
55.79000 592.558
55.80000 600.703
55.81000 604.913
55.82000 616.397
55.83000 624.123
55.84000 629.710
55.85000 633.818
55.86000 638.147
55.87000 648.993
55.88000 662.867
55.89000 675.997
55.90000 667.681
55.91000 653.837
55.92000 640.258
55.93000 628.711
55.94000 617.588
55.95000 605.316
55.96000 587.522
55.97000 569.001
55.98000 554.659
55.99000 540.471
56.00000 529.214
56.01000 518.761
56.02000 510.042
56.03000 501.382
56.04000 485.896
56.05000 460.519
56.06000 435.063
56.07000 418.073
56.08000 409.026
56.09000 399.944
56.10000 388.276
56.11000 375.019
56.12000 361.641
56.13000 345.526
56.14000 328.276
56.15000 312.148
56.16000 299.780
56.17000 289.507
56.18000 279.312
56.19000 269.638
56.20000 260.059
56.21000 251.234
56.22000 245.614
56.23000 240.357
56.24000 236.407
56.25000 227.298
56.26000 219.930
56.27000 213.142
56.28000 207.474
56.29000 201.834
56.30000 195.962
56.31000 189.792
56.32000 183.628
56.33000 181.158
56.34000 181.737
56.35000 182.279
56.36000 181.113
56.37000 179.010
56.38000 176.915
56.39000 174.940
56.40000 173.010
56.41000 171.230
56.42000 174.879
56.43000 179.358
56.44000 182.808
56.45000 180.300
56.46000 176.833
56.47000 173.908
56.48000 173.032
56.49000 172.354
56.50000 171.861
56.51000 167.848
56.52000 164.626
56.53000 162.133
56.54000 160.893
56.55000 159.675
56.56000 157.965
56.57000 155.698
56.58000 153.438
56.59000 152.236
56.60000 151.810
56.61000 151.483
56.62000 154.485
56.63000 159.114
56.64000 163.205
56.65000 159.421
56.66000 153.032
56.67000 147.227
56.68000 154.013
56.69000 162.460
56.70000 169.180
56.71000 167.106
56.72000 163.799
56.73000 160.314
56.74000 156.232
56.75000 152.101
56.76000 149.200
56.77000 155.410
56.78000 160.377
56.79000 162.107
56.80000 158.889
56.81000 155.618
56.82000 153.477
56.83000 152.459
56.84000 151.448
56.85000 148.432
56.86000 144.182
56.87000 140.315
56.88000 146.206
56.89000 156.355
56.90000 165.502
56.91000 162.481
56.92000 155.874
56.93000 149.969
56.94000 147.246
56.95000 145.411
56.96000 143.899
56.97000 143.834
56.98000 143.946
56.99000 144.356
57.00000 145.663
57.01000 147.029
57.02000 147.953
57.03000 153.064
57.04000 156.961
57.05000 157.970
57.06000 155.064
57.07000 152.138
57.08000 150.947
57.09000 151.271
57.10000 151.591
57.11000 150.643
57.12000 149.002
57.13000 147.393
57.14000 146.398
57.15000 145.642
57.16000 145.032
57.17000 145.910
57.18000 147.178
57.19000 148.291
57.20000 149.285
57.21000 150.121
57.22000 150.798
57.23000 150.844
57.24000 150.825
57.25000 150.872
57.26000 151.097
57.27000 151.332
57.28000 151.484
57.29000 149.316
57.30000 147.693
57.31000 146.197
57.32000 144.852
57.33000 143.510
57.34000 142.585
57.35000 141.983
57.36000 141.391
57.37000 144.747
57.38000 149.956
57.39000 154.754
57.40000 152.969
57.41000 148.894
57.42000 145.354
57.43000 146.487
57.44000 148.707
57.45000 150.618
57.46000 148.610
57.47000 146.414
57.48000 145.753
57.49000 150.529
57.50000 155.783
57.51000 157.320
57.52000 149.985
57.53000 142.266
57.54000 137.480
57.55000 145.445
57.56000 151.299
57.57000 152.504
57.58000 148.805
57.59000 145.137
57.60000 145.025
57.61000 147.343
57.62000 149.606
57.63000 149.047
57.64000 147.272
57.65000 145.685
57.66000 146.573
57.67000 148.229
57.68000 149.416
57.69000 147.078
57.70000 144.015
57.71000 141.433
57.72000 141.519
57.73000 141.879
57.74000 142.498
57.75000 143.934
57.76000 145.429
57.77000 146.303
57.78000 145.856
57.79000 145.365
57.80000 145.075
57.81000 148.260
57.82000 150.528
57.83000 151.054
57.84000 149.969
57.85000 148.900
57.86000 149.009
57.87000 149.832
57.88000 150.629
57.89000 147.380
57.90000 142.735
57.91000 138.693
57.92000 141.294
57.93000 145.729
57.94000 149.606
57.95000 149.831
57.96000 149.395
57.97000 149.036
57.98000 145.001
57.99000 141.344
58.00000 138.774
58.01000 139.260
58.02000 139.930
58.03000 139.987
58.04000 138.882
58.05000 137.748
58.06000 137.113
58.07000 139.170
58.08000 140.603
58.09000 142.088
58.10000 143.617
58.11000 145.090
58.12000 144.034
58.13000 141.608
58.14000 139.280
58.15000 138.349
58.16000 137.957
58.17000 137.352
58.18000 134.758
58.19000 131.676
58.20000 128.932
58.21000 128.111
58.22000 127.596
58.23000 127.182
58.24000 132.737
58.25000 137.698
58.26000 141.343
58.27000 141.684
58.28000 141.866
58.29000 142.104
58.30000 142.437
58.31000 142.771
58.32000 142.948
58.33000 140.741
58.34000 139.241
58.35000 137.585
58.36000 135.819
58.37000 134.146
58.38000 135.559
58.39000 138.461
58.40000 141.218
58.41000 140.237
58.42000 138.203
58.43000 136.420
58.44000 136.652
58.45000 137.323
58.46000 138.146
58.47000 139.736
58.48000 141.432
58.49000 142.759
58.50000 133.662
58.51000 125.739
58.52000 121.619
58.53000 126.026
58.54000 130.752
58.55000 134.180
58.56000 135.649
58.57000 137.099
58.58000 138.956
58.59000 141.214
58.60000 143.457
58.61000 144.460
58.62000 144.670
58.63000 144.857
58.64000 144.478
58.65000 143.855
58.66000 143.270
58.67000 140.091
58.68000 136.504
58.69000 133.471
58.70000 134.294
58.71000 135.856
58.72000 137.337
58.73000 138.458
58.74000 139.537
58.75000 140.356
58.76000 140.643
58.77000 140.841
58.78000 141.621
58.79000 143.566
58.80000 145.543
58.81000 145.258
58.82000 141.946
58.83000 138.620
58.84000 135.503
58.85000 132.572
58.86000 129.688
58.87000 129.329
58.88000 130.409
58.89000 131.658
58.90000 136.191
58.91000 141.988
58.92000 147.361
58.93000 148.657
58.94000 148.875
58.95000 148.344
58.96000 143.280
58.97000 137.453
58.98000 132.921
58.99000 133.481
59.00000 134.560
59.01000 135.353
59.02000 135.972
59.03000 136.444
59.04000 136.958
59.05000 137.549
59.06000 138.141
59.07000 138.482
59.08000 138.523
59.09000 138.564
59.10000 136.404
59.11000 132.592
59.12000 128.898
59.13000 129.632
59.14000 132.613
59.15000 135.473
59.16000 136.434
59.17000 136.744
59.18000 137.026
59.19000 139.607
59.20000 142.366
59.21000 143.895
59.22000 138.886
59.23000 132.915
59.24000 128.914
59.25000 131.795
59.26000 135.270
59.27000 137.740
59.28000 134.917
59.29000 132.599
59.30000 129.565
59.31000 125.395
59.32000 121.211
59.33000 122.063
59.34000 128.154
59.35000 134.212
59.36000 136.550
59.37000 136.380
59.38000 136.253
59.39000 137.295
59.40000 138.867
59.41000 140.485
59.42000 142.710
59.43000 145.122
59.44000 147.289
59.45000 144.984
59.46000 142.170
59.47000 139.537
59.48000 137.748
59.49000 136.068
59.50000 134.396
59.51000 132.750
59.52000 131.106
59.53000 129.980
59.54000 129.010
59.55000 128.287
59.56000 129.848
59.57000 134.635
59.58000 139.443
59.59000 139.801
59.60000 136.102
59.61000 132.438
59.62000 132.850
59.63000 135.646
59.64000 138.318
59.65000 138.316
59.66000 137.231
59.67000 136.133
59.68000 134.898
59.69000 133.625
59.70000 132.501
59.71000 134.532
59.72000 136.771
59.73000 138.174
59.74000 136.102
59.75000 133.651
59.76000 132.648
59.77000 135.668
59.78000 138.925
59.79000 141.067
59.80000 135.929
59.81000 132.020
59.82000 128.752
59.83000 126.285
59.84000 123.822
59.85000 121.973
59.86000 120.618
59.87000 119.283
59.88000 123.463
59.89000 130.379
59.90000 137.017
59.91000 138.863
59.92000 138.977
59.93000 138.945
59.94000 137.562
59.95000 135.852
59.96000 134.369
59.97000 134.157
59.98000 134.145
59.99000 133.882
60.00000 132.689
60.01000 131.410
60.02000 131.869
60.03000 136.639
60.04000 141.611
60.05000 144.743
60.06000 138.944
60.07000 134.647
60.08000 133.679
60.09000 136.383
60.10000 139.071
60.11000 139.243
60.12000 137.625
60.13000 136.040
60.14000 133.443
60.15000 130.483
60.16000 127.889
60.17000 130.441
60.18000 134.653
60.19000 137.933
60.20000 133.852
60.21000 128.192
60.22000 123.387
60.23000 129.322
60.24000 135.525
60.25000 140.077
60.26000 139.209
60.27000 137.919
60.28000 136.365
60.29000 134.224
60.30000 132.062
60.31000 130.764
60.32000 131.594
60.33000 132.198
60.34000 132.549
60.35000 132.656
60.36000 132.769
60.37000 133.364
60.38000 134.264
60.39000 135.138
60.40000 137.520
60.41000 140.393
60.42000 142.820
60.43000 140.036
60.44000 135.755
60.45000 131.983
60.46000 131.697
60.47000 132.070
60.48000 132.379
60.49000 128.836
60.50000 125.533
60.51000 123.992
60.52000 127.602
60.53000 131.544
60.54000 134.638
60.55000 136.054
60.56000 137.425
60.57000 138.206
60.58000 134.499
60.59000 131.899
60.60000 129.799
60.61000 128.124
60.62000 126.475
60.63000 126.167
60.64000 126.612
60.65000 127.041
60.66000 128.007
60.67000 129.107
60.68000 130.190
60.69000 131.103
60.70000 131.973
60.71000 132.773
60.72000 133.153
60.73000 133.463
60.74000 133.715
60.75000 135.055
60.76000 136.236
60.77000 137.702
60.78000 139.912
60.79000 142.160
60.80000 143.224
60.81000 142.198
60.82000 141.133
60.83000 140.559
60.84000 136.205
60.85000 133.236
60.86000 132.711
60.87000 134.021
60.88000 135.306
60.89000 135.724
60.90000 135.705
60.91000 135.688
60.92000 136.397
60.93000 137.284
60.94000 137.852
60.95000 135.719
60.96000 132.974
60.97000 131.157
60.98000 134.201
60.99000 137.948
61.00000 140.905
61.01000 141.568
61.02000 141.944
61.03000 142.346
61.04000 142.810
61.05000 143.277
61.06000 142.822
61.07000 140.919
61.08000 139.000
61.09000 138.028
61.10000 142.321
61.11000 145.179
61.12000 146.432
61.13000 146.615
61.14000 146.760
61.15000 145.874
61.16000 144.527
61.17000 143.257
61.18000 142.078
61.19000 141.024
61.20000 140.508
61.21000 143.915
61.22000 148.107
61.23000 151.413
61.24000 150.623
61.25000 149.318
61.26000 148.318
61.27000 146.981
61.28000 145.905
61.29000 144.865
61.30000 143.897
61.31000 142.931
61.32000 143.348
61.33000 145.693
61.34000 148.050
61.35000 148.381
61.36000 146.891
61.37000 145.427
61.38000 145.643
61.39000 146.852
61.40000 147.888
61.41000 145.308
61.42000 141.281
61.43000 137.532
61.44000 137.965
61.45000 139.374
61.46000 140.765
61.47000 142.047
61.48000 143.310
61.49000 145.910
61.50000 153.988
61.51000 162.654
61.52000 169.100
61.53000 189.231
61.54000 205.500
61.55000 217.041
61.56000 219.806
61.57000 222.374
61.58000 232.247
61.59000 251.135
61.60000 270.012
61.61000 283.592
61.62000 292.928
61.63000 302.314
61.64000 313.853
61.65000 326.526
61.66000 338.733
61.67000 343.102
61.68000 344.671
61.69000 346.112
61.70000 350.031
61.71000 354.056
61.72000 356.720
61.73000 351.829
61.74000 345.775
61.75000 339.662
61.76000 333.333
61.77000 326.985
61.78000 322.418
61.79000 302.462
61.80000 286.648
61.81000 270.310
61.82000 253.108
61.83000 235.892
61.84000 221.276
61.85000 209.486
61.86000 197.749
61.87000 186.921
61.88000 176.839
61.89000 166.899
61.90000 161.336
61.91000 157.833
61.92000 154.510
61.93000 153.638
61.94000 153.548
61.95000 153.466
61.96000 155.673
61.97000 158.040
61.98000 158.756
61.99000 151.396
62.00000 142.957
62.01000 138.137
62.02000 145.040
62.03000 152.839
62.04000 158.251
62.05000 149.311
62.06000 142.198
62.07000 138.378
62.08000 139.404
62.09000 140.472
62.10000 141.961
62.11000 143.850
62.12000 145.723
62.13000 147.686
62.14000 149.669
62.15000 151.547
62.16000 150.965
62.17000 149.350
62.18000 147.795
62.19000 146.939
62.20000 146.281
62.21000 145.696
62.22000 148.428
62.23000 151.335
62.24000 152.864
62.25000 148.442
62.26000 143.334
62.27000 139.074
62.28000 137.266
62.29000 135.612
62.30000 134.509
62.31000 138.815
62.32000 142.109
62.33000 144.288
62.34000 145.012
62.35000 145.727
62.36000 144.714
62.37000 142.252
62.38000 139.821
62.39000 141.402
62.40000 145.112
62.41000 148.736
62.42000 150.790
62.43000 152.255
62.44000 153.176
62.45000 148.822
62.46000 143.138
62.47000 138.178
62.48000 141.722
62.49000 145.942
62.50000 148.808
62.51000 146.482
62.52000 143.645
62.53000 141.373
62.54000 140.559
62.55000 139.819
62.56000 139.345
62.57000 143.717
62.58000 146.963
62.59000 149.781
62.60000 152.106
62.61000 154.421
62.62000 154.953
62.63000 154.165
62.64000 153.392
62.65000 151.313
62.66000 148.684
62.67000 146.162
62.68000 145.250
62.69000 144.879
62.70000 144.592
62.71000 145.010
62.72000 145.585
62.73000 146.078
62.74000 147.252
62.75000 148.323
62.76000 148.747
62.77000 146.959
62.78000 144.989
62.79000 144.502
62.80000 147.430
62.81000 150.495
62.82000 152.366
62.83000 147.763
62.84000 144.418
62.85000 145.097
62.86000 149.842
62.87000 154.538
62.88000 154.414
62.89000 151.122
62.90000 147.915
62.91000 146.106
62.92000 144.971
62.93000 143.804
62.94000 142.243
62.95000 140.563
62.96000 139.333
62.97000 141.324
62.98000 143.952
62.99000 146.151
63.00000 147.994
63.01000 149.489
63.02000 151.207
63.03000 153.602
63.04000 156.044
63.05000 154.813
63.06000 146.029
63.07000 137.019
63.08000 131.787
63.09000 137.461
63.10000 141.487
63.11000 141.053
63.12000 136.662
63.13000 132.380
63.14000 134.547
63.15000 140.486
63.16000 146.224
63.17000 144.999
63.18000 141.250
63.19000 138.297
63.20000 143.641
63.21000 151.193
63.22000 157.978
63.23000 159.980
63.24000 161.151
63.25000 162.108
63.26000 157.030
63.27000 152.350
63.28000 147.406
63.29000 141.750
63.30000 136.054
63.31000 135.320
63.32000 143.686
63.33000 152.247
63.34000 156.952
63.35000 170.424
63.36000 179.679
63.37000 179.497
63.38000 171.929
63.39000 164.426
63.40000 159.535
63.41000 156.005
63.42000 152.627
63.43000 150.735
63.44000 149.461
63.45000 148.479
63.46000 150.094
63.47000 152.321
63.48000 154.225
63.49000 154.358
63.50000 154.222
63.51000 154.113
63.52000 158.497
63.53000 162.357
63.54000 163.975
63.55000 160.164
63.56000 156.111
63.57000 155.122
63.58000 159.140
63.59000 163.228
63.60000 165.344
63.61000 149.558
63.62000 138.975
63.63000 136.544
63.64000 139.765
63.65000 143.022
63.66000 147.332
63.67000 152.132
63.68000 156.676
63.69000 155.208
63.70000 152.118
63.71000 149.699
63.72000 152.418
63.73000 156.209
63.74000 159.009
63.75000 157.027
63.76000 154.414
63.77000 152.390
63.78000 154.766
63.79000 156.914
63.80000 158.344
63.81000 158.220
63.82000 158.043
63.83000 157.300
63.84000 155.736
63.85000 154.166
63.86000 152.986
63.87000 152.172
63.88000 151.385
63.89000 152.475
63.90000 154.723
63.91000 156.871
63.92000 156.775
63.93000 155.745
63.94000 154.783
63.95000 156.857
63.96000 159.514
63.97000 162.239
63.98000 165.414
63.99000 168.673
64.00000 171.935
64.01000 175.213
64.02000 178.494
64.03000 180.960
64.04000 167.642
64.05000 156.468
64.06000 150.862
64.07000 156.005
64.08000 161.418
64.09000 162.031
64.10000 156.472
64.11000 150.895
64.12000 149.145
64.13000 150.556
64.14000 151.934
64.15000 151.699
64.16000 150.580
64.17000 149.619
64.18000 151.519
64.19000 154.480
64.20000 157.213
64.21000 159.625
64.22000 161.715
64.23000 163.829
64.24000 166.081
64.25000 168.355
64.26000 170.563
64.27000 172.521
64.28000 174.455
64.29000 175.863
64.30000 170.452
64.31000 166.027
64.32000 165.075
64.33000 170.098
64.34000 175.223
64.35000 176.776
64.36000 174.271
64.37000 171.772
64.38000 170.077
64.39000 168.981
64.40000 168.010
64.41000 171.288
64.42000 176.647
64.43000 181.632
64.44000 181.139
64.45000 178.832
64.46000 176.735
64.47000 172.919
64.48000 169.211
64.49000 166.879
64.50000 171.571
64.51000 177.248
64.52000 180.592
64.53000 176.076
64.54000 170.922
64.55000 167.300
64.56000 172.454
64.57000 176.614
64.58000 179.300
64.59000 179.728
64.60000 180.131
64.61000 179.375
64.62000 177.463
64.63000 175.563
64.64000 173.843
64.65000 172.263
64.66000 170.835
64.67000 173.277
64.68000 177.409
64.69000 181.330
64.70000 182.677
64.71000 183.265
64.72000 183.790
64.73000 186.605
64.74000 189.448
64.75000 191.709
64.76000 191.353
64.77000 190.679
64.78000 189.433
64.79000 186.466
64.80000 183.383
64.81000 181.298
64.82000 190.993
64.83000 198.469
64.84000 201.179
64.85000 197.413
64.86000 193.614
64.87000 192.608
64.88000 194.047
64.89000 195.470
64.90000 196.009
64.91000 196.036
64.92000 196.007
64.93000 194.827
64.94000 193.199
64.95000 191.837
64.96000 193.203
64.97000 195.286
64.98000 197.115
64.99000 202.236
65.00000 207.123
65.01000 211.310
65.02000 212.708
65.03000 213.816
65.04000 216.098
65.05000 221.520
65.06000 227.115
65.07000 230.746
65.08000 236.804
65.09000 241.277
65.10000 240.972
65.11000 234.929
65.12000 228.900
65.13000 229.266
65.14000 234.572
65.15000 239.790
65.16000 246.941
65.17000 254.822
65.18000 262.484
65.19000 266.620
65.20000 269.528
65.21000 273.176
65.22000 283.300
65.23000 294.932
65.24000 304.951
65.25000 318.007
65.26000 329.454
65.27000 340.436
65.28000 349.763
65.29000 358.946
65.30000 364.062
65.31000 359.453
65.32000 354.423
65.33000 351.301
65.34000 378.952
65.35000 399.147
65.36000 410.726
65.37000 413.200
65.38000 415.714
65.39000 423.152
65.40000 433.961
65.41000 444.518
65.42000 445.815
65.43000 442.982
65.44000 441.150
65.45000 452.544
65.46000 468.048
65.47000 481.426
65.48000 478.785
65.49000 472.844
65.50000 467.834
65.51000 475.006
65.52000 482.314
65.53000 485.971
65.54000 478.097
65.55000 469.376
65.56000 465.670
65.57000 472.676
65.58000 480.038
65.59000 484.388
65.60000 474.154
65.61000 466.846
65.62000 468.751
65.63000 479.192
65.64000 489.596
65.65000 497.481
65.66000 503.833
65.67000 509.989
65.68000 528.275
65.69000 550.299
65.70000 573.971
65.71000 615.865
65.72000 662.802
65.73000 711.899
65.74000 775.139
65.75000 840.945
65.76000 895.165
65.77000 987.253
65.78000 1066.500
65.79000 1137.542
65.80000 1185.466
65.81000 1231.997
65.82000 1277.412
65.83000 1320.700
65.84000 1363.936
65.85000 1388.157
65.86000 1405.055
65.87000 1416.723
65.88000 1418.441
65.89000 1412.039
65.90000 1405.497
65.91000 1392.607
65.92000 1376.275
65.93000 1360.594
65.94000 1323.528
65.95000 1281.523
65.96000 1236.326
65.97000 1161.189
65.98000 1078.694
65.99000 997.135
66.00000 920.938
66.01000 845.592
66.02000 785.044
66.03000 695.364
66.04000 620.430
66.05000 555.318
66.06000 514.918
66.07000 475.712
66.08000 442.906
66.09000 420.975
66.10000 399.223
66.11000 387.729
66.12000 375.981
66.13000 367.983
66.14000 356.959
66.15000 343.751
66.16000 330.824
66.17000 327.091
66.18000 327.803
66.19000 328.480
66.20000 326.287
66.21000 323.394
66.22000 321.281
66.23000 325.441
66.24000 330.967
66.25000 337.397
66.26000 348.377
66.27000 359.985
66.28000 369.065
66.29000 386.934
66.30000 401.760
66.31000 417.959
66.32000 437.244
66.33000 456.644
66.34000 473.660
66.35000 487.070
66.36000 500.444
66.37000 505.306
66.38000 501.807
66.39000 498.443
66.40000 506.532
66.41000 521.962
66.42000 536.815
66.43000 537.400
66.44000 531.824
66.45000 526.587
66.46000 520.999
66.47000 515.808
66.48000 511.191
66.49000 510.565
66.50000 510.705
66.51000 507.898
66.52000 491.986
66.53000 474.511
66.54000 461.236
66.55000 439.466
66.56000 421.912
66.57000 407.444
66.58000 399.164
66.59000 391.058
66.60000 383.288
66.61000 375.970
66.62000 368.660
66.63000 360.580
66.64000 351.853
66.65000 343.274
66.66000 342.720
66.67000 346.744
66.68000 350.530
66.69000 349.663
66.70000 347.004
66.71000 344.539
66.72000 335.702
66.73000 326.262
66.74000 319.292
66.75000 327.320
66.76000 337.877
66.77000 346.135
66.78000 345.334
66.79000 343.607
66.80000 342.336
66.81000 345.203
66.82000 347.592
66.83000 349.036
66.84000 348.787
66.85000 348.505
66.86000 348.920
66.87000 350.160
66.88000 351.398
66.89000 351.958
66.90000 352.002
66.91000 352.073
66.92000 353.217
66.93000 354.905
66.94000 356.715
66.95000 360.423
66.96000 364.786
66.97000 368.772
66.98000 375.442
66.99000 381.914
67.00000 386.424
67.01000 380.483
67.02000 373.003
67.03000 368.306
67.04000 373.353
67.05000 379.241
67.06000 383.429
67.07000 384.643
67.08000 385.471
67.09000 388.505
67.10000 395.051
67.11000 401.642
67.12000 405.403
67.13000 406.215
67.14000 407.023
67.15000 408.793
67.16000 411.181
67.17000 413.447
67.18000 412.278
67.19000 409.549
67.20000 407.099
67.21000 408.268
67.22000 410.548
67.23000 412.598
67.24000 406.888
67.25000 400.507
67.26000 396.360
67.27000 402.707
67.28000 410.394
67.29000 416.332
67.30000 416.816
67.31000 416.907
67.32000 416.970
67.33000 426.460
67.34000 433.796
67.35000 438.987
67.36000 441.145
67.37000 443.280
67.38000 446.029
67.39000 449.338
67.40000 452.615
67.41000 457.306
67.42000 462.732
67.43000 467.770
67.44000 464.411
67.45000 457.646
67.46000 451.979
67.47000 458.228
67.48000 467.731
67.49000 476.130
67.50000 473.644
67.51000 469.816
67.52000 466.019
67.53000 462.352
67.54000 458.699
67.55000 459.214
67.56000 471.329
67.57000 484.128
67.58000 492.554
67.59000 483.790
67.60000 477.040
67.61000 474.482
67.62000 477.177
67.63000 479.892
67.64000 484.082
67.65000 489.460
67.66000 494.758
67.67000 500.926
67.68000 507.364
67.69000 513.061
67.70000 505.988
67.71000 494.291
67.72000 484.742
67.73000 495.000
67.74000 510.065
67.75000 523.127
67.76000 532.714
67.77000 540.413
67.78000 545.736
67.79000 542.294
67.80000 538.035
67.81000 536.529
67.82000 541.864
67.83000 547.522
67.84000 551.088
67.85000 562.344
67.86000 570.580
67.87000 577.931
67.88000 584.303
67.89000 590.572
67.90000 582.071
67.91000 563.042
67.92000 544.411
67.93000 547.927
67.94000 561.469
67.95000 574.534
67.96000 580.892
67.97000 585.084
67.98000 589.031
67.99000 591.041
68.00000 592.635
68.01000 593.989
68.02000 593.939
68.03000 593.737
68.04000 593.597
68.05000 593.660
68.06000 593.738
68.07000 597.427
68.08000 609.126
68.09000 621.119
68.10000 628.326
68.11000 636.199
68.12000 641.800
68.13000 645.430
68.14000 647.152
68.15000 648.875
68.16000 650.712
68.17000 652.621
68.18000 654.476
68.19000 658.230
68.20000 662.568
68.21000 666.970
68.22000 672.136
68.23000 677.522
68.24000 682.802
68.25000 687.356
68.26000 691.774
68.27000 695.443
68.28000 706.733
68.29000 716.810
68.30000 725.038
68.31000 727.852
68.32000 730.317
68.33000 730.822
68.34000 727.444
68.35000 723.961
68.36000 721.973
68.37000 743.893
68.38000 759.256
68.39000 769.490
68.40000 775.356
68.41000 781.173
68.42000 784.494
68.43000 786.408
68.44000 788.251
68.45000 804.474
68.46000 824.855
68.47000 844.638
68.48000 858.502
68.49000 870.852
68.50000 884.649
68.51000 907.113
68.52000 931.017
68.53000 950.395
68.54000 963.429
68.55000 973.530
68.56000 989.875
68.57000 1022.538
68.58000 1056.052
68.59000 1087.826
68.60000 1116.521
68.61000 1145.158
68.62000 1160.602
68.63000 1243.634
68.64000 1300.497
68.65000 1358.200
68.66000 1416.533
68.67000 1475.344
68.68000 1551.510
68.69000 1636.398
68.70000 1717.354
68.71000 1795.760
68.72000 1867.703
68.73000 1938.991
68.74000 2004.744
68.75000 2069.241
68.76000 2137.730
68.77000 2227.185
68.78000 2319.681
68.79000 2392.710
68.80000 2476.034
68.81000 2543.601
68.82000 2617.402
68.83000 2705.757
68.84000 2794.709
68.85000 2927.524
68.86000 3129.332
68.87000 3331.981
68.88000 3434.676
68.89000 4044.932
68.90000 4456.668
68.91000 5180.359
68.92000 6112.146
68.93000 7081.567
68.94000 9071.412
68.95000 11519.021
68.96000 13827.107
68.97000 18237.602
68.98000 22861.969
68.99000 27683.314
69.00000 33943.570
69.01000 40492.281
69.02000 47022.211
69.03000 53465.117
69.04000 59897.098
69.05000 64832.848
69.06000 70221.188
69.07000 74504.547
69.08000 78003.172
69.09000 79866.125
69.10000 81678.102
69.11000 82971.063
69.12000 83539.086
69.13000 84102.047
69.14000 84726.609
69.15000 85406.016
69.16000 86085.656
69.17000 86780.000
69.18000 87483.063
69.19000 88126.086
69.20000 87505.250
69.21000 86378.078
69.22000 85328.469
69.23000 81904.297
69.24000 78228.883
69.25000 74531.805
69.26000 70697.086
69.27000 66838.086
69.28000 62994.297
69.29000 59212.871
69.30000 55438.168
69.31000 52629.426
69.32000 49760.590
69.33000 47525.969
69.34000 45624.598
69.35000 44343.012
69.36000 43075.359
69.37000 41713.926
69.38000 40236.574
69.39000 38761.547
69.40000 36644.918
69.41000 34030.660
69.42000 31406.238
69.43000 28352.602
69.44000 25072.016
69.45000 21808.971
69.46000 18841.383
69.47000 15979.481
69.48000 13351.462
69.49000 10995.273
69.50000 8951.253
69.51000 7042.343
69.52000 5885.184
69.53000 4843.984
69.54000 3927.395
69.55000 3464.828
69.56000 3043.822
69.57000 2740.820
69.58000 2458.819
69.59000 2243.631
69.60000 2072.540
69.61000 1974.524
69.62000 1877.609
69.63000 1787.926
69.64000 1706.121
69.65000 1624.674
69.66000 1547.478
69.67000 1474.041
69.68000 1401.701
69.69000 1363.074
69.70000 1340.356
69.71000 1316.664
69.72000 1279.540
69.73000 1238.131
69.74000 1200.687
69.75000 1167.535
69.76000 1139.160
69.77000 1115.394
69.78000 1114.192
69.79000 1116.016
69.80000 1107.373
69.81000 1064.783
69.82000 1019.590
69.83000 988.217
69.84000 985.885
69.85000 984.904
69.86000 973.003
69.87000 945.015
69.88000 916.884
69.89000 899.545
69.90000 892.510
69.91000 885.531
69.92000 884.899
69.93000 888.175
69.94000 890.704
69.95000 875.722
69.96000 853.360
69.97000 832.261
69.98000 825.690
69.99000 823.247
70.00000 821.075
