20.00000 598.029
20.01000 588.462
20.02000 577.529
20.03000 569.892
20.04000 575.101
20.05000 581.604
20.06000 586.376
20.07000 593.308
20.08000 598.753
20.09000 600.722
20.10000 596.536
20.11000 592.233
20.12000 585.752
20.13000 576.721
20.14000 567.710
20.15000 567.072
20.16000 572.706
20.17000 578.391
20.18000 585.924
20.19000 594.388
20.20000 601.467
20.21000 587.177
20.22000 565.607
20.23000 545.926
20.24000 552.797
20.25000 564.248
20.26000 574.161
20.27000 575.976
20.28000 576.613
20.29000 576.376
20.30000 573.110
20.31000 569.586
20.32000 567.088
20.33000 571.020
20.34000 574.212
20.35000 575.518
20.36000 573.849
20.37000 572.144
20.38000 570.864
20.39000 570.023
20.40000 569.187
20.41000 567.357
20.42000 564.896
20.43000 562.384
20.44000 558.470
20.45000 553.927
20.46000 550.533
20.47000 561.773
20.48000 577.459
20.49000 591.544
20.50000 580.475
20.51000 566.370
20.52000 555.886
20.53000 562.214
20.54000 570.660
20.55000 575.570
20.56000 569.560
20.57000 562.777
20.58000 558.145
20.59000 560.999
20.60000 563.310
20.61000 563.435
20.62000 560.500
20.63000 557.546
20.64000 555.996
20.65000 555.717
20.66000 555.440
20.67000 555.470
20.68000 555.677
20.69000 556.072
20.70000 560.447
20.71000 566.420
20.72000 572.315
20.73000 577.378
20.74000 582.215
20.75000 586.483
20.76000 572.318
20.77000 557.290
20.78000 545.303
20.79000 545.822
20.80000 547.694
20.81000 553.399
20.82000 569.666
20.83000 586.543
20.84000 597.613
20.85000 588.754
20.86000 581.907
20.87000 577.187
20.88000 575.103
20.89000 573.027
20.90000 571.326
20.91000 569.922
20.92000 568.539
20.93000 570.596
20.94000 574.358
20.95000 577.956
20.96000 578.766
20.97000 578.577
20.98000 577.344
20.99000 566.611
21.00000 553.597
21.01000 542.332
21.02000 552.913
21.03000 564.783
21.04000 575.027
21.05000 579.333
21.06000 583.094
21.07000 583.651
21.08000 576.326
21.09000 568.639
21.10000 563.813
21.11000 561.532
21.12000 559.912
21.13000 560.172
21.14000 562.487
21.15000 564.801
21.16000 566.867
21.17000 568.759
21.18000 570.610
21.19000 572.589
21.20000 574.545
21.21000 576.138
21.22000 572.691
21.23000 567.632
21.24000 563.850
21.25000 570.052
21.26000 578.374
21.27000 585.430
21.28000 574.479
21.29000 563.272
21.30000 556.696
21.31000 565.177
21.32000 574.817
21.33000 578.119
21.34000 567.495
21.35000 556.374
21.36000 549.719
21.37000 566.782
21.38000 579.044
21.39000 580.609
21.40000 571.934
21.41000 563.357
21.42000 562.260
21.43000 565.849
21.44000 569.334
21.45000 569.421
21.46000 568.141
21.47000 567.099
21.48000 568.810
21.49000 571.306
21.50000 573.990
21.51000 577.941
21.52000 582.131
21.53000 585.604
21.54000 597.695
21.55000 608.505
21.56000 617.556
21.57000 621.505
21.58000 625.130
21.59000 629.448
21.60000 635.126
21.61000 640.839
21.62000 644.084
21.63000 652.441
21.64000 658.289
21.65000 671.017
21.66000 689.537
21.67000 707.888
21.68000 717.734
21.69000 722.838
21.70000 727.750
21.71000 747.346
21.72000 770.926
21.73000 794.262
21.74000 815.215
21.75000 835.564
21.76000 856.403
21.77000 880.133
21.78000 904.338
21.79000 923.915
21.80000 938.505
21.81000 949.975
21.82000 960.558
21.83000 968.847
21.84000 977.018
21.85000 993.186
21.86000 1023.338
21.87000 1053.747
21.88000 1070.060
21.89000 1096.994
21.90000 1115.310
21.91000 1118.277
21.92000 1109.821
21.93000 1101.498
21.94000 1097.876
21.95000 1096.592
21.96000 1095.369
21.97000 1079.098
21.98000 1059.324
21.99000 1041.535
22.00000 1040.320
22.01000 1042.827
22.02000 1041.186
22.03000 1018.003
22.04000 991.735
22.05000 971.045
22.06000 941.146
22.07000 916.568
22.08000 893.627
22.09000 874.469
22.10000 855.462
22.11000 834.294
22.12000 809.761
22.13000 785.189
22.14000 772.809
22.15000 745.190
22.16000 726.847
22.17000 719.793
22.18000 720.193
22.19000 719.930
22.20000 702.120
22.21000 676.517
22.22000 652.400
22.23000 642.397
22.24000 637.120
22.25000 631.440
22.26000 622.858
22.27000 613.701
22.28000 604.003
22.29000 591.825
22.30000 579.339
22.31000 569.783
22.32000 585.270
22.33000 598.861
22.34000 606.032
22.35000 599.956
22.36000 593.478
22.37000 583.351
22.38000 568.181
22.39000 552.985
22.40000 551.724
22.41000 562.865
22.42000 573.846
22.43000 575.281
22.44000 571.110
22.45000 567.378
22.46000 572.705
22.47000 581.625
22.48000 589.922
22.49000 576.093
22.50000 558.269
22.51000 543.482
22.52000 547.764
22.53000 555.369
22.54000 561.891
22.55000 564.014
22.56000 565.669
22.57000 566.897
22.58000 576.223
22.59000 583.823
22.60000 582.704
22.61000 565.536
22.62000 548.017
22.63000 544.298
22.64000 557.447
22.65000 570.612
22.66000 567.285
22.67000 551.080
22.68000 535.403
22.69000 541.402
22.70000 558.747
22.71000 574.629
22.72000 566.334
22.73000 549.478
22.74000 534.020
22.75000 533.939
22.76000 537.114
22.77000 540.035
22.78000 541.561
22.79000 542.874
22.80000 544.563
22.81000 547.609
22.82000 550.778
22.83000 553.051
22.84000 553.844
22.85000 554.399
22.86000 552.026
22.87000 544.850
22.88000 537.605
22.89000 536.309
22.90000 541.417
22.91000 546.505
22.92000 542.372
22.93000 531.938
22.94000 521.838
22.95000 521.791
22.96000 526.439
22.97000 531.172
22.98000 537.041
22.99000 543.270
23.00000 548.894
23.01000 547.427
23.02000 544.831
23.03000 542.853
23.04000 543.868
23.05000 545.278
23.06000 545.801
23.07000 543.474
23.08000 540.931
23.09000 539.171
23.10000 530.596
23.11000 523.968
23.12000 519.987
23.13000 519.864
23.14000 519.775
23.15000 521.655
23.16000 525.394
23.17000 529.101
23.18000 537.356
23.19000 548.219
23.20000 558.354
23.21000 551.755
23.22000 538.176
23.23000 525.566
23.24000 523.940
23.25000 525.403
23.26000 526.701
23.27000 529.523
23.28000 532.213
23.29000 533.991
23.30000 531.862
23.31000 529.288
23.32000 524.997
23.33000 515.789
23.34000 506.276
23.35000 499.947
23.36000 514.224
23.37000 525.173
23.38000 530.120
23.39000 527.314
23.40000 524.482
23.41000 523.820
23.42000 524.963
23.43000 526.090
23.44000 525.151
23.45000 523.129
23.46000 521.580
23.47000 528.632
23.48000 538.889
23.49000 547.146
23.50000 536.230
23.51000 520.519
23.52000 506.829
23.53000 509.894
23.54000 514.831
23.55000 518.561
23.56000 517.704
23.57000 516.402
23.58000 515.367
23.59000 515.020
23.60000 514.706
23.61000 514.506
23.62000 514.979
23.63000 515.332
23.64000 520.272
23.65000 530.440
23.66000 540.547
23.67000 538.898
23.68000 528.616
23.69000 518.532
23.70000 520.299
23.71000 527.609
23.72000 534.481
23.73000 534.857
23.74000 533.073
23.75000 531.664
23.76000 533.333
23.77000 535.683
23.78000 537.691
23.79000 528.547
23.80000 519.521
23.81000 511.707
23.82000 507.991
23.83000 504.610
23.84000 503.705
23.85000 508.453
23.86000 513.422
23.87000 516.445
23.88000 529.369
23.89000 538.677
23.90000 540.673
23.91000 535.350
23.92000 530.000
23.93000 522.164
23.94000 512.708
23.95000 503.501
23.96000 508.195
23.97000 518.481
23.98000 527.712
23.99000 524.023
24.00000 516.505
24.01000 509.219
24.02000 503.572
24.03000 498.245
24.04000 493.795
24.05000 501.472
24.06000 509.071
24.07000 513.456
24.08000 508.154
24.09000 502.194
24.10000 498.616
24.11000 499.891
24.12000 501.310
24.13000 502.130
24.14000 519.432
24.15000 531.619
24.16000 534.137
24.17000 528.158
24.18000 522.157
24.19000 514.857
24.20000 506.803
24.21000 499.028
24.22000 503.490
24.23000 512.210
24.24000 520.065
24.25000 518.987
24.26000 515.554
24.27000 512.333
24.28000 510.423
24.29000 508.738
24.30000 507.364
24.31000 508.357
24.32000 509.370
24.33000 510.048
24.34000 509.822
24.35000 509.546
24.36000 508.942
24.37000 507.741
24.38000 506.529
24.39000 505.865
24.40000 499.608
24.41000 495.314
24.42000 495.003
24.43000 497.782
24.44000 500.475
24.45000 499.771
24.46000 497.310
24.47000 494.957
24.48000 499.975
24.49000 507.043
24.50000 513.730
24.51000 517.058
24.52000 519.600
24.53000 520.660
24.54000 513.683
24.55000 505.499
24.56000 498.994
24.57000 505.233
24.58000 511.168
24.59000 514.384
24.60000 511.074
24.61000 507.478
24.62000 506.718
24.63000 510.551
24.64000 514.448
24.65000 516.454
24.66000 510.847
24.67000 507.088
24.68000 505.485
24.69000 505.364
24.70000 505.035
24.71000 498.678
24.72000 489.539
24.73000 480.895
24.74000 483.276
24.75000 488.625
24.76000 493.479
24.77000 494.581
24.78000 494.907
24.79000 495.886
24.80000 499.981
24.81000 504.483
24.82000 507.963
24.83000 514.514
24.84000 519.891
24.85000 524.723
24.86000 528.387
24.87000 532.012
24.88000 530.584
24.89000 521.883
24.90000 513.126
24.91000 506.043
24.92000 500.523
24.93000 495.070
24.94000 494.400
24.95000 496.649
24.96000 498.930
24.97000 501.926
24.98000 505.217
24.99000 508.291
25.00000 506.230
25.01000 503.066
25.02000 499.683
25.03000 494.864
25.04000 489.783
25.05000 486.585
25.06000 491.349
25.07000 497.006
25.08000 501.249
25.09000 505.018
25.10000 507.939
25.11000 507.993
25.12000 502.559
25.13000 496.991
25.14000 492.493
25.15000 489.357
25.16000 486.230
25.17000 488.320
25.18000 494.663
25.19000 500.871
25.20000 500.895
25.21000 497.552
25.22000 493.974
25.23000 486.207
25.24000 476.899
25.25000 468.320
25.26000 478.175
25.27000 491.069
25.28000 501.333
25.29000 496.473
25.30000 489.200
25.31000 482.903
25.32000 480.267
25.33000 477.981
25.34000 476.322
25.35000 476.839
25.36000 477.318
25.37000 478.335
25.38000 480.270
25.39000 482.220
25.40000 483.128
25.41000 482.862
25.42000 482.596
25.43000 490.685
25.44000 504.707
25.45000 518.249
25.46000 515.943
25.47000 505.942
25.48000 496.535
25.49000 495.711
25.50000 497.705
25.51000 499.515
25.52000 498.623
25.53000 497.314
25.54000 496.102
25.55000 495.380
25.56000 494.727
25.57000 493.526
25.58000 490.494
25.59000 487.315
25.60000 485.088
25.61000 483.879
25.62000 482.993
25.63000 482.191
25.64000 481.516
25.65000 480.842
25.66000 485.112
25.67000 494.260
25.68000 503.344
25.69000 503.155
25.70000 497.097
25.71000 490.953
25.72000 482.685
25.73000 473.496
25.74000 465.586
25.75000 473.044
25.76000 484.999
25.77000 495.674
25.78000 493.473
25.79000 489.393
25.80000 486.168
25.81000 486.761
25.82000 487.813
25.83000 489.366
25.84000 492.415
25.85000 495.564
25.86000 497.687
25.87000 494.835
25.88000 492.608
25.89000 490.329
25.90000 487.980
25.91000 485.631
25.92000 483.521
25.93000 481.620
25.94000 479.740
25.95000 485.382
25.96000 495.091
25.97000 504.300
25.98000 503.670
25.99000 499.232
26.00000 495.525
26.01000 499.232
26.02000 504.868
26.03000 509.811
26.04000 500.319
26.05000 490.069
26.06000 481.084
26.07000 477.107
26.08000 473.643
26.09000 471.661
26.10000 473.612
26.11000 475.776
26.12000 477.175
26.13000 476.882
26.14000 476.643
26.15000 476.935
26.16000 477.860
26.17000 478.772
26.18000 476.606
26.19000 472.084
26.20000 467.638
26.21000 468.299
26.22000 471.458
26.23000 474.688
26.24000 479.041
26.25000 483.782
26.26000 488.267
26.27000 490.536
26.28000 492.293
26.29000 493.805
26.30000 494.386
26.31000 494.761
26.32000 495.484
26.33000 497.431
26.34000 499.483
26.35000 498.451
26.36000 490.104
26.37000 481.445
26.38000 476.090
26.39000 477.347
26.40000 478.313
26.41000 478.659
26.42000 478.357
26.43000 478.035
26.44000 475.527
26.45000 471.535
26.46000 467.639
26.47000 473.367
26.48000 483.043
26.49000 491.969
26.50000 491.129
26.51000 487.280
26.52000 483.152
26.53000 476.943
26.54000 470.310
26.55000 464.726
26.56000 469.980
26.57000 475.522
26.58000 480.099
26.59000 481.657
26.60000 482.995
26.61000 482.297
26.62000 477.286
26.63000 472.134
26.64000 469.102
26.65000 482.829
26.66000 492.598
26.67000 492.700
26.68000 483.931
26.69000 475.263
26.70000 473.214
26.71000 475.159
26.72000 477.042
26.73000 474.864
26.74000 471.240
26.75000 467.967
26.76000 468.520
26.77000 470.123
26.78000 470.986
26.79000 467.054
26.80000 462.261
26.81000 458.319
26.82000 468.253
26.83000 477.675
26.84000 483.972
26.85000 481.537
26.86000 478.583
26.87000 477.106
26.88000 478.420
26.89000 479.799
26.90000 480.569
26.91000 485.478
26.92000 488.863
26.93000 484.654
26.94000 474.305
26.95000 464.208
26.96000 465.353
26.97000 472.539
26.98000 479.434
26.99000 483.902
27.00000 487.252
27.01000 489.250
27.02000 478.714
27.03000 465.125
27.04000 454.218
27.05000 458.506
27.06000 465.185
27.07000 470.541
27.08000 470.814
27.09000 470.650
27.10000 471.407
27.11000 474.465
27.12000 477.632
27.13000 481.608
27.14000 486.946
27.15000 492.305
27.16000 495.125
27.17000 484.002
27.18000 476.491
27.19000 474.725
27.20000 477.068
27.21000 479.309
27.22000 478.239
27.23000 475.583
27.24000 473.061
27.25000 475.442
27.26000 479.107
27.27000 482.125
27.28000 479.990
27.29000 476.744
27.30000 474.219
27.31000 475.285
27.32000 476.843
27.33000 478.059
27.34000 478.936
27.35000 479.614
27.36000 477.551
27.37000 469.382
27.38000 460.988
27.39000 460.742
27.40000 472.705
27.41000 484.787
27.42000 486.622
27.43000 478.491
27.44000 470.423
27.45000 467.512
27.46000 467.877
27.47000 468.229
27.48000 468.239
27.49000 468.103
27.50000 467.975
27.51000 460.173
27.52000 451.042
27.53000 443.108
27.54000 443.418
27.55000 445.295
27.56000 447.644
27.57000 452.068
27.58000 456.736
27.59000 460.275
27.60000 461.728
27.61000 462.762
27.62000 465.888
27.63000 473.173
27.64000 480.574
27.65000 482.564
27.66000 477.367
27.67000 472.139
27.68000 475.162
27.69000 485.219
27.70000 494.908
27.71000 485.280
27.72000 464.724
27.73000 445.259
27.74000 446.676
27.75000 456.078
27.76000 464.784
27.77000 464.247
27.78000 461.628
27.79000 460.251
27.80000 466.344
27.81000 473.683
27.82000 477.045
27.83000 464.874
27.84000 451.136
27.85000 441.050
27.86000 459.250
27.87000 474.467
27.88000 480.148
27.89000 468.915
27.90000 457.356
27.91000 448.736
27.92000 443.566
27.93000 438.415
27.94000 444.888
27.95000 460.038
27.96000 474.821
27.97000 476.084
27.98000 470.526
27.99000 465.556
28.00000 469.676
28.01000 476.899
28.02000 483.491
28.03000 477.065
28.04000 468.733
28.05000 462.137
28.06000 464.701
28.07000 468.600
28.08000 471.814
28.09000 472.646
28.10000 473.276
28.11000 473.723
28.12000 474.069
28.13000 474.329
28.14000 476.236
28.15000 480.745
28.16000 485.286
28.17000 480.814
28.18000 467.039
28.19000 453.342
28.20000 446.082
28.21000 443.171
28.22000 440.592
28.23000 447.081
28.24000 457.654
28.25000 467.583
28.26000 469.285
28.27000 468.483
28.28000 467.763
28.29000 472.442
28.30000 477.487
28.31000 481.048
28.32000 477.700
28.33000 473.480
28.34000 471.112
28.35000 474.474
28.36000 478.242
28.37000 480.817
28.38000 464.862
28.39000 452.488
28.40000 448.068
28.41000 454.804
28.42000 461.613
28.43000 463.965
28.44000 462.281
28.45000 460.614
28.46000 456.405
28.47000 450.801
28.48000 445.663
28.49000 450.381
28.50000 459.064
28.51000 467.022
28.52000 467.212
28.53000 465.297
28.54000 463.608
28.55000 459.883
28.56000 456.357
28.57000 453.813
28.58000 455.307
28.59000 457.239
28.60000 456.383
28.61000 447.831
28.62000 438.832
28.63000 432.926
28.64000 441.365
28.65000 447.813
28.66000 447.791
28.67000 439.736
28.68000 431.691
28.69000 434.152
28.70000 444.995
28.71000 455.674
28.72000 452.759
28.73000 442.932
28.74000 433.602
28.75000 432.680
28.76000 434.777
28.77000 437.015
28.78000 440.535
28.79000 444.363
28.80000 447.677
28.81000 447.902
28.82000 447.686
28.83000 449.022
28.84000 456.036
28.85000 463.572
28.86000 468.361
28.87000 466.382
28.88000 464.091
28.89000 462.651
28.90000 455.382
28.91000 450.062
28.92000 445.484
28.93000 441.717
28.94000 437.988
28.95000 439.341
28.96000 444.284
28.97000 449.122
28.98000 452.868
28.99000 455.968
29.00000 458.659
29.01000 455.673
29.02000 450.868
29.03000 446.823
29.04000 448.729
29.05000 451.901
29.06000 454.591
29.07000 457.451
29.08000 459.868
29.09000 459.428
29.10000 449.686
29.11000 439.226
29.12000 431.879
29.13000 431.385
29.14000 431.135
29.15000 430.986
29.16000 437.508
29.17000 442.181
29.18000 447.150
29.19000 452.401
29.20000 457.562
29.21000 455.608
29.22000 449.190
29.23000 442.958
29.24000 440.369
29.25000 439.375
29.26000 439.081
29.27000 446.881
29.28000 456.992
29.29000 465.389
29.30000 462.157
29.31000 456.743
29.32000 452.254
29.33000 449.997
29.34000 448.347
29.35000 447.280
29.36000 447.908
29.37000 448.643
29.38000 447.046
29.39000 440.866
29.40000 434.564
29.41000 430.982
29.42000 436.415
29.43000 440.236
29.44000 448.649
29.45000 460.934
29.46000 472.967
29.47000 472.271
29.48000 464.464
29.49000 456.949
29.50000 453.442
29.51000 451.573
29.52000 449.392
29.53000 444.149
29.54000 438.131
29.55000 433.178
29.56000 434.540
29.57000 436.942
29.58000 438.885
29.59000 436.381
29.60000 433.985
29.61000 435.462
29.62000 446.977
29.63000 459.008
29.64000 465.386
29.65000 461.860
29.66000 458.152
29.67000 456.161
29.68000 462.437
29.69000 466.699
29.70000 464.838
29.71000 458.413
29.72000 452.348
29.73000 459.101
29.74000 472.240
29.75000 484.762
29.76000 487.327
29.77000 486.595
29.78000 485.778
29.79000 484.257
29.80000 482.579
29.81000 482.058
29.82000 487.566
29.83000 493.939
29.84000 498.960
29.85000 500.513
29.86000 501.525
29.87000 500.595
29.88000 495.167
29.89000 489.558
29.90000 491.241
29.91000 504.294
29.92000 517.481
29.93000 524.131
29.94000 513.228
29.95000 505.912
29.96000 495.948
29.97000 484.232
29.98000 472.832
29.99000 469.810
30.00000 470.515
30.01000 471.180
30.02000 476.967
30.03000 483.672
30.04000 489.595
30.05000 489.871
30.06000 489.024
30.07000 487.390
30.08000 482.138
30.09000 476.436
30.10000 472.071
30.11000 476.029
30.12000 479.610
30.13000 480.343
30.14000 475.190
30.15000 469.856
30.16000 468.027
30.17000 471.047
30.18000 474.097
30.19000 476.493
30.20000 478.303
30.21000 480.022
30.22000 476.281
30.23000 469.328
30.24000 462.922
30.25000 467.851
30.26000 477.283
30.27000 486.058
30.28000 478.812
30.29000 468.397
30.30000 460.289
30.31000 466.696
30.32000 475.638
30.33000 482.786
30.34000 482.643
30.35000 481.724
30.36000 481.041
30.37000 473.733
30.38000 467.762
30.39000 463.253
30.40000 461.441
30.41000 459.689
30.42000 464.084
30.43000 476.008
30.44000 487.927
30.45000 491.583
30.46000 488.747
30.47000 485.933
30.48000 484.028
30.49000 482.599
30.50000 481.090
30.51000 478.260
30.52000 474.961
30.53000 471.935
30.54000 476.462
30.55000 482.094
30.56000 487.568
30.57000 492.174
30.58000 496.647
30.59000 500.042
30.60000 499.541
30.61000 498.687
30.62000 498.075
30.63000 503.168
30.64000 507.259
30.65000 511.500
30.66000 515.985
30.67000 520.475
30.68000 523.199
30.69000 524.020
30.70000 524.837
30.71000 525.938
30.72000 527.223
30.73000 528.586
30.74000 532.296
30.75000 537.105
30.76000 542.719
30.77000 559.285
30.78000 579.316
30.79000 597.408
30.80000 604.138
30.81000 607.956
30.82000 613.612
30.83000 628.188
30.84000 643.948
30.85000 663.367
30.86000 694.558
30.87000 726.640
30.88000 748.849
30.89000 793.123
30.90000 827.012
30.91000 874.356
30.92000 941.353
30.93000 1008.521
30.94000 1089.875
30.95000 1184.643
30.96000 1278.623
30.97000 1378.880
30.98000 1481.124
30.99000 1584.007
31.00000 1701.633
31.01000 1825.419
31.02000 1951.404
31.03000 2102.374
31.04000 2260.385
31.05000 2400.692
31.06000 2616.897
31.07000 2816.506
31.08000 3007.802
31.09000 3163.430
31.10000 3314.982
31.11000 3463.452
31.12000 3603.080
31.13000 3742.157
31.14000 3834.726
31.15000 3985.616
31.16000 4098.365
31.17000 4197.038
31.18000 4277.494
31.19000 4357.798
31.20000 4399.726
31.21000 4409.720
31.22000 4419.582
31.23000 4373.958
31.24000 4299.771
31.25000 4225.300
31.26000 4145.659
31.27000 4064.090
31.28000 3975.829
31.29000 3823.224
31.30000 3654.505
31.31000 3507.444
31.32000 3327.742
31.33000 3169.628
31.34000 3005.025
31.35000 2815.720
31.36000 2624.010
31.37000 2451.229
31.38000 2326.920
31.39000 2205.038
31.40000 2127.304
31.41000 1921.754
31.42000 1770.622
31.43000 1632.575
31.44000 1509.476
31.45000 1386.545
31.46000 1290.257
31.47000 1213.574
31.48000 1138.357
31.49000 1062.072
31.50000 988.069
31.51000 916.003
31.52000 872.650
31.53000 838.858
31.54000 805.105
31.55000 771.674
31.56000 738.313
31.57000 709.817
31.58000 687.397
31.59000 669.233
31.60000 650.330
31.61000 628.927
31.62000 607.319
31.63000 590.152
31.64000 583.141
31.65000 576.529
31.66000 572.503
31.67000 562.969
31.68000 556.115
31.69000 548.428
31.70000 539.907
31.71000 531.388
31.72000 523.167
31.73000 515.139
31.74000 507.322
31.75000 501.927
31.76000 497.798
31.77000 493.519
31.78000 487.394
31.79000 480.720
31.80000 474.809
31.81000 474.330
31.82000 474.915
31.83000 475.403
31.84000 467.391
31.85000 459.876
31.86000 453.439
31.87000 450.256
31.88000 447.295
31.89000 448.192
31.90000 456.966
31.91000 465.973
31.92000 471.187
31.93000 460.004
31.94000 452.097
31.95000 446.018
31.96000 441.548
31.97000 437.217
31.98000 440.886
31.99000 449.202
32.00000 457.232
32.01000 452.317
32.02000 442.899
32.03000 433.964
32.04000 430.031
32.05000 427.419
32.06000 425.362
32.07000 426.743
32.08000 428.716
32.09000 430.326
32.10000 434.602
32.11000 438.327
32.12000 440.274
32.13000 437.428
32.14000 434.318
32.15000 428.402
32.16000 417.379
32.17000 406.248
32.18000 400.151
32.19000 404.366
32.20000 407.282
32.21000 410.667
32.22000 414.417
32.23000 418.050
32.24000 417.048
32.25000 413.645
32.26000 410.390
32.27000 409.105
32.28000 408.551
32.29000 408.561
32.30000 413.541
32.31000 419.687
32.32000 425.028
32.33000 425.998
32.34000 426.312
32.35000 426.561
32.36000 420.561
32.37000 415.279
32.38000 412.063
32.39000 413.814
32.40000 415.783
32.41000 416.603
32.42000 415.559
32.43000 414.490
32.44000 413.938
32.45000 417.060
32.46000 419.103
32.47000 413.912
32.48000 403.740
32.49000 393.888
32.50000 393.331
32.51000 397.072
32.52000 400.610
32.53000 405.072
32.54000 409.439
32.55000 413.021
32.56000 410.652
32.57000 407.050
32.58000 403.945
32.59000 403.217
32.60000 402.800
32.61000 402.478
32.62000 402.233
32.63000 402.042
32.64000 400.630
32.65000 396.591
32.66000 392.463
32.67000 390.633
32.68000 392.114
32.69000 393.622
32.70000 390.419
32.71000 382.828
32.72000 375.431
32.73000 381.653
32.74000 396.208
32.75000 410.270
32.76000 413.257
32.77000 411.672
32.78000 410.191
32.79000 407.505
32.80000 404.763
32.81000 402.484
32.82000 403.252
32.83000 404.575
32.84000 408.040
32.85000 420.575
32.86000 434.128
32.87000 444.298
32.88000 453.486
32.89000 460.617
32.90000 468.221
32.91000 476.730
32.92000 485.261
32.93000 493.609
32.94000 501.721
32.95000 509.822
32.96000 521.063
32.97000 534.834
32.98000 548.200
32.99000 542.714
33.00000 526.953
33.01000 511.694
33.02000 505.366
33.03000 502.330
33.04000 499.531
33.05000 495.906
33.06000 492.478
33.07000 489.124
33.08000 486.199
33.09000 483.343
33.10000 479.384
33.11000 471.276
33.12000 462.771
33.13000 456.594
33.14000 440.536
33.15000 427.817
33.16000 417.702
33.17000 412.035
33.18000 406.445
33.19000 401.266
33.20000 396.552
33.21000 391.855
33.22000 389.449
33.23000 388.714
33.24000 387.925
33.25000 385.329
33.26000 381.855
33.27000 378.531
33.28000 377.382
33.29000 376.947
33.30000 376.553
33.31000 371.429
33.32000 365.988
33.33000 360.776
33.34000 356.725
33.35000 352.836
33.36000 352.111
33.37000 361.964
33.38000 372.669
33.39000 380.174
33.40000 376.190
33.41000 372.844
33.42000 370.467
33.43000 369.562
33.44000 368.673
33.45000 367.002
33.46000 364.560
33.47000 362.135
33.48000 357.737
33.49000 352.158
33.50000 346.979
33.51000 351.885
33.52000 361.169
33.53000 369.601
33.54000 367.765
33.55000 362.920
33.56000 358.592
33.57000 361.624
33.58000 365.504
33.59000 367.852
33.60000 363.352
33.61000 358.027
33.62000 354.803
33.63000 357.838
33.64000 361.290
33.65000 363.620
33.66000 362.537
33.67000 361.659
33.68000 359.890
33.69000 356.918
33.70000 353.945
33.71000 354.235
33.72000 357.359
33.73000 360.448
33.74000 360.114
33.75000 357.872
33.76000 355.674
33.77000 354.362
33.78000 353.394
33.79000 352.893
33.80000 357.136
33.81000 362.616
33.82000 367.423
33.83000 361.206
33.84000 354.260
33.85000 348.601
33.86000 348.042
33.87000 348.007
33.88000 349.776
33.89000 356.343
33.90000 363.169
33.91000 367.588
33.92000 349.426
33.93000 335.806
33.94000 330.235
33.95000 334.259
33.96000 338.308
33.97000 344.082
33.98000 351.177
33.99000 358.152
34.00000 360.112
34.01000 359.527
34.02000 358.884
34.03000 357.318
34.04000 355.433
34.05000 353.478
34.06000 350.923
34.07000 348.229
34.08000 345.912
34.09000 352.475
34.10000 359.145
34.11000 363.774
34.12000 361.212
34.13000 358.024
34.14000 356.781
34.15000 360.158
34.16000 363.732
34.17000 365.944
34.18000 352.595
34.19000 342.853
34.20000 341.096
34.21000 347.716
34.22000 354.305
34.23000 357.383
34.24000 358.076
34.25000 358.752
34.26000 356.457
34.27000 352.963
34.28000 349.392
34.29000 344.798
34.30000 339.888
34.31000 335.667
34.32000 336.598
34.33000 338.581
34.34000 340.250
34.35000 351.383
34.36000 361.687
34.37000 367.867
34.38000 361.111
34.39000 353.415
34.40000 347.429
34.41000 345.070
34.42000 342.830
34.43000 341.510
34.44000 342.354
34.45000 342.959
34.46000 340.362
34.47000 334.820
34.48000 329.412
34.49000 332.962
34.50000 341.923
34.51000 350.601
34.52000 345.602
34.53000 335.598
34.54000 326.574
34.55000 328.287
34.56000 332.950
34.57000 336.571
34.58000 333.426
34.59000 329.064
34.60000 325.475
34.61000 331.464
34.62000 337.258
34.63000 340.879
34.64000 338.420
34.65000 335.600
34.66000 334.890
34.67000 338.174
34.68000 341.553
34.69000 343.440
34.70000 334.553
34.71000 328.388
34.72000 326.530
34.73000 328.163
34.74000 329.840
34.75000 333.527
34.76000 338.295
34.77000 342.871
34.78000 341.572
34.79000 338.357
34.80000 335.525
34.81000 336.241
34.82000 337.824
34.83000 339.334
34.84000 340.435
34.85000 341.472
34.86000 342.303
34.87000 334.721
34.88000 327.939
34.89000 322.648
34.90000 321.083
34.91000 319.694
34.92000 318.733
34.93000 318.491
34.94000 318.261
34.95000 318.140
34.96000 319.761
34.97000 320.850
34.98000 320.340
34.99000 318.684
35.00000 317.107
35.01000 318.120
35.02000 320.375
35.03000 322.517
35.04000 328.467
35.05000 335.102
35.06000 341.270
35.07000 343.712
35.08000 345.349
35.09000 347.371
35.10000 351.318
35.11000 355.530
35.12000 358.819
35.13000 354.957
35.14000 351.426
35.15000 347.912
35.16000 344.438
35.17000 340.965
35.18000 338.963
35.19000 339.171
35.20000 339.401
35.21000 335.360
35.22000 327.159
35.23000 319.058
35.24000 319.312
35.25000 324.883
35.26000 330.328
35.27000 332.675
35.28000 333.695
35.29000 334.651
35.30000 332.052
35.31000 328.745
35.32000 325.748
35.33000 324.894
35.34000 324.449
35.35000 324.724
35.36000 328.176
35.37000 332.004
35.38000 334.907
35.39000 330.699
35.40000 327.030
35.41000 326.148
35.42000 330.818
35.43000 335.641
35.44000 334.631
35.45000 325.856
35.46000 317.050
35.47000 309.927
35.48000 304.257
35.49000 298.730
35.50000 300.694
35.51000 306.903
35.52000 313.186
35.53000 320.894
35.54000 329.147
35.55000 336.791
35.56000 333.015
35.57000 326.974
35.58000 321.754
35.59000 321.479
35.60000 322.031
35.61000 322.027
35.62000 319.845
35.63000 317.442
35.64000 315.677
35.65000 317.279
35.66000 318.654
35.67000 320.469
35.68000 323.063
35.69000 325.672
35.70000 325.284
35.71000 321.373
35.72000 317.466
35.73000 316.407
35.74000 317.496
35.75000 318.629
35.76000 321.405
35.77000 325.010
35.78000 328.319
35.79000 327.032
35.80000 324.173
35.81000 321.563
35.82000 321.550
35.83000 322.065
35.84000 322.074
35.85000 319.413
35.86000 316.361
35.87000 313.965
35.88000 313.849
35.89000 313.927
35.90000 313.983
35.91000 318.949
35.92000 322.882
35.93000 323.471
35.94000 318.773
35.95000 314.008
35.96000 315.523
35.97000 323.531
35.98000 331.494
35.99000 332.047
36.00000 327.686
36.01000 323.460
36.02000 322.940
36.03000 324.092
36.04000 324.922
36.05000 321.617
36.06000 317.052
36.07000 312.951
36.08000 309.472
36.09000 306.536
36.10000 304.980
36.11000 309.854
36.12000 315.541
36.13000 319.649
36.14000 318.864
36.15000 317.732
36.16000 316.957
36.17000 317.383
36.18000 317.730
36.19000 320.131
36.20000 325.417
36.21000 330.721
36.22000 332.804
36.23000 331.967
36.24000 331.138
36.25000 334.062
36.26000 339.116
36.27000 343.563
36.28000 335.053
36.29000 321.323
36.30000 308.916
36.31000 310.734
36.32000 316.411
36.33000 321.423
36.34000 317.838
36.35000 313.427
36.36000 309.372
36.37000 306.788
36.38000 304.363
36.39000 303.483
36.40000 306.872
36.41000 310.510
36.42000 312.899
36.43000 314.134
36.44000 315.024
36.45000 319.166
36.46000 327.355
36.47000 335.528
36.48000 335.044
36.49000 327.641
36.50000 320.348
36.51000 314.930
36.52000 310.641
36.53000 306.584
36.54000 306.475
36.55000 307.787
36.56000 309.242
36.57000 312.012
36.58000 315.098
36.59000 317.770
36.60000 319.884
36.61000 321.609
36.62000 322.493
36.63000 320.301
36.64000 317.824
36.65000 316.301
36.66000 317.129
36.67000 318.066
36.68000 318.656
36.69000 327.546
36.70000 334.066
36.71000 335.353
36.72000 330.904
36.73000 326.466
36.74000 324.043
36.75000 323.046
36.76000 322.070
36.77000 320.924
36.78000 319.747
36.79000 318.503
36.80000 316.332
36.81000 313.863
36.82000 311.493
36.83000 309.900
36.84000 308.473
36.85000 307.263
36.86000 316.473
36.87000 325.375
36.88000 331.029
36.89000 326.089
36.90000 320.329
36.91000 318.011
36.92000 323.279
36.93000 328.820
36.94000 332.141
36.95000 314.137
36.96000 301.213
36.97000 300.319
36.98000 310.987
36.99000 321.513
37.00000 321.052
37.01000 313.686
37.02000 306.531
37.03000 303.128
37.04000 301.407
37.05000 300.367
37.06000 307.231
37.07000 316.354
37.08000 324.056
37.09000 322.088
37.10000 318.301
37.11000 315.160
37.12000 314.989
37.13000 315.133
37.14000 314.869
37.15000 313.420
37.16000 311.895
37.17000 309.765
37.18000 306.443
37.19000 303.089
37.20000 301.181
37.21000 301.097
37.22000 301.046
37.23000 301.828
37.24000 303.314
37.25000 304.771
37.26000 304.732
37.27000 303.858
37.28000 303.015
37.29000 306.540
37.30000 311.400
37.31000 315.603
37.32000 313.364
37.33000 309.488
37.34000 305.952
37.35000 304.437
37.36000 303.255
37.37000 302.298
37.38000 299.975
37.39000 297.974
37.40000 296.447
37.41000 296.151
37.42000 295.920
37.43000 295.698
37.44000 295.494
37.45000 295.290
37.46000 295.181
37.47000 302.465
37.48000 307.415
37.49000 306.132
37.50000 300.194
37.51000 294.483
37.52000 296.893
37.53000 303.358
37.54000 309.519
37.55000 307.872
37.56000 303.902
37.57000 299.843
37.58000 295.046
37.59000 290.082
37.60000 286.138
37.61000 287.514
37.62000 289.655
37.63000 291.342
37.64000 296.844
37.65000 301.512
37.66000 306.305
37.67000 311.386
37.68000 316.478
37.69000 316.289
37.70000 307.850
37.71000 299.314
37.72000 295.005
37.73000 293.593
37.74000 292.678
37.75000 294.571
37.76000 298.325
37.77000 301.979
37.78000 302.973
37.79000 302.783
37.80000 302.603
37.81000 303.410
37.82000 304.420
37.83000 305.335
37.84000 305.559
37.85000 305.646
37.86000 305.787
37.87000 306.179
37.88000 306.601
37.89000 306.925
37.90000 318.579
37.91000 328.404
37.92000 332.348
37.93000 324.120
37.94000 315.519
37.95000 306.561
37.96000 297.110
37.97000 287.659
37.98000 287.226
37.99000 294.847
38.00000 302.417
38.01000 306.871
38.02000 309.489
38.03000 312.039
38.04000 313.187
38.05000 313.778
38.06000 314.328
38.07000 317.418
38.08000 320.823
38.09000 323.296
38.10000 319.883
38.11000 315.440
38.12000 312.229
38.13000 314.038
38.14000 316.384
38.15000 318.126
38.16000 324.458
38.17000 329.583
38.18000 334.395
38.19000 338.631
38.20000 342.853
38.21000 345.348
38.22000 345.722
38.23000 346.090
38.24000 344.993
38.25000 342.752
38.26000 340.639
38.27000 343.856
38.28000 349.872
38.29000 355.905
38.30000 362.220
38.31000 368.635
38.32000 374.521
38.33000 380.944
38.34000 386.783
38.35000 392.904
38.36000 400.579
38.37000 408.493
38.38000 415.076
38.39000 416.848
38.40000 418.183
38.41000 419.142
38.42000 426.227
38.43000 431.859
38.44000 435.752
38.45000 436.782
38.46000 437.771
38.47000 446.296
38.48000 462.965
38.49000 479.561
38.50000 481.942
38.51000 474.474
38.52000 467.252
38.53000 467.480
38.54000 471.199
38.55000 474.321
38.56000 469.307
38.57000 461.714
38.58000 454.855
38.59000 448.186
38.60000 442.356
38.61000 438.723
38.62000 445.768
38.63000 454.232
38.64000 457.414
38.65000 443.580
38.66000 428.456
38.67000 417.979
38.68000 413.493
38.69000 410.274
38.70000 405.776
38.71000 399.404
38.72000 393.017
38.73000 387.286
38.74000 382.175
38.75000 377.107
38.76000 373.093
38.77000 369.795
38.78000 366.437
38.79000 361.684
38.80000 356.347
38.81000 351.395
38.82000 350.813
38.83000 351.465
38.84000 352.044
38.85000 349.971
38.86000 347.748
38.87000 344.049
38.88000 334.011
38.89000 323.248
38.90000 314.739
38.91000 312.710
38.92000 311.085
38.93000 310.003
38.94000 309.607
38.95000 309.327
38.96000 308.469
38.97000 306.861
38.98000 305.252
38.99000 303.965
39.00000 302.948
39.01000 301.944
39.02000 304.587
39.03000 309.122
39.04000 313.127
39.05000 307.434
39.06000 298.118
39.07000 289.449
39.08000 287.026
39.09000 286.171
39.10000 285.425
39.11000 290.714
39.12000 296.075
39.13000 299.144
39.14000 293.478
39.15000 286.959
39.16000 284.346
39.17000 291.751
39.18000 299.661
39.19000 304.708
39.20000 299.839
39.21000 296.168
39.22000 293.784
39.23000 292.871
39.24000 291.972
39.25000 293.243
39.26000 296.114
39.27000 298.930
39.28000 298.615
39.29000 296.824
39.30000 295.338
39.31000 298.387
39.32000 302.949
39.33000 306.576
39.34000 302.496
39.35000 296.701
39.36000 291.750
39.37000 289.830
39.38000 288.575
39.39000 286.671
39.40000 282.566
39.41000 278.281
39.42000 276.292
39.43000 279.566
39.44000 283.047
39.45000 285.168
39.46000 277.334
39.47000 271.656
39.48000 270.524
39.49000 273.959
39.50000 277.360
39.51000 277.593
39.52000 275.753
39.53000 273.961
39.54000 276.091
39.55000 279.768
39.56000 282.911
39.57000 279.473
39.58000 274.078
39.59000 268.878
39.60000 265.071
39.61000 261.537
39.62000 258.583
39.63000 264.261
39.64000 269.853
39.65000 275.624
39.66000 281.930
39.67000 288.272
39.68000 291.225
39.69000 287.246
39.70000 283.061
39.71000 280.637
39.72000 279.221
39.73000 278.233
39.74000 278.520
39.75000 279.931
39.76000 281.331
39.77000 282.136
39.78000 282.595
39.79000 283.038
39.80000 278.294
39.81000 271.902
39.82000 266.582
39.83000 272.381
39.84000 281.120
39.85000 288.029
39.86000 283.564
39.87000 277.137
39.88000 271.891
39.89000 276.544
39.90000 281.200
39.91000 284.326
39.92000 283.324
39.93000 282.092
39.94000 281.494
39.95000 282.054
39.96000 282.638
39.97000 282.959
39.98000 270.442
39.99000 261.844
40.00000 261.492
40.01000 267.557
40.02000 273.427
40.03000 271.528
40.04000 265.598
40.05000 259.926
40.06000 264.549
40.07000 272.217
40.08000 278.709
40.09000 274.816
40.10000 268.485
40.11000 263.774
40.12000 267.888
40.13000 273.331
40.14000 277.662
40.15000 276.532
40.16000 275.230
40.17000 273.840
40.18000 272.242
40.19000 270.634
40.20000 267.688
40.21000 262.569
40.22000 257.420
40.23000 254.763
40.24000 260.327
40.25000 264.081
40.26000 268.366
40.27000 273.018
40.28000 277.433
40.29000 274.928
40.30000 269.218
40.31000 263.816
40.32000 266.991
40.33000 272.379
40.34000 277.068
40.35000 276.453
40.36000 274.735
40.37000 273.481
40.38000 274.445
40.39000 275.701
40.40000 276.672
40.41000 273.219
40.42000 270.218
40.43000 268.061
40.44000 267.721
40.45000 267.443
40.46000 268.101
40.47000 270.112
40.48000 272.134
40.49000 270.464
40.50000 265.348
40.51000 260.274
40.52000 258.166
40.53000 257.875
40.54000 257.643
40.55000 258.745
40.56000 260.397
40.57000 261.942
40.58000 260.255
40.59000 257.907
40.60000 255.877
40.61000 255.955
40.62000 256.418
40.63000 257.091
40.64000 258.651
40.65000 260.311
40.66000 261.557
40.67000 262.473
40.68000 263.172
40.69000 262.519
40.70000 259.271
40.71000 255.958
40.72000 253.046
40.73000 250.646
40.74000 248.251
40.75000 252.337
40.76000 261.721
40.77000 270.943
40.78000 272.647
40.79000 270.247
40.80000 267.874
40.81000 266.000
40.82000 264.311
40.83000 262.753
40.84000 263.593
40.85000 264.877
40.86000 265.195
40.87000 259.932
40.88000 253.776
40.89000 250.520
40.90000 258.189
40.91000 266.905
40.92000 273.238
40.93000 263.463
40.94000 255.337
40.95000 251.643
40.96000 255.536
40.97000 259.557
40.98000 261.380
40.99000 260.722
41.00000 260.063
41.01000 261.770
41.02000 265.169
41.03000 268.352
41.04000 264.314
41.05000 256.761
41.06000 249.987
41.07000 254.569
41.08000 262.894
41.09000 270.454
41.10000 266.548
41.11000 260.875
41.12000 256.462
41.13000 258.442
41.14000 261.314
41.15000 263.037
41.16000 260.914
41.17000 258.481
41.18000 256.774
41.19000 261.995
41.20000 266.147
41.21000 269.208
41.22000 270.608
41.23000 271.991
41.24000 269.408
41.25000 262.896
41.26000 256.429
41.27000 254.444
41.28000 255.339
41.29000 256.211
41.30000 256.521
41.31000 256.587
41.32000 256.710
41.33000 257.518
41.34000 258.528
41.35000 259.430
41.36000 254.822
41.37000 249.879
41.38000 246.821
41.39000 252.209
41.40000 258.616
41.41000 262.815
41.42000 260.422
41.43000 257.588
41.44000 255.675
41.45000 252.889
41.46000 250.796
41.47000 249.184
41.48000 248.220
41.49000 247.259
41.50000 246.432
41.51000 245.721
41.52000 245.017
41.53000 243.085
41.54000 240.509
41.55000 238.251
41.56000 242.286
41.57000 248.763
41.58000 254.399
41.59000 251.457
41.60000 246.275
41.61000 241.727
41.62000 246.597
41.63000 252.157
41.64000 256.377
41.65000 255.281
41.66000 253.637
41.67000 253.029
41.68000 255.184
41.69000 257.488
41.70000 258.981
41.71000 263.204
41.72000 266.335
41.73000 268.469
41.74000 269.411
41.75000 270.324
41.76000 264.509
41.77000 253.526
41.78000 242.730
41.79000 244.146
41.80000 251.565
41.81000 258.456
41.82000 256.936
41.83000 252.499
41.84000 248.540
41.85000 248.726
41.86000 249.873
41.87000 250.860
41.88000 252.575
41.89000 254.118
41.90000 254.554
41.91000 251.084
41.92000 247.272
41.93000 247.085
41.94000 255.528
41.95000 264.341
41.96000 269.799
41.97000 249.190
41.98000 234.125
41.99000 226.615
42.00000 227.045
42.01000 227.512
42.02000 231.939
42.03000 239.063
42.04000 246.018
42.05000 243.798
42.06000 237.659
42.07000 232.331
42.08000 237.641
42.09000 246.240
42.10000 253.661
42.11000 252.260
42.12000 249.051
42.13000 246.348
42.14000 247.338
42.15000 248.562
42.16000 249.111
42.17000 247.539
42.18000 245.813
42.19000 246.158
42.20000 250.906
42.21000 255.799
42.22000 258.683
42.23000 257.280
42.24000 256.265
42.25000 250.291
42.26000 239.747
42.27000 229.421
42.28000 233.639
42.29000 246.660
42.30000 259.272
42.31000 258.020
42.32000 251.477
42.33000 245.369
42.34000 244.030
42.35000 244.003
42.36000 243.682
42.37000 241.443
42.38000 238.857
42.39000 236.730
42.40000 239.925
42.41000 243.037
42.42000 244.365
42.43000 240.693
42.44000 236.722
42.45000 235.537
42.46000 239.635
42.47000 243.860
42.48000 246.221
42.49000 245.675
42.50000 245.297
42.51000 247.516
42.52000 251.841
42.53000 256.041
42.54000 254.592
42.55000 250.097
42.56000 245.784
42.57000 243.430
42.58000 241.898
42.59000 240.810
42.60000 243.863
42.61000 247.927
42.62000 251.617
42.63000 253.168
42.64000 254.382
42.65000 255.356
42.66000 248.660
42.67000 242.651
42.68000 239.050
42.69000 241.473
42.70000 244.185
42.71000 246.257
42.72000 247.247
42.73000 248.219
42.74000 248.732
42.75000 252.849
42.76000 255.612
42.77000 253.448
42.78000 247.744
42.79000 242.227
42.80000 242.715
42.81000 246.094
42.82000 249.302
42.83000 249.115
42.84000 247.921
42.85000 247.218
42.86000 250.439
42.87000 254.510
42.88000 257.255
42.89000 253.366
42.90000 248.564
42.91000 244.814
42.92000 241.037
42.93000 238.022
42.94000 235.534
42.95000 234.228
42.96000 232.965
42.97000 235.144
42.98000 242.498
42.99000 249.904
43.00000 252.714
43.01000 251.036
43.02000 249.390
43.03000 250.422
43.04000 253.160
43.05000 255.685
43.06000 252.973
43.07000 248.011
43.08000 243.354
43.09000 242.253
43.10000 242.189
43.11000 242.205
43.12000 242.768
43.13000 243.435
43.14000 243.328
43.15000 239.801
43.16000 235.869
43.17000 232.886
43.18000 239.900
43.19000 245.923
43.20000 250.116
43.21000 250.656
43.22000 251.095
43.23000 247.560
43.24000 238.727
43.25000 229.874
43.26000 229.974
43.27000 237.743
43.28000 245.470
43.29000 251.032
43.30000 255.366
43.31000 259.381
43.32000 257.279
43.33000 252.829
43.34000 248.706
43.35000 248.024
43.36000 248.208
43.37000 248.286
43.38000 247.723
43.39000 247.054
43.40000 246.560
43.41000 246.759
43.42000 247.027
43.43000 247.224
43.44000 245.485
43.45000 244.061
43.46000 243.750
43.47000 245.421
43.48000 247.131
43.49000 245.370
43.50000 239.520
43.51000 233.679
43.52000 234.041
43.53000 239.072
43.54000 243.909
43.55000 241.528
43.56000 235.494
43.57000 230.078
43.58000 234.291
43.59000 241.801
43.60000 248.658
43.61000 247.201
43.62000 244.222
43.63000 242.070
43.64000 244.300
43.65000 247.171
43.66000 247.803
43.67000 240.631
43.68000 232.790
43.69000 227.223
43.70000 228.787
43.71000 230.203
43.72000 231.549
43.73000 232.785
43.74000 234.019
43.75000 234.790
43.76000 235.081
43.77000 235.370
43.78000 235.409
43.79000 235.281
43.80000 235.265
43.81000 238.333
43.82000 242.795
43.83000 246.740
43.84000 244.055
43.85000 239.346
43.86000 235.115
43.87000 237.974
43.88000 241.731
43.89000 244.653
43.90000 243.679
43.91000 242.210
43.92000 241.175
43.93000 241.484
43.94000 241.889
43.95000 242.167
43.96000 240.103
43.97000 238.502
43.98000 239.007
43.99000 242.474
44.00000 245.960
44.01000 247.289
44.02000 246.658
44.03000 246.033
44.04000 246.458
44.05000 247.489
44.06000 248.707
44.07000 253.909
44.08000 260.720
44.09000 266.387
44.10000 259.735
44.11000 249.735
44.12000 240.905
44.13000 239.539
44.14000 239.506
44.15000 240.115
44.16000 243.381
44.17000 246.937
44.18000 250.749
44.19000 255.273
44.20000 259.838
44.21000 262.838
44.22000 260.991
44.23000 259.550
44.24000 259.454
44.25000 261.034
44.26000 262.626
44.27000 266.127
44.28000 271.157
44.29000 276.113
44.30000 274.335
44.31000 269.130
44.32000 264.466
44.33000 269.025
44.34000 276.907
44.35000 284.813
44.36000 292.943
44.37000 301.127
44.38000 308.217
44.39000 302.585
44.40000 296.108
44.41000 293.429
44.42000 304.689
44.43000 317.240
44.44000 327.838
44.45000 333.608
44.46000 339.154
44.47000 342.643
44.48000 353.938
44.49000 362.196
44.50000 373.128
44.51000 386.999
44.52000 400.858
44.53000 413.067
44.54000 424.106
44.55000 434.911
44.56000 452.780
44.57000 473.166
44.58000 492.709
44.59000 500.499
44.60000 504.510
44.61000 509.954
44.62000 526.667
44.63000 545.787
44.64000 562.012
44.65000 564.899
44.66000 565.807
44.67000 568.625
44.68000 577.686
44.69000 587.231
44.70000 599.857
44.71000 619.288
44.72000 638.963
44.73000 650.763
44.74000 675.086
44.75000 692.446
44.76000 701.481
44.77000 702.502
44.78000 703.631
44.79000 713.299
44.80000 728.344
44.81000 742.958
44.82000 738.332
44.83000 726.182
44.84000 715.014
44.85000 715.261
44.86000 718.777
44.87000 721.331
44.88000 717.326
44.89000 712.085
44.90000 707.737
44.91000 704.991
44.92000 702.877
44.93000 697.087
44.94000 680.588
44.95000 663.403
44.96000 646.754
44.97000 631.160
44.98000 615.595
44.99000 606.732
45.00000 604.578
45.01000 603.081
45.02000 591.669
45.03000 571.863
45.04000 552.227
45.05000 541.313
45.06000 535.288
45.07000 529.486
45.08000 509.205
45.09000 485.014
45.10000 461.802
45.11000 448.200
45.12000 437.046
45.13000 427.544
45.14000 427.877
45.15000 429.834
45.16000 431.419
45.17000 414.485
45.18000 399.195
45.19000 384.417
45.20000 370.970
45.21000 357.592
45.22000 351.097
45.23000 356.701
45.24000 362.532
45.25000 365.669
45.26000 340.005
45.27000 322.497
45.28000 315.990
45.29000 317.712
45.30000 319.352
45.31000 318.034
45.32000 315.235
45.33000 312.567
45.34000 305.168
45.35000 296.823
45.36000 288.676
45.37000 282.201
45.38000 276.104
45.39000 270.817
45.40000 269.765
45.41000 269.324
45.42000 268.976
45.43000 264.774
45.44000 261.144
45.45000 258.456
45.46000 257.957
45.47000 257.546
45.48000 256.694
45.49000 255.149
45.50000 253.595
45.51000 252.811
45.52000 252.490
45.53000 252.277
45.54000 252.304
45.55000 252.489
45.56000 252.601
45.57000 250.767
45.58000 248.065
45.59000 245.519
45.60000 241.817
45.61000 238.110
45.62000 234.568
45.63000 232.227
45.64000 230.125
45.65000 228.927
45.66000 231.887
45.67000 235.367
45.68000 238.034
45.69000 233.654
45.70000 229.807
45.71000 226.821
45.72000 225.622
45.73000 224.478
45.74000 223.570
45.75000 222.988
45.76000 222.409
45.77000 220.536
45.78000 217.508
45.79000 214.579
45.80000 217.686
45.81000 224.355
45.82000 230.801
45.83000 232.606
45.84000 232.561
45.85000 232.519
45.86000 228.851
45.87000 224.657
45.88000 221.051
45.89000 221.160
45.90000 221.922
45.91000 222.818
45.92000 224.266
45.93000 225.772
45.94000 226.891
45.95000 221.324
45.96000 216.699
45.97000 212.958
45.98000 210.851
45.99000 208.780
46.00000 211.632
46.01000 220.536
46.02000 229.438
46.03000 233.166
46.04000 232.807
46.05000 232.324
46.06000 226.716
46.07000 218.412
46.08000 210.690
46.09000 212.697
46.10000 218.166
46.11000 223.185
46.12000 225.684
46.13000 227.378
46.14000 228.106
46.15000 223.487
46.16000 218.048
46.17000 214.279
46.18000 216.563
46.19000 219.397
46.20000 221.433
46.21000 218.546
46.22000 216.167
46.23000 215.015
46.24000 215.886
46.25000 216.788
46.26000 218.930
46.27000 222.416
46.28000 225.887
46.29000 222.915
46.30000 215.514
46.31000 208.376
46.32000 209.218
46.33000 213.805
46.34000 218.153
46.35000 219.213
46.36000 219.231
46.37000 219.246
46.38000 223.591
46.39000 228.214
46.40000 231.910
46.41000 231.089
46.42000 229.666
46.43000 227.175
46.44000 221.238
46.45000 215.039
46.46000 210.743
46.47000 207.137
46.48000 204.441
46.49000 204.701
46.50000 209.293
46.51000 213.923
46.52000 212.007
46.53000 203.879
46.54000 195.817
46.55000 194.918
46.56000 198.409
46.57000 201.906
46.58000 205.567
46.59000 209.296
46.60000 212.499
46.61000 209.684
46.62000 205.169
46.63000 201.157
46.64000 207.165
46.65000 213.990
46.66000 218.886
46.67000 215.475
46.68000 211.110
46.69000 209.209
46.70000 214.397
46.71000 220.029
46.72000 223.782
46.73000 208.600
46.74000 197.000
46.75000 192.821
46.76000 198.282
46.77000 203.786
46.78000 211.071
46.79000 219.844
46.80000 228.503
46.81000 226.712
46.82000 219.339
46.83000 212.212
46.84000 209.607
46.85000 208.695
46.86000 208.093
46.87000 210.475
46.88000 213.609
46.89000 216.341
46.90000 217.309
46.91000 217.890
46.92000 217.984
46.93000 216.218
46.94000 214.270
46.95000 213.384
46.96000 215.229
46.97000 217.212
46.98000 218.478
46.99000 205.958
47.00000 196.669
47.01000 192.870
47.02000 195.366
47.03000 197.881
47.04000 202.647
47.05000 209.076
47.06000 215.383
47.07000 213.409
47.08000 207.566
47.09000 201.934
47.10000 199.446
47.11000 198.009
47.12000 197.235
47.13000 201.948
47.14000 207.883
47.15000 212.956
47.16000 207.159
47.17000 200.973
47.18000 196.955
47.19000 200.307
47.20000 204.268
47.21000 206.308
47.22000 203.944
47.23000 201.406
47.24000 199.858
47.25000 201.593
47.26000 202.859
47.27000 202.215
47.28000 199.647
47.29000 197.115
47.30000 198.062
47.31000 201.287
47.32000 204.429
47.33000 199.301
47.34000 190.935
47.35000 183.689
47.36000 190.260
47.37000 200.946
47.38000 209.955
47.39000 206.970
47.40000 201.626
47.41000 197.157
47.42000 192.322
47.43000 188.269
47.44000 186.504
47.45000 191.670
47.46000 197.311
47.47000 201.176
47.48000 201.406
47.49000 201.528
47.50000 201.598
47.51000 202.405
47.52000 202.973
47.53000 202.655
47.54000 201.555
47.55000 200.480
47.56000 200.892
47.57000 202.171
47.58000 203.406
47.59000 202.455
47.60000 200.748
47.61000 199.026
47.62000 197.152
47.63000 195.238
47.64000 193.452
47.65000 192.464
47.66000 191.613
47.67000 190.918
47.68000 191.845
47.69000 192.744
47.70000 195.076
47.71000 201.285
47.72000 207.709
47.73000 210.717
47.74000 207.481
47.75000 204.113
47.76000 202.265
47.77000 216.884
47.78000 226.926
47.79000 225.719
47.80000 215.740
47.81000 205.859
47.82000 199.884
47.83000 195.938
47.84000 192.163
47.85000 193.367
47.86000 196.117
47.87000 198.593
47.88000 198.632
47.89000 198.097
47.90000 198.355
47.91000 202.937
47.92000 208.172
47.93000 212.338
47.94000 207.246
47.95000 202.476
47.96000 198.737
47.97000 197.487
47.98000 196.347
47.99000 194.473
48.00000 191.403
48.01000 188.316
48.02000 186.722
48.03000 193.979
48.04000 198.866
48.05000 203.201
48.06000 207.153
48.07000 210.934
48.08000 209.692
48.09000 206.119
48.10000 202.739
48.11000 198.067
48.12000 193.399
48.13000 189.812
48.14000 194.471
48.15000 200.845
48.16000 205.621
48.17000 202.714
48.18000 198.800
48.19000 195.770
48.20000 192.135
48.21000 189.213
48.22000 188.356
48.23000 191.950
48.24000 195.695
48.25000 197.682
48.26000 197.127
48.27000 196.551
48.28000 197.500
48.29000 199.877
48.30000 202.243
48.31000 203.879
48.32000 205.067
48.33000 205.986
48.34000 200.843
48.35000 193.189
48.36000 186.034
48.37000 185.213
48.38000 186.072
48.39000 186.882
48.40000 187.362
48.41000 187.783
48.42000 188.523
48.43000 190.623
48.44000 192.876
48.45000 194.569
48.46000 192.933
48.47000 191.496
48.48000 190.001
48.49000 188.396
48.50000 186.789
48.51000 187.614
48.52000 191.556
48.53000 195.505
48.54000 198.937
48.55000 201.934
48.56000 204.863
48.57000 204.637
48.58000 202.686
48.59000 200.554
48.60000 195.194
48.61000 188.640
48.62000 182.596
48.63000 185.042
48.64000 189.120
48.65000 192.901
48.66000 194.964
48.67000 196.752
48.68000 197.821
48.69000 196.176
48.70000 194.271
48.71000 192.886
48.72000 195.785
48.73000 198.178
48.74000 197.914
48.75000 193.092
48.76000 188.192
48.77000 186.018
48.78000 186.929
48.79000 187.839
48.80000 187.313
48.81000 185.755
48.82000 184.408
48.83000 190.148
48.84000 199.347
48.85000 207.939
48.86000 207.681
48.87000 204.503
48.88000 201.616
48.89000 194.839
48.90000 188.096
48.91000 182.820
48.92000 185.003
48.93000 188.228
48.94000 191.507
48.95000 194.963
48.96000 198.433
48.97000 200.868
48.98000 192.211
48.99000 185.335
49.00000 184.372
49.01000 192.427
49.02000 200.579
49.03000 201.063
49.04000 193.938
49.05000 186.861
49.06000 186.053
49.07000 189.251
49.08000 192.314
49.09000 191.970
49.10000 190.143
49.11000 188.520
49.12000 189.375
49.13000 190.959
49.14000 192.374
49.15000 195.578
49.16000 198.673
49.17000 201.576
49.18000 203.616
49.19000 205.552
49.20000 205.784
49.21000 200.922
49.22000 195.718
49.23000 192.203
49.24000 191.394
49.25000 190.849
49.26000 190.311
49.27000 189.782
49.28000 189.255
49.29000 191.072
49.30000 194.933
49.31000 198.749
49.32000 194.213
49.33000 185.088
49.34000 176.545
49.35000 179.541
49.36000 187.025
49.37000 193.875
49.38000 194.245
49.39000 192.921
49.40000 191.758
49.41000 191.673
49.42000 191.757
49.43000 192.495
49.44000 195.828
49.45000 199.431
49.46000 200.742
49.47000 195.938
49.48000 190.802
49.49000 187.473
49.50000 188.962
49.51000 190.124
49.52000 191.568
49.53000 193.350
49.54000 195.122
49.55000 194.450
49.56000 191.897
49.57000 189.387
49.58000 185.204
49.59000 180.329
49.60000 176.124
49.61000 182.598
49.62000 192.781
49.63000 201.555
49.64000 198.060
49.65000 191.718
49.66000 186.260
49.67000 184.138
49.68000 182.762
49.69000 183.425
49.70000 191.294
49.71000 199.794
49.72000 203.891
49.73000 197.493
49.74000 190.644
49.75000 186.399
49.76000 184.801
49.77000 183.676
49.78000 186.696
49.79000 194.080
49.80000 201.405
49.81000 201.849
49.82000 197.601
49.83000 193.453
49.84000 189.272
49.85000 185.256
49.86000 181.592
49.87000 182.546
49.88000 184.931
49.89000 186.962
49.90000 186.345
49.91000 185.185
49.92000 184.207
49.93000 188.425
49.94000 192.505
49.95000 196.527
49.96000 200.365
49.97000 204.190
49.98000 207.816
49.99000 211.022
50.00000 214.214
50.01000 216.098
50.02000 209.673
50.03000 205.093
50.04000 203.230
50.05000 203.876
50.06000 204.518
50.07000 204.944
50.08000 205.238
50.09000 205.524
50.10000 210.088
50.11000 216.063
50.12000 221.357
50.13000 219.166
50.14000 214.911
50.15000 211.513
50.16000 213.693
50.17000 216.882
50.18000 219.508
50.19000 220.995
50.20000 222.114
50.21000 225.219
50.22000 233.905
50.23000 242.924
50.24000 247.657
50.25000 244.246
50.26000 240.639
50.27000 238.621
50.28000 252.935
50.29000 262.872
50.30000 266.994
50.31000 266.388
50.32000 265.785
50.33000 265.346
50.34000 264.997
50.35000 264.661
50.36000 268.389
50.37000 273.263
50.38000 278.114
50.39000 282.746
50.40000 287.324
50.41000 290.916
50.42000 288.886
50.43000 285.966
50.44000 283.622
50.45000 288.063
50.46000 292.180
50.47000 296.180
50.48000 299.889
50.49000 303.583
50.50000 305.353
50.51000 303.864
50.52000 302.322
50.53000 301.509
50.54000 292.813
50.55000 286.904
50.56000 280.457
50.57000 273.624
50.58000 266.979
50.59000 266.475
50.60000 268.930
50.61000 271.262
50.62000 271.367
50.63000 270.794
50.64000 269.465
50.65000 262.077
50.66000 253.376
50.67000 245.560
50.68000 242.188
50.69000 239.428
50.70000 237.270
50.71000 238.563
50.72000 239.814
50.73000 238.841
50.74000 232.892
50.75000 226.757
50.76000 222.655
50.77000 221.616
50.78000 220.608
50.79000 217.573
50.80000 212.555
50.81000 207.613
50.82000 208.970
50.83000 214.351
50.84000 219.387
50.85000 215.946
50.86000 208.857
50.87000 202.201
50.88000 199.282
50.89000 197.611
50.90000 195.607
50.91000 191.300
50.92000 186.554
50.93000 182.809
50.94000 183.502
50.95000 184.723
50.96000 185.650
50.97000 184.645
50.98000 183.756
50.99000 184.002
51.00000 186.515
51.01000 189.092
51.02000 189.543
51.03000 187.154
51.04000 184.752
51.05000 181.359
51.06000 177.121
51.07000 172.967
51.08000 173.278
51.09000 176.129
51.10000 178.999
51.11000 182.245
51.12000 185.637
51.13000 188.779
51.14000 185.732
51.15000 181.553
51.16000 178.535
51.17000 182.540
51.18000 187.724
51.19000 190.422
51.20000 183.355
51.21000 175.295
51.22000 169.369
51.23000 171.076
51.24000 172.711
51.25000 174.930
51.26000 178.193
51.27000 181.476
51.28000 182.184
51.29000 179.853
51.30000 177.523
51.31000 178.354
51.32000 181.564
51.33000 184.685
51.34000 184.477
51.35000 182.583
51.36000 180.591
51.37000 177.087
51.38000 173.065
51.39000 169.391
51.40000 171.241
51.41000 174.006
51.42000 176.140
51.43000 174.923
51.44000 173.214
51.45000 171.628
51.46000 170.468
51.47000 169.345
51.48000 168.547
51.49000 168.743
51.50000 168.923
51.51000 170.414
51.52000 173.983
51.53000 177.579
51.54000 179.688
51.55000 180.256
51.56000 180.821
51.57000 178.162
51.58000 173.394
51.59000 168.665
51.60000 164.987
51.61000 161.785
51.62000 159.163
51.63000 164.002
51.64000 171.124
51.65000 177.525
51.66000 177.137
51.67000 175.594
51.68000 174.184
51.69000 173.394
51.70000 172.682
51.71000 171.839
51.72000 170.583
51.73000 169.298
51.74000 168.419
51.75000 169.073
51.76000 169.600
51.77000 169.507
51.78000 168.539
51.79000 167.566
51.80000 166.879
51.81000 166.452
51.82000 166.029
51.83000 167.704
51.84000 170.576
51.85000 173.355
51.86000 174.142
51.87000 174.123
51.88000 174.103
51.89000 174.067
51.90000 174.028
51.91000 173.993
51.92000 166.911
51.93000 159.714
51.94000 154.326
51.95000 156.434
51.96000 159.361
51.97000 162.340
51.98000 165.467
51.99000 168.602
52.00000 170.664
52.01000 171.651
52.02000 172.359
52.03000 171.091
52.04000 167.356
52.05000 163.631
52.06000 166.057
52.07000 173.417
52.08000 180.668
52.09000 178.366
52.10000 171.187
52.11000 164.273
52.12000 161.892
52.13000 161.147
52.14000 160.839
52.15000 164.542
52.16000 169.214
52.17000 173.262
52.18000 167.507
52.19000 161.308
52.20000 156.811
52.21000 158.575
52.22000 160.920
52.23000 164.499
52.24000 171.133
52.25000 177.911
52.26000 182.176
52.27000 174.316
52.28000 168.491
52.29000 167.238
52.30000 171.014
52.31000 174.787
52.32000 177.809
52.33000 180.298
52.34000 182.734
52.35000 178.515
52.36000 171.419
52.37000 164.735
52.38000 163.821
52.39000 164.764
52.40000 166.127
52.41000 170.795
52.42000 176.170
52.43000 180.732
52.44000 179.956
52.45000 178.697
52.46000 176.857
52.47000 173.115
52.48000 169.225
52.49000 167.025
52.50000 168.565
52.51000 170.240
52.52000 171.245
52.53000 170.641
52.54000 170.201
52.55000 170.570
52.56000 171.721
52.57000 172.854
52.58000 172.636
52.59000 171.566
52.60000 170.527
52.61000 169.440
52.62000 168.388
52.63000 167.480
52.64000 168.248
52.65000 169.496
52.66000 170.793
52.67000 172.418
52.68000 174.106
52.69000 175.507
52.70000 173.318
52.71000 171.162
52.72000 169.485
52.73000 169.204
52.74000 169.013
52.75000 167.995
52.76000 165.344
52.77000 162.649
52.78000 161.114
52.79000 165.610
52.80000 168.764
52.81000 171.636
52.82000 174.269
52.83000 176.822
52.84000 175.254
52.85000 171.372
52.86000 167.634
52.87000 169.878
52.88000 174.117
52.89000 177.777
52.90000 175.732
52.91000 172.232
52.92000 168.648
52.93000 164.555
52.94000 160.379
52.95000 156.997
52.96000 162.785
52.97000 168.245
52.98000 171.375
52.99000 168.433
53.00000 165.176
53.01000 163.176
53.02000 163.388
53.03000 163.642
53.04000 163.778
53.05000 174.882
53.06000 182.436
53.07000 180.781
53.08000 172.226
53.09000 163.890
53.10000 163.479
53.11000 167.036
53.12000 170.428
53.13000 171.543
53.14000 171.861
53.15000 171.863
53.16000 169.206
53.17000 165.946
53.18000 163.353
53.19000 164.248
53.20000 165.645
53.21000 166.748
53.22000 165.319
53.23000 164.002
53.24000 163.562
53.25000 165.164
53.26000 166.850
53.27000 168.387
53.28000 169.693
53.29000 170.996
53.30000 171.655
53.31000 166.889
53.32000 163.758
53.33000 166.647
53.34000 173.538
53.35000 180.136
53.36000 178.881
53.37000 174.115
53.38000 169.622
53.39000 164.849
53.40000 160.402
53.41000 156.621
53.42000 157.695
53.43000 159.739
53.44000 162.086
53.45000 165.835
53.46000 169.759
53.47000 172.767
53.48000 171.773
53.49000 170.766
53.50000 169.456
53.51000 167.514
53.52000 165.552
53.53000 167.282
53.54000 174.152
53.55000 181.052
53.56000 180.015
53.57000 171.862
53.58000 163.780
53.59000 160.090
53.60000 158.996
53.61000 158.013
53.62000 159.341
53.63000 161.592
53.64000 163.688
53.65000 168.595
53.66000 173.713
53.67000 177.672
53.68000 174.292
53.69000 169.622
53.70000 165.579
53.71000 164.094
53.72000 162.883
53.73000 161.983
53.74000 160.735
53.75000 159.748
53.76000 158.832
53.77000 158.045
53.78000 157.261
53.79000 157.501
53.80000 159.001
53.81000 160.503
53.82000 160.959
53.83000 160.591
53.84000 160.276
53.85000 162.226
53.86000 165.369
53.87000 168.032
53.88000 162.661
53.89000 154.425
53.90000 146.866
53.91000 154.814
53.92000 165.203
53.93000 173.420
53.94000 169.600
53.95000 163.930
53.96000 160.184
53.97000 163.427
53.98000 167.307
53.99000 170.096
54.00000 166.108
54.01000 162.819
54.02000 159.852
54.03000 157.417
54.04000 154.990
54.05000 158.008
54.06000 166.933
54.07000 175.821
54.08000 175.960
54.09000 170.027
54.10000 164.252
54.11000 163.252
54.12000 164.497
54.13000 165.851
54.14000 168.694
54.15000 172.009
54.16000 175.006
54.17000 171.195
54.18000 166.579
54.19000 162.591
54.20000 161.667
54.21000 161.151
54.22000 160.942
54.23000 161.720
54.24000 162.573
54.25000 163.165
54.26000 160.976
54.27000 159.255
54.28000 158.791
54.29000 160.175
54.30000 161.575
54.31000 163.958
54.32000 167.278
54.33000 170.570
54.34000 169.991
54.35000 167.054
54.36000 164.249
54.37000 164.517
54.38000 166.076
54.39000 167.737
54.40000 170.568
54.41000 173.731
54.42000 176.541
54.43000 171.794
54.44000 166.457
54.45000 161.773
54.46000 159.906
54.47000 158.363
54.48000 157.547
54.49000 158.825
54.50000 160.234
54.51000 161.173
54.52000 164.527
54.53000 167.057
54.54000 168.915
54.55000 169.900
54.56000 170.883
54.57000 172.905
54.58000 175.796
54.59000 178.650
54.60000 175.347
54.61000 168.807
54.62000 162.503
54.63000 160.550
54.64000 160.229
54.65000 160.527
54.66000 166.833
54.67000 174.651
54.68000 181.471
54.69000 177.186
54.70000 171.970
54.71000 168.283
54.72000 170.445
54.73000 173.181
54.74000 173.439
54.75000 167.318
54.76000 160.874
54.77000 156.756
54.78000 163.416
54.79000 168.405
54.80000 170.179
54.81000 168.260
54.82000 166.352
54.83000 167.314
54.84000 170.399
54.85000 173.427
54.86000 171.485
54.87000 167.243
54.88000 163.227
54.89000 162.602
54.90000 163.111
54.91000 163.581
54.92000 163.730
54.93000 163.807
54.94000 163.873
54.95000 167.932
54.96000 171.832
54.97000 174.596
54.98000 173.489
54.99000 172.062
55.00000 171.440
55.01000 172.669
55.02000 173.972
55.03000 174.767
55.04000 173.905
55.05000 173.276
55.06000 173.855
55.07000 175.655
55.08000 177.461
55.09000 179.867
55.10000 182.668
55.11000 185.396
55.12000 187.249
55.13000 188.648
55.14000 190.133
55.15000 192.683
55.16000 195.552
55.17000 198.252
55.18000 199.745
55.19000 200.999
55.20000 202.048
55.21000 206.133
55.22000 209.836
55.23000 212.975
55.24000 214.401
55.25000 215.710
55.26000 217.947
55.27000 222.088
55.28000 226.285
55.29000 228.721
55.30000 235.972
55.31000 241.085
55.32000 250.297
55.33000 263.136
55.34000 275.879
55.35000 282.921
55.36000 286.635
55.37000 290.223
55.38000 299.251
55.39000 309.783
55.40000 320.705
55.41000 335.685
55.42000 351.742
55.43000 366.610
55.44000 374.062
55.45000 380.229
55.46000 385.267
55.47000 395.144
55.48000 403.647
55.49000 412.839
55.50000 423.898
55.51000 435.061
55.52000 448.569
55.53000 466.367
55.54000 484.257
55.55000 494.081
55.56000 500.086
55.57000 504.220
55.58000 510.472
55.59000 518.378
55.60000 526.192
55.61000 530.316
55.62000 532.519
55.63000 534.627
55.64000 532.178
55.65000 528.403
55.66000 525.294
55.67000 528.091
55.68000 532.281
55.69000 535.411
55.70000 532.752
55.71000 529.216
55.72000 526.402
55.73000 502.950
55.74000 482.553
55.75000 472.092
55.76000 485.647
55.77000 500.267
55.78000 500.532
55.79000 477.387
55.80000 453.911
55.81000 441.775
55.82000 434.301
55.83000 429.227
55.84000 419.633
55.85000 406.912
55.86000 394.179
55.87000 381.102
55.88000 367.865
55.89000 355.337
55.90000 345.405
55.91000 337.020
55.92000 328.039
55.93000 314.510
55.94000 300.034
55.95000 286.815
55.96000 279.649
55.97000 273.278
55.98000 268.344
55.99000 273.333
56.00000 277.882
56.01000 278.306
56.02000 269.822
56.03000 261.035
56.04000 253.443
56.05000 247.585
56.06000 241.741
56.07000 235.396
56.08000 228.584
56.09000 221.805
56.10000 217.403
56.11000 214.461
56.12000 211.451
56.13000 206.873
56.14000 201.646
56.15000 196.758
56.16000 199.854
56.17000 204.692
56.18000 207.960
56.19000 200.823
56.20000 191.776
56.21000 184.290
56.22000 183.453
56.23000 183.369
56.24000 183.305
56.25000 183.959
56.26000 184.506
56.27000 184.037
56.28000 181.611
56.29000 179.137
56.30000 179.210
56.31000 182.552
56.32000 185.902
56.33000 186.402
56.34000 184.555
56.35000 182.697
56.36000 180.286
56.37000 177.572
56.38000 174.907
56.39000 173.099
56.40000 171.609
56.41000 170.234
56.42000 170.692
56.43000 171.510
56.44000 172.291
56.45000 172.851
56.46000 173.376
56.47000 173.251
56.48000 170.674
56.49000 167.859
56.50000 165.812
56.51000 164.458
56.52000 163.443
56.53000 162.394
56.54000 161.289
56.55000 160.182
56.56000 158.499
56.57000 156.161
56.58000 153.830
56.59000 154.742
56.60000 157.995
56.61000 161.134
56.62000 160.450
56.63000 157.898
56.64000 155.682
56.65000 158.391
56.66000 162.729
56.67000 166.670
56.68000 162.774
56.69000 157.806
56.70000 153.441
56.71000 152.145
56.72000 151.280
56.73000 151.274
56.74000 154.157
56.75000 157.275
56.76000 159.465
56.77000 162.421
56.78000 164.681
56.79000 164.364
56.80000 160.107
56.81000 155.808
56.82000 153.180
56.83000 152.215
56.84000 151.256
56.85000 150.652
56.86000 150.283
56.87000 150.011
56.88000 152.193
56.89000 155.446
56.90000 158.301
56.91000 156.325
56.92000 152.925
56.93000 149.886
56.94000 149.355
56.95000 149.317
56.96000 150.406
56.97000 156.560
56.98000 163.328
56.99000 167.799
57.00000 165.390
57.01000 162.518
57.02000 160.577
57.03000 157.522
57.04000 155.223
57.05000 153.648
57.06000 153.054
57.07000 152.465
57.08000 152.037
57.09000 151.749
57.10000 151.464
57.11000 152.738
57.12000 154.861
57.13000 156.848
57.14000 156.152
57.15000 154.410
57.16000 152.619
57.17000 150.335
57.18000 147.922
57.19000 145.803
57.20000 147.179
57.21000 148.875
57.22000 150.146
57.23000 149.724
57.24000 149.126
57.25000 148.819
57.26000 149.291
57.27000 149.805
57.28000 150.138
57.29000 144.798
57.30000 140.803
57.31000 140.551
57.32000 144.787
57.33000 149.030
57.34000 152.690
57.35000 155.900
57.36000 159.057
57.37000 156.862
57.38000 152.076
57.39000 147.773
57.40000 151.189
57.41000 157.290
57.42000 162.369
57.43000 158.524
57.44000 152.604
57.45000 147.508
57.46000 149.026
57.47000 151.148
57.48000 152.110
57.49000 148.964
57.50000 145.457
57.51000 143.573
57.52000 145.562
57.53000 147.720
57.54000 149.057
57.55000 146.617
57.56000 144.825
57.57000 146.194
57.58000 150.899
57.59000 155.578
57.60000 157.102
57.61000 156.471
57.62000 155.855
57.63000 152.887
57.64000 149.012
57.65000 145.429
57.66000 145.681
57.67000 147.124
57.68000 148.543
57.69000 149.779
57.70000 150.978
57.71000 151.989
57.72000 152.713
57.73000 153.286
57.74000 153.155
57.75000 150.802
57.76000 148.286
57.77000 146.794
57.78000 147.485
57.79000 148.248
57.80000 148.698
57.81000 147.311
57.82000 146.321
57.83000 145.912
57.84000 146.039
57.85000 146.212
57.86000 149.458
57.87000 154.570
57.88000 159.524
57.89000 155.811
57.90000 148.935
57.91000 142.646
57.92000 142.820
57.93000 144.780
57.94000 146.758
57.95000 148.860
57.96000 150.984
57.97000 152.733
57.98000 154.223
57.99000 155.426
58.00000 155.729
58.01000 153.503
58.02000 151.125
58.03000 149.620
58.04000 149.777
58.05000 149.974
58.06000 150.084
58.07000 141.048
58.08000 134.774
58.09000 132.127
58.10000 132.433
58.11000 132.725
58.12000 132.361
58.13000 131.643
58.14000 130.953
58.15000 137.173
58.16000 145.356
58.17000 152.647
58.18000 151.594
58.19000 148.495
58.20000 145.638
58.21000 144.165
58.22000 142.912
58.23000 141.905
58.24000 138.902
58.25000 136.315
58.26000 135.685
58.27000 139.970
58.28000 144.490
58.29000 145.696
58.30000 141.279
58.31000 136.769
58.32000 134.388
58.33000 140.469
58.34000 144.604
58.35000 149.092
58.36000 153.835
58.37000 158.398
58.38000 157.109
58.39000 152.996
58.40000 149.088
58.41000 149.317
58.42000 150.777
58.43000 151.530
58.44000 146.619
58.45000 140.477
58.46000 134.951
58.47000 132.520
58.48000 130.516
58.49000 128.949
58.50000 136.222
58.51000 142.587
58.52000 147.119
58.53000 147.538
58.54000 147.803
58.55000 146.165
58.56000 141.656
58.57000 137.118
58.58000 136.091
58.59000 138.506
58.60000 140.907
58.61000 142.143
58.62000 142.634
58.63000 143.158
58.64000 144.474
58.65000 146.132
58.66000 147.688
58.67000 147.735
58.68000 147.378
58.69000 146.645
58.70000 143.310
58.71000 139.476
58.72000 137.107
58.73000 141.240
58.74000 146.147
58.75000 149.873
58.76000 144.535
58.77000 139.870
58.78000 137.472
58.79000 139.613
58.80000 141.880
58.81000 144.776
58.82000 148.511
58.83000 152.248
58.84000 150.909
58.85000 145.209
58.86000 139.628
58.87000 140.452
58.88000 144.923
58.89000 149.211
58.90000 149.948
58.91000 149.318
58.92000 148.734
58.93000 147.401
58.94000 146.027
58.95000 144.868
58.96000 145.006
58.97000 145.362
58.98000 145.029
58.99000 141.984
59.00000 138.663
59.01000 136.220
59.02000 136.497
59.03000 136.824
59.04000 139.865
59.05000 147.753
59.06000 155.736
59.07000 157.729
59.08000 152.636
59.09000 147.545
59.10000 146.065
59.11000 147.325
59.12000 148.495
59.13000 146.282
59.14000 142.351
59.15000 138.710
59.16000 139.611
59.17000 142.073
59.18000 144.322
59.19000 141.200
59.20000 137.333
59.21000 134.194
59.22000 134.918
59.23000 136.209
59.24000 137.368
59.25000 138.062
59.26000 138.716
59.27000 139.181
59.28000 142.242
59.29000 144.656
59.30000 145.371
59.31000 143.385
59.32000 141.364
59.33000 139.626
59.34000 138.183
59.35000 136.747
59.36000 134.755
59.37000 132.418
59.38000 130.292
59.39000 134.019
59.40000 140.399
59.41000 146.352
59.42000 146.783
59.43000 145.521
59.44000 144.387
59.45000 141.707
59.46000 139.086
59.47000 136.809
59.48000 136.145
59.49000 135.687
59.50000 134.907
59.51000 133.125
59.52000 131.271
59.53000 130.002
59.54000 130.520
59.55000 130.952
59.56000 130.947
59.57000 130.325
59.58000 129.700
59.59000 132.596
59.60000 138.702
59.61000 144.750
59.62000 146.094
59.63000 144.648
59.64000 143.290
59.65000 143.831
59.66000 145.141
59.67000 146.206
59.68000 144.628
59.69000 142.328
59.70000 140.295
59.71000 141.798
59.72000 143.641
59.73000 145.022
59.74000 144.489
59.75000 143.747
59.76000 142.294
59.77000 138.868
59.78000 135.326
59.79000 132.996
59.80000 131.600
59.81000 130.589
59.82000 131.798
59.83000 135.785
59.84000 139.771
59.85000 140.318
59.86000 138.102
59.87000 135.918
59.88000 137.540
59.89000 141.087
59.90000 144.502
59.91000 145.633
59.92000 145.939
59.93000 145.903
59.94000 142.729
59.95000 138.796
59.96000 135.386
59.97000 139.391
59.98000 143.786
59.99000 146.308
60.00000 141.929
60.01000 136.908
60.02000 132.907
60.03000 131.438
60.04000 130.087
60.05000 129.236
60.06000 137.844
60.07000 144.181
60.08000 144.683
60.09000 138.753
60.10000 132.866
60.11000 133.726
60.12000 139.384
60.13000 144.923
60.14000 144.426
60.15000 141.184
60.16000 138.167
60.17000 138.331
60.18000 139.520
60.19000 141.082
60.20000 145.585
60.21000 150.720
60.22000 155.080
60.23000 153.128
60.24000 150.770
60.25000 149.104
60.26000 149.707
60.27000 150.487
60.28000 149.872
60.29000 146.167
60.30000 142.350
60.31000 140.058
60.32000 133.937
60.33000 129.561
60.34000 128.039
60.35000 129.274
60.36000 130.486
60.37000 129.854
60.38000 128.056
60.39000 126.310
60.40000 129.799
60.41000 135.233
60.42000 140.180
60.43000 139.446
60.44000 137.079
60.45000 135.079
60.46000 135.594
60.47000 136.585
60.48000 137.408
60.49000 137.770
60.50000 138.024
60.51000 138.141
60.52000 137.854
60.53000 137.541
60.54000 137.706
60.55000 138.818
60.56000 139.956
60.57000 140.605
60.58000 138.060
60.59000 136.274
60.60000 134.053
60.61000 131.464
60.62000 128.897
60.63000 127.476
60.64000 126.698
60.65000 125.950
60.66000 123.921
60.67000 121.560
60.68000 119.717
60.69000 123.003
60.70000 127.600
60.71000 131.642
60.72000 132.376
60.73000 132.561
60.74000 132.710
60.75000 134.008
60.76000 135.160
60.77000 136.552
60.78000 138.574
60.79000 140.628
60.80000 141.293
60.81000 139.509
60.82000 137.678
60.83000 136.692
60.84000 140.250
60.85000 142.675
60.86000 142.524
60.87000 140.438
60.88000 138.427
60.89000 139.133
60.90000 141.201
60.91000 143.173
60.92000 138.804
60.93000 132.755
60.94000 127.565
60.95000 129.635
60.96000 133.348
60.97000 137.164
60.98000 141.516
60.99000 145.945
61.00000 149.441
61.01000 147.280
61.02000 145.163
61.03000 143.122
61.04000 141.258
61.05000 139.401
61.06000 138.992
61.07000 140.856
61.08000 142.747
61.09000 143.705
61.10000 141.514
61.11000 140.053
61.12000 139.181
61.13000 138.701
61.14000 138.142
61.15000 135.461
61.16000 131.831
61.17000 128.408
61.18000 130.852
61.19000 134.718
61.20000 138.108
61.21000 138.035
61.22000 137.268
61.23000 136.289
61.24000 134.333
61.25000 132.254
61.26000 130.659
61.27000 140.371
61.28000 148.672
61.29000 153.404
61.30000 150.711
61.31000 147.787
61.32000 146.712
61.33000 148.213
61.34000 149.731
61.35000 148.735
61.36000 145.481
61.37000 142.255
61.38000 140.677
61.39000 140.075
61.40000 139.549
61.41000 140.622
61.42000 142.335
61.43000 143.929
61.44000 143.711
61.45000 143.071
61.46000 143.758
61.47000 152.849
61.48000 163.421
61.49000 173.335
61.50000 180.560
61.51000 187.496
61.52000 192.655
61.53000 209.194
61.54000 222.566
61.55000 237.409
61.56000 254.986
61.57000 272.624
61.58000 290.479
61.59000 308.603
61.60000 326.694
61.61000 339.375
61.62000 347.726
61.63000 355.925
61.64000 357.776
61.65000 356.276
61.66000 355.170
61.67000 360.677
61.68000 368.547
61.69000 375.771
61.70000 375.274
61.71000 373.183
61.72000 370.798
61.73000 366.779
61.74000 362.509
61.75000 354.287
61.76000 331.691
61.77000 307.782
61.78000 290.583
61.79000 283.873
61.80000 279.103
61.81000 265.477
61.82000 237.199
61.83000 208.702
61.84000 192.477
61.85000 189.592
61.86000 186.725
61.87000 182.397
61.88000 177.099
61.89000 171.829
61.90000 167.425
61.91000 163.429
61.92000 159.723
61.93000 160.009
61.94000 161.567
61.95000 162.975
61.96000 157.925
61.97000 152.280
61.98000 147.825
61.99000 149.191
62.00000 151.335
62.01000 152.527
62.02000 150.635
62.03000 148.507
62.04000 147.030
62.05000 147.354
62.06000 147.646
62.07000 147.919
62.08000 148.162
62.09000 148.405
62.10000 148.391
62.11000 148.131
62.12000 147.873
62.13000 145.377
62.14000 141.554
62.15000 137.912
62.16000 138.498
62.17000 140.862
62.18000 143.139
62.19000 144.408
62.20000 145.392
62.21000 146.266
62.22000 146.257
62.23000 146.106
62.24000 146.288
62.25000 147.912
62.26000 149.702
62.27000 150.517
62.28000 148.518
62.29000 146.341
62.30000 144.888
62.31000 150.256
62.32000 154.363
62.33000 156.560
62.34000 156.268
62.35000 155.963
62.36000 154.538
62.37000 152.175
62.38000 149.841
62.39000 145.768
62.40000 140.862
62.41000 136.426
62.42000 140.687
62.43000 148.214
62.44000 155.088
62.45000 155.612
62.46000 154.535
62.47000 153.596
62.48000 151.376
62.49000 149.299
62.50000 147.081
62.51000 144.328
62.52000 141.522
62.53000 140.549
62.54000 144.304
62.55000 148.298
62.56000 150.852
62.57000 151.972
62.58000 152.769
62.59000 152.792
62.60000 151.924
62.61000 151.055
62.62000 150.090
62.63000 149.056
62.64000 148.041
62.65000 148.730
62.66000 150.208
62.67000 151.679
62.68000 153.024
62.69000 154.327
62.70000 155.244
62.71000 152.956
62.72000 149.951
62.73000 147.381
62.74000 146.538
62.75000 146.034
62.76000 146.048
62.77000 147.827
62.78000 149.753
62.79000 150.604
62.80000 148.980
62.81000 147.259
62.82000 146.208
62.83000 153.051
62.84000 158.009
62.85000 159.817
62.86000 158.442
62.87000 157.059
62.88000 154.961
62.89000 152.392
62.90000 149.889
62.91000 151.128
62.92000 153.889
62.93000 156.526
62.94000 157.633
62.95000 158.283
62.96000 158.180
62.97000 152.672
62.98000 146.098
62.99000 140.596
63.00000 145.564
63.01000 150.765
63.02000 155.222
63.03000 157.420
63.04000 159.463
63.05000 159.914
63.06000 157.090
63.07000 154.169
63.08000 152.472
63.09000 155.026
63.10000 156.835
63.11000 155.919
63.12000 152.586
63.13000 149.315
63.14000 149.676
63.15000 152.163
63.16000 154.565
63.17000 155.190
63.18000 155.116
63.19000 154.733
63.20000 151.112
63.21000 146.630
63.22000 143.402
63.23000 148.010
63.24000 153.979
63.25000 158.856
63.26000 154.619
63.27000 150.360
63.28000 147.129
63.29000 146.685
63.30000 146.397
63.31000 147.168
63.32000 149.881
63.33000 152.637
63.34000 154.151
63.35000 149.370
63.36000 146.089
63.37000 148.344
63.38000 154.931
63.39000 161.358
63.40000 161.300
63.41000 157.860
63.42000 154.568
63.43000 148.674
63.44000 142.328
63.45000 137.045
63.46000 141.221
63.47000 147.629
63.48000 153.236
63.49000 154.454
63.50000 155.006
63.51000 155.446
63.52000 153.945
63.53000 152.594
63.54000 151.996
63.55000 153.218
63.56000 154.522
63.57000 154.413
63.58000 151.996
63.59000 149.547
63.60000 148.279
63.61000 151.190
63.62000 153.145
63.63000 153.945
63.64000 153.945
63.65000 153.941
63.66000 153.800
63.67000 153.595
63.68000 153.402
63.69000 149.528
63.70000 144.900
63.71000 141.335
63.72000 145.911
63.73000 152.188
63.74000 157.686
63.75000 159.435
63.76000 160.691
63.77000 161.664
63.78000 162.609
63.79000 163.357
63.80000 161.640
63.81000 154.589
63.82000 147.355
63.83000 147.213
63.84000 157.368
63.85000 167.608
63.86000 170.545
63.87000 166.622
63.88000 162.741
63.89000 161.952
63.90000 163.067
63.91000 163.998
63.92000 160.715
63.93000 155.681
63.94000 150.973
63.95000 153.818
63.96000 158.324
63.97000 162.440
63.98000 163.966
63.99000 165.016
64.00000 166.061
64.01000 167.086
64.02000 168.108
64.03000 168.877
64.04000 165.773
64.05000 163.159
64.06000 161.226
64.07000 160.608
64.08000 160.023
64.09000 161.527
64.10000 165.718
64.11000 169.914
64.12000 171.306
64.13000 170.381
64.14000 169.467
64.15000 169.084
64.16000 168.993
64.17000 168.918
64.18000 169.156
64.19000 169.509
64.20000 169.836
64.21000 173.318
64.22000 177.143
64.23000 180.581
64.24000 181.772
64.25000 182.600
64.26000 182.476
64.27000 178.744
64.28000 174.664
64.29000 171.695
64.30000 173.443
64.31000 174.969
64.32000 176.176
64.33000 176.835
64.34000 177.485
64.35000 177.468
64.36000 176.695
64.37000 175.923
64.38000 176.146
64.39000 177.089
64.40000 178.032
64.41000 178.988
64.42000 179.951
64.43000 180.707
64.44000 178.436
64.45000 175.162
64.46000 172.186
64.47000 171.396
64.48000 171.124
64.49000 171.074
64.50000 172.153
64.51000 173.390
64.52000 175.247
64.53000 179.193
64.54000 183.309
64.55000 186.201
64.56000 187.536
64.57000 188.502
64.58000 189.144
64.59000 189.290
64.60000 189.431
64.61000 188.523
64.62000 186.570
64.63000 184.629
64.64000 185.853
64.65000 189.081
64.66000 192.259
64.67000 194.168
64.68000 195.523
64.69000 196.793
64.70000 197.035
64.71000 196.973
64.72000 196.918
64.73000 198.924
64.74000 201.023
64.75000 203.305
64.76000 206.415
64.77000 209.625
64.78000 212.113
64.79000 212.434
64.80000 212.609
64.81000 212.727
64.82000 217.944
64.83000 221.940
64.84000 226.370
64.85000 231.388
64.86000 236.408
64.87000 240.177
64.88000 242.854
64.89000 245.500
64.90000 253.695
64.91000 264.828
64.92000 275.638
64.93000 279.991
64.94000 281.824
64.95000 284.479
64.96000 295.572
64.97000 308.880
64.98000 320.567
64.99000 320.483
65.00000 318.680
65.01000 319.346
65.02000 329.867
65.03000 341.412
65.04000 352.358
65.05000 361.699
65.06000 370.951
65.07000 376.956
65.08000 383.914
65.09000 389.024
65.10000 394.874
65.11000 401.612
65.12000 408.348
65.13000 414.157
65.14000 419.249
65.15000 424.257
65.16000 426.670
65.17000 427.712
65.18000 428.615
65.19000 427.284
65.20000 425.174
65.21000 424.119
65.22000 432.300
65.23000 442.631
65.24000 451.529
65.25000 440.890
65.26000 429.402
65.27000 420.222
65.28000 419.228
65.29000 418.954
65.30000 417.624
65.31000 413.765
65.32000 409.797
65.33000 407.335
65.34000 413.310
65.35000 417.691
65.36000 411.441
65.37000 393.955
65.38000 376.574
65.39000 371.655
65.40000 375.265
65.41000 378.791
65.42000 378.194
65.43000 375.808
65.44000 373.058
65.45000 365.487
65.46000 356.418
65.47000 347.836
65.48000 342.929
65.49000 338.779
65.50000 335.279
65.51000 336.122
65.52000 337.295
65.53000 338.027
65.54000 337.367
65.55000 336.604
65.56000 337.041
65.57000 340.042
65.58000 343.127
65.59000 344.951
65.60000 353.062
65.61000 358.827
65.62000 365.344
65.63000 372.556
65.64000 379.946
65.65000 399.415
65.66000 426.234
65.67000 452.222
65.68000 500.874
65.69000 555.732
65.70000 611.641
65.71000 679.145
65.72000 749.858
65.73000 821.220
65.74000 896.829
65.75000 973.208
65.76000 1036.138
65.77000 1121.000
65.78000 1192.839
65.79000 1259.453
65.80000 1311.346
65.81000 1362.353
65.82000 1406.516
65.83000 1437.633
65.84000 1468.433
65.85000 1485.688
65.86000 1493.325
65.87000 1498.584
65.88000 1499.383
65.89000 1496.542
65.90000 1493.153
65.91000 1464.744
65.92000 1422.776
65.93000 1382.479
65.94000 1319.157
65.95000 1252.029
65.96000 1182.640
65.97000 1092.044
65.98000 996.235
65.99000 901.969
66.00000 816.539
66.01000 732.511
66.02000 664.986
66.03000 600.673
66.04000 548.788
66.05000 503.200
66.06000 473.448
66.07000 444.461
66.08000 417.104
66.09000 392.516
66.10000 367.974
66.11000 355.005
66.12000 367.262
66.13000 375.526
66.14000 372.261
66.15000 360.673
66.16000 349.278
66.17000 344.214
66.18000 342.212
66.19000 340.309
66.20000 337.670
66.21000 335.011
66.22000 333.912
66.23000 345.377
66.24000 359.577
66.25000 373.315
66.26000 384.728
66.27000 395.819
66.28000 404.495
66.29000 428.080
66.30000 447.859
66.31000 465.301
66.32000 477.490
66.33000 489.482
66.34000 503.892
66.35000 521.957
66.36000 540.059
66.37000 545.549
66.38000 538.651
66.39000 531.838
66.40000 532.291
66.41000 537.401
66.42000 542.477
66.43000 546.680
66.44000 550.507
66.45000 554.100
66.46000 550.409
66.47000 545.106
66.48000 539.178
66.49000 528.903
66.50000 517.793
66.51000 506.011
66.52000 491.245
66.53000 476.122
66.54000 464.635
66.55000 439.421
66.56000 418.888
66.57000 403.758
66.58000 399.463
66.59000 395.473
66.60000 388.494
66.61000 377.508
66.62000 366.510
66.63000 358.902
66.64000 354.229
66.65000 349.696
66.66000 352.719
66.67000 360.053
66.68000 366.751
66.69000 361.073
66.70000 350.624
66.71000 340.937
66.72000 341.166
66.73000 343.687
66.74000 346.763
66.75000 353.221
66.76000 360.249
66.77000 365.515
66.78000 363.842
66.79000 361.460
66.80000 359.707
66.81000 357.921
66.82000 356.537
66.83000 355.609
66.84000 355.497
66.85000 355.402
66.86000 358.595
66.87000 365.686
66.88000 372.766
66.89000 375.848
66.90000 375.883
66.91000 375.909
66.92000 375.585
66.93000 375.082
66.94000 375.291
66.95000 386.676
66.96000 401.908
66.97000 415.825
66.98000 412.410
66.99000 405.838
67.00000 399.869
67.01000 397.108
67.02000 394.818
67.03000 394.903
67.04000 403.300
67.05000 412.414
67.06000 418.897
67.07000 417.774
67.08000 416.675
67.09000 417.654
67.10000 421.945
67.11000 426.278
67.12000 422.581
67.13000 410.516
67.14000 398.516
67.15000 400.271
67.16000 411.179
67.17000 421.617
67.18000 418.957
67.19000 410.349
67.20000 402.893
67.21000 410.371
67.22000 422.432
67.23000 433.277
67.24000 432.967
67.25000 430.709
67.26000 429.599
67.27000 433.874
67.28000 438.837
67.29000 442.136
67.30000 440.244
67.31000 437.978
67.32000 436.425
67.33000 456.471
67.34000 472.007
67.35000 477.685
67.36000 469.412
67.37000 461.043
67.38000 460.971
67.39000 468.481
67.40000 475.920
67.41000 478.256
67.42000 477.541
67.43000 476.689
67.44000 472.876
67.45000 467.863
67.46000 463.934
67.47000 471.764
67.48000 482.807
67.49000 492.566
67.50000 495.299
67.51000 496.574
67.52000 497.819
67.53000 498.934
67.54000 500.036
67.55000 501.326
67.56000 503.143
67.57000 504.991
67.58000 506.208
67.59000 504.351
67.60000 502.930
67.61000 506.679
67.62000 516.905
67.63000 527.125
67.64000 528.298
67.65000 522.187
67.66000 516.165
67.67000 518.676
67.68000 525.545
67.69000 532.351
67.70000 538.065
67.71000 543.383
67.72000 548.507
67.73000 551.847
67.74000 554.754
67.75000 557.275
67.76000 557.414
67.77000 557.215
67.78000 558.359
67.79000 564.461
67.80000 571.024
67.81000 574.219
67.82000 569.041
67.83000 563.469
67.84000 559.958
67.85000 567.550
67.86000 573.174
67.87000 576.467
67.88000 577.188
67.89000 577.924
67.90000 581.232
67.91000 586.371
67.92000 591.404
67.93000 599.262
67.94000 608.110
67.95000 616.174
67.96000 613.203
67.97000 606.667
67.98000 601.442
67.99000 606.596
68.00000 613.979
68.01000 620.250
68.02000 621.180
68.03000 621.350
68.04000 624.459
68.05000 637.224
68.06000 650.744
68.07000 660.364
68.08000 661.328
68.09000 661.976
68.10000 662.366
68.11000 657.857
68.12000 654.618
68.13000 656.047
68.14000 661.997
68.15000 667.921
68.16000 671.775
68.17000 674.320
68.18000 676.792
68.19000 684.716
68.20000 694.454
68.21000 703.952
68.22000 710.632
68.23000 716.502
68.24000 723.255
68.25000 736.068
68.26000 750.029
68.27000 761.624
68.28000 761.275
68.29000 759.825
68.30000 759.607
68.31000 762.994
68.32000 766.614
68.33000 772.300
68.34000 782.078
68.35000 791.967
68.36000 797.611
68.37000 809.335
68.38000 817.536
68.39000 826.357
68.40000 835.705
68.41000 845.104
68.42000 857.131
68.43000 870.639
68.44000 883.651
68.45000 903.475
68.46000 924.531
68.47000 944.665
68.48000 955.662
68.49000 964.320
68.50000 972.057
68.51000 974.273
68.52000 975.573
68.53000 976.626
68.54000 994.490
68.55000 1010.419
68.56000 1039.445
68.57000 1102.709
68.58000 1167.759
68.59000 1221.269
68.60000 1254.392
68.61000 1287.126
68.62000 1304.780
68.63000 1412.380
68.64000 1486.094
68.65000 1565.562
68.66000 1649.357
68.67000 1732.892
68.68000 1806.948
68.69000 1876.241
68.70000 1942.324
68.71000 2035.527
68.72000 2130.558
68.73000 2223.229
68.74000 2295.942
68.75000 2364.126
68.76000 2435.205
68.77000 2521.496
68.78000 2609.993
68.79000 2679.865
68.80000 2807.596
68.81000 2914.034
68.82000 3042.205
68.83000 3221.109
68.84000 3402.096
68.85000 3645.317
68.86000 3986.426
68.87000 4328.728
68.88000 4502.194
68.89000 5684.471
68.90000 6483.122
68.91000 7985.866
68.92000 9958.290
68.93000 11981.960
68.94000 15395.080
68.95000 19431.512
68.96000 23237.852
68.97000 29532.307
68.98000 35989.715
68.99000 42514.840
69.00000 49534.652
69.01000 56653.633
69.02000 63545.191
69.03000 69383.094
69.04000 75088.664
69.05000 79466.984
69.06000 83246.195
69.07000 86199.352
69.08000 88511.500
69.09000 89487.563
69.10000 90421.984
69.11000 91302.750
69.12000 92108.570
69.13000 92913.602
69.14000 93737.102
69.15000 94576.414
69.16000 95403.625
69.17000 95478.555
69.18000 95107.156
69.19000 94651.820
69.20000 92429.828
69.21000 89500.039
69.22000 86771.852
69.23000 82057.305
69.24000 77309.813
69.25000 72665.398
69.26000 68676.055
69.27000 64802.215
69.28000 61078.543
69.29000 57970.906
69.30000 54929.684
69.31000 52666.719
69.32000 50439.832
69.33000 48708.945
69.34000 47098.723
69.35000 45712.906
69.36000 44332.133
69.37000 42563.641
69.38000 40315.914
69.39000 38070.902
69.40000 35155.859
69.41000 31724.391
69.42000 28291.621
69.43000 24803.865
69.44000 21287.033
69.45000 17813.639
69.46000 15071.859
69.47000 12591.784
69.48000 10314.388
69.49000 8499.123
69.50000 6978.358
69.51000 5568.374
69.52000 4774.762
69.53000 4076.228
69.54000 3449.843
69.55000 3086.333
69.56000 2746.886
69.57000 2502.583
69.58000 2307.895
69.59000 2160.567
69.60000 2032.015
69.61000 1934.577
69.62000 1837.608
69.63000 1750.184
69.64000 1673.155
69.65000 1596.466
69.66000 1540.661
69.67000 1499.974
69.68000 1459.314
69.69000 1419.460
69.70000 1379.987
69.71000 1341.097
69.72000 1310.255
69.73000 1281.980
69.74000 1256.413
69.75000 1219.716
69.76000 1185.346
69.77000 1151.389
69.78000 1119.455
69.79000 1087.793
69.80000 1060.203
69.81000 1045.824
69.82000 1032.457
69.83000 1023.178
69.84000 991.904
69.85000 967.757
69.86000 948.177
69.87000 935.325
69.88000 922.533
69.89000 909.054
69.90000 894.919
69.91000 880.898
69.92000 868.101
69.93000 856.282
69.94000 844.930
69.95000 844.548
69.96000 848.788
69.97000 851.535
69.98000 837.104
69.99000 817.791
70.00000 800.620
