20.00000 556.393
20.01000 553.139
20.02000 549.421
20.03000 547.434
20.04000 552.199
20.05000 557.643
20.06000 561.638
20.07000 571.025
20.08000 578.496
20.09000 583.676
20.10000 584.799
20.11000 585.843
20.12000 584.317
20.13000 579.778
20.14000 575.246
20.15000 571.777
20.16000 569.126
20.17000 566.548
20.18000 566.595
20.19000 567.964
20.20000 569.203
20.21000 568.433
20.22000 566.978
20.23000 565.651
20.24000 563.990
20.25000 562.449
20.26000 561.036
20.27000 560.292
20.28000 559.646
20.29000 558.468
20.30000 555.446
20.31000 552.267
20.32000 550.013
20.33000 546.805
20.34000 544.336
20.35000 546.397
20.36000 555.599
20.37000 564.890
20.38000 570.750
20.39000 573.078
20.40000 575.392
20.41000 571.988
20.42000 564.856
20.43000 557.685
20.44000 549.427
20.45000 540.682
20.46000 533.366
20.47000 544.246
20.48000 560.655
20.49000 575.389
20.50000 583.734
20.51000 589.912
20.52000 592.225
20.53000 576.592
20.54000 558.699
20.55000 544.842
20.56000 543.446
20.57000 542.933
20.58000 542.582
20.59000 557.435
20.60000 568.901
20.61000 570.757
20.62000 559.159
20.63000 547.476
20.64000 544.800
20.65000 550.262
20.66000 555.669
20.67000 562.912
20.68000 571.068
20.69000 578.645
20.70000 573.957
20.71000 564.343
20.72000 555.368
20.73000 553.215
20.74000 552.906
20.75000 552.633
20.76000 552.326
20.77000 552.055
20.78000 551.910
20.79000 552.284
20.80000 552.713
20.81000 555.942
20.82000 566.889
20.83000 578.281
20.84000 585.754
20.85000 576.645
20.86000 569.670
20.87000 567.217
20.88000 570.366
20.89000 573.513
20.90000 570.843
20.91000 563.541
20.92000 556.349
20.93000 552.452
20.94000 550.367
20.95000 548.169
20.96000 544.046
20.97000 539.234
20.98000 535.285
20.99000 539.181
21.00000 544.960
21.01000 549.962
21.02000 549.119
21.03000 547.634
21.04000 547.285
21.05000 551.089
21.06000 555.274
21.07000 556.583
21.08000 550.816
21.09000 544.723
21.10000 540.898
21.11000 538.839
21.12000 537.370
21.13000 542.715
21.14000 555.499
21.15000 568.216
21.16000 571.340
21.17000 567.699
21.18000 564.137
21.19000 555.803
21.20000 545.637
21.21000 536.224
21.22000 537.240
21.23000 541.591
21.24000 545.516
21.25000 546.122
21.26000 546.021
21.27000 545.936
21.28000 533.244
21.29000 521.186
21.30000 515.334
21.31000 529.658
21.32000 545.535
21.33000 554.823
21.34000 549.634
21.35000 543.929
21.36000 540.516
21.37000 543.371
21.38000 545.438
21.39000 549.295
21.40000 554.867
21.41000 560.386
21.42000 561.917
21.43000 560.949
21.44000 560.009
21.45000 552.900
21.46000 543.678
21.47000 535.421
21.48000 538.290
21.49000 544.330
21.50000 549.414
21.51000 548.028
21.52000 545.430
21.53000 543.276
21.54000 551.088
21.55000 558.494
21.56000 563.377
21.57000 560.949
21.58000 558.057
21.59000 555.352
21.60000 553.014
21.61000 550.687
21.62000 549.365
21.63000 547.830
21.64000 546.765
21.65000 548.547
21.66000 552.725
21.67000 556.730
21.68000 552.110
21.69000 542.680
21.70000 533.603
21.71000 540.824
21.72000 553.365
21.73000 565.135
21.74000 569.368
21.75000 571.693
21.76000 573.458
21.77000 571.914
21.78000 569.826
21.79000 568.137
21.80000 565.126
21.81000 562.570
21.82000 562.886
21.83000 570.637
21.84000 578.769
21.85000 585.669
21.86000 590.417
21.87000 595.125
21.88000 597.651
21.89000 603.334
21.90000 607.216
21.91000 611.057
21.92000 614.866
21.93000 618.722
21.94000 624.236
21.95000 630.575
21.96000 636.614
21.97000 640.769
21.98000 644.031
21.99000 646.582
22.00000 643.186
22.01000 638.455
22.02000 636.778
22.03000 650.961
22.04000 667.416
22.05000 680.376
22.06000 663.164
22.07000 647.354
22.08000 639.624
22.09000 650.569
22.10000 662.264
22.11000 666.318
22.12000 658.479
22.13000 650.502
22.14000 646.483
22.15000 633.640
22.16000 625.093
22.17000 620.159
22.18000 617.609
22.19000 614.850
22.20000 606.517
22.21000 595.709
22.22000 585.529
22.23000 591.564
22.24000 601.538
22.25000 609.486
22.26000 602.809
22.27000 593.234
22.28000 583.441
22.29000 572.653
22.30000 561.742
22.31000 553.391
22.32000 547.700
22.33000 543.355
22.34000 542.692
22.35000 549.628
22.36000 556.794
22.37000 557.871
22.38000 550.536
22.39000 543.150
22.40000 539.660
22.41000 539.640
22.42000 539.634
22.43000 540.416
22.44000 541.661
22.45000 542.957
22.46000 545.314
22.47000 548.090
22.48000 550.673
22.49000 544.784
22.50000 537.423
22.51000 531.427
22.52000 533.999
22.53000 538.065
22.54000 541.214
22.55000 540.643
22.56000 539.676
22.57000 538.959
22.58000 534.011
22.59000 529.981
22.60000 530.037
22.61000 537.614
22.62000 545.354
22.63000 544.227
22.64000 532.257
22.65000 520.284
22.66000 514.075
22.67000 512.404
22.68000 510.882
22.69000 515.490
22.70000 523.305
22.71000 530.324
22.72000 524.165
22.73000 513.338
22.74000 503.409
22.75000 505.134
22.76000 509.133
22.77000 512.653
22.78000 513.540
22.79000 514.026
22.80000 515.234
22.81000 519.044
22.82000 523.088
22.83000 525.990
22.84000 522.065
22.85000 518.830
22.86000 520.023
22.87000 528.478
22.88000 537.039
22.89000 538.834
22.90000 533.345
22.91000 527.879
22.92000 524.933
22.93000 523.753
22.94000 522.620
22.95000 522.861
22.96000 523.744
22.97000 524.337
22.98000 521.001
22.99000 516.423
23.00000 512.290
23.01000 510.414
23.02000 509.182
23.03000 509.635
23.04000 518.254
23.05000 527.953
23.06000 534.483
23.07000 530.834
23.08000 526.418
23.09000 523.362
23.10000 523.919
23.11000 524.432
23.12000 523.371
23.13000 520.016
23.14000 516.642
23.15000 515.560
23.16000 516.643
23.17000 517.717
23.18000 515.627
23.19000 511.656
23.20000 508.095
23.21000 513.970
23.22000 523.781
23.23000 532.783
23.24000 532.623
23.25000 529.884
23.26000 527.454
23.27000 526.589
23.28000 526.091
23.29000 524.145
23.30000 516.002
23.31000 507.152
23.32000 503.408
23.33000 514.282
23.34000 526.062
23.35000 533.899
23.36000 526.949
23.37000 521.529
23.38000 518.056
23.39000 517.098
23.40000 516.150
23.41000 515.064
23.42000 513.864
23.43000 512.680
23.44000 514.550
23.45000 518.006
23.46000 521.125
23.47000 518.100
23.48000 512.786
23.49000 507.455
23.50000 501.948
23.51000 496.397
23.52000 491.560
23.53000 500.070
23.54000 509.189
23.55000 516.018
23.56000 514.145
23.57000 511.426
23.58000 507.935
23.59000 502.469
23.60000 496.904
23.61000 493.358
23.62000 495.642
23.63000 497.378
23.64000 500.817
23.65000 506.200
23.66000 511.563
23.67000 513.169
23.68000 512.017
23.69000 510.887
23.70000 511.244
23.71000 512.292
23.72000 512.962
23.73000 508.043
23.74000 501.267
23.75000 496.062
23.76000 503.771
23.77000 514.341
23.78000 523.367
23.79000 523.621
23.80000 522.794
23.81000 520.318
23.82000 512.266
23.83000 503.758
23.84000 496.476
23.85000 491.994
23.86000 487.620
23.87000 484.959
23.88000 499.133
23.89000 509.388
23.90000 517.643
23.91000 523.895
23.92000 530.025
23.93000 524.882
23.94000 512.392
23.95000 500.230
23.96000 503.759
23.97000 513.682
23.98000 523.089
23.99000 526.180
24.00000 527.399
24.01000 528.076
24.02000 524.905
24.03000 520.982
24.04000 517.705
24.05000 518.252
24.06000 519.094
24.07000 518.560
24.08000 513.880
24.09000 508.918
24.10000 505.497
24.11000 505.215
24.12000 505.025
24.13000 504.916
24.14000 506.546
24.15000 507.694
24.16000 507.241
24.17000 505.382
24.18000 503.598
24.19000 506.104
24.20000 511.099
24.21000 515.922
24.22000 511.072
24.23000 502.934
24.24000 495.530
24.25000 495.689
24.26000 497.842
24.27000 499.330
24.28000 496.696
24.29000 493.353
24.30000 490.627
24.31000 489.617
24.32000 488.939
24.33000 490.605
24.34000 498.578
24.35000 506.898
24.36000 511.908
24.37000 510.897
24.38000 509.761
24.39000 509.139
24.40000 507.442
24.41000 506.300
24.42000 511.950
24.43000 522.866
24.44000 533.371
24.45000 527.597
24.46000 513.408
24.47000 499.841
24.48000 499.097
24.49000 502.579
24.50000 504.802
24.51000 495.960
24.52000 484.529
24.53000 475.768
24.54000 481.489
24.55000 489.384
24.56000 495.659
24.57000 504.530
24.58000 511.861
24.59000 512.622
24.60000 497.609
24.61000 481.905
24.62000 477.661
24.63000 491.977
24.64000 506.547
24.65000 514.051
24.66000 488.643
24.67000 471.677
24.68000 472.103
24.69000 484.481
24.70000 496.416
24.71000 495.454
24.72000 488.541
24.73000 482.004
24.74000 478.611
24.75000 476.394
24.76000 475.396
24.77000 483.627
24.78000 493.767
24.79000 500.565
24.80000 491.388
24.81000 480.130
24.82000 471.428
24.83000 478.012
24.84000 484.132
24.85000 488.048
24.86000 487.239
24.87000 486.271
24.88000 484.033
24.89000 479.968
24.90000 475.888
24.91000 474.331
24.92000 475.121
24.93000 475.982
24.94000 481.788
24.95000 490.613
24.96000 498.933
24.97000 495.954
24.98000 488.319
24.99000 481.187
25.00000 478.580
25.01000 477.356
25.02000 476.791
25.03000 480.561
25.04000 485.120
25.05000 487.781
25.06000 482.418
25.07000 476.156
25.08000 471.460
25.09000 471.487
25.10000 471.732
25.11000 472.617
25.12000 474.728
25.13000 476.869
25.14000 476.204
25.15000 471.964
25.16000 467.716
25.17000 467.828
25.18000 471.499
25.19000 475.090
25.20000 474.958
25.21000 472.801
25.22000 470.551
25.23000 466.651
25.24000 462.145
25.25000 457.991
25.26000 467.957
25.27000 479.997
25.28000 489.964
25.29000 488.015
25.30000 484.163
25.31000 480.892
25.32000 479.800
25.33000 478.917
25.34000 478.275
25.35000 471.819
25.36000 466.637
25.37000 464.474
25.38000 467.458
25.39000 470.529
25.40000 472.957
25.41000 474.663
25.42000 476.361
25.43000 477.395
25.44000 477.942
25.45000 478.363
25.46000 474.634
25.47000 468.891
25.48000 463.478
25.49000 462.854
25.50000 463.804
25.51000 464.665
25.52000 465.384
25.53000 465.991
25.54000 467.156
25.55000 471.143
25.56000 475.520
25.57000 479.335
25.58000 481.267
25.59000 483.048
25.60000 484.296
25.61000 473.097
25.62000 464.269
25.63000 461.112
25.64000 466.559
25.65000 472.096
25.66000 475.384
25.67000 476.453
25.68000 477.515
25.69000 473.978
25.70000 467.583
25.71000 461.365
25.72000 459.575
25.73000 459.704
25.74000 459.866
25.75000 460.429
25.76000 461.111
25.77000 461.719
25.78000 457.688
25.79000 453.397
25.80000 451.016
25.81000 457.154
25.82000 464.314
25.83000 469.719
25.84000 469.899
25.85000 469.731
25.86000 469.619
25.87000 465.584
25.88000 462.500
25.89000 461.198
25.90000 462.296
25.91000 463.398
25.92000 458.484
25.93000 448.354
25.94000 438.339
25.95000 444.224
25.96000 458.855
25.97000 472.681
25.98000 470.707
25.99000 462.619
26.00000 455.819
26.01000 462.076
26.02000 471.731
26.03000 480.198
26.04000 462.570
26.05000 443.638
26.06000 431.208
26.07000 444.499
26.08000 460.431
26.09000 471.294
26.10000 468.689
26.11000 465.360
26.12000 463.206
26.13000 463.507
26.14000 463.763
26.15000 462.493
26.16000 459.406
26.17000 456.324
26.18000 455.004
26.19000 455.034
26.20000 455.063
26.21000 454.353
26.22000 453.301
26.23000 452.216
26.24000 450.598
26.25000 448.797
26.26000 447.229
26.27000 447.679
26.28000 448.594
26.29000 449.382
26.30000 450.432
26.31000 451.354
26.32000 453.368
26.33000 459.219
26.34000 465.403
26.35000 467.202
26.36000 458.597
26.37000 449.549
26.38000 443.955
26.39000 445.085
26.40000 445.960
26.41000 446.888
26.42000 447.871
26.43000 448.865
26.44000 450.936
26.45000 453.739
26.46000 456.475
26.47000 455.829
26.48000 453.736
26.49000 451.554
26.50000 448.213
26.51000 444.516
26.52000 441.169
26.53000 440.434
26.54000 440.232
26.55000 440.063
26.56000 435.235
26.57000 430.710
26.58000 429.084
26.59000 436.540
26.60000 444.653
26.61000 450.737
26.62000 452.520
26.63000 454.164
26.64000 455.131
26.65000 450.436
26.66000 447.096
26.67000 447.850
26.68000 452.360
26.69000 456.776
26.70000 454.953
26.71000 449.365
26.72000 443.955
26.73000 440.828
26.74000 438.750
26.75000 437.105
26.76000 440.192
26.77000 444.577
26.78000 448.963
26.79000 453.346
26.80000 457.730
26.81000 461.336
26.82000 460.024
26.83000 458.501
26.84000 458.402
26.85000 462.286
26.86000 466.405
26.87000 464.823
26.88000 452.465
26.89000 439.852
26.90000 432.815
26.91000 439.846
26.92000 444.729
26.93000 444.295
26.94000 439.561
26.95000 434.985
26.96000 437.406
26.97000 443.586
26.98000 449.515
26.99000 455.989
27.00000 462.224
27.01000 467.999
27.02000 469.521
27.03000 470.005
27.04000 468.271
27.05000 453.964
27.06000 437.679
27.07000 424.617
27.08000 432.033
27.09000 439.593
27.10000 443.948
27.11000 440.308
27.12000 436.289
27.13000 430.678
27.14000 422.387
27.15000 414.053
27.16000 409.669
27.17000 426.062
27.18000 437.162
27.19000 444.389
27.20000 448.844
27.21000 453.293
27.22000 457.512
27.23000 461.622
27.24000 465.524
27.25000 456.803
27.26000 444.975
27.27000 434.885
27.28000 438.630
27.29000 445.359
27.30000 449.543
27.31000 441.045
27.32000 430.811
27.33000 422.823
27.34000 423.581
27.35000 424.734
27.36000 428.480
27.37000 438.004
27.38000 447.741
27.39000 452.179
27.40000 448.680
27.41000 445.104
27.42000 444.736
27.43000 447.488
27.44000 450.194
27.45000 449.141
27.46000 445.699
27.47000 442.171
27.48000 436.544
27.49000 430.020
27.50000 423.898
27.51000 426.994
27.52000 432.242
27.53000 437.241
27.54000 440.523
27.55000 443.480
27.56000 445.379
27.57000 442.622
27.58000 439.316
27.59000 436.810
27.60000 438.607
27.61000 440.238
27.62000 441.829
27.63000 443.340
27.64000 444.850
27.65000 444.827
27.66000 442.767
27.67000 440.700
27.68000 441.938
27.69000 445.994
27.70000 449.836
27.71000 442.438
27.72000 428.683
27.73000 415.766
27.74000 418.900
27.75000 428.171
27.76000 436.757
27.77000 430.552
27.78000 421.556
27.79000 414.656
27.80000 420.368
27.81000 428.185
27.82000 434.462
27.83000 434.723
27.84000 434.376
27.85000 434.122
27.86000 431.500
27.87000 429.378
27.88000 426.050
27.89000 420.585
27.90000 415.078
27.91000 419.695
27.92000 436.196
27.93000 452.672
27.94000 450.574
27.95000 434.557
27.96000 418.884
27.97000 415.876
27.98000 419.256
27.99000 422.496
28.00000 423.568
28.01000 423.900
28.02000 424.202
28.03000 422.478
28.04000 420.538
28.05000 421.506
28.06000 437.816
28.07000 456.362
28.08000 468.687
28.09000 459.410
28.10000 448.292
28.11000 440.406
28.12000 432.887
28.13000 427.180
28.14000 424.486
28.15000 426.550
28.16000 428.673
28.17000 427.722
28.18000 423.599
28.19000 419.499
28.20000 419.766
28.21000 422.915
28.22000 425.887
28.23000 424.013
28.24000 419.957
28.25000 416.052
28.26000 414.080
28.27000 412.695
28.28000 411.452
28.29000 425.192
28.30000 439.854
28.31000 452.101
28.32000 453.110
28.33000 452.700
28.34000 448.980
28.35000 435.019
28.36000 420.332
28.37000 410.294
28.38000 421.851
28.39000 431.006
28.40000 437.146
28.41000 439.055
28.42000 440.936
28.43000 442.507
28.44000 443.798
28.45000 445.077
28.46000 440.202
28.47000 431.841
28.48000 423.834
28.49000 423.329
28.50000 425.841
28.51000 428.112
28.52000 427.787
28.53000 426.760
28.54000 425.854
28.55000 426.209
28.56000 426.708
28.57000 427.543
28.58000 429.760
28.59000 432.126
28.60000 433.103
28.61000 430.246
28.62000 427.167
28.63000 425.145
28.64000 429.702
28.65000 433.164
28.66000 433.635
28.67000 430.393
28.68000 427.147
28.69000 426.042
28.70000 426.645
28.71000 427.240
28.72000 429.121
28.73000 431.607
28.74000 433.809
28.75000 431.176
28.76000 426.807
28.77000 422.207
28.78000 415.509
28.79000 408.305
28.80000 402.068
28.81000 407.836
28.82000 414.324
28.83000 419.159
28.84000 417.946
28.85000 416.177
28.86000 414.863
28.87000 414.671
28.88000 414.530
28.89000 414.442
28.90000 408.589
28.91000 404.295
28.92000 403.092
28.93000 405.272
28.94000 407.459
28.95000 410.370
28.96000 413.793
28.97000 417.142
28.98000 416.196
28.99000 413.334
29.00000 410.750
29.01000 412.033
29.02000 414.554
29.03000 416.498
29.04000 413.924
29.05000 410.388
29.06000 407.390
29.07000 405.570
29.08000 404.177
29.09000 404.875
29.10000 412.382
29.11000 420.415
29.12000 426.014
29.13000 426.259
29.14000 426.312
29.15000 426.344
29.16000 423.443
29.17000 421.365
29.18000 421.087
29.19000 422.533
29.20000 423.946
29.21000 422.727
29.22000 419.857
29.23000 417.070
29.24000 415.705
29.25000 414.981
29.26000 414.538
29.27000 417.344
29.28000 421.078
29.29000 424.056
29.30000 421.907
29.31000 418.796
29.32000 416.216
29.33000 413.862
29.34000 411.939
29.35000 409.179
29.36000 403.990
29.37000 398.646
29.38000 392.988
29.39000 386.712
29.40000 380.420
29.41000 376.843
29.42000 401.022
29.43000 417.939
29.44000 426.569
29.45000 428.210
29.46000 429.699
29.47000 423.561
29.48000 413.161
29.49000 403.150
29.50000 402.574
29.51000 405.378
29.52000 408.316
29.53000 412.576
29.54000 417.171
29.55000 420.634
29.56000 417.387
29.57000 413.035
29.58000 409.514
29.59000 415.251
29.60000 420.667
29.61000 423.262
29.62000 418.543
29.63000 413.448
29.64000 411.206
29.65000 413.960
29.66000 416.806
29.67000 418.334
29.68000 426.110
29.69000 431.396
29.70000 430.784
29.71000 425.776
29.72000 420.833
29.73000 418.206
29.74000 416.731
29.75000 415.326
29.76000 412.387
29.77000 409.183
29.78000 406.822
29.79000 411.522
29.80000 417.811
29.81000 423.627
29.82000 426.987
29.83000 429.994
29.84000 432.364
29.85000 430.519
29.86000 428.757
29.87000 426.094
29.88000 421.347
29.89000 416.516
29.90000 412.472
29.91000 409.656
29.92000 406.854
29.93000 405.441
29.94000 425.659
29.95000 439.046
29.96000 439.528
29.97000 431.477
29.98000 423.849
29.99000 427.473
30.00000 436.103
30.01000 444.234
30.02000 442.439
30.03000 438.066
30.04000 433.858
30.05000 430.842
30.06000 428.063
30.07000 426.385
30.08000 429.760
30.09000 433.763
30.10000 436.827
30.11000 436.036
30.12000 435.199
30.13000 433.788
30.14000 431.192
30.15000 428.559
30.16000 428.953
30.17000 433.535
30.18000 438.142
30.19000 440.097
30.20000 439.684
30.21000 439.219
30.22000 435.597
30.23000 430.119
30.24000 424.867
30.25000 424.299
30.26000 425.591
30.27000 426.793
30.28000 420.821
30.29000 413.693
30.30000 408.752
30.31000 417.569
30.32000 428.789
30.33000 435.655
30.34000 424.820
30.35000 412.098
30.36000 402.655
30.37000 404.390
30.38000 406.231
30.39000 408.565
30.40000 411.811
30.41000 415.076
30.42000 418.264
30.43000 421.356
30.44000 424.441
30.45000 424.922
30.46000 423.361
30.47000 421.791
30.48000 419.892
30.49000 417.819
30.50000 415.872
30.51000 416.022
30.52000 416.916
30.53000 417.736
30.54000 418.662
30.55000 419.510
30.56000 420.770
30.57000 424.298
30.58000 428.172
30.59000 430.488
30.60000 427.177
30.61000 423.358
30.62000 420.616
30.63000 420.791
30.64000 421.026
30.65000 420.829
30.66000 419.926
30.67000 419.011
30.68000 420.156
30.69000 423.521
30.70000 426.871
30.71000 428.819
30.72000 429.778
30.73000 430.850
30.74000 435.293
30.75000 441.315
30.76000 447.027
30.77000 448.536
30.78000 448.714
30.79000 448.876
30.80000 446.938
30.81000 444.848
30.82000 443.878
30.83000 448.344
30.84000 453.532
30.85000 457.442
30.86000 457.239
30.87000 456.726
30.88000 456.370
30.89000 468.669
30.90000 478.253
30.91000 486.760
30.92000 493.693
30.93000 500.611
30.94000 499.330
30.95000 490.297
30.96000 481.340
30.97000 484.542
30.98000 495.083
30.99000 505.639
31.00000 516.559
31.01000 527.631
31.02000 539.084
31.03000 554.872
31.04000 571.881
31.05000 586.985
31.06000 617.114
31.07000 645.645
31.08000 675.437
31.09000 710.637
31.10000 746.455
31.11000 785.150
31.12000 832.098
31.13000 879.560
31.14000 911.150
31.15000 995.391
31.16000 1058.718
31.17000 1131.802
31.18000 1217.513
31.19000 1303.297
31.20000 1399.479
31.21000 1504.313
31.22000 1607.767
31.23000 1715.910
31.24000 1823.656
31.25000 1931.919
31.26000 2049.597
31.27000 2170.789
31.28000 2289.349
31.29000 2382.596
31.30000 2469.505
31.31000 2545.257
31.32000 2666.616
31.33000 2776.663
31.34000 2875.929
31.35000 2934.150
31.36000 2988.373
31.37000 3031.787
31.38000 3047.528
31.39000 3061.882
31.40000 3071.037
31.41000 3023.533
31.42000 2988.256
31.43000 2941.020
31.44000 2880.123
31.45000 2819.074
31.46000 2734.025
31.47000 2631.317
31.48000 2530.574
31.49000 2411.251
31.50000 2287.480
31.51000 2164.559
31.52000 2054.247
31.53000 1948.133
31.54000 1841.341
31.55000 1728.958
31.56000 1615.334
31.57000 1518.277
31.58000 1389.043
31.59000 1276.338
31.60000 1170.688
31.61000 1088.924
31.62000 1009.121
31.63000 940.713
31.64000 898.365
31.65000 857.038
31.66000 831.875
31.67000 761.007
31.68000 710.018
31.69000 674.013
31.70000 653.038
31.71000 632.040
31.72000 609.040
31.73000 584.732
31.74000 561.061
31.75000 542.448
31.76000 526.828
31.77000 511.405
31.78000 498.411
31.79000 486.139
31.80000 474.992
31.81000 471.857
31.82000 470.293
31.83000 468.985
31.84000 466.482
31.85000 464.283
31.86000 461.860
31.87000 458.765
31.88000 455.624
31.89000 448.669
31.90000 433.925
31.91000 418.952
31.92000 410.284
31.93000 420.953
31.94000 428.506
31.95000 428.314
31.96000 421.302
31.97000 414.339
31.98000 410.186
31.99000 407.667
32.00000 405.234
32.01000 402.404
32.02000 399.592
32.03000 397.695
32.04000 405.253
32.05000 415.309
32.06000 423.171
32.07000 417.428
32.08000 409.343
32.09000 402.745
32.10000 397.435
32.11000 393.203
32.12000 390.569
32.13000 392.240
32.14000 394.150
32.15000 397.045
32.16000 401.732
32.17000 406.457
32.18000 409.045
32.19000 415.897
32.20000 420.598
32.21000 420.711
32.22000 417.261
32.23000 413.914
32.24000 414.637
32.25000 417.467
32.26000 420.174
32.27000 411.493
32.28000 399.698
32.29000 388.984
32.30000 387.801
32.31000 388.852
32.32000 390.014
32.33000 391.782
32.34000 393.642
32.35000 395.120
32.36000 399.901
32.37000 403.989
32.38000 405.264
32.39000 399.776
32.40000 393.991
32.41000 389.460
32.42000 386.965
32.43000 384.498
32.44000 383.226
32.45000 388.070
32.46000 391.279
32.47000 387.983
32.48000 380.209
32.49000 372.635
32.50000 370.878
32.51000 371.809
32.52000 372.691
32.53000 375.930
32.54000 379.585
32.55000 382.356
32.56000 378.419
32.57000 373.092
32.58000 368.727
32.59000 368.964
32.60000 369.801
32.61000 370.449
32.62000 371.016
32.63000 371.462
32.64000 371.432
32.65000 370.382
32.66000 369.297
32.67000 370.392
32.68000 374.627
32.69000 378.887
32.70000 376.542
32.71000 368.043
32.72000 359.644
32.73000 358.249
32.74000 361.141
32.75000 364.120
32.76000 369.069
32.77000 374.830
32.78000 380.214
32.79000 377.360
32.80000 372.691
32.81000 367.962
32.82000 362.837
32.83000 357.640
32.84000 354.047
32.85000 357.252
32.86000 361.221
32.87000 364.199
32.88000 374.372
32.89000 382.662
32.90000 386.802
32.91000 382.986
32.92000 378.975
32.93000 375.476
32.94000 372.631
32.95000 369.793
32.96000 369.468
32.97000 371.200
32.98000 373.042
32.99000 379.980
33.00000 389.695
33.01000 398.703
33.02000 395.111
33.03000 386.874
33.04000 379.281
33.05000 376.449
33.06000 374.968
33.07000 372.922
33.08000 367.628
33.09000 361.813
33.10000 357.799
33.11000 360.553
33.12000 363.955
33.13000 366.426
33.14000 366.822
33.15000 367.049
33.16000 366.021
33.17000 362.849
33.18000 359.641
33.19000 359.393
33.20000 362.481
33.21000 365.560
33.22000 362.360
33.23000 354.667
33.24000 347.339
33.25000 352.167
33.26000 362.905
33.27000 372.528
33.28000 365.962
33.29000 354.071
33.30000 343.273
33.31000 346.268
33.32000 351.582
33.33000 356.111
33.34000 356.667
33.35000 356.671
33.36000 355.324
33.37000 349.460
33.38000 343.233
33.39000 338.868
33.40000 335.366
33.41000 332.741
33.42000 332.053
33.43000 334.307
33.44000 336.592
33.45000 339.750
33.46000 343.772
33.47000 347.766
33.48000 346.787
33.49000 342.668
33.50000 338.737
33.51000 339.545
33.52000 342.408
33.53000 345.498
33.54000 351.306
33.55000 357.911
33.56000 363.810
33.57000 350.822
33.58000 336.330
33.59000 325.038
33.60000 328.058
33.61000 332.799
33.62000 336.903
33.63000 339.107
33.64000 341.184
33.65000 342.585
33.66000 339.170
33.67000 336.526
33.68000 335.863
33.69000 337.871
33.70000 339.893
33.71000 341.086
33.72000 341.560
33.73000 342.028
33.74000 342.347
33.75000 342.574
33.76000 342.823
33.77000 343.485
33.78000 344.306
33.79000 344.897
33.80000 343.143
33.81000 340.779
33.82000 338.704
33.83000 337.602
33.84000 336.797
33.85000 338.430
33.86000 349.728
33.87000 362.021
33.88000 367.586
33.89000 355.249
33.90000 341.944
33.91000 333.332
33.92000 330.171
33.93000 327.940
33.94000 329.997
33.95000 337.169
33.96000 344.347
33.97000 350.869
33.98000 356.888
33.99000 362.804
34.00000 357.032
34.01000 345.670
34.02000 334.712
34.03000 330.164
34.04000 327.835
34.05000 326.115
34.06000 329.675
34.07000 334.456
34.08000 338.569
34.09000 334.841
34.10000 330.701
34.11000 329.987
34.12000 341.339
34.13000 353.742
34.14000 360.312
34.15000 353.023
34.16000 345.141
34.17000 340.265
34.18000 348.537
34.19000 354.608
34.20000 358.158
34.21000 359.065
34.22000 359.940
34.23000 357.294
34.24000 352.256
34.25000 347.337
34.26000 347.691
34.27000 350.335
34.28000 353.082
34.29000 357.186
34.30000 361.708
34.31000 365.804
34.32000 366.711
34.33000 366.966
34.34000 367.180
34.35000 363.867
34.36000 360.725
34.37000 358.758
34.38000 360.482
34.39000 362.474
34.40000 362.124
34.41000 356.802
34.42000 351.318
34.43000 348.087
34.44000 345.967
34.45000 344.478
34.46000 347.657
34.47000 355.126
34.48000 362.544
34.49000 366.575
34.50000 368.559
34.51000 370.481
34.52000 366.467
34.53000 360.379
34.54000 354.324
34.55000 348.627
34.56000 343.028
34.57000 339.340
34.58000 348.053
34.59000 358.997
34.60000 368.002
34.61000 363.437
34.62000 358.451
34.63000 352.965
34.64000 346.078
34.65000 339.107
34.66000 335.485
34.67000 338.203
34.68000 341.072
34.69000 342.674
34.70000 339.120
34.71000 336.647
34.72000 333.788
34.73000 330.616
34.74000 327.526
34.75000 328.096
34.76000 330.638
34.77000 333.077
34.78000 335.716
34.79000 338.251
34.80000 340.197
34.81000 336.658
34.82000 331.781
34.83000 327.719
34.84000 328.292
34.85000 329.594
34.86000 330.640
34.87000 334.098
34.88000 337.083
34.89000 339.141
34.90000 338.885
34.91000 338.518
34.92000 338.193
34.93000 337.938
34.94000 337.684
34.95000 337.550
34.96000 330.050
34.97000 324.971
34.98000 321.562
34.99000 319.352
35.00000 317.270
35.01000 319.325
35.02000 323.366
35.03000 327.204
35.04000 323.932
35.05000 318.779
35.06000 314.826
35.07000 320.443
35.08000 328.128
35.09000 334.082
35.10000 331.386
35.11000 327.504
35.12000 324.473
35.13000 326.644
35.14000 328.702
35.15000 329.098
35.16000 325.785
35.17000 322.334
35.18000 319.523
35.19000 317.673
35.20000 315.832
35.21000 315.240
35.22000 315.864
35.23000 316.477
35.24000 316.147
35.25000 315.216
35.26000 314.222
35.27000 311.684
35.28000 308.483
35.29000 305.479
35.30000 306.491
35.31000 308.472
35.32000 310.317
35.33000 311.221
35.34000 311.946
35.35000 313.523
35.36000 318.858
35.37000 324.638
35.38000 329.020
35.39000 322.729
35.40000 317.241
35.41000 314.343
35.42000 316.608
35.43000 319.015
35.44000 318.304
35.45000 313.442
35.46000 308.564
35.47000 311.504
35.48000 321.122
35.49000 330.623
35.50000 334.010
35.51000 333.931
35.52000 333.417
35.53000 324.538
35.54000 312.454
35.55000 301.263
35.56000 302.033
35.57000 305.496
35.58000 308.144
35.59000 305.886
35.60000 302.807
35.61000 300.318
35.62000 300.136
35.63000 300.188
35.64000 300.226
35.65000 306.908
35.66000 312.345
35.67000 314.767
35.68000 311.834
35.69000 308.797
35.70000 308.823
35.71000 312.451
35.72000 316.075
35.73000 315.013
35.74000 310.436
35.75000 305.905
35.76000 303.113
35.77000 301.198
35.78000 299.584
35.79000 302.635
35.80000 307.281
35.81000 311.522
35.82000 312.113
35.83000 311.898
35.84000 310.446
35.85000 302.450
35.86000 293.498
35.87000 287.356
35.88000 290.984
35.89000 295.448
35.90000 298.616
35.91000 297.270
35.92000 296.104
35.93000 295.769
35.94000 296.749
35.95000 297.745
35.96000 299.353
35.97000 301.595
35.98000 303.823
35.99000 302.545
36.00000 298.962
36.01000 295.562
36.02000 297.214
36.03000 301.144
36.04000 304.627
36.05000 302.383
36.06000 298.391
36.07000 294.806
36.08000 296.392
36.09000 298.694
36.10000 300.635
36.11000 300.897
36.12000 300.947
36.13000 301.130
36.14000 301.727
36.15000 302.352
36.16000 302.780
36.17000 297.432
36.18000 293.292
36.19000 293.794
36.20000 300.817
36.21000 307.882
36.22000 311.515
36.23000 312.033
36.24000 312.547
36.25000 305.419
36.26000 293.976
36.27000 283.083
36.28000 283.877
36.29000 289.380
36.30000 294.462
36.31000 295.033
36.32000 294.379
36.33000 293.802
36.34000 302.374
36.35000 311.173
36.36000 317.502
36.37000 313.638
36.38000 308.667
36.39000 304.301
36.40000 301.611
36.41000 299.019
36.42000 297.316
36.43000 299.243
36.44000 300.721
36.45000 302.782
36.46000 305.565
36.47000 308.338
36.48000 306.979
36.49000 302.316
36.50000 297.724
36.51000 294.883
36.52000 293.030
36.53000 291.655
36.54000 298.399
36.55000 308.064
36.56000 316.498
36.57000 313.687
36.58000 308.166
36.59000 303.385
36.60000 299.054
36.61000 295.429
36.62000 292.647
36.63000 292.955
36.64000 293.548
36.65000 294.813
36.66000 297.737
36.67000 300.738
36.68000 302.624
36.69000 307.465
36.70000 310.998
36.71000 312.659
36.72000 312.269
36.73000 311.848
36.74000 307.156
36.75000 299.443
36.76000 291.893
36.77000 297.688
36.78000 309.330
36.79000 320.015
36.80000 317.371
36.81000 310.450
36.82000 304.080
36.83000 302.040
36.84000 300.923
36.85000 299.975
36.86000 296.664
36.87000 293.619
36.88000 291.869
36.89000 294.339
36.90000 297.135
36.91000 298.322
36.92000 295.962
36.93000 293.474
36.94000 291.983
36.95000 293.977
36.96000 295.417
36.97000 299.570
36.98000 306.330
36.99000 313.020
37.00000 314.292
37.01000 312.158
37.02000 310.085
37.03000 304.980
37.04000 298.913
37.05000 293.393
37.06000 294.233
37.07000 296.890
37.08000 299.852
37.09000 304.884
37.10000 310.305
37.11000 314.801
37.12000 308.002
37.13000 301.298
37.14000 297.003
37.15000 299.715
37.16000 302.874
37.17000 304.941
37.18000 304.859
37.19000 304.720
37.20000 304.640
37.21000 299.154
37.22000 295.317
37.23000 293.018
37.24000 292.020
37.25000 291.003
37.26000 289.029
37.27000 286.521
37.28000 284.106
37.29000 285.024
37.30000 287.068
37.31000 288.939
37.32000 289.107
37.33000 288.842
37.34000 288.594
37.35000 288.444
37.36000 288.311
37.37000 288.203
37.38000 290.399
37.39000 292.374
37.40000 293.548
37.41000 292.645
37.42000 291.636
37.43000 290.536
37.44000 289.277
37.45000 288.015
37.46000 287.337
37.47000 300.725
37.48000 309.822
37.49000 306.821
37.50000 294.786
37.51000 283.019
37.52000 280.810
37.53000 283.372
37.54000 285.814
37.55000 285.532
37.56000 284.418
37.57000 283.340
37.58000 282.575
37.59000 281.880
37.60000 281.822
37.61000 285.079
37.62000 288.814
37.63000 291.758
37.64000 294.508
37.65000 296.701
37.66000 296.981
37.67000 292.829
37.68000 288.497
37.69000 287.180
37.70000 290.569
37.71000 294.014
37.72000 295.753
37.73000 297.086
37.74000 297.906
37.75000 291.640
37.76000 280.680
37.77000 270.326
37.78000 276.116
37.79000 289.101
37.80000 301.337
37.81000 301.764
37.82000 298.900
37.83000 296.285
37.84000 295.471
37.85000 295.017
37.86000 295.731
37.87000 301.823
37.88000 308.584
37.89000 313.763
37.90000 308.855
37.91000 304.424
37.92000 301.551
37.93000 301.904
37.94000 302.356
37.95000 304.621
37.96000 309.400
37.97000 314.193
37.98000 313.252
37.99000 307.189
38.00000 301.141
38.01000 295.965
38.02000 291.304
38.03000 287.034
38.04000 290.893
38.05000 297.987
38.06000 304.588
38.07000 306.953
38.08000 308.065
38.09000 309.145
38.10000 310.021
38.11000 310.861
38.12000 311.772
38.13000 312.969
38.14000 314.198
38.15000 315.110
38.16000 306.620
38.17000 299.605
38.18000 297.477
38.19000 304.375
38.20000 311.472
38.21000 311.852
38.22000 303.989
38.23000 296.121
38.24000 300.512
38.25000 314.504
38.26000 328.190
38.27000 329.236
38.28000 323.645
38.29000 318.202
38.30000 315.238
38.31000 313.155
38.32000 311.244
38.33000 314.913
38.34000 319.366
38.35000 324.141
38.36000 330.693
38.37000 337.516
38.38000 344.220
38.39000 350.493
38.40000 356.727
38.41000 361.204
38.42000 369.558
38.43000 376.083
38.44000 387.072
38.45000 405.409
38.46000 423.854
38.47000 440.194
38.48000 454.259
38.49000 468.259
38.50000 480.535
38.51000 491.488
38.52000 502.818
38.53000 525.565
38.54000 553.661
38.55000 581.894
38.56000 611.983
38.57000 642.660
38.58000 670.374
38.59000 701.440
38.60000 729.377
38.61000 759.706
38.62000 801.665
38.63000 845.171
38.64000 883.705
38.65000 906.224
38.66000 927.529
38.67000 942.286
38.68000 973.757
38.69000 997.880
38.70000 1016.288
38.71000 1026.334
38.72000 1036.307
38.73000 1044.530
38.74000 1051.094
38.75000 1057.604
38.76000 1065.937
38.77000 1075.229
38.78000 1083.387
38.79000 1065.323
38.80000 1036.284
38.81000 1006.337
38.82000 966.045
38.83000 922.832
38.84000 884.452
38.85000 853.595
38.86000 828.048
38.87000 799.994
38.88000 761.162
38.89000 721.095
38.90000 683.342
38.91000 652.235
38.92000 621.543
38.93000 601.102
38.94000 559.918
38.95000 529.043
38.96000 501.594
38.97000 478.587
38.98000 455.598
38.99000 432.612
39.00000 409.628
39.01000 386.945
39.02000 373.456
39.03000 365.274
39.04000 357.053
39.05000 348.106
39.06000 338.889
39.07000 329.939
39.08000 323.570
39.09000 317.849
39.10000 312.860
39.11000 314.926
39.12000 317.673
39.13000 319.912
39.14000 320.214
39.15000 320.326
39.16000 317.419
39.17000 306.767
39.18000 295.725
39.19000 288.679
39.20000 284.060
39.21000 280.731
39.22000 280.789
39.23000 284.722
39.24000 288.642
39.25000 289.501
39.26000 288.105
39.27000 286.734
39.28000 286.390
39.29000 286.545
39.30000 286.892
39.31000 290.077
39.32000 294.209
39.33000 297.752
39.34000 296.435
39.35000 294.037
39.36000 291.988
39.37000 285.770
39.38000 280.034
39.39000 276.074
39.40000 278.144
39.41000 280.709
39.42000 280.535
39.43000 274.086
39.44000 267.390
39.45000 263.310
39.46000 267.333
39.47000 270.273
39.48000 271.065
39.49000 269.698
39.50000 268.380
39.51000 271.597
39.52000 277.778
39.53000 283.799
39.54000 286.571
39.55000 287.851
39.56000 288.783
39.57000 285.426
39.58000 280.795
39.59000 276.290
39.60000 272.681
39.61000 269.249
39.62000 266.380
39.63000 269.397
39.64000 272.501
39.65000 274.683
39.66000 274.077
39.67000 273.282
39.68000 272.068
39.69000 269.999
39.70000 267.906
39.71000 266.693
39.72000 269.674
39.73000 271.779
39.74000 269.810
39.75000 264.247
39.76000 258.759
39.77000 257.528
39.78000 258.775
39.79000 259.979
39.80000 258.779
39.81000 256.757
39.82000 255.494
39.83000 262.093
39.84000 270.772
39.85000 277.126
39.86000 269.031
39.87000 258.445
39.88000 249.803
39.89000 260.252
39.90000 270.441
39.91000 276.254
39.92000 270.262
39.93000 263.615
39.94000 259.314
39.95000 259.292
39.96000 259.361
39.97000 259.399
39.98000 261.833
39.99000 263.511
40.00000 265.439
40.01000 267.561
40.02000 269.557
40.03000 266.510
40.04000 260.848
40.05000 255.432
40.06000 256.551
40.07000 259.728
40.08000 262.940
40.09000 266.465
40.10000 270.063
40.11000 273.530
40.12000 276.285
40.13000 278.932
40.14000 281.037
40.15000 280.236
40.16000 279.381
40.17000 276.365
40.18000 268.143
40.19000 259.692
40.20000 254.631
40.21000 255.079
40.22000 255.604
40.23000 255.874
40.24000 264.475
40.25000 270.265
40.26000 275.407
40.27000 280.103
40.28000 284.492
40.29000 279.921
40.30000 271.200
40.31000 262.950
40.32000 259.916
40.33000 258.628
40.34000 257.677
40.35000 259.283
40.36000 261.420
40.37000 262.883
40.38000 261.114
40.39000 258.922
40.40000 257.227
40.41000 258.810
40.42000 260.260
40.43000 262.986
40.44000 268.456
40.45000 274.019
40.46000 273.741
40.47000 265.027
40.48000 256.246
40.49000 250.801
40.50000 248.474
40.51000 246.264
40.52000 252.327
40.53000 263.459
40.54000 273.909
40.55000 269.017
40.56000 257.780
40.57000 247.278
40.58000 252.100
40.59000 260.353
40.60000 267.382
40.61000 266.329
40.62000 263.799
40.63000 261.547
40.64000 260.479
40.65000 259.545
40.66000 258.843
40.67000 256.300
40.68000 254.225
40.69000 251.161
40.70000 246.201
40.71000 241.193
40.72000 238.659
40.73000 239.289
40.74000 239.931
40.75000 241.908
40.76000 244.974
40.77000 247.975
40.78000 247.961
40.79000 246.302
40.80000 244.510
40.81000 240.337
40.82000 235.286
40.83000 230.628
40.84000 238.193
40.85000 247.678
40.86000 255.124
40.87000 250.801
40.88000 244.593
40.89000 240.195
40.90000 242.613
40.91000 245.686
40.92000 247.918
40.93000 248.308
40.94000 248.538
40.95000 248.996
40.96000 249.846
40.97000 250.702
40.98000 249.690
40.99000 246.571
41.00000 243.460
41.01000 242.749
41.02000 243.775
41.03000 244.758
41.04000 244.317
41.05000 243.183
41.06000 242.061
41.07000 241.115
41.08000 240.227
41.09000 239.420
41.10000 241.331
41.11000 243.546
41.12000 244.904
41.13000 241.915
41.14000 238.320
41.15000 238.021
41.16000 248.765
41.17000 260.401
41.18000 268.562
41.19000 257.667
41.20000 248.870
41.21000 243.692
41.22000 244.024
41.23000 244.414
41.24000 246.613
41.25000 250.605
41.26000 254.570
41.27000 255.091
41.28000 253.414
41.29000 251.592
41.30000 246.096
41.31000 239.001
41.32000 232.389
41.33000 231.609
41.34000 232.543
41.35000 233.376
41.36000 230.173
41.37000 226.700
41.38000 224.512
41.39000 228.074
41.40000 232.329
41.41000 236.177
41.42000 238.806
41.43000 241.353
41.44000 243.074
41.45000 244.917
41.46000 246.292
41.47000 249.021
41.48000 253.580
41.49000 258.140
41.50000 254.840
41.51000 244.703
41.52000 234.680
41.53000 233.942
41.54000 238.430
41.55000 242.677
41.56000 242.162
41.57000 239.797
41.58000 238.059
41.59000 242.703
41.60000 249.014
41.61000 254.553
41.62000 255.309
41.63000 255.260
41.64000 254.217
41.65000 249.224
41.66000 243.824
41.67000 240.132
41.68000 240.995
41.69000 242.105
41.70000 242.824
41.71000 235.740
41.72000 230.441
41.73000 226.368
41.74000 223.759
41.75000 221.178
41.76000 224.742
41.77000 233.024
41.78000 241.166
41.79000 244.532
41.80000 245.421
41.81000 246.063
41.82000 242.790
41.83000 238.159
41.84000 233.996
41.85000 233.888
41.86000 234.720
41.87000 235.436
41.88000 237.131
41.89000 238.688
41.90000 239.832
41.91000 239.515
41.92000 239.070
41.93000 238.661
41.94000 238.336
41.95000 238.015
41.96000 237.816
41.97000 236.649
41.98000 235.801
41.99000 236.284
42.00000 238.167
42.01000 240.024
42.02000 238.846
42.03000 235.603
42.04000 232.436
42.05000 235.516
42.06000 241.197
42.07000 246.555
42.08000 247.693
42.09000 247.526
42.10000 247.006
42.11000 243.840
42.12000 240.133
42.13000 237.011
42.14000 235.192
42.15000 233.814
42.16000 233.762
42.17000 237.877
42.18000 242.295
42.19000 245.323
42.20000 245.400
42.21000 245.379
42.22000 245.367
42.23000 245.930
42.24000 246.330
42.25000 243.650
42.26000 238.135
42.27000 232.684
42.28000 231.566
42.29000 233.071
42.30000 234.529
42.31000 233.916
42.32000 232.537
42.33000 231.490
42.34000 234.089
42.35000 237.693
42.36000 240.511
42.37000 238.227
42.38000 235.022
42.39000 232.384
42.40000 235.114
42.41000 237.847
42.42000 239.303
42.43000 237.177
42.44000 234.837
42.45000 234.093
42.46000 236.376
42.47000 238.731
42.48000 240.047
42.49000 243.835
42.50000 246.454
42.51000 245.700
42.52000 242.209
42.53000 238.729
42.54000 235.751
42.55000 233.045
42.56000 230.447
42.57000 230.384
42.58000 231.188
42.59000 231.647
42.60000 228.887
42.61000 225.339
42.62000 223.140
42.63000 228.615
42.64000 235.301
42.65000 240.668
42.66000 236.590
42.67000 232.566
42.68000 230.097
42.69000 231.519
42.70000 233.126
42.71000 233.612
42.72000 232.202
42.73000 230.760
42.74000 230.001
42.75000 231.936
42.76000 233.248
42.77000 234.287
42.78000 235.130
42.79000 235.904
42.80000 234.440
42.81000 231.901
42.82000 229.488
42.83000 234.498
42.84000 241.355
42.85000 247.393
42.86000 246.895
42.87000 244.981
42.88000 242.620
42.89000 238.019
42.90000 233.111
42.91000 229.276
42.92000 229.088
42.93000 229.168
42.94000 230.338
42.95000 233.945
42.96000 237.642
42.97000 239.193
42.98000 237.519
42.99000 235.813
43.00000 234.269
43.01000 232.883
43.02000 231.498
43.03000 230.189
43.04000 228.929
43.05000 227.628
43.06000 225.316
43.07000 222.570
43.08000 219.993
43.09000 219.612
43.10000 219.846
43.11000 220.183
43.12000 221.238
43.13000 222.429
43.14000 223.957
43.15000 226.971
43.16000 230.162
43.17000 232.582
43.18000 236.824
43.19000 240.249
43.20000 240.474
43.21000 234.311
43.22000 227.971
43.23000 224.090
43.24000 223.489
43.25000 222.905
43.26000 225.058
43.27000 229.552
43.28000 233.896
43.29000 230.312
43.30000 222.227
43.31000 214.736
43.32000 218.667
43.33000 226.982
43.34000 234.684
43.35000 237.219
43.36000 238.302
43.37000 238.612
43.38000 234.260
43.39000 229.126
43.40000 225.255
43.41000 226.332
43.42000 227.910
43.43000 229.070
43.44000 223.628
43.45000 219.150
43.46000 215.780
43.47000 214.385
43.48000 213.028
43.49000 211.457
43.50000 209.633
43.51000 207.815
43.52000 212.394
43.53000 221.762
43.54000 230.874
43.55000 230.478
43.56000 225.270
43.57000 220.251
43.58000 218.162
43.59000 217.078
43.60000 216.088
43.61000 218.592
43.62000 221.523
43.63000 223.794
43.64000 222.569
43.65000 220.832
43.66000 219.136
43.67000 217.581
43.68000 216.038
43.69000 214.942
43.70000 221.961
43.71000 227.561
43.72000 229.525
43.73000 225.731
43.74000 221.863
43.75000 220.731
43.76000 222.432
43.77000 224.124
43.78000 221.785
43.79000 216.802
43.80000 212.183
43.81000 217.604
43.82000 227.561
43.83000 236.492
43.84000 232.254
43.85000 223.994
43.86000 216.572
43.87000 224.674
43.88000 234.513
43.89000 242.012
43.90000 238.585
43.91000 233.774
43.92000 230.121
43.93000 230.067
43.94000 230.271
43.95000 230.409
43.96000 228.545
43.97000 227.102
43.98000 226.022
43.99000 225.453
44.00000 224.886
44.01000 221.758
44.02000 216.304
44.03000 210.903
44.04000 209.713
44.05000 211.012
44.06000 212.440
44.07000 216.602
44.08000 221.868
44.09000 226.509
44.10000 224.425
44.11000 220.513
44.12000 217.058
44.13000 220.857
44.14000 225.249
44.15000 227.965
44.16000 223.754
44.17000 218.790
44.18000 215.484
44.19000 216.774
44.20000 218.332
44.21000 219.356
44.22000 221.915
44.23000 223.825
44.24000 225.298
44.25000 226.227
44.26000 227.154
44.27000 228.234
44.28000 229.435
44.29000 230.618
44.30000 228.845
44.31000 225.597
44.32000 222.416
44.33000 220.369
44.34000 218.731
44.35000 217.192
44.36000 216.552
44.37000 216.131
44.38000 215.766
44.39000 217.505
44.40000 219.264
44.41000 220.962
44.42000 222.438
44.43000 223.894
44.44000 224.814
44.45000 224.411
44.46000 223.946
44.47000 223.654
44.48000 218.988
44.49000 215.564
44.50000 217.767
44.51000 226.148
44.52000 234.494
44.53000 237.656
44.54000 237.142
44.55000 236.639
44.56000 231.373
44.57000 224.143
44.58000 217.563
44.59000 220.045
44.60000 225.441
44.61000 230.409
44.62000 232.015
44.63000 232.902
44.64000 233.654
44.65000 234.764
44.66000 235.736
44.67000 236.999
44.68000 239.216
44.69000 241.506
44.70000 242.682
44.71000 241.394
44.72000 240.018
44.73000 239.193
44.74000 245.162
44.75000 249.447
44.76000 251.554
44.77000 251.563
44.78000 251.592
44.79000 253.134
44.80000 255.629
44.81000 258.053
44.82000 254.673
44.83000 249.123
44.84000 244.001
44.85000 243.864
44.86000 245.155
44.87000 247.202
44.88000 254.403
44.89000 262.576
44.90000 269.357
44.91000 268.908
44.92000 267.840
44.93000 268.029
44.94000 271.882
44.95000 275.970
44.96000 278.633
44.97000 278.490
44.98000 278.271
44.99000 278.146
45.00000 288.004
45.01000 294.903
45.02000 299.495
45.03000 302.134
45.04000 304.693
45.05000 303.165
45.06000 299.348
45.07000 295.672
45.08000 299.774
45.09000 306.391
45.10000 312.985
45.11000 319.352
45.12000 325.661
45.13000 329.422
45.14000 318.024
45.15000 304.121
45.16000 292.864
45.17000 295.073
45.18000 297.963
45.19000 301.504
45.20000 306.733
45.21000 312.051
45.22000 313.698
45.23000 308.894
45.24000 303.970
45.25000 301.321
45.26000 291.034
45.27000 284.032
45.28000 283.932
45.29000 288.997
45.30000 293.762
45.31000 287.778
45.32000 276.418
45.33000 265.590
45.34000 261.313
45.35000 259.403
45.36000 257.336
45.37000 253.956
45.38000 250.280
45.39000 248.331
45.40000 255.404
45.41000 263.777
45.42000 270.381
45.43000 255.654
45.44000 242.406
45.45000 233.357
45.46000 234.061
45.47000 235.161
45.48000 235.874
45.49000 235.983
45.50000 236.085
45.51000 236.136
45.52000 232.683
45.53000 230.378
45.54000 228.525
45.55000 226.973
45.56000 225.390
45.57000 222.985
45.58000 220.212
45.59000 217.599
45.60000 217.227
45.61000 217.506
45.62000 218.027
45.63000 220.307
45.64000 222.938
45.65000 224.900
45.66000 223.780
45.67000 222.274
45.68000 221.120
45.69000 221.938
45.70000 222.692
45.71000 221.121
45.72000 214.727
45.73000 208.184
45.74000 203.096
45.75000 200.029
45.76000 196.976
45.77000 198.360
45.78000 203.713
45.79000 208.977
45.80000 208.826
45.81000 205.479
45.82000 202.278
45.83000 202.126
45.84000 203.190
45.85000 204.180
45.86000 208.417
45.87000 213.033
45.88000 216.374
45.89000 211.666
45.90000 205.547
45.91000 201.593
45.92000 206.473
45.93000 212.299
45.94000 216.628
45.95000 210.038
45.96000 204.431
45.97000 200.774
45.98000 200.724
45.99000 200.754
46.00000 202.822
46.01000 207.393
46.02000 211.962
46.03000 211.116
46.04000 206.015
46.05000 200.979
46.06000 198.629
46.07000 197.691
46.08000 197.053
46.09000 201.418
46.10000 207.564
46.11000 213.203
46.12000 213.485
46.13000 212.599
46.14000 211.745
46.15000 211.072
46.16000 210.427
46.17000 210.288
46.18000 211.983
46.19000 213.845
46.20000 215.183
46.21000 208.659
46.22000 203.394
46.23000 199.832
46.24000 199.077
46.25000 198.363
46.26000 198.460
46.27000 199.436
46.28000 200.407
46.29000 204.304
46.30000 210.185
46.31000 215.780
46.32000 212.723
46.33000 205.603
46.34000 199.102
46.35000 201.060
46.36000 205.704
46.37000 209.900
46.38000 209.494
46.39000 208.283
46.40000 207.403
46.41000 208.130
46.42000 209.070
46.43000 209.587
46.44000 208.733
46.45000 207.775
46.46000 207.111
46.47000 207.194
46.48000 207.276
46.49000 207.614
46.50000 208.327
46.51000 209.043
46.52000 206.163
46.53000 199.871
46.54000 193.630
46.55000 191.559
46.56000 192.071
46.57000 192.811
46.58000 198.826
46.59000 207.052
46.60000 214.518
46.61000 213.306
46.62000 209.640
46.63000 206.383
46.64000 204.106
46.65000 202.290
46.66000 201.065
46.67000 202.389
46.68000 204.006
46.69000 204.356
46.70000 201.060
46.71000 197.536
46.72000 195.187
46.73000 200.447
46.74000 204.486
46.75000 206.084
46.76000 204.509
46.77000 202.923
46.78000 202.421
46.79000 202.825
46.80000 203.224
46.81000 200.864
46.82000 197.080
46.83000 193.736
46.84000 198.455
46.85000 206.193
46.86000 213.132
46.87000 212.357
46.88000 209.644
46.89000 207.277
46.90000 207.204
46.91000 207.460
46.92000 207.217
46.93000 205.066
46.94000 202.728
46.95000 199.278
46.96000 192.971
46.97000 186.521
46.98000 182.401
46.99000 183.330
47.00000 184.072
47.01000 186.667
47.02000 191.389
47.03000 196.094
47.04000 197.484
47.05000 196.427
47.06000 195.390
47.07000 193.026
47.08000 190.117
47.09000 187.488
47.10000 189.054
47.11000 192.022
47.12000 194.576
47.13000 193.712
47.14000 192.087
47.15000 190.698
47.16000 196.133
47.17000 201.529
47.18000 205.137
47.19000 202.667
47.20000 199.695
47.21000 197.912
47.22000 198.855
47.23000 199.905
47.24000 200.545
47.25000 192.016
47.26000 185.845
47.27000 184.311
47.28000 187.445
47.29000 190.565
47.30000 192.354
47.31000 193.272
47.32000 194.166
47.33000 197.251
47.34000 201.112
47.35000 204.575
47.36000 203.107
47.37000 200.171
47.38000 197.559
47.39000 197.269
47.40000 197.435
47.41000 197.574
47.42000 196.224
47.43000 194.951
47.44000 193.670
47.45000 192.368
47.46000 191.064
47.47000 190.448
47.48000 191.242
47.49000 192.078
47.50000 192.563
47.51000 192.325
47.52000 192.153
47.53000 189.881
47.54000 185.754
47.55000 181.674
47.56000 180.388
47.57000 180.729
47.58000 181.058
47.59000 183.901
47.60000 187.514
47.61000 190.777
47.62000 190.413
47.63000 189.088
47.64000 187.893
47.65000 187.503
47.66000 187.253
47.67000 187.049
47.68000 191.235
47.69000 195.039
47.70000 195.916
47.71000 188.887
47.72000 181.417
47.73000 179.848
47.74000 189.062
47.75000 198.507
47.76000 203.688
47.77000 197.948
47.78000 193.984
47.79000 191.022
47.80000 188.840
47.81000 186.730
47.82000 187.539
47.83000 189.865
47.84000 192.089
47.85000 192.344
47.86000 191.936
47.87000 191.006
47.88000 185.452
47.89000 178.810
47.90000 173.450
47.91000 175.082
47.92000 177.771
47.93000 179.911
47.94000 180.159
47.95000 180.224
47.96000 180.709
47.97000 182.208
47.98000 183.753
47.99000 185.532
48.00000 187.692
48.01000 189.859
48.02000 190.977
48.03000 185.831
48.04000 182.409
48.05000 184.934
48.06000 191.567
48.07000 198.066
48.08000 200.640
48.09000 201.394
48.10000 202.107
48.11000 199.415
48.12000 195.957
48.13000 192.584
48.14000 189.858
48.15000 187.266
48.16000 184.520
48.17000 181.039
48.18000 177.460
48.19000 174.691
48.20000 183.178
48.21000 190.582
48.22000 195.511
48.23000 195.105
48.24000 194.519
48.25000 192.774
48.26000 189.354
48.27000 185.920
48.28000 185.873
48.29000 188.993
48.30000 192.072
48.31000 192.175
48.32000 190.452
48.33000 188.651
48.34000 185.073
48.35000 180.759
48.36000 176.727
48.37000 180.436
48.38000 185.765
48.39000 190.032
48.40000 187.271
48.41000 183.222
48.42000 179.943
48.43000 179.938
48.44000 180.303
48.45000 180.577
48.46000 181.666
48.47000 182.556
48.48000 182.853
48.49000 182.010
48.50000 181.138
48.51000 179.178
48.52000 175.822
48.53000 172.465
48.54000 173.942
48.55000 179.384
48.56000 184.683
48.57000 183.269
48.58000 178.183
48.59000 173.530
48.60000 176.618
48.61000 182.570
48.62000 188.059
48.63000 183.975
48.64000 178.190
48.65000 174.236
48.66000 180.872
48.67000 189.208
48.68000 194.454
48.69000 188.046
48.70000 180.517
48.71000 175.044
48.72000 176.220
48.73000 177.376
48.74000 178.283
48.75000 178.762
48.76000 179.234
48.77000 179.442
48.78000 179.351
48.79000 179.259
48.80000 179.832
48.81000 180.879
48.82000 181.894
48.83000 181.852
48.84000 181.293
48.85000 180.839
48.86000 181.914
48.87000 183.494
48.88000 184.930
48.89000 186.736
48.90000 188.404
48.91000 188.976
48.92000 183.973
48.93000 178.190
48.94000 173.854
48.95000 174.373
48.96000 175.285
48.97000 175.925
48.98000 171.645
48.99000 168.262
49.00000 166.898
49.01000 168.616
49.02000 170.367
49.03000 173.800
49.04000 178.903
49.05000 183.970
49.06000 187.787
49.07000 190.748
49.08000 193.448
49.09000 189.557
49.10000 182.794
49.11000 176.553
49.12000 176.636
49.13000 178.579
49.14000 180.315
49.15000 181.702
49.16000 182.852
49.17000 183.657
49.18000 182.909
49.19000 181.973
49.20000 181.166
49.21000 180.739
49.22000 180.339
49.23000 180.068
49.24000 178.507
49.25000 177.317
49.26000 177.540
49.27000 179.675
49.28000 181.823
49.29000 185.924
49.30000 191.729
49.31000 197.469
49.32000 194.965
49.33000 187.886
49.34000 181.150
49.35000 181.233
49.36000 183.968
49.37000 186.278
49.38000 184.248
49.39000 181.084
49.40000 178.306
49.41000 180.719
49.42000 183.551
49.43000 185.955
49.44000 186.650
49.45000 187.169
49.46000 185.862
49.47000 179.682
49.48000 173.237
49.49000 169.060
49.50000 170.441
49.51000 171.535
49.52000 174.981
49.53000 181.244
49.54000 187.488
49.55000 188.000
49.56000 184.101
49.57000 180.267
49.58000 176.698
49.59000 173.379
49.60000 170.467
49.61000 174.062
49.62000 179.916
49.63000 185.167
49.64000 185.166
49.65000 183.947
49.66000 182.897
49.67000 183.473
49.68000 184.166
49.69000 183.877
49.70000 180.119
49.71000 176.057
49.72000 173.374
49.73000 173.978
49.74000 174.724
49.75000 175.186
49.76000 175.479
49.77000 175.687
49.78000 175.321
49.79000 174.350
49.80000 173.396
49.81000 174.369
49.82000 176.655
49.83000 178.888
49.84000 181.040
49.85000 183.064
49.86000 184.524
49.87000 178.567
49.88000 170.312
49.89000 163.762
49.90000 169.994
49.91000 178.850
49.92000 186.312
49.93000 184.272
49.94000 181.546
49.95000 178.860
49.96000 176.301
49.97000 173.752
49.98000 172.774
49.99000 175.141
50.00000 177.619
50.01000 179.080
50.02000 174.775
50.03000 171.705
50.04000 171.586
50.05000 174.189
50.06000 176.754
50.07000 176.735
50.08000 175.151
50.09000 173.617
50.10000 173.745
50.11000 174.511
50.12000 175.117
50.13000 173.965
50.14000 172.329
50.15000 171.208
50.16000 173.443
50.17000 176.285
50.18000 178.624
50.19000 178.443
50.20000 178.063
50.21000 178.759
50.22000 182.473
50.23000 186.368
50.24000 188.243
50.25000 186.279
50.26000 184.223
50.27000 183.073
50.28000 187.284
50.29000 190.206
50.30000 190.415
50.31000 188.418
50.32000 186.383
50.33000 182.612
50.34000 177.904
50.35000 173.386
50.36000 176.851
50.37000 182.819
50.38000 187.786
50.39000 183.404
50.40000 176.733
50.41000 172.268
50.42000 180.380
50.43000 190.483
50.44000 198.596
50.45000 202.024
50.46000 204.443
50.47000 205.514
50.48000 203.202
50.49000 200.729
50.50000 199.828
50.51000 201.589
50.52000 203.394
50.53000 204.347
50.54000 212.291
50.55000 217.671
50.56000 220.567
50.57000 221.676
50.58000 222.729
50.59000 221.948
50.60000 220.281
50.61000 218.698
50.62000 223.035
50.63000 228.823
50.64000 234.302
50.65000 237.313
50.66000 239.788
50.67000 242.699
50.68000 247.797
50.69000 253.195
50.70000 257.413
50.71000 256.972
50.72000 256.324
50.73000 257.164
50.74000 261.335
50.75000 265.630
50.76000 264.668
50.77000 255.789
50.78000 246.831
50.79000 239.114
50.80000 232.612
50.81000 226.179
50.82000 225.528
50.83000 228.568
50.84000 231.325
50.85000 227.097
50.86000 219.864
50.87000 213.073
50.88000 212.254
50.89000 213.089
50.90000 213.554
50.91000 211.455
50.92000 208.867
50.93000 206.998
50.94000 208.322
50.95000 210.025
50.96000 211.318
50.97000 209.690
50.98000 208.261
50.99000 205.939
51.00000 201.832
51.01000 197.676
51.02000 193.639
51.03000 189.763
51.04000 185.891
51.05000 184.796
51.06000 186.086
51.07000 187.332
51.08000 186.267
51.09000 183.887
51.10000 181.672
51.11000 182.636
51.12000 184.823
51.13000 186.849
51.14000 185.955
51.15000 184.473
51.16000 182.767
51.17000 179.709
51.18000 176.423
51.19000 174.106
51.20000 175.590
51.21000 177.461
51.22000 178.836
51.23000 178.423
51.24000 178.031
51.25000 175.543
51.26000 169.322
51.27000 163.028
51.28000 160.895
51.29000 163.674
51.30000 166.454
51.31000 168.617
51.32000 170.300
51.33000 171.947
51.34000 172.208
51.35000 171.768
51.36000 171.225
51.37000 169.091
51.38000 166.410
51.39000 163.962
51.40000 165.933
51.41000 168.581
51.42000 170.677
51.43000 169.849
51.44000 168.592
51.45000 168.063
51.46000 170.074
51.47000 172.302
51.48000 173.885
51.49000 174.613
51.50000 175.140
51.51000 176.047
51.52000 177.556
51.53000 179.073
51.54000 176.710
51.55000 170.319
51.56000 163.963
51.57000 162.132
51.58000 163.331
51.59000 164.484
51.60000 164.358
51.61000 163.654
51.62000 162.899
51.63000 161.503
51.64000 159.910
51.65000 158.479
51.66000 161.619
51.67000 165.180
51.68000 168.054
51.69000 167.721
51.70000 166.980
51.71000 167.045
51.72000 169.617
51.73000 172.369
51.74000 174.252
51.75000 169.779
51.76000 166.278
51.77000 163.691
51.78000 162.395
51.79000 161.110
51.80000 164.265
51.81000 171.461
51.82000 178.587
51.83000 178.469
51.84000 174.105
51.85000 169.783
51.86000 166.385
51.87000 163.360
51.88000 160.587
51.89000 160.539
51.90000 161.234
51.91000 161.848
51.92000 164.680
51.93000 167.467
51.94000 169.667
51.95000 169.437
51.96000 168.941
51.97000 168.707
51.98000 169.197
51.99000 169.730
52.00000 170.080
52.01000 158.623
52.02000 149.987
52.03000 146.065
52.04000 148.027
52.05000 150.012
52.06000 154.210
52.07000 160.182
52.08000 166.066
52.09000 164.844
52.10000 159.980
52.11000 155.345
52.12000 154.642
52.13000 155.357
52.14000 156.361
52.15000 160.013
52.16000 164.305
52.17000 168.025
52.18000 164.058
52.19000 159.661
52.20000 157.191
52.21000 161.807
52.22000 167.081
52.23000 169.344
52.24000 164.149
52.25000 158.605
52.26000 155.115
52.27000 155.974
52.28000 156.645
52.29000 158.103
52.30000 160.428
52.31000 162.761
52.32000 166.147
52.33000 170.280
52.34000 174.326
52.35000 172.795
52.36000 168.774
52.37000 164.898
52.38000 163.058
52.39000 161.874
52.40000 160.762
52.41000 160.223
52.42000 159.806
52.43000 159.452
52.44000 156.073
52.45000 152.895
52.46000 151.126
52.47000 153.972
52.48000 157.176
52.49000 160.178
52.50000 162.731
52.51000 165.268
52.52000 166.791
52.53000 170.107
52.54000 172.475
52.55000 171.179
52.56000 166.350
52.57000 161.551
52.58000 159.192
52.59000 158.372
52.60000 157.575
52.61000 159.619
52.62000 162.709
52.63000 165.647
52.64000 166.833
52.65000 167.516
52.66000 168.287
52.67000 169.658
52.68000 171.142
52.69000 172.374
52.70000 166.622
52.71000 161.191
52.72000 157.359
52.73000 158.192
52.74000 159.324
52.75000 160.360
52.76000 161.205
52.77000 162.044
52.78000 162.523
52.79000 156.053
52.80000 151.528
52.81000 152.738
52.82000 158.810
52.83000 164.739
52.84000 163.334
52.85000 157.810
52.86000 152.490
52.87000 153.515
52.88000 156.738
52.89000 159.896
52.90000 162.406
52.91000 164.751
52.92000 166.693
52.93000 166.233
52.94000 165.375
52.95000 164.680
52.96000 160.390
52.97000 156.603
52.98000 154.930
52.99000 158.763
53.00000 162.882
53.01000 164.964
53.02000 163.461
53.03000 161.891
53.04000 161.046
53.05000 156.385
53.06000 153.222
53.07000 155.572
53.08000 162.053
53.09000 168.276
53.10000 165.176
53.11000 157.407
53.12000 150.000
53.13000 153.394
53.14000 159.936
53.15000 165.625
53.16000 164.128
53.17000 161.007
53.18000 159.415
53.19000 165.827
53.20000 173.395
53.21000 179.366
53.22000 171.676
53.23000 164.585
53.24000 159.277
53.25000 158.121
53.26000 157.134
53.27000 157.024
53.28000 158.289
53.29000 159.571
53.30000 160.220
53.31000 158.394
53.32000 157.195
53.33000 158.306
53.34000 160.953
53.35000 163.431
53.36000 161.374
53.37000 157.289
53.38000 153.438
53.39000 156.921
53.40000 162.139
53.41000 166.936
53.42000 168.667
53.43000 169.786
53.44000 169.966
53.45000 165.812
53.46000 161.116
53.47000 157.516
53.48000 159.244
53.49000 160.905
53.50000 162.265
53.51000 163.004
53.52000 163.724
53.53000 164.369
53.54000 164.911
53.55000 165.452
53.56000 163.282
53.57000 158.683
53.58000 154.158
53.59000 154.140
53.60000 156.788
53.61000 159.176
53.62000 156.141
53.63000 150.941
53.64000 146.101
53.65000 149.006
53.66000 153.513
53.67000 157.601
53.68000 159.034
53.69000 160.001
53.70000 160.633
53.71000 159.897
53.72000 159.014
53.73000 158.357
53.74000 154.127
53.75000 150.679
53.76000 149.254
53.77000 151.578
53.78000 153.986
53.79000 156.659
53.80000 159.661
53.81000 162.657
53.82000 165.406
53.83000 167.945
53.84000 170.363
53.85000 167.667
53.86000 162.277
53.87000 157.005
53.88000 153.698
53.89000 151.091
53.90000 148.699
53.91000 149.810
53.92000 151.547
53.93000 153.297
53.94000 155.121
53.95000 156.957
53.96000 158.602
53.97000 159.559
53.98000 160.452
53.99000 161.095
54.00000 159.936
54.01000 158.987
54.02000 160.152
54.03000 164.807
54.04000 169.515
54.05000 167.843
54.06000 159.251
54.07000 150.694
54.08000 147.884
54.09000 149.091
54.10000 150.389
54.11000 154.469
54.12000 159.858
54.13000 164.844
54.14000 164.316
54.15000 162.035
54.16000 159.973
54.17000 160.349
54.18000 161.133
54.19000 161.363
54.20000 158.889
54.21000 156.055
54.22000 154.388
54.23000 156.496
54.24000 158.893
54.25000 160.554
54.26000 157.245
54.27000 154.621
54.28000 154.101
54.29000 156.671
54.30000 159.267
54.31000 161.055
54.32000 162.074
54.33000 163.085
54.34000 162.085
54.35000 159.873
54.36000 157.758
54.37000 157.897
54.38000 158.983
54.39000 159.820
54.40000 157.802
54.41000 154.975
54.42000 152.463
54.43000 155.174
54.44000 158.369
54.45000 160.124
54.46000 155.668
54.47000 150.496
54.48000 148.167
54.49000 154.030
54.50000 160.408
54.51000 164.661
54.52000 161.308
54.53000 158.679
54.54000 157.794
54.55000 159.178
54.56000 160.566
54.57000 159.548
54.58000 156.514
54.59000 153.520
54.60000 153.990
54.61000 156.319
54.62000 158.549
54.63000 158.952
54.64000 158.670
54.65000 158.521
54.66000 159.664
54.67000 161.132
54.68000 162.413
54.69000 161.857
54.70000 161.124
54.71000 161.096
54.72000 163.762
54.73000 166.694
54.74000 166.851
54.75000 159.867
54.76000 152.522
54.77000 147.828
54.78000 149.800
54.79000 151.323
54.80000 151.510
54.81000 150.163
54.82000 148.830
54.83000 150.146
54.84000 153.421
54.85000 156.635
54.86000 155.264
54.87000 151.757
54.88000 148.655
54.89000 151.620
54.90000 156.615
54.91000 160.855
54.92000 158.832
54.93000 155.412
54.94000 152.487
54.95000 157.163
54.96000 162.015
54.97000 165.315
54.98000 163.329
54.99000 160.906
55.00000 159.188
55.01000 159.088
55.02000 159.053
55.03000 159.032
55.04000 159.953
55.05000 160.619
55.06000 162.706
55.07000 166.227
55.08000 169.733
55.09000 171.796
55.10000 172.911
55.11000 173.998
55.12000 169.623
55.13000 163.151
55.14000 157.272
55.15000 158.730
55.16000 162.377
55.17000 165.342
55.18000 163.420
55.19000 160.535
55.20000 158.121
55.21000 160.763
55.22000 163.474
55.23000 164.904
55.24000 162.450
55.25000 159.729
55.26000 158.988
55.27000 162.313
55.28000 165.759
55.29000 167.759
55.30000 163.223
55.31000 160.014
55.32000 158.922
55.33000 159.703
55.34000 160.534
55.35000 164.255
55.36000 169.663
55.37000 174.888
55.38000 175.046
55.39000 173.311
55.40000 171.988
55.41000 174.966
55.42000 179.085
55.43000 182.725
55.44000 183.369
55.45000 183.494
55.46000 183.596
55.47000 183.204
55.48000 182.841
55.49000 184.055
55.50000 189.538
55.51000 195.259
55.52000 199.693
55.53000 201.769
55.54000 203.796
55.55000 204.908
55.56000 204.124
55.57000 203.603
55.58000 208.821
55.59000 218.523
55.60000 228.130
55.61000 233.932
55.62000 237.753
55.63000 241.409
55.64000 247.216
55.65000 253.330
55.66000 259.539
55.67000 266.597
55.68000 273.853
55.69000 282.329
55.70000 297.466
55.71000 313.611
55.72000 326.465
55.73000 343.869
55.74000 358.229
55.75000 372.161
55.76000 385.062
55.77000 397.917
55.78000 411.633
55.79000 426.753
55.80000 441.892
55.81000 449.719
55.82000 471.385
55.83000 486.033
55.84000 505.452
55.85000 528.172
55.86000 550.651
55.87000 566.013
55.88000 578.068
55.89000 589.477
55.90000 597.745
55.91000 604.443
55.92000 611.162
55.93000 618.049
55.94000 624.972
55.95000 630.639
55.96000 630.269
55.97000 629.105
55.98000 628.204
55.99000 633.474
56.00000 638.026
56.01000 637.156
56.02000 624.584
56.03000 611.613
56.04000 600.171
56.05000 590.945
56.06000 581.740
56.07000 569.510
56.08000 554.451
56.09000 539.359
56.10000 521.866
56.11000 502.897
56.12000 484.221
56.13000 472.191
56.14000 462.919
56.15000 454.250
56.16000 430.460
56.17000 405.020
56.18000 380.576
56.19000 362.729
56.20000 346.093
56.21000 331.702
56.22000 326.873
56.23000 323.125
56.24000 320.309
56.25000 302.245
56.26000 287.391
56.27000 274.360
56.28000 264.838
56.29000 255.405
56.30000 247.067
56.31000 240.135
56.32000 233.217
56.33000 226.248
56.34000 219.260
56.35000 212.259
56.36000 204.686
56.37000 196.799
56.38000 189.417
56.39000 191.124
56.40000 196.198
56.41000 200.879
56.42000 195.544
56.43000 188.534
56.44000 182.425
56.45000 181.539
56.46000 181.493
56.47000 180.727
56.48000 177.240
56.49000 173.491
56.50000 170.764
56.51000 169.773
56.52000 169.076
56.53000 167.128
56.54000 163.030
56.55000 158.895
56.56000 157.820
56.57000 160.212
56.58000 162.599
56.59000 162.062
56.60000 159.413
56.61000 156.783
56.62000 154.761
56.63000 153.038
56.64000 151.470
56.65000 152.171
56.66000 153.622
56.67000 154.941
56.68000 155.223
56.69000 155.270
56.70000 155.283
56.71000 155.125
56.72000 154.942
56.73000 154.815
56.74000 154.873
56.75000 154.946
56.76000 154.997
56.77000 154.479
56.78000 154.070
56.79000 154.161
56.80000 155.016
56.81000 155.879
56.82000 154.715
56.83000 151.533
56.84000 148.374
56.85000 146.424
56.86000 145.276
56.87000 144.357
56.88000 149.236
56.89000 156.645
56.90000 163.185
56.91000 159.155
56.92000 152.012
56.93000 145.626
56.94000 146.206
56.95000 147.890
56.96000 149.103
56.97000 148.192
56.98000 147.025
56.99000 145.278
57.00000 141.793
57.01000 138.191
57.02000 135.756
57.03000 136.755
57.04000 137.572
57.05000 137.921
57.06000 137.635
57.07000 137.345
57.08000 136.279
57.09000 134.537
57.10000 132.815
57.11000 135.417
57.12000 140.394
57.13000 145.135
57.14000 145.199
57.15000 143.441
57.16000 141.873
57.17000 142.250
57.18000 143.136
57.19000 143.914
57.20000 148.311
57.21000 152.620
57.22000 155.015
57.23000 149.787
57.24000 143.768
57.25000 140.315
57.26000 143.724
57.27000 147.507
57.28000 149.961
57.29000 157.104
57.30000 162.404
57.31000 162.287
57.32000 155.676
57.33000 149.074
57.34000 147.452
57.35000 149.670
57.36000 151.852
57.37000 151.240
57.38000 149.258
57.39000 147.303
57.40000 145.754
57.41000 144.347
57.42000 143.367
57.43000 146.113
57.44000 149.726
57.45000 152.837
57.46000 152.422
57.47000 151.624
57.48000 150.191
57.49000 146.505
57.50000 142.622
57.51000 140.401
57.52000 142.151
57.53000 144.071
57.54000 145.262
57.55000 140.190
57.56000 136.480
57.57000 137.370
57.58000 143.112
57.59000 148.809
57.60000 149.287
57.61000 146.199
57.62000 143.182
57.63000 140.676
57.64000 138.502
57.65000 136.432
57.66000 135.742
57.67000 135.479
57.68000 135.609
57.69000 138.694
57.70000 142.386
57.71000 145.499
57.72000 141.006
57.73000 136.434
57.74000 134.459
57.75000 140.674
57.76000 147.490
57.77000 152.007
57.78000 151.622
57.79000 151.075
57.80000 150.752
57.81000 145.620
57.82000 141.969
57.83000 139.292
57.84000 137.516
57.85000 135.785
57.86000 137.190
57.87000 140.498
57.88000 143.704
57.89000 147.104
57.90000 150.399
57.91000 153.332
57.92000 152.288
57.93000 150.146
57.94000 147.960
57.95000 145.490
57.96000 142.967
57.97000 140.890
57.98000 142.703
57.99000 144.550
58.00000 146.659
58.01000 149.503
58.02000 152.391
58.03000 153.148
58.04000 149.845
58.05000 146.445
58.06000 144.542
58.07000 142.866
58.08000 141.705
58.09000 140.317
58.10000 138.743
58.11000 137.238
58.12000 138.821
58.13000 142.073
58.14000 145.195
58.15000 146.705
58.16000 147.565
58.17000 148.153
58.18000 146.195
58.19000 143.611
58.20000 140.847
58.21000 137.049
58.22000 133.087
58.23000 129.905
58.24000 132.216
58.25000 134.510
58.26000 136.461
58.27000 137.548
58.28000 138.593
58.29000 138.431
58.30000 136.221
58.31000 133.976
58.32000 132.791
58.33000 131.255
58.34000 130.230
58.35000 131.981
58.36000 135.732
58.37000 139.430
58.38000 141.365
58.39000 142.451
58.40000 143.483
58.41000 144.062
58.42000 144.460
58.43000 144.666
58.44000 143.325
58.45000 141.648
58.46000 139.462
58.47000 134.724
58.48000 129.634
58.49000 125.655
58.50000 129.644
58.51000 133.334
58.52000 135.703
58.53000 135.106
58.54000 134.399
58.55000 134.840
58.56000 137.015
58.57000 139.207
58.58000 140.421
58.59000 140.676
58.60000 140.945
58.61000 142.461
58.62000 144.775
58.63000 146.927
58.64000 145.076
58.65000 141.500
58.66000 138.142
58.67000 139.852
58.68000 142.756
58.69000 145.152
58.70000 144.017
58.71000 142.206
58.72000 140.453
58.73000 138.959
58.74000 137.495
58.75000 136.384
58.76000 142.432
58.77000 147.555
58.78000 149.433
58.79000 144.814
58.80000 140.014
58.81000 138.542
58.82000 141.523
58.83000 144.526
58.84000 143.474
58.85000 138.939
58.86000 134.427
58.87000 131.167
58.88000 128.619
58.89000 126.223
58.90000 126.790
58.91000 128.498
58.92000 130.080
58.93000 135.824
58.94000 141.962
58.95000 146.141
58.96000 138.453
58.97000 128.768
58.98000 121.057
58.99000 121.110
59.00000 121.954
59.01000 122.576
59.02000 132.537
59.03000 140.628
59.04000 144.203
59.05000 139.710
59.06000 135.058
59.07000 132.471
59.08000 132.325
59.09000 132.185
59.10000 130.487
59.11000 127.624
59.12000 124.894
59.13000 127.137
59.14000 131.905
59.15000 136.428
59.16000 137.118
59.17000 136.490
59.18000 135.917
59.19000 139.838
59.20000 144.236
59.21000 147.317
59.22000 143.397
59.23000 138.448
59.24000 134.599
59.25000 134.594
59.26000 134.919
59.27000 135.150
59.28000 137.256
59.29000 138.919
59.30000 138.949
59.31000 136.383
59.32000 133.783
59.33000 131.972
59.34000 130.979
59.35000 129.992
59.36000 129.681
59.37000 129.823
59.38000 129.971
59.39000 130.264
59.40000 130.623
59.41000 130.913
59.42000 130.314
59.43000 129.443
59.44000 128.660
59.45000 132.598
59.46000 136.885
59.47000 140.067
59.48000 138.076
59.49000 135.426
59.50000 132.663
59.51000 129.548
59.52000 126.408
59.53000 124.257
59.54000 123.674
59.55000 123.275
59.56000 121.657
59.57000 118.316
59.58000 114.966
59.59000 116.792
59.60000 123.339
59.61000 129.823
59.62000 131.927
59.63000 131.416
59.64000 130.803
59.65000 127.975
59.66000 124.251
59.67000 120.891
59.68000 121.466
59.69000 123.114
59.70000 124.570
59.71000 127.842
59.72000 130.947
59.73000 133.522
59.74000 133.899
59.75000 134.037
59.76000 133.169
59.77000 129.507
59.78000 125.682
59.79000 123.166
59.80000 126.424
59.81000 128.922
59.82000 132.380
59.83000 137.036
59.84000 141.683
59.85000 141.862
59.86000 138.451
59.87000 135.089
59.88000 135.895
59.89000 138.838
59.90000 141.536
59.91000 140.033
59.92000 137.011
59.93000 134.317
59.94000 134.638
59.95000 135.690
59.96000 136.602
59.97000 134.709
59.98000 132.723
59.99000 130.882
60.00000 129.570
60.01000 128.308
60.02000 127.764
60.03000 129.003
60.04000 130.326
60.05000 131.159
60.06000 132.269
60.07000 133.075
60.08000 133.208
60.09000 132.599
60.10000 132.010
60.11000 134.388
60.12000 138.878
60.13000 143.273
60.14000 144.969
60.15000 145.362
60.16000 145.646
60.17000 144.415
60.18000 142.694
60.19000 140.871
60.20000 138.244
60.21000 135.445
60.22000 133.068
60.23000 135.611
60.24000 138.305
60.25000 139.504
60.26000 135.800
60.27000 131.713
60.28000 129.077
60.29000 129.655
60.30000 130.349
60.31000 130.766
60.32000 132.457
60.33000 133.667
60.34000 133.220
60.35000 131.169
60.36000 129.130
60.37000 128.009
60.38000 127.469
60.39000 126.943
60.40000 127.714
60.41000 128.971
60.42000 130.399
60.43000 133.836
60.44000 137.850
60.45000 141.070
60.46000 138.854
60.47000 135.610
60.48000 132.916
60.49000 130.940
60.50000 129.376
60.51000 128.690
60.52000 130.576
60.53000 132.626
60.54000 133.818
60.55000 133.311
60.56000 132.759
60.57000 132.444
60.58000 132.141
60.59000 131.933
60.60000 133.209
60.61000 135.745
60.62000 138.226
60.63000 137.800
60.64000 135.739
60.65000 133.754
60.66000 132.741
60.67000 132.137
60.68000 131.801
60.69000 134.120
60.70000 137.118
60.71000 139.399
60.72000 137.397
60.73000 134.684
60.74000 132.487
60.75000 132.796
60.76000 133.253
60.77000 134.007
60.78000 135.536
60.79000 137.105
60.80000 138.122
60.81000 138.164
60.82000 138.188
60.83000 138.201
60.84000 139.085
60.85000 139.686
60.86000 139.469
60.87000 138.637
60.88000 137.851
60.89000 138.750
60.90000 140.494
60.91000 142.157
60.92000 142.893
60.93000 143.283
60.94000 143.259
60.95000 139.723
60.96000 135.393
60.97000 131.483
60.98000 129.774
60.99000 128.385
61.00000 127.288
61.01000 131.671
61.02000 135.559
61.03000 137.486
61.04000 134.844
61.05000 132.015
61.06000 131.286
61.07000 133.856
61.08000 136.465
61.09000 137.786
61.10000 140.634
61.11000 142.516
61.12000 141.848
61.13000 139.482
61.14000 137.219
61.15000 137.717
61.16000 139.452
61.17000 141.087
61.18000 142.248
61.19000 143.179
61.20000 143.832
61.21000 142.460
61.22000 140.682
61.23000 139.392
61.24000 140.358
61.25000 141.607
61.26000 142.566
61.27000 136.983
61.28000 132.209
61.29000 129.892
61.30000 132.689
61.31000 135.643
61.32000 136.875
61.33000 135.704
61.34000 134.518
61.35000 133.826
61.36000 133.581
61.37000 133.318
61.38000 132.010
61.39000 130.082
61.40000 128.234
61.41000 128.039
61.42000 128.507
61.43000 128.942
61.44000 133.251
61.45000 138.090
61.46000 142.276
61.47000 142.313
61.48000 141.620
61.49000 141.558
61.50000 144.076
61.51000 146.872
61.52000 148.951
61.53000 163.809
61.54000 175.937
61.55000 186.846
61.56000 195.495
61.57000 204.094
61.58000 210.182
61.59000 213.174
61.60000 216.152
61.61000 222.217
61.62000 230.691
61.63000 239.037
61.64000 241.989
61.65000 242.093
61.66000 242.204
61.67000 242.414
61.68000 242.659
61.69000 242.884
61.70000 247.167
61.71000 251.854
61.72000 255.559
61.73000 253.820
61.74000 251.242
61.75000 246.948
61.76000 236.414
61.77000 225.310
61.78000 217.322
61.79000 214.510
61.80000 212.538
61.81000 206.366
61.82000 193.247
61.83000 180.024
61.84000 169.168
61.85000 160.887
61.86000 152.643
61.87000 150.108
61.88000 151.568
61.89000 152.992
61.90000 153.313
61.91000 153.115
61.92000 152.595
61.93000 147.636
61.94000 141.265
61.95000 135.504
61.96000 139.752
61.97000 145.352
61.98000 149.333
61.99000 145.395
62.00000 140.397
62.01000 138.119
62.02000 144.646
62.03000 151.846
62.04000 156.842
62.05000 152.988
62.06000 149.851
62.07000 145.958
62.08000 140.954
62.09000 135.941
62.10000 135.927
62.11000 140.678
62.12000 145.391
62.13000 144.894
62.14000 141.212
62.15000 137.654
62.16000 136.964
62.17000 137.480
62.18000 137.897
62.19000 137.164
62.20000 136.105
62.21000 135.163
62.22000 137.204
62.23000 139.458
62.24000 141.093
62.25000 140.056
62.26000 138.711
62.27000 138.072
62.28000 139.476
62.29000 141.007
62.30000 142.029
62.31000 145.616
62.32000 148.322
62.33000 149.109
62.34000 147.393
62.35000 145.664
62.36000 142.528
62.37000 138.214
62.38000 133.955
62.39000 139.421
62.40000 150.004
62.41000 159.730
62.42000 153.627
62.43000 141.578
62.44000 130.842
62.45000 132.852
62.46000 138.078
62.47000 142.637
62.48000 143.858
62.49000 144.436
62.50000 144.334
62.51000 141.625
62.52000 138.660
62.53000 136.514
62.54000 136.482
62.55000 136.556
62.56000 136.604
62.57000 145.596
62.58000 152.261
62.59000 154.014
62.60000 150.116
62.61000 146.219
62.62000 143.920
62.63000 142.805
62.64000 141.710
62.65000 141.672
62.66000 142.141
62.67000 142.403
62.68000 139.571
62.69000 135.702
62.70000 132.761
62.71000 137.534
62.72000 144.031
62.73000 149.588
62.74000 145.342
62.75000 140.585
62.76000 137.631
62.77000 140.829
62.78000 144.537
62.79000 146.999
62.80000 146.589
62.81000 146.065
62.82000 145.745
62.83000 146.946
62.84000 147.817
62.85000 148.393
62.86000 148.671
62.87000 148.955
62.88000 149.685
62.89000 150.709
62.90000 151.707
62.91000 151.368
62.92000 150.481
62.93000 149.454
62.94000 146.689
62.95000 143.404
62.96000 140.550
62.97000 140.779
62.98000 141.618
62.99000 142.320
63.00000 141.907
63.01000 141.449
63.02000 140.625
63.03000 138.688
63.04000 136.673
63.05000 137.030
63.06000 142.259
63.07000 147.635
63.08000 150.757
63.09000 150.191
63.10000 149.779
63.11000 150.607
63.12000 152.534
63.13000 154.419
63.14000 153.835
63.15000 151.805
63.16000 149.845
63.17000 148.513
63.18000 147.492
63.19000 146.786
63.20000 149.376
63.21000 152.842
63.22000 155.695
63.23000 154.719
63.24000 153.079
63.25000 151.738
63.26000 146.039
63.27000 140.995
63.28000 138.959
63.29000 145.078
63.30000 151.654
63.31000 155.978
63.32000 156.173
63.33000 156.279
63.34000 156.338
63.35000 157.273
63.36000 157.908
63.37000 155.708
63.38000 151.288
63.39000 146.930
63.40000 145.094
63.41000 144.573
63.42000 144.074
63.43000 143.345
63.44000 142.589
63.45000 141.850
63.46000 141.252
63.47000 140.686
63.48000 140.065
63.49000 139.135
63.50000 138.159
63.51000 137.381
63.52000 137.661
63.53000 137.963
63.54000 139.771
63.55000 145.227
63.56000 150.845
63.57000 153.418
63.58000 151.018
63.59000 148.547
63.60000 147.268
63.61000 143.096
63.62000 140.304
63.63000 140.369
63.64000 142.414
63.65000 144.485
63.66000 147.313
63.67000 150.493
63.68000 153.504
63.69000 152.707
63.70000 150.873
63.71000 149.172
63.72000 148.494
63.73000 148.030
63.74000 147.813
63.75000 148.787
63.76000 149.919
63.77000 150.795
63.78000 152.698
63.79000 154.270
63.80000 154.733
63.81000 152.796
63.82000 150.777
63.83000 150.398
63.84000 152.399
63.85000 154.420
63.86000 154.069
63.87000 151.491
63.88000 148.993
63.89000 152.309
63.90000 159.205
63.91000 165.669
63.92000 162.278
63.93000 154.791
63.94000 147.790
63.95000 146.467
63.96000 146.710
63.97000 147.193
63.98000 149.265
63.99000 151.630
64.00000 153.872
64.01000 155.593
64.02000 157.255
64.03000 158.504
64.04000 154.261
64.05000 150.678
64.06000 148.511
64.07000 149.077
64.08000 149.711
64.09000 150.539
64.10000 151.614
64.11000 152.689
64.12000 154.014
64.13000 155.540
64.14000 157.074
64.15000 158.973
64.16000 161.074
64.17000 163.093
64.18000 163.651
64.19000 163.668
64.20000 163.683
64.21000 166.522
64.22000 169.695
64.23000 171.403
64.24000 164.603
64.25000 156.431
64.26000 150.491
64.27000 153.002
64.28000 156.330
64.29000 158.751
64.30000 163.104
64.31000 166.527
64.32000 168.601
64.33000 168.352
64.34000 168.063
64.35000 166.804
64.36000 164.443
64.37000 162.090
64.38000 158.256
64.39000 153.381
64.40000 148.712
64.41000 151.038
64.42000 156.788
64.43000 162.405
64.44000 166.068
64.45000 169.085
64.46000 171.826
64.47000 168.432
64.48000 164.236
64.49000 160.831
64.50000 161.463
64.51000 162.662
64.52000 163.739
64.53000 164.405
64.54000 165.038
64.55000 165.483
64.56000 164.328
64.57000 163.407
64.58000 164.492
64.59000 168.649
64.60000 172.839
64.61000 174.387
64.62000 173.302
64.63000 172.225
64.64000 168.293
64.65000 162.596
64.66000 157.140
64.67000 157.805
64.68000 161.147
64.69000 164.473
64.70000 167.609
64.71000 170.689
64.72000 173.443
64.73000 174.963
64.74000 176.079
64.75000 177.011
64.76000 177.110
64.77000 177.109
64.78000 177.839
64.79000 180.762
64.80000 183.834
64.81000 185.911
64.82000 184.143
64.83000 182.742
64.84000 181.915
64.85000 181.868
64.86000 181.826
64.87000 182.169
64.88000 182.848
64.89000 183.520
64.90000 183.451
64.91000 182.967
64.92000 182.441
64.93000 181.078
64.94000 179.388
64.95000 177.680
64.96000 175.794
64.97000 173.861
64.98000 172.164
64.99000 181.475
65.00000 191.098
65.01000 197.463
65.02000 190.826
65.03000 182.837
65.04000 177.368
65.05000 178.644
65.06000 180.291
65.07000 181.359
65.08000 186.870
65.09000 190.973
65.10000 193.551
65.11000 194.297
65.12000 195.049
65.13000 198.086
65.14000 202.889
65.15000 207.611
65.16000 210.721
65.17000 212.925
65.18000 215.285
65.19000 220.131
65.20000 225.844
65.21000 230.741
65.22000 228.506
65.23000 224.608
65.24000 221.251
65.25000 223.924
65.26000 226.951
65.27000 231.007
65.28000 238.709
65.29000 246.731
65.30000 252.117
65.31000 251.199
65.32000 250.008
65.33000 249.269
65.34000 262.401
65.35000 271.985
65.36000 276.762
65.37000 276.460
65.38000 276.211
65.39000 282.413
65.40000 293.027
65.41000 303.395
65.42000 306.724
65.43000 306.812
65.44000 307.514
65.45000 316.330
65.46000 327.667
65.47000 338.879
65.48000 349.151
65.49000 359.230
65.50000 367.727
65.51000 363.844
65.52000 359.260
65.53000 356.363
65.54000 358.795
65.55000 361.618
65.56000 367.455
65.57000 379.729
65.58000 392.217
65.59000 399.597
65.60000 393.642
65.61000 389.364
65.62000 392.164
65.63000 401.522
65.64000 410.953
65.65000 425.407
65.66000 442.915
65.67000 459.881
65.68000 475.020
65.69000 488.640
65.70000 503.575
65.71000 533.042
65.72000 566.529
65.73000 601.425
65.74000 645.547
65.75000 691.343
65.76000 729.075
65.77000 770.911
65.78000 805.711
65.79000 835.428
65.80000 850.821
65.81000 865.352
65.82000 875.799
65.83000 878.458
65.84000 880.930
65.85000 882.314
65.86000 903.793
65.87000 918.688
65.88000 917.489
65.89000 903.156
65.90000 888.857
65.91000 876.063
65.92000 864.086
65.93000 852.586
65.94000 812.887
65.95000 766.083
65.96000 719.155
65.97000 671.068
65.98000 622.697
65.99000 576.079
66.00000 539.487
66.01000 504.488
66.02000 476.363
66.03000 432.426
66.04000 395.594
66.05000 364.199
66.06000 346.479
66.07000 329.420
66.08000 314.279
66.09000 302.396
66.10000 290.567
66.11000 284.317
66.12000 292.209
66.13000 297.566
66.14000 301.201
66.15000 303.594
66.16000 305.762
66.17000 300.581
66.18000 291.848
66.19000 283.549
66.20000 285.254
66.21000 289.852
66.22000 293.819
66.23000 292.706
66.24000 290.488
66.25000 289.746
66.26000 296.425
66.27000 304.131
66.28000 310.159
66.29000 318.374
66.30000 325.072
66.31000 333.099
66.32000 344.113
66.33000 355.239
66.34000 363.190
66.35000 366.342
66.36000 369.445
66.37000 375.834
66.38000 385.449
66.39000 394.989
66.40000 398.136
66.41000 397.186
66.42000 396.163
66.43000 393.360
66.44000 389.788
66.45000 386.434
66.46000 382.776
66.47000 379.359
66.48000 376.604
66.49000 378.456
66.50000 381.193
66.51000 379.836
66.52000 360.284
66.53000 338.559
66.54000 322.057
66.55000 316.990
66.56000 313.599
66.57000 311.521
66.58000 312.073
66.59000 312.699
66.60000 312.195
66.61000 310.178
66.62000 308.154
66.63000 304.648
66.64000 299.873
66.65000 295.175
66.66000 294.682
66.67000 296.589
66.68000 298.442
66.69000 299.265
66.70000 299.690
66.71000 300.085
66.72000 300.513
66.73000 300.906
66.74000 300.481
66.75000 295.088
66.76000 288.857
66.77000 284.403
66.78000 286.949
66.79000 290.210
66.80000 292.610
66.81000 299.644
66.82000 305.279
66.83000 306.050
66.84000 298.120
66.85000 290.017
66.86000 290.211
66.87000 300.235
66.88000 310.251
66.89000 316.316
66.90000 319.350
66.91000 322.207
66.92000 318.363
66.93000 311.111
66.94000 304.834
66.95000 313.871
66.96000 328.180
66.97000 341.253
66.98000 339.522
66.99000 334.962
67.00000 330.850
67.01000 329.124
67.02000 327.749
67.03000 325.624
67.04000 320.868
67.05000 315.884
67.06000 312.340
67.07000 319.551
67.08000 325.389
67.09000 329.381
67.10000 330.436
67.11000 331.452
67.12000 332.660
67.13000 334.066
67.14000 335.464
67.15000 335.491
67.16000 334.604
67.17000 333.735
67.18000 333.407
67.19000 333.323
67.20000 334.036
67.21000 345.063
67.22000 359.255
67.23000 372.017
67.24000 358.974
67.25000 342.956
67.26000 331.228
67.27000 339.641
67.28000 350.624
67.29000 360.161
67.30000 365.185
67.31000 369.885
67.32000 373.106
67.33000 371.795
67.34000 370.704
67.35000 369.470
67.36000 368.033
67.37000 366.595
67.38000 365.900
67.39000 365.884
67.40000 365.867
67.41000 371.737
67.42000 380.949
67.43000 389.852
67.44000 392.050
67.45000 391.529
67.46000 391.121
67.47000 391.937
67.48000 393.088
67.49000 394.106
67.50000 397.216
67.51000 400.225
67.52000 403.179
67.53000 405.903
67.54000 408.602
67.55000 410.252
67.56000 408.981
67.57000 407.538
67.58000 406.588
67.59000 405.375
67.60000 404.477
67.61000 402.813
67.62000 400.191
67.63000 397.578
67.64000 399.328
67.65000 404.592
67.66000 409.779
67.67000 417.217
67.68000 425.605
67.69000 433.855
67.70000 439.720
67.71000 444.720
67.72000 448.659
67.73000 442.810
67.74000 434.586
67.75000 427.455
67.76000 434.535
67.77000 442.457
67.78000 448.161
67.79000 445.676
67.80000 442.427
67.81000 441.949
67.82000 448.356
67.83000 455.087
67.84000 459.329
67.85000 462.813
67.86000 465.326
67.87000 464.320
67.88000 459.428
67.89000 454.561
67.90000 453.565
67.91000 455.328
67.92000 457.055
67.93000 460.926
67.94000 465.629
67.95000 469.928
67.96000 468.550
67.97000 465.338
67.98000 462.433
67.99000 461.969
68.00000 462.029
68.01000 462.079
68.02000 479.099
68.03000 495.320
68.04000 507.327
68.05000 505.493
68.06000 502.577
68.07000 502.793
68.08000 509.960
68.09000 517.380
68.10000 521.840
68.11000 526.796
68.12000 530.323
68.13000 533.276
68.14000 535.672
68.15000 538.082
68.16000 541.581
68.17000 545.769
68.18000 549.839
68.19000 554.847
68.20000 559.987
68.21000 564.102
68.22000 556.207
68.23000 544.854
68.24000 535.920
68.25000 543.567
68.26000 554.354
68.27000 563.314
68.28000 569.480
68.29000 574.308
68.30000 580.682
68.31000 591.584
68.32000 602.779
68.33000 608.789
68.34000 604.530
68.35000 599.992
68.36000 597.402
68.37000 620.082
68.38000 635.979
68.39000 645.925
68.40000 650.805
68.41000 655.642
68.42000 658.309
68.43000 659.753
68.44000 661.144
68.45000 670.120
68.46000 681.264
68.47000 692.001
68.48000 698.709
68.49000 704.385
68.50000 709.862
68.51000 714.147
68.52000 718.235
68.53000 721.549
68.54000 741.103
68.55000 758.362
68.56000 775.138
68.57000 790.651
68.58000 806.097
68.59000 832.356
68.60000 877.718
68.61000 923.443
68.62000 948.102
68.63000 1006.159
68.64000 1045.903
68.65000 1086.084
68.66000 1126.592
68.67000 1166.894
68.68000 1199.674
68.69000 1228.675
68.70000 1256.332
68.71000 1301.531
68.72000 1349.000
68.73000 1397.101
68.74000 1450.543
68.75000 1505.197
68.76000 1554.572
68.77000 1576.217
68.78000 1593.840
68.79000 1607.754
68.80000 1701.723
68.81000 1782.576
68.82000 1862.779
68.83000 1941.465
68.84000 2020.088
68.85000 2112.659
68.86000 2227.166
68.87000 2341.939
68.88000 2400.103
68.89000 2796.696
68.90000 3065.466
68.91000 3658.657
68.92000 4468.260
68.93000 5309.713
68.94000 7014.750
68.95000 9107.190
68.96000 11080.354
68.97000 14564.776
68.98000 18176.590
68.99000 21825.059
69.00000 25741.293
69.01000 29711.205
69.02000 33553.023
69.03000 36801.371
69.04000 39975.184
69.05000 42410.695
69.06000 44112.262
69.07000 45416.043
69.08000 46385.902
69.09000 46659.746
69.10000 46911.902
69.11000 47151.402
69.12000 47373.223
69.13000 47594.844
69.14000 48064.613
69.15000 48757.313
69.16000 49444.594
69.17000 49795.219
69.18000 49946.105
69.19000 50039.352
69.20000 48919.379
69.21000 47313.348
69.22000 45817.828
69.23000 42974.523
69.24000 40074.801
69.25000 37239.680
69.26000 34815.086
69.27000 32462.881
69.28000 30278.320
69.29000 28781.490
69.30000 27358.801
69.31000 26300.184
69.32000 25470.008
69.33000 24834.369
69.34000 24224.584
69.35000 23662.877
69.36000 23102.252
69.37000 22309.777
69.38000 21230.729
69.39000 20152.826
69.40000 18617.514
69.41000 16727.555
69.42000 14835.049
69.43000 12835.027
69.44000 10778.158
69.45000 8752.820
69.46000 7258.563
69.47000 5954.277
69.48000 4756.582
69.49000 3931.464
69.50000 3274.938
69.51000 2666.361
69.52000 2324.572
69.53000 2023.936
69.54000 1759.016
69.55000 1624.228
69.56000 1501.352
69.57000 1412.917
69.58000 1349.698
69.59000 1302.178
69.60000 1254.431
69.61000 1206.305
69.62000 1158.174
69.63000 1115.836
69.64000 1079.809
69.65000 1043.940
69.66000 1013.745
69.67000 987.810
69.68000 962.163
69.69000 945.337
69.70000 932.673
69.71000 919.031
69.72000 891.907
69.73000 860.480
69.74000 832.062
69.75000 821.917
69.76000 816.397
69.77000 810.947
69.78000 805.836
69.79000 800.772
69.80000 793.345
69.81000 778.257
69.82000 762.581
69.83000 751.699
69.84000 716.271
69.85000 688.927
69.86000 670.753
69.87000 666.089
69.88000 661.547
69.89000 661.784
69.90000 666.583
69.91000 671.345
69.92000 671.073
69.93000 667.716
69.94000 664.611
69.95000 667.403
69.96000 672.679
69.97000 676.464
69.98000 663.081
69.99000 644.820
70.00000 628.583
