20.00000 563.057
20.01000 564.457
20.02000 566.058
20.03000 569.000
20.04000 577.172
20.05000 585.870
20.06000 592.253
20.07000 588.043
20.08000 584.361
20.09000 580.186
20.10000 575.138
20.11000 570.073
20.12000 571.518
20.13000 580.590
20.14000 589.648
20.15000 589.381
20.16000 582.131
20.17000 575.205
20.18000 580.113
20.19000 590.980
20.20000 600.742
20.21000 593.442
20.22000 580.330
20.23000 568.366
20.24000 568.995
20.25000 572.094
20.26000 574.296
20.27000 571.777
20.28000 568.572
20.29000 568.563
20.30000 579.634
20.31000 591.648
20.32000 600.164
20.33000 596.556
20.34000 593.432
20.35000 592.701
20.36000 595.742
20.37000 598.829
20.38000 592.820
20.39000 577.442
20.40000 562.152
20.41000 553.409
20.42000 549.102
20.43000 545.021
20.44000 547.097
20.45000 551.940
20.46000 557.034
20.47000 565.318
20.48000 574.570
20.49000 582.879
20.50000 588.237
20.51000 592.405
20.52000 594.721
20.53000 588.435
20.54000 581.066
20.55000 574.967
20.56000 572.789
20.57000 570.889
20.58000 569.591
20.59000 570.714
20.60000 571.611
20.61000 571.749
20.62000 570.823
20.63000 569.893
20.64000 573.131
20.65000 580.135
20.66000 587.070
20.67000 583.557
20.68000 574.038
20.69000 564.712
20.70000 559.465
20.71000 555.856
20.72000 553.280
20.73000 561.762
20.74000 573.233
20.75000 583.354
20.76000 575.217
20.77000 565.414
20.78000 558.498
20.79000 563.454
20.80000 569.693
20.81000 572.744
20.82000 567.006
20.83000 560.761
20.84000 556.664
20.85000 563.604
20.86000 568.891
20.87000 573.127
20.88000 576.061
20.89000 578.982
20.90000 579.098
20.91000 576.980
20.92000 574.895
20.93000 577.877
20.94000 583.373
20.95000 588.626
20.96000 589.762
20.97000 589.423
20.98000 588.089
20.99000 577.719
21.00000 565.180
21.01000 554.326
21.02000 566.637
21.03000 580.152
21.04000 589.546
21.05000 583.893
21.06000 576.857
21.07000 572.009
21.08000 572.542
21.09000 573.323
21.10000 573.814
21.11000 570.693
21.12000 568.398
21.13000 569.414
21.14000 574.045
21.15000 578.599
21.16000 572.499
21.17000 558.887
21.18000 545.567
21.19000 544.850
21.20000 549.882
21.21000 554.855
21.22000 559.004
21.23000 562.889
21.24000 565.939
21.25000 562.466
21.26000 557.608
21.27000 553.489
21.28000 561.911
21.29000 570.383
21.30000 576.569
21.31000 575.326
21.32000 573.512
21.33000 570.231
21.34000 563.727
21.35000 557.108
21.36000 553.147
21.37000 548.898
21.38000 545.880
21.39000 547.117
21.40000 552.425
21.41000 557.692
21.42000 559.826
21.43000 559.997
21.44000 560.163
21.45000 561.584
21.46000 563.435
21.47000 565.573
21.48000 571.021
21.49000 577.413
21.50000 584.258
21.51000 594.176
21.52000 604.670
21.53000 613.368
21.54000 610.604
21.55000 607.224
21.56000 605.865
21.57000 610.366
21.58000 615.239
21.59000 618.637
21.60000 619.140
21.61000 619.568
21.62000 619.810
21.63000 639.906
21.64000 653.954
21.65000 663.598
21.66000 669.532
21.67000 675.511
21.68000 683.693
21.69000 693.104
21.70000 702.163
21.71000 715.095
21.72000 728.600
21.73000 742.171
21.74000 756.384
21.75000 770.760
21.76000 785.838
21.77000 805.075
21.78000 824.994
21.79000 841.104
21.80000 866.443
21.81000 887.802
21.82000 910.095
21.83000 934.805
21.84000 959.639
21.85000 983.305
21.86000 1004.926
21.87000 1026.511
21.88000 1038.090
21.89000 1056.913
21.90000 1069.781
21.91000 1084.554
21.92000 1100.745
21.93000 1116.512
21.94000 1117.283
21.95000 1110.594
21.96000 1104.221
21.97000 1100.738
21.98000 1098.412
21.99000 1095.612
22.00000 1088.861
22.01000 1081.223
22.02000 1071.486
22.03000 1050.850
22.04000 1028.654
22.05000 1011.172
22.06000 996.053
22.07000 984.095
22.08000 966.757
22.09000 936.986
22.10000 906.716
22.11000 873.155
22.12000 834.469
22.13000 795.723
22.14000 776.202
22.15000 782.126
22.16000 785.864
22.17000 768.051
22.18000 736.013
22.19000 704.594
22.20000 689.587
22.21000 681.869
22.22000 674.599
22.23000 660.073
22.24000 644.789
22.25000 630.350
22.26000 622.006
22.27000 614.870
22.28000 608.257
22.29000 604.035
22.30000 600.111
22.31000 597.107
22.32000 589.034
22.33000 582.385
22.34000 580.806
22.35000 589.687
22.36000 598.886
22.37000 597.359
22.38000 581.010
22.39000 564.575
22.40000 553.189
22.41000 546.311
22.42000 539.668
22.43000 547.157
22.44000 562.944
22.45000 578.063
22.46000 579.425
22.47000 575.331
22.48000 571.522
22.49000 570.391
22.50000 570.016
22.51000 569.898
22.52000 571.404
22.53000 573.192
22.54000 572.372
22.55000 560.961
22.56000 548.424
22.57000 539.122
22.58000 551.384
22.59000 561.857
22.60000 566.827
22.61000 561.667
22.62000 556.287
22.63000 554.948
22.64000 558.552
22.65000 562.160
22.66000 559.374
22.67000 551.603
22.68000 543.903
22.69000 539.097
22.70000 535.806
22.71000 532.543
22.72000 529.735
22.73000 527.089
22.74000 524.662
22.75000 527.352
22.76000 530.829
22.77000 534.530
22.78000 539.460
22.79000 544.577
22.80000 547.763
22.81000 543.987
22.82000 539.584
22.83000 536.425
22.84000 529.416
22.85000 523.925
22.86000 523.188
22.87000 530.248
22.88000 537.421
22.89000 535.327
22.90000 523.257
22.91000 511.239
22.92000 508.095
22.93000 511.093
22.94000 514.169
22.95000 519.542
22.96000 525.988
22.97000 532.376
22.98000 537.989
22.99000 543.355
23.00000 548.201
23.01000 543.843
23.02000 538.316
23.03000 534.043
23.04000 535.840
23.05000 538.441
23.06000 539.774
23.07000 537.034
23.08000 533.987
23.09000 531.879
23.10000 533.126
23.11000 534.151
23.12000 536.460
23.13000 540.641
23.14000 544.837
23.15000 543.782
23.16000 537.773
23.17000 531.813
23.18000 528.277
23.19000 526.277
23.20000 524.521
23.21000 528.370
23.22000 534.558
23.23000 540.115
23.24000 538.520
23.25000 534.914
23.26000 531.713
23.27000 534.736
23.28000 538.353
23.29000 541.337
23.30000 541.610
23.31000 541.575
23.32000 538.122
23.33000 524.882
23.34000 511.036
23.35000 501.825
23.36000 519.297
23.37000 532.724
23.38000 537.297
23.39000 530.431
23.40000 523.523
23.41000 517.957
23.42000 513.505
23.43000 509.113
23.44000 510.142
23.45000 514.050
23.46000 517.658
23.47000 515.837
23.48000 511.992
23.49000 509.165
23.50000 516.091
23.51000 525.456
23.52000 533.617
23.53000 535.436
23.54000 536.113
23.55000 536.159
23.56000 533.808
23.57000 531.224
23.58000 529.442
23.59000 529.708
23.60000 530.075
23.61000 530.310
23.62000 528.792
23.63000 527.666
23.64000 526.023
23.65000 523.791
23.66000 521.565
23.67000 520.499
23.68000 520.284
23.69000 520.073
23.70000 514.375
23.71000 506.289
23.72000 498.998
23.73000 503.454
23.74000 511.814
23.75000 519.843
23.76000 525.143
23.77000 529.840
23.78000 533.850
23.79000 529.524
23.80000 524.890
23.81000 522.147
23.82000 525.795
23.83000 529.967
23.84000 532.089
23.85000 529.529
23.86000 526.787
23.87000 525.119
23.88000 516.108
23.89000 509.615
23.90000 507.325
23.91000 509.242
23.92000 511.102
23.93000 507.692
23.94000 500.849
23.95000 494.186
23.96000 494.469
23.97000 497.644
23.98000 500.810
23.99000 503.860
24.00000 506.876
24.01000 509.100
24.02000 505.702
24.03000 501.205
24.04000 497.449
24.05000 504.152
24.06000 510.775
24.07000 517.983
24.08000 526.953
24.09000 536.042
24.10000 540.533
24.11000 535.650
24.12000 530.492
24.13000 527.509
24.14000 520.519
24.15000 515.602
24.16000 509.095
24.17000 501.193
24.18000 493.436
24.19000 494.045
24.20000 499.505
24.21000 504.776
24.22000 505.933
24.23000 505.506
24.24000 505.516
24.25000 510.049
24.26000 515.775
24.27000 520.438
24.28000 518.532
24.29000 515.498
24.30000 513.022
24.31000 511.725
24.32000 510.765
24.33000 510.962
24.34000 514.271
24.35000 517.752
24.36000 520.577
24.37000 522.210
24.38000 523.818
24.39000 524.698
24.40000 511.970
24.41000 503.216
24.42000 498.842
24.43000 497.863
24.44000 496.954
24.45000 498.768
24.46000 501.990
24.47000 505.071
24.48000 507.506
24.49000 509.563
24.50000 511.176
24.51000 508.884
24.52000 505.680
24.53000 502.665
24.54000 500.677
24.55000 498.843
24.56000 497.386
24.57000 495.047
24.58000 493.101
24.59000 492.839
24.60000 496.623
24.61000 500.584
24.62000 500.883
24.63000 495.252
24.64000 489.539
24.65000 486.597
24.66000 494.199
24.67000 499.273
24.68000 498.881
24.69000 494.732
24.70000 490.613
24.71000 487.341
24.72000 484.462
24.73000 481.738
24.74000 485.216
24.75000 490.190
24.76000 495.003
24.77000 498.603
24.78000 501.951
24.79000 504.696
24.80000 504.555
24.81000 504.037
24.82000 503.637
24.83000 502.251
24.84000 501.093
24.85000 498.936
24.86000 494.636
24.87000 490.264
24.88000 489.440
24.89000 493.719
24.90000 498.039
24.91000 500.128
24.92000 500.141
24.93000 500.121
24.94000 497.753
24.95000 493.951
24.96000 490.301
24.97000 490.058
24.98000 491.219
24.99000 492.304
25.00000 487.783
25.01000 482.268
25.02000 477.913
25.03000 481.182
25.04000 485.840
25.05000 490.941
25.06000 497.915
25.07000 505.098
25.08000 510.486
25.09000 507.637
25.10000 505.021
25.11000 503.488
25.12000 504.028
25.13000 504.618
25.14000 504.348
25.15000 502.983
25.16000 501.615
25.17000 500.200
25.18000 498.752
25.19000 497.249
25.20000 493.184
25.21000 487.726
25.22000 482.863
25.23000 488.579
25.24000 498.189
25.25000 507.045
25.26000 507.429
25.27000 505.901
25.28000 502.935
25.29000 491.702
25.30000 479.150
25.31000 469.260
25.32000 469.364
25.33000 470.421
25.34000 471.188
25.35000 483.709
25.36000 493.775
25.37000 499.578
25.38000 498.110
25.39000 496.520
25.40000 494.036
25.41000 490.548
25.42000 487.072
25.43000 483.245
25.44000 479.198
25.45000 475.311
25.46000 476.680
25.47000 480.600
25.48000 484.390
25.49000 486.308
25.50000 487.612
25.51000 488.795
25.52000 497.307
25.53000 506.239
25.54000 512.878
25.55000 507.932
25.56000 501.377
25.57000 495.576
25.58000 492.297
25.59000 489.220
25.60000 487.064
25.61000 496.182
25.62000 503.401
25.63000 503.480
25.64000 492.722
25.65000 481.851
25.66000 481.606
25.67000 491.846
25.68000 502.014
25.69000 498.009
25.70000 485.089
25.71000 472.837
25.72000 477.265
25.73000 488.924
25.74000 499.357
25.75000 495.068
25.76000 486.471
25.77000 478.794
25.78000 483.741
25.79000 490.171
25.80000 495.955
25.81000 498.858
25.82000 501.415
25.83000 500.282
25.84000 488.169
25.85000 475.327
25.86000 466.667
25.87000 474.650
25.88000 480.941
25.89000 484.049
25.90000 482.874
25.91000 481.680
25.92000 484.249
25.93000 490.078
25.94000 495.841
25.95000 498.325
25.96000 498.917
25.97000 499.156
25.98000 492.471
25.99000 483.106
26.00000 474.619
26.01000 475.028
26.02000 477.752
26.03000 480.142
26.04000 481.818
26.05000 483.154
26.06000 484.119
26.07000 483.613
26.08000 482.957
26.09000 482.613
26.10000 483.102
26.11000 483.635
26.12000 483.980
26.13000 483.070
26.14000 482.387
26.15000 483.424
26.16000 486.509
26.17000 489.581
26.18000 488.810
26.19000 485.097
26.20000 481.447
26.21000 476.619
26.22000 471.370
26.23000 466.537
26.24000 468.286
26.25000 472.310
26.26000 475.382
26.27000 470.226
26.28000 463.172
26.29000 457.105
26.30000 470.497
26.31000 484.270
26.32000 494.090
26.33000 490.018
26.34000 484.739
26.35000 481.190
26.36000 481.745
26.37000 482.474
26.38000 482.926
26.39000 478.915
26.40000 475.991
26.41000 477.016
26.42000 482.173
26.43000 487.284
26.44000 487.163
26.45000 483.492
26.46000 479.910
26.47000 481.743
26.48000 485.858
26.49000 489.403
26.50000 485.519
26.51000 479.346
26.52000 474.062
26.53000 475.409
26.54000 478.108
26.55000 480.381
26.56000 472.764
26.57000 465.352
26.58000 460.726
26.59000 464.823
26.60000 469.551
26.61000 472.046
26.62000 469.812
26.63000 467.423
26.64000 466.018
26.65000 474.325
26.66000 480.235
26.67000 483.488
26.68000 484.301
26.69000 485.025
26.70000 479.849
26.71000 471.114
26.72000 462.655
26.73000 464.808
26.74000 470.928
26.75000 476.706
26.76000 478.736
26.77000 479.739
26.78000 480.061
26.79000 475.969
26.80000 471.085
26.81000 467.068
26.82000 470.291
26.83000 473.595
26.84000 475.370
26.85000 472.869
26.86000 470.115
26.87000 469.320
26.88000 472.232
26.89000 475.230
26.90000 476.904
26.91000 480.154
26.92000 482.395
26.93000 480.129
26.94000 474.217
26.95000 468.406
26.96000 467.040
26.97000 468.064
26.98000 469.046
26.99000 474.582
27.00000 481.303
27.01000 487.060
27.02000 483.891
27.03000 478.548
27.04000 475.487
27.05000 485.360
27.06000 497.267
27.07000 506.818
27.08000 499.677
27.09000 492.628
27.10000 483.839
27.11000 470.709
27.12000 457.374
27.13000 450.109
27.14000 453.072
27.15000 456.199
27.16000 457.844
27.17000 461.771
27.18000 464.469
27.19000 472.278
27.20000 483.745
27.21000 494.667
27.22000 488.172
27.23000 473.326
27.24000 459.230
27.25000 462.247
27.26000 470.157
27.27000 477.085
27.28000 476.211
27.29000 473.654
27.30000 470.616
27.31000 465.184
27.32000 459.425
27.33000 454.929
27.34000 461.161
27.35000 466.803
27.36000 470.589
27.37000 470.236
27.38000 469.730
27.39000 470.126
27.40000 471.872
27.41000 473.631
27.42000 473.223
27.43000 470.707
27.44000 468.238
27.45000 469.645
27.46000 473.514
27.47000 477.199
27.48000 476.408
27.49000 473.701
27.50000 471.160
27.51000 458.707
27.52000 444.748
27.53000 433.864
27.54000 444.167
27.55000 458.502
27.56000 470.200
27.57000 470.286
27.58000 469.002
27.59000 468.028
27.60000 470.582
27.61000 472.767
27.62000 473.239
27.63000 470.302
27.64000 467.272
27.65000 463.963
27.66000 460.282
27.67000 456.603
27.68000 458.485
27.69000 465.108
27.70000 471.579
27.71000 470.055
27.72000 464.010
27.73000 458.477
27.74000 462.745
27.75000 470.762
27.76000 478.186
27.77000 476.572
27.78000 473.032
27.79000 469.461
27.80000 465.705
27.81000 461.918
27.82000 459.821
27.83000 464.324
27.84000 469.493
27.85000 473.288
27.86000 469.158
27.87000 465.644
27.88000 465.545
27.89000 471.502
27.90000 477.577
27.91000 479.051
27.92000 475.124
27.93000 471.200
27.94000 465.524
27.95000 458.573
27.96000 451.899
27.97000 455.436
27.98000 464.124
27.99000 472.357
28.00000 473.535
28.01000 472.307
28.02000 471.185
28.03000 471.910
28.04000 472.925
28.05000 473.146
28.06000 469.174
28.07000 464.591
28.08000 461.567
28.09000 463.957
28.10000 466.808
28.11000 468.830
28.12000 462.739
28.13000 457.851
28.14000 456.989
28.15000 462.486
28.16000 468.061
28.17000 469.915
28.18000 467.929
28.19000 465.955
28.20000 466.995
28.21000 470.014
28.22000 472.908
28.23000 472.369
28.24000 470.284
28.25000 467.712
28.26000 458.923
28.27000 448.240
28.28000 438.646
28.29000 450.272
28.30000 464.183
28.31000 474.513
28.32000 468.186
28.33000 459.756
28.34000 455.113
28.35000 462.186
28.36000 470.091
28.37000 475.493
28.38000 465.697
28.39000 458.010
28.40000 453.877
28.41000 454.729
28.42000 455.614
28.43000 454.042
28.44000 450.247
28.45000 446.488
28.46000 447.643
28.47000 451.637
28.48000 455.313
28.49000 452.228
28.50000 446.424
28.51000 441.036
28.52000 440.106
28.53000 440.384
28.54000 440.630
28.55000 440.272
28.56000 439.872
28.57000 441.106
28.58000 449.069
28.59000 457.762
28.60000 462.477
28.61000 456.212
28.62000 449.310
28.63000 444.781
28.64000 443.783
28.65000 443.108
28.66000 444.949
28.67000 449.913
28.68000 454.869
28.69000 454.544
28.70000 450.005
28.71000 445.534
28.72000 449.718
28.73000 458.231
28.74000 465.854
28.75000 458.370
28.76000 445.461
28.77000 434.132
28.78000 437.200
28.79000 443.731
28.80000 449.386
28.81000 453.231
28.82000 456.263
28.83000 458.320
28.84000 456.814
28.85000 454.980
28.86000 450.418
28.87000 439.134
28.88000 427.539
28.89000 420.256
28.90000 431.118
28.91000 439.171
28.92000 442.161
28.93000 439.615
28.94000 437.104
28.95000 439.874
28.96000 446.375
28.97000 452.738
28.98000 452.541
28.99000 449.368
29.00000 445.974
29.01000 439.484
29.02000 432.002
29.03000 425.509
29.04000 426.749
29.05000 429.635
29.06000 432.083
29.07000 443.673
29.08000 454.422
29.09000 461.763
29.10000 458.005
29.11000 453.391
29.12000 448.200
29.13000 441.742
29.14000 435.239
29.15000 431.344
29.16000 435.982
29.17000 439.330
29.18000 443.909
29.19000 449.669
29.20000 455.326
29.21000 453.073
29.22000 445.856
29.23000 438.847
29.24000 438.918
29.25000 441.830
29.26000 444.423
29.27000 443.334
29.28000 441.194
29.29000 439.149
29.30000 437.755
29.31000 436.483
29.32000 435.428
29.33000 439.050
29.34000 442.490
29.35000 443.215
29.36000 436.057
29.37000 428.397
29.38000 426.502
29.39000 435.931
29.40000 445.661
29.41000 451.192
29.42000 454.577
29.43000 456.932
29.44000 461.068
29.45000 466.705
29.46000 472.076
29.47000 463.994
29.48000 448.397
29.49000 433.383
29.50000 432.375
29.51000 436.393
29.52000 440.101
29.53000 440.785
29.54000 440.701
29.55000 440.138
29.56000 436.736
29.57000 432.866
29.58000 429.735
29.59000 432.847
29.60000 435.884
29.61000 438.708
29.62000 440.981
29.63000 443.225
29.64000 445.374
29.65000 447.356
29.66000 449.335
29.67000 450.397
29.68000 449.229
29.69000 448.428
29.70000 447.417
29.71000 446.248
29.72000 445.266
29.73000 450.883
29.74000 459.790
29.75000 468.278
29.76000 465.343
29.77000 459.053
29.78000 454.578
29.79000 465.291
29.80000 479.420
29.81000 491.042
29.82000 489.625
29.83000 486.337
29.84000 483.746
29.85000 478.974
29.86000 475.003
29.87000 473.228
29.88000 476.535
29.89000 480.047
29.90000 483.076
29.91000 485.348
29.92000 487.613
29.93000 488.754
29.94000 485.012
29.95000 482.548
29.96000 483.895
29.97000 487.762
29.98000 491.356
29.99000 487.691
30.00000 480.797
30.01000 474.302
30.02000 471.432
30.03000 469.803
30.04000 468.627
30.05000 470.723
30.06000 473.469
30.07000 474.404
30.08000 467.024
30.09000 458.611
30.10000 452.170
30.11000 448.306
30.12000 445.398
30.13000 449.610
30.14000 468.537
30.15000 487.913
30.16000 491.887
30.17000 474.539
30.18000 457.063
30.19000 451.781
30.20000 457.377
30.21000 462.978
30.22000 468.870
30.23000 474.933
30.24000 480.564
30.25000 477.234
30.26000 470.345
30.27000 463.936
30.28000 462.363
30.29000 462.110
30.30000 461.724
30.31000 460.502
30.32000 459.133
30.33000 458.046
30.34000 458.105
30.35000 458.286
30.36000 458.420
30.37000 455.265
30.38000 452.669
30.39000 453.692
30.40000 461.392
30.41000 469.238
30.42000 474.824
30.43000 477.641
30.44000 480.445
30.45000 474.597
30.46000 462.000
30.47000 449.798
30.48000 453.876
30.49000 466.490
30.50000 478.480
30.51000 480.136
30.52000 478.126
30.53000 476.281
30.54000 480.946
30.55000 486.481
30.56000 490.815
30.57000 488.534
30.58000 485.242
30.59000 482.267
30.60000 480.435
30.61000 478.706
30.62000 477.465
30.63000 480.838
30.64000 483.577
30.65000 488.162
30.66000 495.780
30.67000 503.443
30.68000 507.779
30.69000 508.526
30.70000 509.269
30.71000 504.342
30.72000 495.558
30.73000 487.302
30.74000 494.906
30.75000 509.932
30.76000 524.583
30.77000 534.119
30.78000 542.037
30.79000 549.189
30.80000 556.057
30.81000 562.043
30.82000 568.221
30.83000 575.334
30.84000 582.570
30.85000 592.366
30.86000 610.398
30.87000 629.052
30.88000 641.966
30.89000 675.065
30.90000 700.495
30.91000 723.857
30.92000 744.197
30.93000 764.515
30.94000 804.459
30.95000 862.962
30.96000 920.978
30.97000 988.038
30.98000 1059.374
30.99000 1131.247
31.00000 1215.514
31.01000 1304.958
31.02000 1396.692
31.03000 1514.426
31.04000 1639.487
31.05000 1750.535
31.06000 1923.941
31.07000 2084.275
31.08000 2237.481
31.09000 2360.112
31.10000 2479.248
31.11000 2610.465
31.12000 2776.330
31.13000 2944.352
31.14000 3056.185
31.15000 3274.165
31.16000 3437.458
31.17000 3573.040
31.18000 3672.757
31.19000 3772.302
31.20000 3858.259
31.21000 3932.908
31.22000 4006.574
31.23000 4040.838
31.24000 4053.021
31.25000 4063.325
31.26000 4039.344
31.27000 4002.571
31.28000 3963.559
31.29000 3903.027
31.30000 3837.106
31.31000 3779.647
31.32000 3660.666
31.33000 3550.444
31.34000 3428.209
31.35000 3260.245
31.36000 3087.825
31.37000 2916.887
31.38000 2749.741
31.39000 2582.785
31.40000 2476.302
31.41000 2255.793
31.42000 2093.958
31.43000 1945.507
31.44000 1812.343
31.45000 1679.289
31.46000 1562.737
31.47000 1458.326
31.48000 1355.911
31.49000 1263.361
31.50000 1178.872
31.51000 1095.711
31.52000 1032.231
31.53000 975.305
31.54000 918.510
31.55000 862.786
31.56000 807.299
31.57000 759.904
31.58000 732.369
31.59000 711.539
31.60000 689.443
31.61000 663.064
31.62000 636.333
31.63000 613.956
31.64000 601.536
31.65000 589.506
31.66000 582.181
31.67000 572.586
31.68000 565.713
31.69000 554.849
31.70000 539.981
31.71000 525.230
31.72000 521.196
31.73000 524.160
31.74000 527.046
31.75000 519.647
31.76000 508.287
31.77000 497.460
31.78000 493.181
31.79000 490.844
31.80000 488.592
31.81000 486.943
31.82000 485.411
31.83000 484.131
31.84000 484.703
31.85000 485.366
31.86000 483.782
31.87000 475.416
31.88000 466.589
31.89000 460.886
31.90000 461.560
31.91000 462.423
31.92000 462.922
31.93000 460.944
31.94000 459.548
31.95000 459.300
31.96000 460.061
31.97000 460.644
31.98000 450.970
31.99000 435.337
32.00000 420.241
32.01000 424.870
32.02000 436.527
32.03000 447.167
32.04000 447.296
32.05000 444.649
32.06000 441.462
32.07000 434.918
32.08000 427.798
32.09000 421.987
32.10000 424.123
32.11000 426.551
32.12000 430.446
32.13000 438.293
32.14000 446.359
32.15000 448.753
32.16000 440.814
32.17000 432.658
32.18000 428.191
32.19000 422.679
32.20000 418.915
32.21000 422.001
32.22000 430.409
32.23000 438.551
32.24000 436.095
32.25000 428.151
32.26000 420.554
32.27000 418.091
32.28000 417.472
32.29000 417.871
32.30000 427.226
32.31000 438.680
32.32000 446.355
32.33000 433.493
32.34000 417.541
32.35000 404.856
32.36000 409.413
32.37000 414.318
32.38000 418.368
32.39000 420.363
32.40000 422.268
32.41000 423.007
32.42000 421.855
32.43000 420.678
32.44000 420.071
32.45000 411.110
32.46000 405.139
32.47000 406.942
32.48000 414.098
32.49000 420.905
32.50000 417.535
32.51000 409.461
32.52000 401.823
32.53000 399.136
32.54000 398.087
32.55000 396.926
32.56000 394.907
32.57000 392.711
32.58000 390.899
32.59000 390.929
32.60000 391.199
32.61000 391.408
32.62000 403.209
32.63000 413.255
32.64000 416.956
32.65000 407.029
32.66000 396.644
32.67000 391.872
32.68000 395.193
32.69000 398.579
32.70000 400.436
32.71000 400.867
32.72000 401.266
32.73000 399.368
32.74000 396.065
32.75000 392.942
32.76000 393.876
32.77000 396.483
32.78000 398.919
32.79000 400.567
32.80000 401.863
32.81000 403.606
32.82000 408.294
32.83000 413.520
32.84000 419.542
32.85000 428.934
32.86000 438.704
32.87000 446.036
32.88000 447.052
32.89000 447.546
32.90000 450.331
32.91000 457.508
32.92000 464.793
32.93000 472.631
32.94000 481.174
32.95000 489.708
32.96000 497.934
32.97000 505.878
32.98000 513.683
32.99000 515.015
33.00000 512.819
33.01000 510.945
33.02000 514.812
33.03000 520.794
33.04000 526.309
33.05000 522.886
33.06000 517.843
33.07000 512.106
33.08000 502.372
33.09000 491.999
33.10000 482.423
33.11000 475.842
33.12000 469.549
33.13000 464.978
33.14000 463.817
33.15000 463.053
33.16000 457.980
33.17000 445.544
33.18000 432.985
33.19000 421.749
33.20000 412.005
33.21000 402.297
33.22000 396.988
33.23000 394.893
33.24000 392.733
33.25000 388.397
33.26000 383.002
33.27000 377.644
33.28000 372.797
33.29000 368.118
33.30000 363.870
33.31000 359.602
33.32000 355.828
33.33000 353.076
33.34000 355.495
33.35000 358.634
33.36000 361.153
33.37000 361.596
33.38000 361.872
33.39000 362.065
33.40000 358.696
33.41000 356.044
33.42000 357.805
33.43000 366.274
33.44000 374.813
33.45000 376.591
33.46000 371.685
33.47000 366.812
33.48000 365.409
33.49000 366.229
33.50000 366.816
33.51000 361.564
33.52000 353.776
33.53000 346.896
33.54000 350.949
33.55000 358.208
33.56000 364.691
33.57000 361.526
33.58000 357.146
33.59000 353.262
33.60000 351.600
33.61000 350.206
33.62000 349.090
33.63000 348.808
33.64000 348.581
33.65000 348.428
33.66000 345.860
33.67000 343.897
33.68000 347.330
33.69000 358.039
33.70000 368.770
33.71000 365.669
33.72000 350.556
33.73000 335.616
33.74000 333.731
33.75000 339.204
33.76000 344.490
33.77000 346.129
33.78000 346.353
33.79000 346.869
33.80000 350.352
33.81000 354.609
33.82000 358.343
33.83000 353.075
33.84000 347.238
33.85000 343.064
33.86000 345.484
33.87000 348.583
33.88000 349.999
33.89000 346.935
33.90000 343.630
33.91000 341.490
33.92000 345.877
33.93000 349.182
33.94000 348.186
33.95000 342.062
33.96000 335.943
33.97000 333.120
33.98000 332.825
33.99000 332.536
34.00000 335.276
34.01000 339.425
34.02000 343.234
34.03000 341.661
34.04000 338.226
34.05000 335.306
34.06000 336.847
34.07000 339.420
34.08000 341.634
34.09000 349.268
34.10000 356.411
34.11000 360.282
34.12000 352.629
34.13000 343.972
34.14000 338.168
34.15000 339.142
34.16000 340.406
34.17000 341.188
34.18000 342.356
34.19000 343.198
34.20000 344.535
34.21000 346.389
34.22000 348.250
34.23000 351.012
34.24000 354.384
34.25000 357.677
34.26000 356.943
34.27000 354.483
34.28000 352.119
34.29000 351.007
34.30000 350.281
34.31000 349.526
34.32000 348.557
34.33000 347.544
34.34000 346.691
34.35000 340.199
34.36000 334.178
34.37000 331.002
34.38000 336.751
34.39000 343.148
34.40000 347.213
34.41000 346.327
34.42000 345.280
34.43000 344.663
34.44000 352.207
34.45000 357.572
34.46000 355.878
34.47000 347.694
34.48000 339.564
34.49000 335.014
34.50000 332.628
34.51000 330.317
34.52000 333.669
34.53000 339.023
34.54000 343.980
34.55000 344.590
34.56000 344.006
34.57000 343.251
34.58000 341.396
34.59000 339.342
34.60000 337.653
34.61000 334.255
34.62000 331.306
34.63000 330.548
34.64000 335.921
34.65000 341.658
34.66000 343.287
34.67000 337.137
34.68000 330.802
34.69000 327.264
34.70000 323.442
34.71000 320.794
34.72000 317.986
34.73000 315.048
34.74000 312.190
34.75000 312.900
34.76000 315.530
34.77000 318.054
34.78000 323.292
34.79000 329.112
34.80000 334.430
34.81000 335.090
34.82000 334.613
34.83000 333.715
34.84000 330.424
34.85000 326.756
34.86000 323.813
34.87000 334.567
34.88000 344.318
34.89000 350.305
34.90000 346.882
34.91000 343.012
34.92000 337.368
34.93000 328.731
34.94000 320.046
34.95000 315.473
34.96000 326.204
34.97000 333.472
34.98000 338.012
34.99000 340.596
35.00000 342.936
35.01000 337.425
35.02000 328.144
35.03000 319.331
35.04000 318.187
35.05000 319.432
35.06000 321.499
35.07000 330.117
35.08000 340.151
35.09000 346.157
35.10000 332.043
35.11000 315.170
35.12000 301.995
35.13000 310.968
35.14000 319.518
35.15000 326.159
35.16000 328.536
35.17000 330.755
35.18000 329.220
35.19000 322.049
35.20000 314.824
35.21000 313.598
35.22000 318.220
35.23000 322.841
35.24000 327.418
35.25000 331.966
35.26000 336.231
35.27000 333.582
35.28000 327.968
35.29000 322.699
35.30000 320.571
35.31000 319.460
35.32000 318.268
35.33000 316.508
35.34000 314.640
35.35000 313.779
35.36000 317.357
35.37000 321.461
35.38000 324.573
35.39000 319.376
35.40000 314.870
35.41000 312.996
35.42000 316.367
35.43000 319.883
35.44000 320.397
35.45000 316.916
35.46000 313.418
35.47000 314.315
35.48000 318.967
35.49000 323.462
35.50000 319.733
35.51000 311.343
35.52000 303.385
35.53000 303.748
35.54000 307.296
35.55000 310.583
35.56000 314.567
35.57000 318.312
35.58000 321.768
35.59000 323.485
35.60000 324.910
35.61000 326.791
35.62000 330.449
35.63000 334.287
35.64000 337.107
35.65000 330.157
35.66000 324.386
35.67000 319.484
35.68000 316.127
35.69000 312.800
35.70000 312.902
35.71000 317.038
35.72000 321.169
35.73000 325.007
35.74000 328.598
35.75000 332.016
35.76000 329.040
35.77000 322.833
35.78000 317.022
35.79000 317.365
35.80000 319.811
35.81000 322.044
35.82000 312.754
35.83000 302.177
35.84000 294.012
35.85000 298.599
35.86000 305.047
35.87000 310.795
35.88000 314.111
35.89000 317.218
35.90000 319.423
35.91000 322.256
35.92000 324.431
35.93000 324.812
35.94000 322.354
35.95000 319.860
35.96000 317.687
35.97000 315.843
35.98000 314.011
35.99000 318.762
36.00000 327.811
36.01000 336.562
36.02000 337.154
36.03000 334.065
36.04000 330.954
36.05000 327.572
36.06000 324.107
36.07000 320.994
36.08000 317.564
36.09000 314.507
36.10000 312.174
36.11000 313.221
36.12000 314.695
36.13000 315.866
36.14000 316.097
36.15000 316.261
36.16000 316.373
36.17000 319.273
36.18000 321.509
36.19000 320.683
36.20000 315.554
36.21000 310.397
36.22000 307.525
36.23000 306.725
36.24000 305.933
36.25000 306.483
36.26000 307.805
36.27000 309.213
36.28000 312.453
36.29000 316.432
36.30000 319.972
36.31000 318.804
36.32000 316.359
36.33000 314.200
36.34000 313.227
36.35000 312.569
36.36000 312.184
36.37000 312.926
36.38000 313.790
36.39000 313.517
36.40000 310.100
36.41000 306.499
36.42000 304.135
36.43000 310.704
36.44000 315.688
36.45000 317.086
36.46000 314.024
36.47000 310.947
36.48000 306.858
36.49000 301.960
36.50000 297.135
36.51000 297.257
36.52000 299.927
36.53000 302.619
36.54000 305.703
36.55000 308.928
36.56000 312.394
36.57000 318.062
36.58000 324.260
36.59000 329.629
36.60000 320.161
36.61000 310.145
36.62000 302.139
36.63000 301.491
36.64000 301.522
36.65000 303.498
36.66000 310.274
36.67000 317.273
36.68000 321.673
36.69000 317.748
36.70000 314.817
36.71000 312.680
36.72000 311.414
36.73000 310.166
36.74000 311.460
36.75000 314.554
36.76000 317.581
36.77000 315.747
36.78000 311.771
36.79000 308.332
36.80000 312.379
36.81000 318.828
36.82000 323.786
36.83000 317.038
36.84000 307.795
36.85000 299.953
36.86000 313.519
36.87000 327.317
36.88000 336.186
36.89000 328.976
36.90000 320.523
36.91000 315.600
36.92000 318.461
36.93000 321.602
36.94000 323.485
36.95000 315.644
36.96000 310.013
36.97000 311.312
36.98000 319.270
36.99000 327.107
37.00000 325.471
37.01000 317.881
37.02000 310.508
37.03000 310.984
37.04000 314.592
37.05000 317.864
37.06000 317.224
37.07000 315.466
37.08000 313.676
37.09000 311.668
37.10000 309.619
37.11000 307.920
37.12000 310.909
37.13000 313.829
37.14000 314.550
37.15000 308.874
37.16000 302.791
37.17000 300.056
37.18000 303.911
37.19000 307.943
37.20000 310.236
37.21000 313.755
37.22000 316.204
37.23000 314.377
37.24000 308.938
37.25000 303.582
37.26000 302.438
37.27000 303.650
37.28000 304.817
37.29000 303.053
37.30000 300.356
37.31000 298.479
37.32000 304.644
37.33000 312.854
37.34000 319.042
37.35000 313.227
37.36000 305.432
37.37000 299.123
37.38000 297.794
37.39000 297.115
37.40000 296.281
37.41000 295.046
37.42000 293.790
37.43000 294.740
37.44000 299.560
37.45000 304.452
37.46000 307.081
37.47000 296.674
37.48000 289.605
37.49000 292.896
37.50000 303.924
37.51000 314.620
37.52000 313.469
37.53000 306.403
37.54000 299.669
37.55000 298.668
37.56000 299.534
37.57000 300.574
37.58000 303.065
37.59000 305.883
37.60000 307.948
37.61000 306.086
37.62000 303.660
37.63000 301.747
37.64000 301.501
37.65000 301.415
37.66000 300.973
37.67000 299.704
37.68000 298.401
37.69000 298.425
37.70000 300.524
37.71000 302.647
37.72000 303.719
37.73000 300.486
37.74000 298.303
37.75000 294.060
37.76000 288.454
37.77000 283.270
37.78000 289.371
37.79000 300.499
37.80000 310.986
37.81000 308.923
37.82000 303.576
37.83000 299.100
37.84000 300.939
37.85000 304.035
37.86000 306.450
37.87000 305.736
37.88000 304.633
37.89000 303.788
37.90000 309.425
37.91000 314.233
37.92000 315.085
37.93000 307.746
37.94000 300.156
37.95000 295.008
37.96000 293.246
37.97000 291.507
37.98000 290.827
37.99000 291.095
38.00000 291.363
38.01000 291.686
38.02000 292.040
38.03000 292.524
38.04000 295.700
38.05000 299.947
38.06000 303.899
38.07000 304.631
38.08000 304.513
38.09000 305.282
38.10000 311.643
38.11000 318.983
38.12000 323.275
38.13000 315.154
38.14000 305.708
38.15000 298.692
38.16000 311.362
38.17000 322.080
38.18000 328.666
38.19000 327.617
38.20000 326.400
38.21000 326.237
38.22000 327.367
38.23000 328.499
38.24000 334.380
38.25000 343.960
38.26000 353.348
38.27000 354.801
38.28000 352.089
38.29000 349.498
38.30000 348.939
38.31000 349.102
38.32000 349.251
38.33000 361.658
38.34000 375.317
38.35000 388.403
38.36000 398.326
38.37000 407.765
38.38000 414.757
38.39000 412.894
38.40000 410.229
38.41000 408.315
38.42000 406.435
38.43000 404.998
38.44000 409.935
38.45000 425.361
38.46000 440.941
38.47000 448.303
38.48000 446.782
38.49000 445.265
38.50000 451.964
38.51000 464.270
38.52000 476.232
38.53000 477.801
38.54000 474.500
38.55000 471.596
38.56000 474.122
38.57000 478.368
38.58000 482.204
38.59000 481.440
38.60000 479.916
38.61000 477.614
38.62000 471.528
38.63000 464.939
38.64000 458.741
38.65000 453.803
38.66000 448.961
38.67000 445.607
38.68000 439.881
38.69000 435.510
38.70000 430.522
38.71000 424.633
38.72000 418.735
38.73000 409.687
38.74000 397.656
38.75000 385.724
38.76000 374.173
38.77000 363.063
38.78000 352.318
38.79000 350.014
38.80000 351.242
38.81000 352.300
38.82000 351.421
38.83000 349.996
38.84000 348.729
38.85000 344.372
38.86000 340.097
38.87000 335.306
38.88000 328.295
38.89000 321.030
38.90000 314.449
38.91000 309.836
38.92000 305.345
38.93000 302.354
38.94000 310.347
38.95000 316.472
38.96000 317.167
38.97000 310.823
38.98000 304.459
38.99000 302.170
39.00000 303.280
39.01000 304.376
39.02000 302.678
39.03000 299.523
39.04000 296.686
39.05000 299.648
39.06000 304.779
39.07000 308.944
39.08000 303.800
39.09000 296.321
39.10000 289.800
39.11000 288.480
39.12000 288.074
39.13000 286.507
39.14000 280.510
39.15000 274.080
39.16000 272.382
39.17000 282.819
39.18000 293.866
39.19000 300.916
39.20000 291.000
39.21000 283.567
39.22000 281.797
39.23000 286.510
39.24000 291.217
39.25000 293.636
39.26000 294.367
39.27000 295.085
39.28000 289.970
39.29000 282.270
39.30000 275.386
39.31000 280.632
39.32000 289.923
39.33000 298.284
39.34000 298.966
39.35000 297.940
39.36000 297.064
39.37000 288.271
39.38000 279.918
39.39000 273.699
39.40000 274.722
39.41000 276.341
39.42000 277.698
39.43000 278.455
39.44000 279.188
39.45000 279.635
39.46000 287.090
39.47000 292.473
39.48000 290.247
39.49000 280.373
39.50000 270.573
39.51000 267.579
39.52000 269.037
39.53000 270.457
39.54000 268.792
39.55000 265.910
39.56000 263.717
39.57000 270.002
39.58000 278.808
39.59000 285.862
39.60000 280.423
39.61000 272.532
39.62000 265.936
39.63000 273.670
39.64000 281.550
39.65000 285.920
39.66000 279.679
39.67000 272.713
39.68000 267.416
39.69000 265.535
39.70000 263.754
39.71000 262.722
39.72000 271.314
39.73000 277.377
39.74000 279.547
39.75000 278.284
39.76000 277.031
39.77000 276.346
39.78000 275.993
39.79000 275.651
39.80000 274.744
39.81000 273.679
39.82000 272.403
39.83000 268.940
39.84000 264.897
39.85000 261.889
39.86000 265.307
39.87000 269.834
39.88000 273.529
39.89000 273.229
39.90000 272.640
39.91000 272.486
39.92000 273.501
39.93000 274.582
39.94000 274.521
39.95000 272.378
39.96000 270.191
39.97000 268.992
39.98000 262.210
39.99000 257.551
40.00000 256.797
40.01000 259.082
40.02000 261.411
40.03000 265.518
40.04000 270.546
40.05000 275.355
40.06000 273.127
40.07000 268.752
40.08000 264.434
40.09000 260.615
40.10000 256.912
40.11000 255.325
40.12000 265.254
40.13000 276.919
40.14000 286.199
40.15000 275.684
40.16000 265.791
40.17000 257.830
40.18000 254.523
40.19000 251.422
40.20000 251.330
40.21000 256.129
40.22000 260.996
40.23000 263.508
40.24000 265.152
40.25000 266.269
40.26000 268.542
40.27000 271.611
40.28000 274.561
40.29000 273.989
40.30000 271.788
40.31000 269.704
40.32000 269.013
40.33000 268.778
40.34000 268.519
40.35000 268.069
40.36000 267.581
40.37000 266.233
40.38000 260.764
40.39000 254.756
40.40000 250.107
40.41000 258.520
40.42000 265.968
40.43000 270.152
40.44000 267.313
40.45000 264.236
40.46000 261.276
40.47000 258.485
40.48000 255.696
40.49000 257.967
40.50000 264.962
40.51000 271.828
40.52000 269.628
40.53000 261.871
40.54000 254.185
40.55000 248.093
40.56000 242.660
40.57000 237.583
40.58000 244.647
40.59000 254.128
40.60000 262.835
40.61000 266.427
40.62000 269.082
40.63000 271.352
40.64000 271.986
40.65000 272.436
40.66000 272.774
40.67000 272.756
40.68000 272.726
40.69000 270.736
40.70000 264.983
40.71000 259.138
40.72000 254.795
40.73000 252.373
40.74000 249.962
40.75000 251.753
40.76000 256.982
40.77000 262.105
40.78000 262.268
40.79000 259.725
40.80000 257.185
40.81000 254.716
40.82000 252.272
40.83000 250.019
40.84000 252.202
40.85000 255.140
40.86000 258.057
40.87000 260.850
40.88000 263.624
40.89000 265.576
40.90000 264.433
40.91000 262.992
40.92000 261.945
40.93000 261.462
40.94000 261.111
40.95000 263.334
40.96000 269.964
40.97000 276.668
40.98000 277.381
40.99000 271.332
41.00000 265.298
41.01000 260.828
41.02000 257.524
41.03000 254.294
41.04000 253.525
41.05000 253.954
41.06000 254.664
41.07000 259.443
41.08000 265.562
41.09000 271.121
41.10000 268.409
41.11000 264.411
41.12000 260.474
41.13000 256.847
41.14000 253.264
41.15000 251.370
41.16000 255.134
41.17000 259.354
41.18000 262.314
41.19000 259.038
41.20000 256.380
41.21000 254.014
41.22000 252.096
41.23000 250.183
41.24000 251.288
41.25000 255.385
41.26000 259.453
41.27000 257.003
41.28000 250.447
41.29000 244.166
41.30000 244.817
41.31000 248.483
41.32000 252.271
41.33000 257.526
41.34000 263.211
41.35000 268.291
41.36000 263.396
41.37000 257.449
41.38000 251.916
41.39000 248.236
41.40000 244.781
41.41000 242.345
41.42000 242.958
41.43000 243.775
41.44000 244.327
41.45000 245.964
41.46000 247.205
41.47000 248.743
41.48000 250.681
41.49000 252.618
41.50000 252.269
41.51000 249.933
41.52000 247.623
41.53000 253.532
41.54000 263.913
41.55000 273.696
41.56000 271.675
41.57000 265.070
41.58000 258.588
41.59000 253.364
41.60000 248.469
41.61000 244.173
41.62000 245.156
41.63000 246.771
41.64000 248.042
41.65000 247.943
41.66000 247.702
41.67000 249.225
41.68000 255.446
41.69000 261.922
41.70000 266.117
41.71000 260.529
41.72000 256.294
41.73000 256.112
41.74000 260.770
41.75000 265.426
41.76000 267.311
41.77000 267.067
41.78000 266.827
41.79000 260.710
41.80000 251.882
41.81000 243.727
41.82000 246.258
41.83000 252.495
41.84000 258.445
41.85000 261.906
41.86000 264.790
41.87000 267.272
41.88000 261.149
41.89000 254.882
41.90000 250.403
41.91000 252.227
41.92000 254.601
41.93000 254.403
41.94000 248.081
41.95000 241.496
41.96000 237.419
41.97000 245.700
41.98000 251.772
41.99000 251.170
42.00000 243.554
42.01000 235.997
42.02000 235.306
42.03000 239.288
42.04000 243.176
42.05000 244.073
42.06000 243.623
42.07000 243.327
42.08000 245.063
42.09000 247.427
42.10000 249.112
42.11000 245.709
42.12000 241.265
42.13000 237.521
42.14000 238.263
42.15000 239.364
42.16000 241.137
42.17000 245.022
42.18000 249.061
42.19000 251.386
42.20000 250.069
42.21000 248.633
42.22000 247.787
42.23000 248.500
42.24000 249.011
42.25000 247.534
42.26000 244.223
42.27000 240.963
42.28000 241.062
42.29000 243.193
42.30000 245.258
42.31000 244.262
42.32000 242.136
42.33000 240.300
42.34000 241.640
42.35000 243.854
42.36000 245.617
42.37000 244.444
42.38000 242.742
42.39000 241.342
42.40000 236.590
42.41000 232.378
42.42000 230.499
42.43000 235.162
42.44000 240.215
42.45000 243.882
42.46000 244.923
42.47000 245.901
42.48000 246.447
42.49000 244.580
42.50000 243.286
42.51000 243.741
42.52000 245.615
42.53000 247.442
42.54000 247.123
42.55000 245.647
42.56000 244.231
42.57000 244.872
42.58000 246.174
42.59000 247.038
42.60000 243.821
42.61000 239.607
42.62000 236.427
42.63000 239.133
42.64000 242.769
42.65000 245.688
42.66000 244.032
42.67000 242.342
42.68000 240.912
42.69000 240.135
42.70000 239.390
42.71000 238.723
42.72000 238.189
42.73000 237.658
42.74000 237.378
42.75000 242.685
42.76000 246.287
42.77000 249.551
42.78000 252.574
42.79000 255.520
42.80000 255.980
42.81000 255.243
42.82000 254.544
42.83000 253.139
42.84000 251.629
42.85000 250.516
42.86000 252.567
42.87000 255.304
42.88000 256.925
42.89000 252.963
42.90000 248.233
42.91000 244.538
42.92000 251.286
42.93000 257.329
42.94000 259.353
42.95000 252.391
42.96000 245.096
42.97000 241.773
42.98000 244.422
42.99000 247.130
43.00000 247.730
43.01000 246.272
43.02000 244.847
43.03000 246.191
43.04000 249.300
43.05000 252.133
43.06000 248.201
43.07000 241.363
43.08000 234.944
43.09000 238.269
43.10000 243.876
43.11000 248.821
43.12000 249.183
43.13000 248.669
43.14000 247.308
43.15000 242.199
43.16000 236.645
43.17000 232.433
43.18000 234.763
43.19000 236.929
43.20000 237.641
43.21000 235.451
43.22000 233.180
43.23000 232.469
43.24000 233.839
43.25000 235.218
43.26000 237.681
43.27000 241.068
43.28000 244.406
43.29000 245.166
43.30000 244.462
43.31000 243.889
43.32000 245.840
43.33000 248.760
43.34000 251.464
43.35000 246.573
43.36000 240.411
43.37000 234.890
43.38000 233.237
43.39000 232.232
43.40000 231.127
43.41000 229.631
43.42000 228.095
43.43000 226.967
43.44000 232.602
43.45000 237.236
43.46000 241.268
43.47000 244.229
43.48000 247.168
43.49000 247.200
43.50000 243.808
43.51000 240.418
43.52000 238.073
43.53000 236.528
43.54000 235.030
43.55000 235.246
43.56000 236.328
43.57000 237.375
43.58000 237.863
43.59000 238.160
43.60000 238.431
43.61000 237.223
43.62000 235.851
43.63000 235.373
43.64000 239.632
43.65000 244.583
43.66000 248.286
43.67000 247.642
43.68000 246.625
43.69000 245.903
43.70000 237.264
43.71000 230.438
43.72000 226.802
43.73000 228.219
43.74000 229.700
43.75000 228.104
43.76000 223.320
43.77000 218.562
43.78000 221.980
43.79000 230.777
43.80000 239.291
43.81000 240.004
43.82000 237.194
43.83000 234.699
43.84000 236.271
43.85000 239.085
43.86000 241.613
43.87000 235.917
43.88000 229.476
43.89000 225.477
43.90000 232.884
43.91000 241.737
43.92000 247.276
43.93000 242.531
43.94000 237.052
43.95000 233.303
43.96000 234.951
43.97000 236.313
43.98000 237.682
43.99000 239.062
44.00000 240.441
44.01000 241.174
44.02000 241.322
44.03000 241.469
44.04000 242.556
44.05000 244.172
44.06000 245.706
44.07000 245.506
44.08000 244.607
44.09000 243.654
44.10000 242.133
44.11000 240.457
44.12000 238.977
44.13000 242.114
44.14000 245.529
44.15000 247.484
44.16000 243.402
44.17000 238.663
44.18000 236.211
44.19000 240.089
44.20000 244.337
44.21000 247.129
44.22000 254.537
44.23000 260.067
44.24000 263.159
44.25000 263.214
44.26000 263.259
44.27000 263.280
44.28000 263.281
44.29000 263.282
44.30000 260.247
44.31000 255.733
44.32000 251.835
44.33000 258.430
44.34000 268.807
44.35000 278.576
44.36000 282.789
44.37000 285.660
44.38000 288.148
44.39000 291.988
44.40000 295.435
44.41000 298.383
44.42000 299.503
44.43000 300.454
44.44000 301.797
44.45000 304.111
44.46000 306.469
44.47000 307.953
44.48000 307.294
44.49000 306.793
44.50000 315.553
44.51000 334.484
44.52000 353.380
44.53000 366.785
44.54000 376.296
44.55000 385.606
44.56000 390.317
44.57000 392.743
44.58000 395.979
44.59000 410.528
44.60000 428.713
44.61000 446.516
44.62000 461.315
44.63000 475.471
44.64000 487.484
44.65000 505.514
44.66000 521.318
44.67000 536.313
44.68000 548.667
44.69000 560.816
44.70000 573.643
44.71000 587.968
44.72000 602.347
44.73000 610.970
44.74000 633.646
44.75000 649.848
44.76000 667.198
44.77000 685.656
44.78000 704.011
44.79000 714.330
44.80000 719.590
44.81000 724.699
44.82000 724.670
44.83000 722.572
44.84000 720.733
44.85000 721.910
44.86000 723.950
44.87000 725.617
44.88000 724.733
44.89000 723.369
44.90000 722.238
44.91000 717.496
44.92000 713.229
44.93000 706.394
44.94000 692.080
44.95000 677.287
44.96000 662.409
44.97000 647.366
44.98000 632.319
44.99000 623.751
45.00000 639.601
45.01000 650.697
45.02000 643.955
45.03000 622.111
45.04000 600.197
45.05000 574.668
45.06000 547.113
45.07000 520.581
45.08000 512.439
45.09000 511.338
45.10000 509.290
45.11000 497.921
45.12000 484.179
45.13000 470.452
45.14000 456.809
45.15000 443.180
45.16000 432.145
45.17000 417.249
45.18000 404.809
45.19000 397.490
45.20000 403.491
45.21000 410.180
45.22000 405.475
45.23000 380.742
45.24000 355.634
45.25000 342.129
45.26000 336.848
45.27000 333.248
45.28000 330.034
45.29000 327.109
45.30000 324.215
45.31000 322.419
45.32000 321.173
45.33000 319.985
45.34000 319.720
45.35000 319.765
45.36000 319.126
45.37000 312.743
45.38000 305.062
45.39000 297.077
45.40000 287.498
45.41000 277.690
45.42000 269.955
45.43000 268.338
45.44000 267.454
45.45000 264.564
45.46000 257.017
45.47000 249.281
45.48000 244.360
45.49000 243.842
45.50000 243.377
45.51000 243.142
45.52000 241.792
45.53000 240.901
45.54000 241.204
45.55000 242.298
45.56000 243.382
45.57000 244.190
45.58000 244.874
45.59000 245.519
45.60000 247.791
45.61000 250.321
45.62000 252.159
45.63000 248.977
45.64000 244.796
45.65000 241.080
45.66000 239.513
45.67000 238.214
45.68000 237.219
45.69000 233.515
45.70000 230.441
45.71000 228.400
45.72000 228.500
45.73000 228.665
45.74000 227.874
45.75000 225.752
45.76000 223.623
45.77000 222.807
45.78000 223.166
45.79000 223.487
45.80000 221.491
45.81000 218.128
45.82000 215.080
45.83000 218.616
45.84000 224.775
45.85000 230.508
45.86000 226.896
45.87000 221.367
45.88000 216.604
45.89000 216.689
45.90000 217.624
45.91000 217.399
45.92000 212.445
45.93000 206.984
45.94000 202.926
45.95000 212.125
45.96000 219.864
45.97000 224.532
45.98000 223.518
45.99000 222.379
46.00000 220.974
46.01000 219.243
46.02000 217.515
46.03000 215.104
46.04000 212.170
46.05000 209.393
46.06000 213.168
46.07000 220.390
46.08000 227.529
46.09000 233.265
46.10000 238.503
46.11000 243.309
46.12000 237.132
46.13000 229.292
46.14000 222.118
46.15000 218.636
46.16000 215.719
46.17000 213.331
46.18000 212.860
46.19000 212.562
46.20000 212.348
46.21000 219.833
46.22000 225.828
46.23000 226.398
46.24000 218.024
46.25000 209.518
46.26000 208.915
46.27000 216.868
46.28000 224.790
46.29000 229.559
46.30000 232.095
46.31000 234.421
46.32000 230.362
46.33000 223.305
46.34000 216.801
46.35000 217.862
46.36000 221.324
46.37000 224.453
46.38000 218.455
46.39000 211.488
46.40000 206.346
46.41000 210.099
46.42000 215.037
46.43000 218.759
46.44000 218.560
46.45000 218.062
46.46000 217.717
46.47000 225.952
46.48000 232.376
46.49000 232.411
46.50000 223.082
46.51000 213.671
46.52000 209.704
46.53000 210.904
46.54000 212.095
46.55000 208.968
46.56000 203.262
46.57000 197.838
46.58000 198.945
46.59000 202.792
46.60000 206.547
46.61000 209.262
46.62000 211.684
46.63000 213.836
46.64000 211.805
46.65000 209.369
46.66000 207.107
46.67000 205.588
46.68000 204.156
46.69000 203.710
46.70000 206.107
46.71000 208.681
46.72000 210.397
46.73000 211.786
46.74000 212.808
46.75000 211.793
46.76000 208.133
46.77000 204.469
46.78000 204.372
46.79000 207.253
46.80000 210.097
46.81000 207.895
46.82000 203.032
46.83000 198.532
46.84000 200.700
46.85000 205.364
46.86000 209.711
46.87000 211.002
46.88000 211.525
46.89000 211.981
46.90000 212.061
46.91000 212.077
46.92000 211.586
46.93000 209.159
46.94000 206.541
46.95000 204.210
46.96000 202.614
46.97000 201.055
46.98000 200.059
46.99000 206.308
47.00000 210.950
47.01000 214.034
47.02000 215.332
47.03000 216.605
47.04000 213.624
47.05000 207.501
47.06000 201.495
47.07000 199.551
47.08000 199.612
47.09000 200.072
47.10000 206.474
47.11000 214.862
47.12000 221.832
47.13000 217.080
47.14000 209.717
47.15000 203.424
47.16000 200.238
47.17000 197.925
47.18000 196.838
47.19000 199.915
47.20000 203.336
47.21000 205.112
47.22000 203.115
47.23000 200.969
47.24000 199.660
47.25000 203.723
47.26000 206.670
47.27000 205.732
47.28000 200.882
47.29000 196.106
47.30000 198.291
47.31000 205.035
47.32000 211.603
47.33000 210.043
47.34000 205.138
47.35000 200.521
47.36000 199.465
47.37000 199.470
47.38000 199.409
47.39000 198.874
47.40000 198.246
47.41000 197.721
47.42000 197.869
47.43000 198.061
47.44000 197.081
47.45000 192.553
47.46000 187.782
47.47000 186.248
47.48000 191.346
47.49000 196.641
47.50000 199.710
47.51000 199.747
47.52000 199.760
47.53000 198.856
47.54000 197.143
47.55000 195.466
47.56000 195.888
47.57000 197.534
47.58000 199.124
47.59000 196.233
47.60000 191.845
47.61000 188.100
47.62000 191.033
47.63000 195.736
47.64000 199.847
47.65000 200.273
47.66000 200.061
47.67000 199.889
47.68000 205.336
47.69000 210.277
47.70000 212.852
47.71000 209.034
47.72000 204.859
47.73000 201.901
47.74000 201.167
47.75000 200.481
47.76000 200.104
47.77000 204.514
47.78000 207.531
47.79000 203.897
47.80000 195.076
47.81000 186.396
47.82000 183.370
47.83000 183.283
47.84000 183.199
47.85000 184.644
47.86000 186.491
47.87000 188.256
47.88000 189.306
47.89000 190.187
47.90000 191.264
47.91000 193.408
47.92000 195.713
47.93000 197.548
47.94000 196.401
47.95000 195.262
47.96000 194.438
47.97000 194.372
47.98000 194.340
47.99000 193.042
48.00000 189.681
48.01000 186.292
48.02000 184.542
48.03000 186.527
48.04000 187.850
48.05000 187.320
48.06000 185.510
48.07000 183.902
48.08000 188.212
48.09000 195.268
48.10000 201.944
48.11000 200.617
48.12000 197.090
48.13000 193.653
48.14000 190.908
48.15000 188.308
48.16000 186.451
48.17000 188.170
48.18000 190.358
48.19000 192.052
48.20000 201.732
48.21000 209.889
48.22000 212.470
48.23000 203.034
48.24000 193.190
48.25000 187.927
48.26000 189.291
48.27000 190.709
48.28000 191.005
48.29000 190.252
48.30000 189.497
48.31000 188.650
48.32000 187.746
48.33000 187.021
48.34000 190.318
48.35000 195.281
48.36000 199.921
48.37000 200.333
48.38000 199.636
48.39000 199.455
48.40000 202.689
48.41000 206.548
48.42000 208.493
48.43000 202.305
48.44000 195.198
48.45000 189.861
48.46000 187.837
48.47000 186.415
48.48000 185.284
48.49000 184.715
48.50000 184.160
48.51000 184.484
48.52000 185.935
48.53000 187.388
48.54000 188.512
48.55000 189.360
48.56000 190.163
48.57000 188.879
48.58000 186.454
48.59000 184.140
48.60000 183.829
48.61000 184.258
48.62000 184.654
48.63000 184.866
48.64000 185.015
48.65000 185.625
48.66000 188.902
48.67000 192.606
48.68000 195.792
48.69000 197.021
48.70000 198.061
48.71000 198.817
48.72000 200.757
48.73000 202.294
48.74000 200.621
48.75000 193.444
48.76000 186.173
48.77000 184.106
48.78000 187.925
48.79000 191.736
48.80000 192.011
48.81000 189.728
48.82000 187.436
48.83000 184.818
48.84000 182.042
48.85000 179.618
48.86000 182.343
48.87000 186.767
48.88000 190.787
48.89000 189.836
48.90000 188.031
48.91000 187.428
48.92000 192.936
48.93000 199.298
48.94000 203.813
48.95000 202.129
48.96000 199.943
48.97000 198.409
48.98000 195.776
48.99000 193.750
49.00000 193.288
49.01000 195.209
49.02000 197.156
49.03000 195.854
49.04000 191.326
49.05000 186.829
49.06000 186.895
49.07000 189.866
49.08000 192.792
49.09000 194.587
49.10000 195.891
49.11000 197.064
49.12000 196.655
49.13000 195.781
49.14000 195.000
49.15000 193.106
49.16000 191.268
49.17000 189.388
49.18000 187.320
49.19000 185.230
49.20000 183.598
49.21000 183.338
49.22000 183.170
49.23000 183.056
49.24000 177.626
49.25000 173.469
49.26000 172.679
49.27000 176.447
49.28000 180.241
49.29000 185.303
49.30000 191.469
49.31000 197.565
49.32000 196.592
49.33000 191.668
49.34000 186.867
49.35000 184.497
49.36000 183.072
49.37000 182.037
49.38000 184.974
49.39000 188.949
49.40000 192.439
49.41000 190.206
49.42000 187.449
49.43000 185.600
49.44000 187.364
49.45000 189.502
49.46000 189.587
49.47000 184.195
49.48000 178.504
49.49000 174.816
49.50000 182.558
49.51000 188.395
49.52000 191.545
49.53000 191.478
49.54000 191.402
49.55000 190.839
49.56000 189.901
49.57000 188.978
49.58000 191.008
49.59000 194.437
49.60000 197.274
49.61000 190.666
49.62000 180.778
49.63000 172.311
49.64000 176.215
49.65000 182.990
49.66000 188.822
49.67000 187.587
49.68000 185.652
49.69000 183.634
49.70000 181.329
49.71000 178.999
49.72000 178.737
49.73000 183.403
49.74000 188.281
49.75000 191.303
49.76000 190.255
49.77000 189.462
49.78000 189.208
49.79000 189.520
49.80000 189.842
49.81000 191.144
49.82000 193.114
49.83000 195.039
49.84000 194.494
49.85000 192.891
49.86000 191.396
49.87000 191.338
49.88000 191.724
49.89000 192.165
49.90000 193.021
49.91000 193.961
49.92000 194.753
49.93000 194.069
49.94000 193.339
49.95000 193.294
49.96000 195.406
49.97000 197.676
49.98000 197.568
49.99000 192.398
50.00000 187.061
50.01000 183.912
50.02000 190.355
50.03000 194.953
50.04000 193.393
50.05000 186.147
50.06000 179.020
50.07000 179.876
50.08000 185.572
50.09000 191.089
50.10000 196.760
50.11000 202.186
50.12000 207.322
50.13000 209.280
50.14000 210.361
50.15000 211.002
50.16000 208.779
50.17000 206.038
50.18000 203.781
50.19000 212.405
50.20000 220.491
50.21000 226.581
50.22000 227.066
50.23000 227.217
50.24000 229.198
50.25000 234.660
50.26000 240.204
50.27000 243.306
50.28000 253.889
50.29000 261.220
50.30000 261.992
50.31000 257.431
50.32000 252.988
50.33000 253.837
50.34000 257.546
50.35000 261.106
50.36000 267.193
50.37000 273.747
50.38000 279.294
50.39000 275.429
50.40000 269.259
50.41000 264.309
50.42000 266.310
50.43000 269.411
50.44000 271.901
50.45000 281.293
50.46000 289.431
50.47000 294.545
50.48000 292.078
50.49000 289.247
50.50000 287.766
50.51000 288.568
50.52000 289.408
50.53000 289.851
50.54000 279.544
50.55000 272.587
50.56000 272.483
50.57000 277.307
50.58000 281.948
50.59000 280.618
50.60000 276.412
50.61000 272.416
50.62000 273.828
50.63000 276.761
50.64000 278.807
50.65000 273.741
50.66000 267.133
50.67000 260.860
50.68000 256.264
50.69000 251.899
50.70000 248.487
50.71000 248.039
50.72000 247.869
50.73000 245.729
50.74000 239.178
50.75000 232.463
50.76000 231.357
50.77000 238.700
50.78000 246.127
50.79000 244.337
50.80000 233.528
50.81000 222.772
50.82000 216.450
50.83000 212.961
50.84000 209.575
50.85000 208.733
50.86000 208.987
50.87000 209.226
50.88000 207.394
50.89000 205.175
50.90000 203.496
50.91000 205.551
50.92000 208.320
50.93000 210.122
50.94000 207.642
50.95000 204.652
50.96000 202.384
50.97000 202.703
50.98000 203.088
50.99000 202.393
51.00000 199.539
51.01000 196.625
51.02000 192.640
51.03000 187.222
51.04000 181.800
51.05000 178.162
51.06000 176.062
51.07000 174.078
51.08000 178.288
51.09000 186.021
51.10000 193.072
51.11000 186.952
51.12000 175.769
51.13000 165.407
51.14000 166.873
51.15000 170.942
51.16000 174.728
51.17000 176.806
51.18000 178.597
51.19000 180.432
51.20000 182.444
51.21000 184.473
51.22000 185.965
51.23000 182.214
51.24000 179.097
51.25000 177.512
51.26000 178.658
51.27000 179.858
51.28000 180.434
51.29000 180.272
51.30000 180.109
51.31000 178.496
51.32000 175.800
51.33000 173.103
51.34000 170.390
51.35000 167.670
51.36000 165.254
51.37000 167.574
51.38000 171.519
51.39000 175.122
51.40000 170.405
51.41000 164.526
51.42000 160.443
51.43000 165.891
51.44000 172.737
51.45000 177.008
51.46000 172.293
51.47000 166.806
51.48000 162.908
51.49000 168.383
51.50000 172.849
51.51000 174.188
51.52000 170.563
51.53000 166.875
51.54000 167.200
51.55000 171.692
51.56000 176.159
51.57000 177.433
51.58000 176.567
51.59000 175.701
51.60000 174.826
51.61000 173.945
51.62000 173.009
51.63000 171.341
51.64000 169.449
51.65000 167.749
51.66000 170.509
51.67000 173.716
51.68000 175.874
51.69000 173.127
51.70000 169.757
51.71000 168.551
51.72000 174.079
51.73000 180.088
51.74000 184.202
51.75000 174.897
51.76000 167.610
51.77000 166.111
51.78000 172.774
51.79000 179.492
51.80000 181.720
51.81000 179.859
51.82000 178.017
51.83000 175.798
51.84000 173.406
51.85000 170.992
51.86000 168.135
51.87000 165.098
51.88000 162.619
51.89000 166.169
51.90000 171.361
51.91000 175.946
51.92000 173.192
51.93000 169.686
51.94000 167.260
51.95000 169.308
51.96000 171.845
51.97000 173.538
51.98000 172.894
51.99000 172.113
52.00000 171.599
52.01000 171.111
52.02000 170.751
52.03000 170.274
52.04000 169.650
52.05000 169.027
52.06000 168.653
52.07000 168.479
52.08000 168.308
52.09000 170.199
52.10000 173.102
52.11000 175.587
52.12000 170.909
52.13000 163.646
52.14000 157.104
52.15000 157.171
52.16000 158.837
52.17000 160.281
52.18000 163.353
52.19000 166.185
52.20000 168.486
52.21000 168.842
52.22000 169.016
52.23000 169.018
52.24000 168.589
52.25000 168.141
52.26000 167.858
52.27000 169.412
52.28000 170.556
52.29000 172.919
52.30000 176.620
52.31000 180.271
52.32000 176.624
52.33000 167.795
52.34000 159.152
52.35000 158.918
52.36000 162.539
52.37000 165.981
52.38000 166.904
52.39000 167.017
52.40000 167.133
52.41000 167.275
52.42000 167.423
52.43000 167.548
52.44000 167.441
52.45000 167.326
52.46000 168.139
52.47000 171.994
52.48000 176.085
52.49000 176.861
52.50000 170.306
52.51000 163.486
52.52000 159.393
52.53000 161.462
52.54000 162.973
52.55000 162.877
52.56000 161.229
52.57000 159.626
52.58000 161.559
52.59000 165.721
52.60000 169.764
52.61000 167.913
52.62000 163.774
52.63000 159.908
52.64000 159.227
52.65000 159.458
52.66000 160.193
52.67000 164.365
52.68000 169.185
52.69000 173.186
52.70000 175.688
52.71000 177.612
52.72000 177.819
52.73000 173.014
52.74000 167.888
52.75000 164.893
52.76000 166.109
52.77000 167.438
52.78000 168.195
52.79000 168.668
52.80000 168.994
52.81000 167.988
52.82000 165.852
52.83000 163.767
52.84000 164.255
52.85000 166.190
52.86000 168.053
52.87000 168.963
52.88000 169.477
52.89000 170.220
52.90000 173.223
52.91000 176.802
52.92000 179.628
52.93000 177.966
52.94000 175.561
52.95000 173.613
52.96000 171.740
52.97000 170.221
52.98000 168.701
52.99000 167.178
53.00000 165.654
53.01000 165.033
53.02000 166.000
53.03000 166.997
53.04000 167.533
53.05000 164.801
53.06000 162.941
53.07000 163.412
53.08000 165.630
53.09000 167.766
53.10000 166.979
53.11000 164.728
53.12000 162.581
53.13000 163.556
53.14000 165.442
53.15000 167.240
53.16000 168.308
53.17000 169.210
53.18000 169.663
53.19000 167.771
53.20000 165.541
53.21000 163.781
53.22000 166.071
53.23000 168.182
53.24000 169.086
53.25000 167.182
53.26000 165.163
53.27000 165.428
53.28000 169.275
53.29000 173.165
53.30000 175.133
53.31000 167.925
53.32000 163.137
53.33000 162.023
53.34000 163.351
53.35000 164.719
53.36000 167.157
53.37000 170.074
53.38000 172.823
53.39000 171.448
53.40000 169.048
53.41000 166.335
53.42000 161.343
53.43000 155.895
53.44000 152.971
53.45000 161.690
53.46000 171.866
53.47000 179.668
53.48000 170.887
53.49000 163.033
53.50000 157.787
53.51000 157.962
53.52000 158.304
53.53000 158.590
53.54000 158.799
53.55000 159.006
53.56000 158.762
53.57000 158.113
53.58000 157.485
53.59000 158.071
53.60000 159.376
53.61000 160.727
53.62000 163.061
53.63000 165.786
53.64000 168.323
53.65000 164.204
53.66000 158.864
53.67000 154.411
53.68000 155.576
53.69000 157.729
53.70000 160.151
53.71000 163.680
53.72000 167.327
53.73000 170.038
53.74000 166.984
53.75000 164.353
53.76000 163.055
53.77000 164.228
53.78000 165.457
53.79000 165.003
53.80000 162.478
53.81000 159.952
53.82000 160.554
53.83000 163.617
53.84000 166.558
53.85000 164.436
53.86000 159.646
53.87000 155.305
53.88000 158.491
53.89000 164.360
53.90000 169.746
53.91000 166.919
53.92000 162.648
53.93000 159.142
53.94000 159.869
53.95000 161.246
53.96000 162.231
53.97000 161.797
53.98000 161.234
53.99000 160.829
54.00000 160.995
54.01000 161.142
54.02000 160.953
54.03000 160.209
54.04000 159.456
54.05000 159.112
54.06000 159.211
54.07000 159.309
54.08000 162.705
54.09000 168.353
54.10000 173.727
54.11000 170.775
54.12000 163.908
54.13000 157.526
54.14000 157.799
54.15000 160.189
54.16000 162.349
54.17000 163.304
54.18000 163.920
54.19000 164.602
54.20000 165.606
54.21000 166.654
54.22000 167.215
54.23000 166.201
54.24000 165.068
54.25000 164.282
54.26000 165.648
54.27000 166.733
54.28000 166.004
54.29000 162.612
54.30000 159.197
54.31000 159.377
54.32000 162.974
54.33000 166.543
54.34000 166.765
54.35000 164.936
54.36000 163.116
54.37000 161.487
54.38000 159.938
54.39000 158.680
54.40000 160.745
54.41000 163.751
54.42000 166.423
54.43000 166.622
54.44000 166.396
54.45000 166.077
54.46000 165.359
54.47000 164.594
54.48000 163.417
54.49000 161.050
54.50000 158.609
54.51000 156.981
54.52000 163.442
54.53000 168.381
54.54000 170.647
54.55000 169.435
54.56000 168.212
54.57000 169.302
54.58000 172.328
54.59000 175.314
54.60000 172.586
54.61000 166.846
54.62000 161.412
54.63000 161.616
54.64000 163.934
54.65000 165.866
54.66000 164.057
54.67000 161.306
54.68000 158.906
54.69000 157.636
54.70000 156.708
54.71000 156.787
54.72000 160.718
54.73000 165.026
54.74000 167.681
54.75000 166.081
54.76000 164.266
54.77000 163.106
54.78000 163.143
54.79000 163.185
54.80000 162.176
54.81000 159.961
54.82000 157.772
54.83000 160.778
54.84000 167.626
54.85000 174.344
54.86000 172.192
54.87000 165.887
54.88000 160.120
54.89000 162.403
54.90000 167.380
54.91000 171.774
54.92000 171.333
54.93000 169.813
54.94000 168.514
54.95000 168.388
54.96000 168.423
54.97000 168.439
54.98000 168.394
54.99000 168.344
55.00000 168.561
55.01000 169.389
55.02000 170.243
55.03000 170.763
55.04000 173.408
55.05000 175.316
55.06000 176.347
55.07000 176.493
55.08000 176.624
55.09000 175.370
55.10000 173.208
55.11000 171.101
55.12000 171.456
55.13000 172.831
55.14000 174.269
55.15000 176.488
55.16000 178.939
55.17000 181.313
55.18000 183.132
55.19000 184.842
55.20000 186.273
55.21000 190.796
55.22000 194.871
55.23000 198.063
55.24000 198.581
55.25000 198.916
55.26000 201.359
55.27000 208.129
55.28000 215.029
55.29000 219.032
55.30000 218.874
55.31000 218.750
55.32000 222.698
55.33000 230.251
55.34000 237.757
55.35000 242.456
55.36000 245.516
55.37000 248.472
55.38000 258.376
55.39000 270.296
55.40000 281.453
55.41000 284.662
55.42000 285.760
55.43000 288.611
55.44000 302.387
55.45000 318.056
55.46000 330.856
55.47000 338.238
55.48000 343.812
55.49000 352.386
55.50000 369.080
55.51000 386.228
55.52000 399.115
55.53000 404.202
55.54000 409.122
55.55000 411.824
55.56000 438.231
55.57000 456.439
55.58000 473.512
55.59000 489.699
55.60000 505.686
55.61000 513.645
55.62000 517.425
55.63000 521.042
55.64000 520.518
55.65000 518.671
55.66000 518.506
55.67000 533.260
55.68000 551.530
55.69000 565.218
55.70000 553.865
55.71000 538.722
55.72000 526.666
55.73000 528.517
55.74000 531.012
55.75000 530.182
55.76000 521.317
55.77000 512.094
55.78000 502.909
55.79000 493.783
55.80000 484.659
55.81000 479.942
55.82000 469.672
55.83000 462.718
55.84000 452.236
55.85000 439.311
55.86000 426.652
55.87000 421.837
55.88000 420.667
55.89000 419.559
55.90000 409.610
55.91000 397.907
55.92000 386.544
55.93000 377.790
55.94000 369.578
55.95000 360.037
55.96000 344.089
55.97000 327.300
55.98000 314.299
55.99000 304.531
56.00000 296.967
56.01000 290.910
56.02000 288.106
56.03000 285.414
56.04000 279.898
56.05000 270.289
56.06000 260.648
56.07000 253.736
56.08000 249.383
56.09000 245.029
56.10000 240.589
56.11000 236.095
56.12000 231.623
56.13000 227.623
56.14000 223.820
56.15000 220.265
56.16000 216.896
56.17000 213.884
56.18000 210.303
56.19000 202.941
56.20000 194.886
56.21000 188.886
56.22000 191.633
56.23000 195.370
56.24000 198.177
56.25000 192.812
56.26000 188.225
56.27000 185.434
56.28000 186.105
56.29000 186.861
56.30000 187.080
56.31000 186.608
56.32000 186.133
56.33000 183.815
56.34000 179.987
56.35000 176.249
56.36000 176.756
56.37000 179.588
56.38000 182.237
56.39000 181.597
56.40000 179.740
56.41000 178.026
56.42000 176.607
56.43000 175.401
56.44000 174.470
56.45000 175.132
56.46000 176.049
56.47000 175.741
56.48000 170.804
56.49000 165.420
56.50000 161.503
56.51000 161.151
56.52000 161.015
56.53000 160.642
56.54000 159.862
56.55000 159.075
56.56000 159.006
56.57000 159.751
56.58000 160.494
56.59000 159.854
56.60000 158.217
56.61000 156.661
56.62000 157.829
56.63000 160.327
56.64000 162.547
56.65000 160.692
56.66000 157.490
56.67000 154.580
56.68000 154.920
56.69000 155.853
56.70000 157.084
56.71000 159.832
56.72000 162.793
56.73000 163.787
56.74000 158.170
56.75000 152.016
56.76000 147.695
56.77000 151.214
56.78000 154.106
56.79000 155.190
56.80000 153.509
56.81000 151.798
56.82000 150.192
56.83000 148.690
56.84000 147.199
56.85000 151.726
56.86000 160.025
56.87000 167.977
56.88000 167.124
56.89000 162.430
56.90000 157.898
56.91000 155.340
56.92000 153.364
56.93000 151.598
56.94000 156.562
56.95000 162.028
56.96000 166.313
56.97000 165.280
56.98000 163.603
56.99000 161.085
57.00000 156.050
57.01000 150.845
57.02000 147.327
57.03000 151.509
57.04000 154.789
57.05000 155.133
57.06000 151.494
57.07000 147.836
57.08000 146.233
57.09000 146.426
57.10000 146.617
57.11000 145.421
57.12000 143.472
57.13000 141.727
57.14000 144.052
57.15000 147.963
57.16000 151.207
57.17000 147.620
57.18000 142.242
57.19000 137.521
57.20000 142.521
57.21000 148.244
57.22000 153.123
57.23000 154.643
57.24000 155.815
57.25000 156.400
57.26000 155.415
57.27000 154.344
57.28000 153.649
57.29000 149.619
57.30000 146.617
57.31000 146.187
57.32000 148.839
57.33000 151.493
57.34000 153.146
57.35000 154.026
57.36000 154.892
57.37000 154.854
57.38000 154.368
57.39000 153.850
57.40000 152.809
57.41000 151.586
57.42000 150.474
57.43000 150.325
57.44000 150.400
57.45000 150.465
57.46000 148.416
57.47000 146.413
57.48000 144.614
57.49000 143.538
57.50000 142.525
57.51000 141.113
57.52000 138.747
57.53000 136.340
57.54000 134.847
57.55000 140.182
57.56000 144.086
57.57000 144.664
57.58000 141.734
57.59000 138.828
57.60000 138.866
57.61000 140.914
57.62000 142.914
57.63000 144.719
57.64000 146.361
57.65000 147.688
57.66000 144.874
57.67000 140.774
57.68000 137.238
57.69000 137.943
57.70000 139.520
57.71000 140.849
57.72000 140.454
57.73000 139.939
57.74000 140.814
57.75000 146.076
57.76000 151.658
57.77000 153.279
57.78000 146.452
57.79000 139.345
57.80000 135.149
57.81000 139.869
57.82000 143.251
57.83000 145.229
57.84000 145.909
57.85000 146.569
57.86000 145.896
57.87000 144.412
57.88000 142.974
57.89000 141.854
57.90000 140.916
57.91000 140.282
57.92000 143.000
57.93000 146.643
57.94000 150.073
57.95000 152.113
57.96000 153.902
57.97000 155.375
57.98000 150.251
57.99000 145.433
58.00000 141.980
58.01000 142.371
58.02000 142.993
58.03000 142.980
58.04000 141.758
58.05000 140.507
58.06000 139.807
58.07000 142.851
58.08000 144.970
58.09000 147.397
58.10000 150.077
58.11000 152.655
58.12000 150.633
58.13000 146.121
58.14000 141.791
58.15000 142.532
58.16000 144.960
58.17000 147.194
58.18000 147.597
58.19000 147.551
58.20000 147.334
58.21000 146.133
58.22000 144.777
58.23000 143.687
58.24000 140.527
58.25000 137.807
58.26000 136.836
58.27000 140.257
58.28000 143.889
58.29000 144.270
58.30000 139.135
58.31000 133.909
58.32000 131.151
58.33000 130.915
58.34000 130.766
58.35000 132.015
58.36000 134.270
58.37000 136.548
58.38000 139.538
58.39000 142.872
58.40000 146.040
58.41000 142.653
58.42000 137.547
58.43000 133.083
58.44000 133.775
58.45000 135.588
58.46000 137.521
58.47000 140.061
58.48000 142.686
58.49000 144.738
58.50000 143.034
58.51000 141.436
58.52000 140.562
58.53000 141.315
58.54000 142.129
58.55000 143.780
58.56000 146.695
58.57000 149.622
58.58000 149.576
58.59000 146.613
58.60000 143.667
58.61000 142.140
58.62000 141.520
58.63000 141.029
58.64000 143.722
58.65000 147.788
58.66000 151.605
58.67000 148.567
58.68000 143.977
58.69000 140.162
58.70000 141.733
58.71000 144.336
58.72000 146.349
58.73000 145.747
58.74000 144.834
58.75000 144.140
58.76000 140.848
58.77000 138.127
58.78000 136.899
58.79000 138.659
58.80000 140.502
58.81000 141.094
58.82000 140.012
58.83000 138.921
58.84000 138.620
58.85000 138.998
58.86000 139.350
58.87000 138.313
58.88000 136.486
58.89000 134.771
58.90000 135.222
58.91000 136.507
58.92000 137.698
58.93000 138.375
58.94000 138.864
58.95000 139.118
58.96000 137.940
58.97000 136.522
58.98000 134.680
58.99000 131.169
59.00000 127.489
59.01000 124.782
59.02000 136.933
59.03000 146.946
59.04000 152.409
59.05000 149.749
59.06000 146.928
59.07000 144.146
59.08000 141.412
59.09000 138.685
59.10000 138.510
59.11000 140.267
59.12000 141.984
59.13000 142.263
59.14000 141.810
59.15000 141.423
59.16000 142.056
59.17000 143.040
59.18000 143.939
59.19000 146.236
59.20000 148.561
59.21000 149.980
59.22000 146.587
59.23000 142.487
59.24000 138.449
59.25000 134.624
59.26000 130.817
59.27000 128.111
59.28000 133.007
59.29000 136.977
59.30000 137.563
59.31000 132.768
59.32000 127.903
59.33000 127.452
59.34000 131.590
59.35000 135.706
59.36000 138.646
59.37000 140.766
59.38000 142.771
59.39000 141.577
59.40000 138.932
59.41000 136.492
59.42000 136.688
59.43000 137.693
59.44000 138.596
59.45000 140.124
59.46000 141.572
59.47000 142.692
59.48000 142.271
59.49000 141.655
59.50000 141.043
59.51000 140.448
59.52000 139.854
59.53000 139.447
59.54000 136.522
59.55000 134.270
59.56000 132.784
59.57000 132.379
59.58000 131.982
59.59000 133.696
59.60000 137.333
59.61000 140.936
59.62000 140.651
59.63000 138.089
59.64000 135.548
59.65000 133.466
59.66000 131.570
59.67000 129.685
59.68000 127.916
59.69000 126.180
59.70000 124.646
59.71000 132.938
59.72000 141.612
59.73000 148.499
59.74000 147.969
59.75000 146.627
59.76000 145.100
59.77000 143.058
59.78000 140.985
59.79000 139.622
59.80000 144.837
59.81000 148.790
59.82000 148.176
59.83000 141.852
59.84000 135.522
59.85000 132.870
59.86000 133.173
59.87000 133.473
59.88000 132.273
59.89000 130.332
59.90000 128.736
59.91000 133.076
59.92000 139.563
59.93000 145.358
59.94000 144.795
59.95000 142.693
59.96000 140.871
59.97000 137.960
59.98000 135.337
59.99000 134.417
60.00000 139.767
60.01000 145.701
60.02000 148.986
60.03000 145.697
60.04000 142.101
60.05000 139.836
60.06000 135.088
60.07000 131.625
60.08000 130.585
60.09000 132.218
60.10000 133.854
60.11000 135.767
60.12000 137.875
60.13000 139.940
60.14000 138.959
60.15000 136.623
60.16000 134.473
60.17000 134.942
60.18000 136.256
60.19000 137.173
60.20000 134.959
60.21000 132.073
60.22000 129.623
60.23000 134.179
60.24000 138.800
60.25000 142.282
60.26000 142.034
60.27000 141.495
60.28000 140.642
60.29000 139.094
60.30000 137.520
60.31000 136.575
60.32000 137.885
60.33000 138.830
60.34000 138.593
60.35000 137.211
60.36000 135.869
60.37000 137.786
60.38000 141.762
60.39000 145.625
60.40000 143.114
60.41000 138.148
60.42000 133.687
60.43000 135.126
60.44000 138.260
60.45000 141.101
60.46000 141.937
60.47000 142.394
60.48000 142.773
60.49000 140.866
60.50000 139.068
60.51000 137.047
60.52000 134.371
60.53000 131.653
60.54000 130.349
60.55000 131.843
60.56000 133.412
60.57000 134.307
60.58000 138.125
60.59000 140.794
60.60000 141.341
60.61000 140.084
60.62000 138.858
60.63000 139.193
60.64000 140.406
60.65000 141.575
60.66000 139.457
60.67000 136.294
60.68000 133.490
60.69000 134.225
60.70000 135.864
60.71000 137.499
60.72000 139.115
60.73000 140.727
60.74000 142.033
60.75000 138.932
60.76000 136.046
60.77000 134.863
60.78000 138.121
60.79000 141.610
60.80000 143.739
60.81000 143.468
60.82000 143.152
60.83000 142.982
60.84000 141.080
60.85000 139.776
60.86000 138.033
60.87000 135.961
60.88000 133.904
60.89000 132.389
60.90000 131.146
60.91000 129.961
60.92000 129.801
60.93000 129.974
60.94000 130.312
60.95000 132.034
60.96000 134.070
60.97000 136.325
60.98000 139.726
60.99000 143.294
61.00000 146.109
61.01000 145.877
61.02000 145.483
61.03000 144.339
61.04000 141.443
61.05000 138.476
61.06000 138.045
61.07000 141.595
61.08000 145.194
61.09000 147.016
61.10000 145.675
61.11000 144.763
61.12000 142.339
61.13000 138.909
61.14000 135.645
61.15000 136.859
61.16000 140.079
61.17000 143.115
61.18000 143.962
61.19000 144.131
61.20000 144.598
61.21000 147.239
61.22000 150.315
61.23000 151.841
61.24000 146.198
61.25000 139.656
61.26000 134.639
61.27000 140.546
61.28000 145.819
61.29000 149.658
61.30000 150.511
61.31000 151.272
61.32000 150.591
61.33000 147.899
61.34000 145.196
61.35000 143.765
61.36000 143.481
61.37000 143.220
61.38000 144.409
61.39000 146.455
61.40000 148.340
61.41000 146.840
61.42000 143.987
61.43000 141.331
61.44000 141.733
61.45000 142.841
61.46000 144.314
61.47000 148.098
61.48000 152.290
61.49000 156.904
61.50000 163.252
61.51000 169.787
61.52000 174.646
61.53000 190.804
61.54000 203.876
61.55000 215.753
61.56000 225.411
61.57000 235.021
61.58000 249.182
61.59000 268.960
61.60000 288.718
61.61000 305.578
61.62000 320.073
61.63000 334.410
61.64000 342.091
61.65000 346.258
61.66000 350.562
61.67000 357.143
61.68000 364.538
61.69000 371.327
61.70000 369.269
61.71000 365.546
61.72000 362.179
61.73000 360.791
61.74000 359.707
61.75000 357.513
61.76000 351.284
61.77000 344.686
61.78000 339.940
61.79000 313.352
61.80000 292.236
61.81000 271.469
61.82000 251.281
61.83000 231.102
61.84000 213.355
61.85000 198.251
61.86000 183.215
61.87000 174.482
61.88000 170.220
61.89000 166.052
61.90000 164.765
61.91000 164.835
61.92000 164.451
61.93000 157.812
61.94000 149.180
61.95000 141.377
61.96000 147.994
61.97000 156.500
61.98000 163.001
61.99000 159.701
62.00000 155.089
62.01000 151.668
62.02000 152.101
62.03000 152.828
62.04000 153.333
62.05000 155.924
62.06000 157.931
62.07000 157.020
62.08000 151.817
62.09000 146.577
62.10000 144.867
62.11000 146.521
62.12000 148.162
62.13000 145.952
62.14000 141.422
62.15000 137.145
62.16000 138.768
62.17000 142.873
62.18000 146.918
62.19000 150.285
62.20000 153.459
62.21000 156.281
62.22000 152.647
62.23000 148.450
62.24000 144.545
62.25000 141.904
62.26000 139.409
62.27000 138.968
62.28000 144.460
62.29000 150.326
62.30000 154.240
62.31000 148.957
62.32000 144.867
62.33000 143.373
62.34000 145.265
62.35000 147.173
62.36000 150.487
62.37000 154.978
62.38000 159.411
62.39000 158.387
62.40000 154.438
62.41000 150.585
62.42000 148.492
62.43000 147.061
62.44000 145.624
62.45000 144.130
62.46000 142.623
62.47000 141.308
62.48000 141.168
62.49000 141.212
62.50000 141.287
62.51000 141.476
62.52000 141.678
62.53000 142.051
62.54000 142.868
62.55000 143.707
62.56000 144.243
62.57000 141.195
62.58000 138.928
62.59000 139.772
62.60000 144.195
62.61000 148.594
62.62000 147.747
62.63000 143.014
62.64000 138.369
62.65000 138.568
62.66000 141.074
62.67000 143.330
62.68000 141.839
62.69000 139.091
62.70000 136.822
62.71000 138.537
62.72000 141.143
62.73000 143.371
62.74000 144.032
62.75000 144.401
62.76000 144.660
62.77000 144.550
62.78000 144.408
62.79000 144.507
62.80000 145.161
62.81000 145.837
62.82000 146.249
62.83000 138.481
62.84000 132.858
62.85000 131.966
62.86000 135.857
62.87000 139.733
62.88000 142.176
62.89000 143.677
62.90000 145.139
62.91000 144.549
62.92000 143.121
62.93000 142.002
62.94000 144.723
62.95000 148.592
62.96000 152.397
62.97000 155.746
62.98000 159.005
62.99000 161.733
63.00000 157.863
63.01000 153.971
63.02000 151.573
63.03000 153.712
63.04000 156.164
63.05000 157.683
63.06000 157.286
63.07000 156.832
63.08000 156.569
63.09000 151.021
63.10000 147.107
63.11000 147.039
63.12000 150.384
63.13000 153.723
63.14000 156.689
63.15000 159.437
63.16000 162.093
63.17000 159.510
63.18000 155.124
63.19000 150.910
63.20000 148.493
63.21000 146.553
63.22000 145.649
63.23000 151.217
63.24000 157.907
63.25000 163.375
63.26000 158.496
63.27000 153.606
63.28000 149.531
63.29000 147.662
63.30000 145.917
63.31000 145.673
63.32000 148.183
63.33000 150.752
63.34000 152.165
63.35000 154.880
63.36000 156.740
63.37000 155.564
63.38000 152.011
63.39000 148.594
63.40000 150.646
63.41000 155.550
63.42000 160.242
63.43000 158.239
63.44000 154.172
63.45000 150.321
63.46000 148.386
63.47000 146.903
63.48000 146.210
63.49000 149.849
63.50000 154.144
63.51000 157.564
63.52000 152.754
63.53000 148.279
63.54000 146.184
63.55000 149.848
63.56000 153.769
63.57000 157.597
63.58000 161.273
63.59000 164.947
63.60000 166.848
63.61000 162.011
63.62000 158.753
63.63000 156.070
63.64000 153.788
63.65000 151.581
63.66000 151.635
63.67000 152.740
63.68000 153.786
63.69000 152.063
63.70000 149.677
63.71000 147.726
63.72000 149.104
63.73000 151.177
63.74000 153.298
63.75000 155.653
63.76000 158.040
63.77000 159.888
63.78000 154.840
63.79000 150.419
63.80000 149.229
63.81000 155.020
63.82000 161.051
63.83000 162.845
63.84000 158.487
63.85000 154.078
63.86000 151.705
63.87000 151.246
63.88000 150.802
63.89000 151.416
63.90000 152.682
63.91000 154.094
63.92000 158.821
63.93000 164.927
63.94000 170.636
63.95000 168.366
63.96000 164.275
63.97000 160.478
63.98000 158.643
63.99000 157.169
64.00000 155.858
64.01000 155.238
64.02000 154.697
64.03000 154.290
64.04000 161.333
64.05000 167.200
64.06000 170.431
64.07000 168.575
64.08000 166.591
64.09000 165.596
64.10000 165.875
64.11000 166.159
64.12000 165.072
64.13000 162.858
64.14000 160.700
64.15000 161.192
64.16000 163.138
64.17000 165.114
64.18000 167.630
64.19000 170.346
64.20000 172.851
64.21000 173.149
64.22000 172.924
64.23000 172.919
64.24000 174.197
64.25000 175.681
64.26000 176.512
64.27000 174.867
64.28000 172.983
64.29000 171.612
64.30000 174.775
64.31000 177.382
64.32000 177.720
64.33000 174.153
64.34000 170.518
64.35000 169.991
64.36000 172.992
64.37000 175.987
64.38000 176.625
64.39000 175.548
64.40000 174.551
64.41000 176.253
64.42000 179.276
64.43000 182.078
64.44000 181.637
64.45000 180.121
64.46000 178.743
64.47000 176.028
64.48000 173.367
64.49000 171.756
64.50000 175.496
64.51000 179.988
64.52000 182.627
64.53000 179.023
64.54000 174.912
64.55000 172.024
64.56000 178.015
64.57000 182.812
64.58000 185.488
64.59000 184.917
64.60000 184.311
64.61000 184.272
64.62000 184.796
64.63000 185.317
64.64000 185.460
64.65000 185.361
64.66000 185.296
64.67000 186.122
64.68000 187.336
64.69000 188.712
64.70000 192.053
64.71000 195.974
64.72000 199.481
64.73000 196.457
64.74000 192.712
64.75000 190.465
64.76000 194.964
64.77000 200.281
64.78000 204.813
64.79000 206.990
64.80000 209.008
64.81000 210.372
64.82000 209.784
64.83000 209.304
64.84000 208.361
64.85000 206.789
64.86000 205.220
64.87000 208.876
64.88000 217.103
64.89000 225.238
64.90000 228.879
64.91000 229.899
64.92000 230.877
64.93000 231.036
64.94000 230.875
64.95000 231.829
64.96000 244.225
64.97000 259.624
64.98000 273.149
64.99000 281.339
65.00000 287.595
65.01000 292.240
65.02000 290.461
65.03000 288.015
65.04000 289.928
65.05000 303.519
65.06000 317.748
65.07000 326.983
65.08000 337.147
65.09000 344.604
65.10000 352.436
65.11000 360.720
65.12000 369.009
65.13000 378.260
65.14000 388.254
65.15000 398.081
65.16000 398.147
65.17000 393.349
65.18000 389.296
65.19000 397.219
65.20000 409.315
65.21000 419.902
65.22000 417.293
65.23000 411.610
65.24000 406.715
65.25000 419.667
65.26000 432.900
65.27000 440.126
65.28000 426.043
65.29000 410.085
65.30000 399.965
65.31000 403.810
65.32000 408.261
65.33000 411.023
65.34000 407.986
65.35000 405.744
65.36000 402.742
65.37000 398.935
65.38000 395.151
65.39000 393.908
65.40000 394.405
65.41000 394.890
65.42000 387.727
65.43000 377.504
65.44000 367.923
65.45000 366.816
65.46000 368.343
65.47000 369.402
65.48000 366.933
65.49000 363.738
65.50000 361.044
65.51000 360.875
65.52000 361.008
65.53000 360.733
65.54000 359.169
65.55000 357.510
65.56000 356.743
65.57000 357.883
65.58000 359.086
65.59000 359.797
65.60000 362.189
65.61000 363.889
65.62000 368.422
65.63000 375.581
65.64000 382.843
65.65000 397.166
65.66000 415.785
65.67000 433.826
65.68000 473.899
65.69000 520.393
65.70000 567.770
65.71000 624.909
65.72000 684.750
65.73000 745.150
65.74000 809.211
65.75000 873.936
65.76000 927.265
65.77000 1023.800
65.78000 1107.195
65.79000 1184.105
65.80000 1242.742
65.81000 1300.279
65.82000 1347.759
65.83000 1376.070
65.84000 1403.916
65.85000 1419.515
65.86000 1430.694
65.87000 1438.419
65.88000 1441.054
65.89000 1439.536
65.90000 1437.690
65.91000 1420.848
65.92000 1395.879
65.93000 1371.905
65.94000 1330.828
65.95000 1286.539
65.96000 1238.146
65.97000 1151.258
65.98000 1054.908
65.99000 960.230
66.00000 875.113
66.01000 791.516
66.02000 724.337
66.03000 654.573
66.04000 597.825
66.05000 547.236
66.06000 512.142
66.07000 477.797
66.08000 442.861
66.09000 406.925
66.10000 370.971
66.11000 351.973
66.12000 358.877
66.13000 363.492
66.14000 354.291
66.15000 335.116
66.16000 316.498
66.17000 316.158
66.18000 324.656
66.19000 332.731
66.20000 335.874
66.21000 337.287
66.22000 339.099
66.23000 344.115
66.24000 349.829
66.25000 356.054
66.26000 364.849
66.27000 373.998
66.28000 381.155
66.29000 398.189
66.30000 412.417
66.31000 429.273
66.32000 452.034
66.33000 475.017
66.34000 492.128
66.35000 500.363
66.36000 508.508
66.37000 514.958
66.38000 519.744
66.39000 524.547
66.40000 530.798
66.41000 537.977
66.42000 544.903
66.43000 545.552
66.44000 543.491
66.45000 541.556
66.46000 539.393
66.47000 537.361
66.48000 534.940
66.49000 529.817
66.50000 524.176
66.51000 516.885
66.52000 502.264
66.53000 486.767
66.54000 474.995
66.55000 459.462
66.56000 447.057
66.57000 433.245
66.58000 416.615
66.59000 399.906
66.60000 386.465
66.61000 377.404
66.62000 368.373
66.63000 360.483
66.64000 353.590
66.65000 346.896
66.66000 350.948
66.67000 361.131
66.68000 370.770
66.69000 369.827
66.70000 364.803
66.71000 360.146
66.72000 356.381
66.73000 353.200
66.74000 351.015
66.75000 354.879
66.76000 359.763
66.77000 362.340
66.78000 355.833
66.79000 348.398
66.80000 342.927
66.81000 350.433
66.82000 356.778
66.83000 359.183
66.84000 354.539
66.85000 349.755
66.86000 349.840
66.87000 355.695
66.88000 361.545
66.89000 363.212
66.90000 361.701
66.91000 360.374
66.92000 365.953
66.93000 375.047
66.94000 383.671
66.95000 384.919
66.96000 383.629
66.97000 382.450
66.98000 382.716
66.99000 383.247
67.00000 385.020
67.01000 393.410
67.02000 402.774
67.03000 409.653
67.04000 407.831
67.05000 405.258
67.06000 403.427
67.07000 399.381
67.08000 396.228
67.09000 394.969
67.10000 396.728
67.11000 398.526
67.12000 402.756
67.13000 409.519
67.14000 416.246
67.15000 418.795
67.16000 418.524
67.17000 418.356
67.18000 421.022
67.19000 424.974
67.20000 428.510
67.21000 426.636
67.22000 423.102
67.23000 419.924
67.24000 420.151
67.25000 420.956
67.26000 421.485
67.27000 420.719
67.28000 419.788
67.29000 419.331
67.30000 420.351
67.31000 421.477
67.32000 422.249
67.33000 435.930
67.34000 446.490
67.35000 450.038
67.36000 443.667
67.37000 437.226
67.38000 435.837
67.39000 439.064
67.40000 442.260
67.41000 443.519
67.42000 443.614
67.43000 443.692
67.44000 443.412
67.45000 442.986
67.46000 443.270
67.47000 451.251
67.48000 461.335
67.49000 470.246
67.50000 477.873
67.51000 484.261
67.52000 489.283
67.53000 488.621
67.54000 487.336
67.55000 484.781
67.56000 478.691
67.57000 472.392
67.58000 468.245
67.59000 479.338
67.60000 487.772
67.61000 493.630
67.62000 496.262
67.63000 498.879
67.64000 499.389
67.65000 498.205
67.66000 497.037
67.67000 505.225
67.68000 518.033
67.69000 530.375
67.70000 534.687
67.71000 536.092
67.72000 537.477
67.73000 538.679
67.74000 539.838
67.75000 540.842
67.76000 547.162
67.77000 553.252
67.78000 558.415
67.79000 560.156
67.80000 561.578
67.81000 563.417
67.82000 566.293
67.83000 569.217
67.84000 571.060
67.85000 566.452
67.86000 563.042
67.87000 564.386
67.88000 570.980
67.89000 577.564
67.90000 582.377
67.91000 585.927
67.92000 589.404
67.93000 589.955
67.94000 589.143
67.95000 588.275
67.96000 586.623
67.97000 584.719
67.98000 584.290
67.99000 595.546
68.00000 609.311
68.01000 621.003
68.02000 610.043
68.03000 598.258
68.04000 592.002
68.05000 603.903
68.06000 617.225
68.07000 626.815
68.08000 628.125
68.09000 629.133
68.10000 629.738
68.11000 628.382
68.12000 627.406
68.13000 631.533
68.14000 640.604
68.15000 649.716
68.16000 662.127
68.17000 676.625
68.18000 690.714
68.19000 696.779
68.20000 699.290
68.21000 702.032
68.22000 707.474
68.23000 713.694
68.24000 718.627
68.25000 714.738
68.26000 709.177
68.27000 704.559
68.28000 713.637
68.29000 722.475
68.30000 730.305
68.31000 735.180
68.32000 739.864
68.33000 745.963
68.34000 754.863
68.35000 763.840
68.36000 768.963
68.37000 795.207
68.38000 813.575
68.39000 824.874
68.40000 830.154
68.41000 835.491
68.42000 843.753
68.43000 853.663
68.44000 863.210
68.45000 863.732
68.46000 860.995
68.47000 860.457
68.48000 881.696
68.49000 908.508
68.50000 933.745
68.51000 949.552
68.52000 963.791
68.53000 975.333
68.54000 985.903
68.55000 994.436
68.56000 1011.067
68.57000 1048.871
68.58000 1087.779
68.59000 1132.857
68.60000 1188.834
68.61000 1245.019
68.62000 1275.319
68.63000 1330.971
68.64000 1369.181
68.65000 1431.796
68.66000 1512.769
68.67000 1593.636
68.68000 1670.674
68.69000 1745.787
68.70000 1817.422
68.71000 1892.067
68.72000 1962.274
68.73000 2033.456
68.74000 2112.893
68.75000 2194.204
68.76000 2276.795
68.77000 2366.111
68.78000 2456.402
68.79000 2527.691
68.80000 2594.177
68.81000 2647.205
68.82000 2738.370
68.83000 2918.559
68.84000 3102.403
68.85000 3299.809
68.86000 3518.545
68.87000 3737.541
68.88000 3848.520
68.89000 4707.483
68.90000 5287.498
68.91000 6355.387
68.92000 7748.722
68.93000 9186.113
68.94000 11818.028
68.95000 14985.811
68.96000 17973.016
68.97000 23428.512
68.98000 29111.828
68.99000 34928.051
69.00000 41715.156
69.01000 48696.895
69.02000 55529.410
69.03000 61670.582
69.04000 67724.930
69.05000 72370.891
69.06000 76917.281
69.07000 80504.516
69.08000 83396.883
69.09000 84840.867
69.10000 86239.719
69.11000 87334.734
69.12000 88005.375
69.13000 88672.938
69.14000 89439.078
69.15000 90293.203
69.16000 91141.281
69.17000 91612.969
69.18000 91861.359
69.19000 92034.258
69.20000 90618.203
69.21000 88565.563
69.22000 86654.164
69.23000 82688.805
69.24000 78602.242
69.25000 74490.109
69.26000 70215.539
69.27000 65912.313
69.28000 61809.137
69.29000 58526.594
69.30000 55332.516
69.31000 52955.816
69.32000 50366.707
69.33000 48342.887
69.34000 46557.145
69.35000 45214.176
69.36000 43881.164
69.37000 42353.422
69.38000 40584.984
69.39000 38819.055
69.40000 36314.715
69.41000 33237.977
69.42000 30155.744
69.43000 26841.332
69.44000 23404.160
69.45000 19996.756
69.46000 17090.754
69.47000 14364.105
69.48000 11860.288
69.49000 9782.910
69.50000 8020.670
69.51000 6378.469
69.52000 5404.151
69.53000 4532.856
69.54000 3758.027
69.55000 3334.672
69.56000 2943.491
69.57000 2661.955
69.58000 2411.512
69.59000 2220.842
69.60000 2060.919
69.61000 1951.943
69.62000 1843.736
69.63000 1756.847
69.64000 1693.176
69.65000 1629.791
69.66000 1567.838
69.67000 1507.522
69.68000 1447.738
69.69000 1404.307
69.70000 1368.593
69.71000 1333.221
69.72000 1302.587
69.73000 1273.463
69.74000 1247.128
69.75000 1217.189
69.76000 1190.169
69.77000 1164.979
69.78000 1148.751
69.79000 1133.723
69.80000 1115.660
69.81000 1087.745
69.82000 1059.076
69.83000 1039.173
69.84000 1016.737
69.85000 999.767
69.86000 978.262
69.87000 950.074
69.88000 921.826
69.89000 895.264
69.90000 870.311
69.91000 845.558
69.92000 839.604
69.93000 845.297
69.94000 850.493
69.95000 844.046
69.96000 832.694
69.97000 821.498
69.98000 812.097
69.99000 803.206
70.00000 795.301
