20.00000 558.855
20.01000 569.436
20.02000 581.529
20.03000 591.141
20.04000 591.078
20.05000 590.041
20.06000 589.280
20.07000 584.027
20.08000 579.786
20.09000 576.489
20.10000 574.865
20.11000 573.273
20.12000 573.641
20.13000 576.305
20.14000 578.965
20.15000 577.548
20.16000 573.088
20.17000 568.530
20.18000 560.382
20.19000 550.425
20.20000 541.144
20.21000 542.291
20.22000 546.991
20.23000 551.279
20.24000 550.315
20.25000 548.401
20.26000 548.142
20.27000 556.595
20.28000 566.315
20.29000 573.405
20.30000 571.383
20.31000 568.585
20.32000 566.602
20.33000 571.999
20.34000 576.334
20.35000 575.722
20.36000 567.308
20.37000 558.798
20.38000 557.279
20.39000 562.960
20.40000 568.609
20.41000 570.434
20.42000 569.712
20.43000 569.060
20.44000 570.304
20.45000 572.401
20.46000 574.644
20.47000 578.749
20.48000 583.421
20.49000 587.616
20.50000 577.282
20.51000 565.688
20.52000 555.768
20.53000 553.628
20.54000 552.467
20.55000 553.870
20.56000 563.192
20.57000 573.074
20.58000 579.823
20.59000 571.794
20.60000 565.442
20.61000 560.984
20.62000 559.177
20.63000 557.387
20.64000 552.795
20.65000 545.673
20.66000 538.622
20.67000 541.755
20.68000 550.749
20.69000 559.317
20.70000 558.874
20.71000 554.812
20.72000 551.272
20.73000 553.304
20.74000 556.842
20.75000 559.964
20.76000 556.614
20.77000 552.737
20.78000 551.048
20.79000 558.358
20.80000 566.641
20.81000 571.975
20.82000 569.186
20.83000 565.927
20.84000 563.789
20.85000 554.401
20.86000 547.376
20.87000 543.216
20.88000 542.606
20.89000 542.017
20.90000 545.255
20.91000 551.539
20.92000 557.729
20.93000 558.676
20.94000 556.899
20.95000 555.173
20.96000 554.292
20.97000 553.713
20.98000 553.561
20.99000 557.299
21.00000 561.971
21.01000 566.015
21.02000 561.302
21.03000 556.142
21.04000 554.074
21.05000 563.298
21.06000 573.559
21.07000 576.628
21.08000 562.000
21.09000 546.556
21.10000 536.862
21.11000 534.549
21.12000 532.959
21.13000 534.640
21.14000 539.893
21.15000 545.200
21.16000 557.716
21.17000 575.316
21.18000 592.537
21.19000 588.495
21.20000 574.965
21.21000 562.061
21.22000 557.828
21.23000 556.369
21.24000 555.195
21.25000 556.250
21.26000 557.780
21.27000 559.076
21.28000 551.637
21.29000 544.419
21.30000 541.514
21.31000 552.636
21.32000 564.836
21.33000 569.303
21.34000 556.776
21.35000 543.644
21.36000 535.786
21.37000 538.630
21.38000 540.718
21.39000 545.450
21.40000 552.713
21.41000 559.896
21.42000 560.913
21.43000 558.067
21.44000 555.303
21.45000 552.947
21.46000 550.873
21.47000 549.122
21.48000 551.091
21.49000 554.120
21.50000 557.130
21.51000 560.007
21.52000 562.859
21.53000 565.223
21.54000 566.757
21.55000 567.945
21.56000 567.071
21.57000 560.219
21.58000 552.989
21.59000 549.076
21.60000 551.672
21.61000 554.440
21.62000 556.012
21.63000 560.118
21.64000 562.982
21.65000 564.393
21.66000 564.580
21.67000 564.694
21.68000 561.154
21.69000 555.576
21.70000 550.207
21.71000 558.833
21.72000 571.878
21.73000 583.973
21.74000 586.787
21.75000 587.251
21.76000 588.323
21.77000 592.990
21.78000 598.249
21.79000 602.502
21.80000 609.854
21.81000 616.085
21.82000 623.762
21.83000 635.177
21.84000 646.784
21.85000 657.614
21.86000 667.087
21.87000 676.535
21.88000 681.604
21.89000 696.345
21.90000 706.411
21.91000 715.088
21.92000 722.731
21.93000 730.579
21.94000 745.638
21.95000 764.286
21.96000 782.053
21.97000 793.640
21.98000 802.451
21.99000 810.917
22.00000 816.500
22.01000 821.434
22.02000 826.453
22.03000 831.903
22.04000 837.415
22.05000 841.757
22.06000 842.024
22.07000 841.966
22.08000 841.263
22.09000 839.071
22.10000 836.820
22.11000 832.601
22.12000 825.320
22.13000 818.003
22.14000 814.316
22.15000 771.404
22.16000 742.871
22.17000 728.701
22.18000 724.013
22.19000 719.206
22.20000 711.287
22.21000 701.985
22.22000 693.222
22.23000 681.280
22.24000 669.478
22.25000 657.321
22.26000 642.596
22.27000 627.362
22.28000 615.815
22.29000 621.161
22.30000 628.602
22.31000 634.296
22.32000 614.440
22.33000 597.373
22.34000 584.164
22.35000 578.919
22.36000 573.914
22.37000 570.917
22.38000 570.692
22.39000 570.485
22.40000 567.796
22.41000 562.901
22.42000 558.040
22.43000 555.249
22.44000 553.673
22.45000 551.901
22.46000 546.091
22.47000 538.680
22.48000 531.786
22.49000 532.405
22.50000 534.776
22.51000 536.682
22.52000 535.665
22.53000 534.139
22.54000 532.902
22.55000 532.833
22.56000 532.889
22.57000 532.930
22.58000 529.582
22.59000 526.831
22.60000 526.334
22.61000 529.985
22.62000 533.726
22.63000 534.185
22.64000 530.634
22.65000 527.079
22.66000 524.356
22.67000 522.296
22.68000 520.412
22.69000 525.737
22.70000 534.836
22.71000 542.839
22.72000 532.727
22.73000 516.200
22.74000 501.043
22.75000 506.806
22.76000 516.358
22.77000 523.914
22.78000 520.484
22.79000 515.379
22.80000 513.136
22.81000 521.212
22.82000 530.219
22.83000 536.681
22.84000 540.029
22.85000 542.482
22.86000 541.693
22.87000 535.588
22.88000 529.406
22.89000 524.208
22.90000 520.070
22.91000 515.951
22.92000 512.937
22.93000 510.717
22.94000 508.509
22.95000 506.698
22.96000 505.072
22.97000 503.874
22.98000 508.499
22.99000 514.962
23.00000 520.799
23.01000 521.720
23.02000 521.624
23.03000 522.314
23.04000 526.809
23.05000 531.807
23.06000 534.267
23.07000 528.582
23.08000 522.281
23.09000 517.922
23.10000 521.382
23.11000 524.187
23.12000 524.204
23.13000 520.156
23.14000 516.075
23.15000 515.867
23.16000 519.316
23.17000 522.737
23.18000 521.409
23.19000 517.223
23.20000 513.563
23.21000 521.954
23.22000 535.373
23.23000 546.850
23.24000 536.316
23.25000 519.592
23.26000 504.745
23.27000 512.247
23.28000 522.327
23.29000 529.149
23.30000 522.011
23.31000 513.282
23.32000 506.453
23.33000 505.064
23.34000 504.012
23.35000 503.312
23.36000 505.308
23.37000 506.835
23.38000 506.812
23.39000 504.789
23.40000 502.762
23.41000 502.857
23.42000 504.715
23.43000 506.548
23.44000 505.829
23.45000 503.762
23.46000 502.277
23.47000 511.389
23.48000 524.449
23.49000 535.233
23.50000 524.182
23.51000 507.673
23.52000 493.287
23.53000 495.921
23.54000 500.526
23.55000 503.857
23.56000 502.347
23.57000 500.365
23.58000 500.914
23.59000 507.931
23.60000 515.271
23.61000 519.950
23.62000 522.424
23.63000 524.195
23.64000 523.649
23.65000 520.461
23.66000 517.289
23.67000 517.453
23.68000 520.066
23.69000 522.629
23.70000 519.624
23.71000 514.093
23.72000 508.407
23.73000 500.419
23.74000 491.665
23.75000 484.758
23.76000 493.024
23.77000 504.651
23.78000 514.580
23.79000 515.250
23.80000 514.714
23.81000 514.603
23.82000 515.929
23.83000 517.373
23.84000 515.132
23.85000 504.477
23.86000 493.494
23.87000 486.811
23.88000 497.005
23.89000 504.418
23.90000 506.881
23.91000 504.392
23.92000 501.911
23.93000 500.218
23.94000 499.040
23.95000 497.893
23.96000 497.070
23.97000 496.421
23.98000 496.073
23.99000 499.421
24.00000 503.864
24.01000 507.062
24.02000 501.417
24.03000 494.042
24.04000 487.882
24.05000 494.491
24.06000 501.269
24.07000 504.317
24.08000 496.127
24.09000 487.174
24.10000 480.267
24.11000 477.530
24.12000 474.916
24.13000 473.404
24.14000 482.192
24.15000 488.395
24.16000 495.455
24.17000 503.267
24.18000 510.862
24.19000 506.062
24.20000 494.074
24.21000 482.499
24.22000 483.820
24.23000 489.823
24.24000 495.782
24.25000 501.281
24.26000 506.659
24.27000 510.935
24.28000 508.392
24.29000 504.677
24.30000 501.646
24.31000 496.010
24.32000 491.178
24.33000 490.481
24.34000 500.900
24.35000 511.933
24.36000 519.162
24.37000 519.476
24.38000 519.645
24.39000 519.737
24.40000 509.025
24.41000 501.662
24.42000 498.632
24.43000 498.962
24.44000 499.227
24.45000 496.898
24.46000 493.228
24.47000 489.719
24.48000 494.877
24.49000 502.499
24.50000 509.089
24.51000 506.593
24.52000 501.973
24.53000 498.249
24.54000 499.391
24.55000 501.264
24.56000 502.752
24.57000 494.235
24.58000 486.660
24.59000 484.547
24.60000 495.549
24.61000 507.125
24.62000 508.945
24.63000 494.964
24.64000 480.765
24.65000 473.453
24.66000 475.345
24.67000 476.647
24.68000 481.181
24.69000 487.936
24.70000 494.374
24.71000 491.571
24.72000 484.505
24.73000 477.823
24.74000 484.053
24.75000 493.481
24.76000 501.785
24.77000 501.574
24.78000 499.601
24.79000 495.970
24.80000 484.409
24.81000 471.815
24.82000 462.080
24.83000 469.973
24.84000 477.269
24.85000 483.249
24.86000 486.409
24.87000 489.475
24.88000 492.956
24.89000 497.033
24.90000 501.114
24.91000 498.514
24.92000 489.700
24.93000 480.968
24.94000 477.943
24.95000 478.405
24.96000 478.976
24.97000 481.976
24.98000 485.977
24.99000 489.715
25.00000 485.664
25.01000 480.026
25.02000 475.577
25.03000 478.949
25.04000 483.747
25.05000 487.201
25.06000 484.977
25.07000 482.116
25.08000 479.970
25.09000 475.100
25.10000 471.167
25.11000 467.618
25.12000 464.803
25.13000 462.005
25.14000 460.992
25.15000 462.254
25.16000 463.522
25.17000 462.161
25.18000 458.658
25.19000 455.263
25.20000 456.873
25.21000 461.207
25.22000 465.732
25.23000 473.667
25.24000 482.855
25.25000 491.324
25.26000 484.919
25.27000 475.900
25.28000 467.636
25.29000 463.717
25.30000 460.490
25.31000 458.719
25.32000 462.409
25.33000 466.621
25.34000 469.678
25.35000 466.970
25.36000 464.673
25.37000 461.445
25.38000 456.629
25.39000 451.787
25.40000 452.503
25.41000 459.469
25.42000 466.415
25.43000 470.071
25.44000 471.331
25.45000 472.547
25.46000 472.306
25.47000 471.357
25.48000 470.316
25.49000 467.935
25.50000 465.115
25.51000 462.554
25.52000 469.226
25.53000 476.900
25.54000 483.722
25.55000 486.235
25.56000 488.151
25.57000 489.350
25.58000 488.160
25.59000 486.778
25.60000 485.809
25.61000 486.254
25.62000 486.631
25.63000 485.699
25.64000 482.783
25.65000 479.846
25.66000 480.072
25.67000 483.420
25.68000 486.745
25.69000 484.528
25.70000 478.836
25.71000 473.184
25.72000 468.539
25.73000 464.329
25.74000 460.848
25.75000 466.123
25.76000 473.961
25.77000 480.960
25.78000 476.363
25.79000 470.412
25.80000 465.844
25.81000 467.448
25.82000 469.793
25.83000 470.652
25.84000 467.088
25.85000 463.230
25.86000 460.629
25.87000 470.118
25.88000 477.433
25.89000 483.779
25.90000 488.821
25.91000 493.849
25.92000 492.606
25.93000 485.928
25.94000 479.327
25.95000 481.123
25.96000 487.571
25.97000 493.175
25.98000 482.250
25.99000 464.927
26.00000 448.981
26.01000 446.995
26.02000 448.642
26.03000 450.087
26.04000 453.849
26.05000 457.416
26.06000 461.833
26.07000 469.615
26.08000 477.741
26.09000 482.557
26.10000 478.579
26.11000 474.126
26.12000 471.246
26.13000 461.676
26.14000 454.578
26.15000 453.191
26.16000 458.600
26.17000 463.991
26.18000 462.293
26.19000 455.169
26.20000 448.167
26.21000 456.457
26.22000 472.020
26.23000 486.314
26.24000 480.561
26.25000 467.881
26.26000 456.682
26.27000 458.296
26.28000 462.868
26.29000 466.800
26.30000 473.634
26.31000 479.782
26.32000 482.581
26.33000 473.609
26.34000 463.614
26.35000 458.541
26.36000 465.140
26.37000 472.237
26.38000 476.625
26.39000 471.058
26.40000 466.963
26.41000 460.666
26.42000 452.064
26.43000 443.511
26.44000 440.392
26.45000 440.959
26.46000 441.513
26.47000 449.587
26.48000 460.588
26.49000 470.892
26.50000 472.104
26.51000 470.515
26.52000 469.154
26.53000 469.487
26.54000 470.166
26.55000 470.738
26.56000 467.528
26.57000 464.445
26.58000 461.007
26.59000 456.453
26.60000 451.819
26.61000 449.403
26.62000 451.685
26.63000 454.120
26.64000 455.554
26.65000 460.301
26.66000 463.668
26.67000 467.161
26.68000 470.769
26.69000 474.238
26.70000 468.462
26.71000 457.109
26.72000 446.115
26.73000 446.439
26.74000 451.102
26.75000 455.501
26.76000 457.018
26.77000 457.744
26.78000 457.435
26.79000 450.414
26.80000 442.187
26.81000 435.421
26.82000 441.676
26.83000 447.996
26.84000 451.750
26.85000 448.331
26.86000 444.486
26.87000 443.736
26.88000 448.835
26.89000 454.072
26.90000 456.994
26.91000 446.527
26.92000 439.257
26.93000 433.203
26.94000 428.132
26.95000 423.182
26.96000 423.587
26.97000 426.870
26.98000 430.020
26.99000 431.359
27.00000 431.994
27.01000 432.582
27.02000 432.734
27.03000 432.780
27.04000 433.835
27.05000 440.614
27.06000 448.293
27.07000 454.453
27.08000 459.444
27.09000 463.398
27.10000 467.172
27.11000 470.499
27.12000 473.805
27.13000 472.832
27.14000 464.650
27.15000 456.353
27.16000 451.988
27.17000 449.062
27.18000 447.087
27.19000 446.381
27.20000 446.584
27.21000 446.817
27.22000 448.030
27.23000 449.713
27.24000 451.311
27.25000 448.453
27.26000 444.481
27.27000 441.124
27.28000 442.660
27.29000 445.251
27.30000 447.592
27.31000 448.687
27.32000 449.611
27.33000 450.333
27.34000 442.752
27.35000 436.186
27.36000 435.272
27.37000 446.950
27.38000 459.092
27.39000 461.022
27.40000 447.649
27.41000 434.127
27.42000 429.076
27.43000 432.262
27.44000 435.454
27.45000 438.993
27.46000 442.754
27.47000 446.582
27.48000 452.042
27.49000 458.199
27.50000 463.977
27.51000 459.154
27.52000 451.968
27.53000 445.594
27.54000 444.823
27.55000 445.117
27.56000 444.602
27.57000 440.522
27.58000 436.021
27.59000 432.610
27.60000 437.428
27.61000 441.631
27.62000 445.188
27.63000 447.457
27.64000 449.691
27.65000 451.539
27.66000 452.872
27.67000 454.202
27.68000 454.619
27.69000 454.256
27.70000 453.802
27.71000 448.574
27.72000 440.646
27.73000 433.248
27.74000 435.990
27.75000 442.609
27.76000 448.739
27.77000 447.367
27.78000 444.399
27.79000 441.370
27.80000 437.971
27.81000 434.510
27.82000 432.309
27.83000 435.027
27.84000 438.242
27.85000 440.602
27.86000 441.006
27.87000 441.238
27.88000 439.255
27.89000 433.340
27.90000 427.350
27.91000 426.302
27.92000 431.058
27.93000 435.810
27.94000 435.900
27.95000 432.494
27.96000 429.188
27.97000 429.584
27.98000 431.849
27.99000 433.820
28.00000 431.258
28.01000 427.148
28.02000 423.397
28.03000 429.404
28.04000 436.707
28.05000 443.821
28.06000 449.948
28.07000 455.929
28.08000 460.203
28.09000 458.546
28.10000 456.383
28.11000 454.849
28.12000 442.072
28.13000 432.000
28.14000 427.520
28.15000 431.873
28.16000 436.335
28.17000 435.791
28.18000 430.080
28.19000 424.402
28.20000 424.761
28.21000 429.105
28.22000 433.408
28.23000 436.610
28.24000 439.315
28.25000 441.691
28.26000 439.863
28.27000 436.755
28.28000 433.964
28.29000 432.955
28.30000 432.386
28.31000 432.645
28.32000 436.761
28.33000 441.363
28.34000 443.870
28.35000 439.895
28.36000 435.460
28.37000 432.429
28.38000 428.195
28.39000 424.999
28.40000 426.570
28.41000 434.827
28.42000 443.126
28.43000 444.274
28.44000 438.950
28.45000 433.679
28.46000 429.850
28.47000 426.943
28.48000 424.059
28.49000 421.651
28.50000 419.434
28.51000 417.946
28.52000 424.266
28.53000 432.702
28.54000 440.147
28.55000 434.863
28.56000 428.359
28.57000 422.606
28.58000 419.946
28.59000 417.621
28.60000 416.075
28.61000 416.676
28.62000 417.401
28.63000 417.877
28.64000 430.505
28.65000 439.999
28.66000 441.235
28.67000 432.221
28.68000 423.207
28.69000 423.317
28.70000 430.708
28.71000 437.987
28.72000 446.500
28.73000 455.391
28.74000 463.699
28.75000 462.099
28.76000 456.941
28.77000 451.389
28.78000 442.248
28.79000 432.243
28.80000 423.580
28.81000 423.322
28.82000 424.211
28.83000 425.931
28.84000 430.694
28.85000 435.738
28.86000 436.731
28.87000 427.740
28.88000 418.287
28.89000 412.349
28.90000 413.633
28.91000 414.641
28.92000 418.088
28.93000 424.203
28.94000 430.289
28.95000 432.122
28.96000 430.950
28.97000 429.804
28.98000 425.141
28.99000 419.066
29.00000 413.462
29.01000 414.401
29.02000 417.437
29.03000 420.554
29.04000 424.306
29.05000 428.194
29.06000 431.491
29.07000 434.025
29.08000 436.064
29.09000 437.800
29.10000 438.552
29.11000 439.228
29.12000 437.877
29.13000 432.063
29.14000 426.089
29.15000 422.512
29.16000 424.824
29.17000 426.503
29.18000 425.708
29.19000 422.541
29.20000 419.401
29.21000 418.373
29.22000 418.669
29.23000 418.957
29.24000 423.358
29.25000 429.187
29.26000 434.406
29.27000 432.558
29.28000 428.694
29.29000 426.532
29.30000 435.924
29.31000 447.484
29.32000 457.069
29.33000 445.526
29.34000 433.964
29.35000 427.435
29.36000 435.521
29.37000 444.537
29.38000 449.229
29.39000 445.427
29.40000 441.399
29.41000 439.110
29.42000 430.181
29.43000 423.947
29.44000 422.240
29.45000 424.350
29.46000 426.391
29.47000 424.908
29.48000 421.456
29.49000 418.134
29.50000 414.601
29.51000 411.211
29.52000 408.113
29.53000 407.871
29.54000 408.353
29.55000 409.185
29.56000 412.089
29.57000 415.334
29.58000 417.959
29.59000 426.533
29.60000 433.990
29.61000 438.026
29.62000 433.197
29.63000 427.912
29.64000 424.292
29.65000 423.591
29.66000 422.944
29.67000 422.596
29.68000 419.788
29.69000 417.883
29.70000 418.902
29.71000 422.101
29.72000 425.227
29.73000 425.787
29.74000 425.069
29.75000 424.384
29.76000 423.135
29.77000 421.800
29.78000 420.895
29.79000 423.585
29.80000 427.085
29.81000 430.849
29.82000 435.995
29.83000 441.339
29.84000 445.549
29.85000 439.270
29.86000 433.534
29.87000 429.961
29.88000 431.395
29.89000 433.031
29.90000 435.585
29.91000 439.570
29.92000 443.573
29.93000 445.591
29.94000 447.662
29.95000 449.067
29.96000 452.394
29.97000 456.993
29.98000 461.499
29.99000 463.556
30.00000 464.522
30.01000 465.432
30.02000 463.138
30.03000 460.157
30.04000 458.310
30.05000 464.660
30.06000 472.636
30.07000 478.540
30.08000 474.924
30.09000 470.126
30.10000 466.453
30.11000 464.336
30.12000 462.751
30.13000 461.447
30.14000 460.725
30.15000 460.020
30.16000 459.522
30.17000 459.307
30.18000 459.094
30.19000 458.030
30.20000 456.206
30.21000 454.326
30.22000 448.990
30.23000 441.622
30.24000 434.606
30.25000 434.879
30.26000 438.048
30.27000 440.995
30.28000 436.956
30.29000 431.618
30.30000 427.418
30.31000 430.371
30.32000 434.573
30.33000 436.707
30.34000 430.435
30.35000 423.266
30.36000 417.945
30.37000 431.044
30.38000 442.035
30.39000 448.450
30.40000 446.429
30.41000 444.223
30.42000 442.628
30.43000 441.783
30.44000 440.942
30.45000 438.715
30.46000 435.414
30.47000 432.238
30.48000 434.220
30.49000 438.907
30.50000 443.445
30.51000 445.507
30.52000 446.692
30.53000 447.779
30.54000 441.243
30.55000 433.806
30.56000 429.185
30.57000 440.085
30.58000 453.355
30.59000 462.667
30.60000 457.682
30.61000 451.405
30.62000 446.899
30.63000 442.984
30.64000 440.010
30.65000 439.151
30.66000 441.767
30.67000 444.433
30.68000 450.087
30.69000 458.963
30.70000 467.799
30.71000 469.254
30.72000 465.600
30.73000 462.105
30.74000 463.389
30.75000 466.910
30.76000 470.582
30.77000 476.316
30.78000 482.703
30.79000 488.471
30.80000 488.386
30.81000 487.230
30.82000 485.094
30.83000 478.194
30.84000 470.663
30.85000 466.677
30.86000 474.090
30.87000 482.366
30.88000 488.095
30.89000 502.565
30.90000 513.681
30.91000 520.670
30.92000 521.632
30.93000 522.543
30.94000 527.564
30.95000 536.471
30.96000 545.304
30.97000 556.861
30.98000 569.864
30.99000 582.728
31.00000 592.375
31.01000 600.679
31.02000 609.973
31.03000 630.520
31.04000 654.238
31.05000 675.299
31.06000 706.539
31.07000 735.255
31.08000 768.469
31.09000 820.983
31.10000 875.701
31.11000 935.554
31.12000 1010.131
31.13000 1085.624
31.14000 1135.871
31.15000 1251.191
31.16000 1337.748
31.17000 1428.193
31.18000 1523.669
31.19000 1619.222
31.20000 1742.442
31.21000 1888.684
31.22000 2033.001
31.23000 2182.092
31.24000 2329.729
31.25000 2477.897
31.26000 2635.776
31.27000 2797.278
31.28000 2959.655
31.29000 3130.446
31.30000 3303.345
31.31000 3454.049
31.32000 3541.889
31.33000 3608.246
31.34000 3677.729
31.35000 3759.107
31.36000 3841.645
31.37000 3903.807
31.38000 3913.796
31.39000 3921.172
31.40000 3925.876
31.41000 3860.004
31.42000 3811.190
31.43000 3725.302
31.44000 3597.064
31.45000 3468.840
31.46000 3350.850
31.47000 3240.391
31.48000 3132.044
31.49000 2982.020
31.50000 2817.718
31.51000 2652.179
31.52000 2468.316
31.53000 2278.350
31.54000 2092.812
31.55000 1943.742
31.56000 1802.766
31.57000 1682.344
31.58000 1555.667
31.59000 1448.204
31.60000 1344.697
31.61000 1254.588
31.62000 1165.579
31.63000 1078.610
31.64000 996.310
31.65000 914.193
31.66000 864.193
31.67000 795.824
31.68000 746.836
31.69000 702.079
31.70000 661.566
31.71000 621.192
31.72000 593.663
31.73000 574.520
31.74000 555.879
31.75000 546.183
31.76000 540.688
31.77000 535.078
31.78000 528.043
31.79000 520.585
31.80000 512.499
31.81000 499.941
31.82000 486.508
31.83000 475.282
31.84000 471.148
31.85000 468.437
31.86000 464.398
31.87000 456.355
31.88000 448.040
31.89000 442.043
31.90000 440.780
31.91000 439.655
31.92000 439.004
31.93000 442.247
31.94000 444.531
31.95000 441.761
31.96000 434.540
31.97000 427.520
31.98000 432.002
31.99000 443.167
32.00000 453.947
32.01000 447.875
32.02000 435.922
32.03000 424.666
32.04000 420.631
32.05000 418.503
32.06000 416.864
32.07000 418.260
32.08000 420.179
32.09000 421.744
32.10000 429.569
32.11000 436.505
32.12000 438.669
32.13000 427.977
32.14000 416.574
32.15000 412.804
32.16000 422.938
32.17000 433.364
32.18000 439.075
32.19000 416.946
32.20000 401.735
32.21000 398.819
32.22000 405.457
32.23000 411.895
32.24000 410.422
32.25000 404.851
32.26000 399.524
32.27000 395.480
32.28000 392.134
32.29000 389.241
32.30000 390.332
32.31000 392.358
32.32000 395.053
32.33000 401.391
32.34000 408.276
32.35000 413.752
32.36000 404.823
32.37000 396.599
32.38000 391.497
32.39000 393.905
32.40000 396.643
32.41000 395.989
32.42000 389.833
32.43000 383.601
32.44000 380.388
32.45000 385.897
32.46000 389.587
32.47000 390.774
32.48000 390.238
32.49000 389.787
32.50000 391.794
32.51000 394.937
32.52000 397.911
32.53000 393.989
32.54000 388.402
32.55000 383.162
32.56000 380.545
32.57000 378.471
32.58000 377.630
32.59000 382.688
32.60000 388.515
32.61000 393.022
32.62000 389.947
32.63000 387.062
32.64000 384.338
32.65000 381.963
32.66000 379.600
32.67000 380.458
32.68000 385.959
32.69000 391.496
32.70000 392.714
32.71000 389.905
32.72000 387.108
32.73000 385.126
32.74000 383.643
32.75000 381.998
32.76000 376.711
32.77000 369.921
32.78000 363.577
32.79000 363.822
32.80000 365.709
32.81000 369.145
32.82000 382.796
32.83000 398.310
32.84000 410.035
32.85000 405.711
32.86000 399.584
32.87000 394.987
32.88000 397.503
32.89000 399.807
32.90000 406.264
32.91000 420.683
32.92000 435.298
32.93000 448.892
32.94000 461.179
32.95000 473.447
32.96000 476.877
32.97000 473.065
32.98000 469.389
32.99000 472.063
33.00000 478.197
33.01000 484.108
33.02000 486.037
33.03000 486.499
33.04000 486.925
33.05000 480.736
33.06000 473.729
33.07000 466.331
33.08000 456.673
33.09000 446.655
33.10000 437.695
33.11000 432.716
33.12000 428.117
33.13000 424.777
33.14000 411.820
33.15000 401.495
33.16000 396.634
33.17000 401.110
33.18000 405.744
33.19000 402.799
33.20000 391.315
33.21000 379.864
33.22000 372.587
33.23000 368.378
33.24000 364.378
33.25000 367.309
33.26000 373.610
33.27000 379.271
33.28000 375.647
33.29000 368.969
33.30000 362.905
33.31000 357.531
33.32000 352.919
33.33000 349.551
33.34000 352.487
33.35000 356.299
33.36000 359.756
33.37000 362.023
33.38000 364.194
33.39000 365.716
33.40000 368.879
33.41000 371.319
33.42000 370.207
33.43000 363.694
33.44000 357.124
33.45000 352.315
33.46000 349.245
33.47000 346.196
33.48000 345.655
33.49000 346.715
33.50000 347.605
33.51000 344.238
33.52000 339.023
33.53000 334.005
33.54000 331.374
33.55000 329.442
33.56000 327.716
33.57000 342.412
33.58000 357.978
33.59000 370.832
33.60000 371.558
33.61000 370.826
33.62000 367.657
33.63000 357.223
33.64000 346.305
33.65000 338.938
33.66000 347.180
33.67000 353.645
33.68000 352.882
33.69000 342.371
33.70000 331.817
33.71000 329.742
33.72000 335.029
33.73000 340.255
33.74000 344.696
33.75000 348.591
33.76000 352.218
33.77000 350.561
33.78000 346.855
33.79000 343.245
33.80000 340.620
33.81000 338.251
33.82000 336.172
33.83000 333.004
33.84000 330.124
33.85000 329.005
33.86000 334.866
33.87000 341.445
33.88000 344.348
33.89000 337.471
33.90000 330.065
33.91000 325.272
33.92000 329.597
33.93000 332.897
33.94000 333.353
33.95000 330.419
33.96000 327.503
33.97000 330.141
33.98000 337.038
33.99000 343.819
34.00000 345.536
34.01000 344.692
34.02000 343.635
34.03000 339.193
34.04000 333.579
34.05000 328.730
34.06000 330.503
34.07000 333.807
34.08000 336.650
34.09000 336.640
34.10000 336.274
34.11000 335.521
34.12000 333.405
34.13000 331.169
34.14000 331.188
34.15000 336.563
34.16000 342.168
34.17000 345.635
34.18000 341.621
34.19000 338.665
34.20000 336.346
34.21000 334.694
34.22000 333.035
34.23000 330.485
34.24000 327.331
34.25000 324.250
34.26000 328.986
34.27000 336.931
34.28000 344.149
34.29000 341.872
34.30000 336.664
34.31000 332.245
34.32000 333.715
34.33000 336.391
34.34000 338.643
34.35000 338.612
34.36000 338.341
34.37000 337.453
34.38000 334.627
34.39000 331.661
34.40000 329.503
34.41000 329.057
34.42000 328.667
34.43000 328.437
34.44000 329.024
34.45000 329.443
34.46000 330.183
34.47000 331.219
34.48000 332.236
34.49000 331.982
34.50000 330.959
34.51000 329.968
34.52000 330.504
34.53000 331.600
34.54000 332.654
34.55000 333.233
34.56000 333.682
34.57000 334.173
34.58000 334.940
34.59000 335.755
34.60000 336.426
34.61000 337.445
34.62000 338.313
34.63000 337.235
34.64000 330.707
34.65000 323.855
34.66000 320.368
34.67000 323.249
34.68000 326.282
34.69000 327.976
34.70000 336.150
34.71000 341.813
34.72000 343.314
34.73000 341.446
34.74000 339.568
34.75000 337.294
34.76000 334.807
34.77000 332.420
34.78000 331.480
34.79000 331.093
34.80000 330.647
34.81000 329.654
34.82000 328.528
34.83000 327.919
34.84000 330.249
34.85000 333.043
34.86000 335.284
34.87000 325.928
34.88000 317.468
34.89000 312.736
34.90000 317.323
34.91000 322.353
34.92000 326.174
34.93000 327.954
34.94000 329.701
34.95000 330.620
34.96000 337.133
34.97000 341.516
34.98000 340.252
34.99000 334.940
35.00000 329.597
35.01000 323.257
35.02000 316.437
35.03000 309.962
35.04000 308.140
35.05000 307.853
35.06000 308.351
35.07000 315.106
35.08000 323.213
35.09000 329.892
35.10000 329.438
35.11000 328.005
35.12000 326.886
35.13000 323.091
35.14000 319.896
35.15000 318.430
35.16000 320.824
35.17000 323.361
35.18000 323.003
35.19000 318.300
35.20000 313.555
35.21000 317.870
35.22000 331.016
35.23000 343.956
35.24000 339.903
35.25000 325.032
35.26000 310.777
35.27000 311.545
35.28000 318.757
35.29000 325.525
35.30000 326.475
35.31000 325.806
35.32000 324.780
35.33000 321.287
35.34000 317.324
35.35000 314.472
35.36000 316.526
35.37000 319.160
35.38000 321.157
35.39000 319.303
35.40000 317.650
35.41000 313.482
35.42000 304.303
35.43000 294.987
35.44000 293.459
35.45000 302.300
35.46000 311.185
35.47000 317.073
35.48000 320.387
35.49000 323.600
35.50000 321.502
35.51000 316.396
35.52000 311.577
35.53000 312.285
35.54000 315.110
35.55000 317.726
35.56000 316.768
35.57000 315.078
35.58000 313.585
35.59000 313.284
35.60000 313.182
35.61000 312.332
35.62000 308.554
35.63000 304.481
35.64000 301.488
35.65000 308.786
35.66000 314.847
35.67000 317.705
35.68000 314.870
35.69000 311.925
35.70000 311.927
35.71000 315.396
35.72000 318.860
35.73000 315.494
35.74000 307.015
35.75000 298.831
35.76000 301.509
35.77000 309.675
35.78000 317.278
35.79000 316.132
35.80000 311.995
35.81000 308.219
35.82000 313.035
35.83000 319.048
35.84000 324.088
35.85000 323.987
35.86000 323.135
35.87000 321.997
35.88000 319.867
35.89000 317.653
35.90000 316.081
35.91000 308.329
35.92000 302.235
35.93000 298.207
35.94000 297.445
35.95000 296.724
35.96000 300.038
35.97000 307.524
35.98000 314.968
35.99000 315.560
36.00000 311.606
36.01000 307.780
36.02000 307.457
36.03000 308.713
36.04000 310.215
36.05000 314.854
36.06000 320.450
36.07000 325.477
36.08000 323.304
36.09000 320.131
36.10000 316.706
36.11000 312.106
36.12000 307.357
36.13000 304.413
36.14000 307.060
36.15000 310.105
36.16000 312.186
36.17000 305.765
36.18000 300.759
36.19000 300.214
36.20000 305.937
36.21000 311.703
36.22000 314.208
36.23000 313.759
36.24000 313.314
36.25000 310.077
36.26000 305.277
36.27000 300.693
36.28000 300.729
36.29000 302.626
36.30000 304.429
36.31000 305.213
36.32000 305.722
36.33000 306.171
36.34000 297.249
36.35000 288.114
36.36000 282.060
36.37000 288.720
36.38000 296.762
36.39000 303.229
36.40000 305.343
36.41000 307.204
36.42000 308.427
36.43000 302.144
36.44000 297.395
36.45000 298.177
36.46000 305.837
36.47000 313.490
36.48000 312.157
36.49000 303.640
36.50000 295.250
36.51000 299.012
36.52000 308.928
36.53000 317.909
36.54000 310.980
36.55000 298.328
36.56000 287.443
36.57000 292.706
36.58000 301.860
36.59000 309.788
36.60000 315.870
36.61000 320.801
36.62000 323.355
36.63000 317.202
36.64000 310.247
36.65000 305.520
36.66000 306.296
36.67000 307.327
36.68000 307.976
36.69000 296.804
36.70000 288.595
36.71000 285.782
36.72000 288.885
36.73000 292.008
36.74000 297.594
36.75000 304.923
36.76000 312.096
36.77000 311.172
36.78000 306.597
36.79000 302.382
36.80000 303.190
36.81000 305.609
36.82000 307.045
36.83000 300.764
36.84000 292.838
36.85000 286.114
36.86000 289.634
36.87000 293.744
36.88000 297.030
36.89000 297.625
36.90000 298.011
36.91000 297.627
36.92000 295.544
36.93000 293.399
36.94000 292.114
36.95000 312.635
36.96000 327.351
36.97000 328.856
36.98000 317.667
36.99000 306.563
37.00000 302.098
37.01000 301.807
37.02000 301.524
37.03000 303.827
37.04000 307.053
37.05000 310.006
37.06000 309.795
37.07000 308.680
37.08000 308.559
37.09000 315.202
37.10000 323.118
37.11000 329.683
37.12000 324.397
37.13000 318.890
37.14000 313.778
37.15000 309.813
37.16000 305.921
37.17000 301.525
37.18000 296.137
37.19000 290.723
37.20000 287.642
37.21000 299.152
37.22000 307.203
37.23000 305.967
37.24000 296.882
37.25000 288.016
37.26000 290.183
37.27000 298.525
37.28000 306.556
37.29000 304.656
37.30000 299.348
37.31000 294.526
37.32000 294.486
37.33000 295.660
37.34000 297.640
37.35000 304.405
37.36000 311.958
37.37000 318.072
37.38000 312.836
37.39000 307.656
37.40000 302.808
37.41000 298.822
37.42000 294.881
37.43000 292.439
37.44000 292.629
37.45000 292.868
37.46000 292.997
37.47000 284.845
37.48000 279.313
37.49000 282.311
37.50000 291.677
37.51000 300.778
37.52000 300.405
37.53000 295.303
37.54000 290.440
37.55000 293.077
37.56000 297.870
37.57000 301.756
37.58000 298.034
37.59000 292.599
37.60000 288.121
37.61000 288.629
37.62000 289.855
37.63000 290.821
37.64000 291.268
37.65000 291.591
37.66000 291.353
37.67000 289.811
37.68000 288.216
37.69000 289.170
37.70000 294.104
37.71000 299.086
37.72000 301.600
37.73000 295.749
37.74000 291.870
37.75000 291.484
37.76000 293.411
37.77000 295.264
37.78000 295.154
37.79000 294.169
37.80000 293.240
37.81000 288.263
37.82000 282.592
37.83000 278.536
37.84000 286.177
37.85000 296.147
37.86000 304.984
37.87000 308.618
37.88000 311.604
37.89000 313.891
37.90000 306.150
37.91000 299.487
37.92000 294.445
37.93000 292.758
37.94000 291.174
37.95000 290.749
37.96000 291.932
37.97000 293.124
37.98000 293.532
37.99000 293.237
38.00000 293.048
38.01000 299.203
38.02000 309.097
38.03000 318.477
38.04000 317.183
38.05000 311.640
38.06000 306.483
38.07000 300.617
38.08000 295.144
38.09000 290.793
38.10000 293.510
38.11000 297.463
38.12000 300.073
38.13000 297.212
38.14000 293.767
38.15000 291.208
38.16000 294.836
38.17000 297.929
38.18000 300.149
38.19000 300.757
38.20000 301.329
38.21000 303.508
38.22000 307.661
38.23000 311.811
38.24000 315.225
38.25000 318.046
38.26000 320.770
38.27000 319.484
38.28000 316.092
38.29000 313.003
38.30000 314.953
38.31000 318.693
38.32000 322.125
38.33000 324.484
38.34000 326.359
38.35000 328.197
38.36000 329.827
38.37000 331.425
38.38000 334.221
38.39000 341.352
38.40000 348.875
38.41000 354.279
38.42000 367.569
38.43000 378.008
38.44000 385.027
38.45000 386.419
38.46000 387.727
38.47000 392.116
38.48000 399.834
38.49000 407.518
38.50000 420.986
38.51000 438.308
38.52000 455.719
38.53000 475.853
38.54000 497.264
38.55000 518.407
38.56000 535.896
38.57000 552.226
38.58000 566.979
38.59000 581.586
38.60000 594.402
38.61000 609.723
38.62000 637.215
38.63000 666.325
38.64000 693.131
38.65000 712.513
38.66000 731.332
38.67000 744.367
38.68000 751.289
38.69000 756.338
38.70000 760.196
38.71000 762.313
38.72000 764.415
38.73000 767.628
38.74000 771.895
38.75000 776.127
38.76000 771.012
38.77000 760.295
38.78000 749.488
38.79000 736.598
38.80000 722.836
38.81000 708.013
38.82000 681.124
38.83000 650.828
38.84000 623.919
38.85000 596.745
38.86000 573.138
38.87000 551.924
38.88000 540.993
38.89000 531.240
38.90000 519.186
38.91000 500.523
38.92000 481.447
38.93000 468.743
38.94000 436.935
38.95000 413.031
38.96000 391.372
38.97000 372.624
38.98000 353.913
38.99000 347.319
39.00000 350.827
39.01000 354.289
39.02000 352.356
39.03000 347.573
39.04000 342.694
39.05000 336.053
39.06000 328.754
39.07000 321.401
39.08000 313.530
39.09000 305.529
39.10000 298.553
39.11000 296.876
39.12000 296.179
39.13000 296.030
39.14000 297.974
39.15000 300.122
39.16000 300.260
39.17000 295.241
39.18000 289.964
39.19000 286.595
39.20000 287.221
39.21000 287.727
39.22000 285.266
39.23000 279.410
39.24000 273.595
39.25000 275.622
39.26000 283.430
39.27000 291.089
39.28000 291.939
39.29000 289.524
39.30000 286.706
39.31000 277.909
39.32000 267.116
39.33000 258.022
39.34000 262.949
39.35000 270.993
39.36000 277.867
39.37000 278.248
39.38000 277.793
39.39000 278.614
39.40000 283.757
39.41000 289.255
39.42000 292.399
39.43000 290.148
39.44000 287.685
39.45000 286.184
39.46000 281.026
39.47000 277.311
39.48000 275.612
39.49000 275.939
39.50000 276.261
39.51000 276.141
39.52000 275.732
39.53000 275.334
39.54000 277.307
39.55000 280.183
39.56000 282.474
39.57000 277.551
39.58000 270.484
39.59000 264.257
39.60000 264.024
39.61000 264.966
39.62000 265.755
39.63000 265.718
39.64000 265.603
39.65000 266.959
39.66000 272.761
39.67000 278.866
39.68000 281.967
39.69000 278.925
39.70000 275.701
39.71000 273.834
39.72000 259.946
39.73000 250.162
39.74000 248.604
39.75000 254.301
39.76000 260.018
39.77000 266.876
39.78000 274.399
39.79000 281.665
39.80000 276.289
39.81000 266.541
39.82000 258.320
39.83000 265.921
39.84000 277.707
39.85000 287.659
39.86000 286.212
39.87000 282.797
39.88000 280.010
39.89000 272.039
39.90000 265.072
39.91000 259.958
39.92000 259.842
39.93000 260.004
39.94000 262.488
39.95000 269.211
39.96000 276.023
39.97000 279.757
39.98000 272.173
39.99000 266.939
40.00000 261.563
40.01000 256.076
40.02000 250.704
40.03000 249.893
40.04000 251.447
40.05000 252.933
40.06000 260.477
40.07000 269.480
40.08000 276.858
40.09000 269.881
40.10000 259.533
40.11000 251.123
40.12000 253.264
40.13000 256.995
40.14000 259.963
40.15000 264.243
40.16000 267.786
40.17000 269.175
40.18000 265.373
40.19000 261.343
40.20000 258.473
40.21000 257.491
40.22000 256.536
40.23000 256.043
40.24000 270.066
40.25000 279.444
40.26000 280.041
40.27000 274.585
40.28000 269.218
40.29000 266.477
40.30000 264.953
40.31000 263.510
40.32000 262.045
40.33000 260.692
40.34000 259.265
40.35000 257.280
40.36000 255.179
40.37000 252.804
40.38000 249.114
40.39000 245.251
40.40000 242.263
40.41000 252.062
40.42000 260.593
40.43000 265.211
40.44000 261.411
40.45000 257.327
40.46000 253.199
40.47000 249.009
40.48000 244.819
40.49000 247.757
40.50000 257.350
40.51000 266.854
40.52000 269.972
40.53000 269.177
40.54000 268.140
40.55000 261.634
40.56000 252.868
40.57000 244.674
40.58000 246.048
40.59000 249.716
40.60000 253.368
40.61000 256.917
40.62000 260.448
40.63000 262.518
40.64000 258.394
40.65000 253.573
40.66000 249.954
40.67000 253.837
40.68000 257.229
40.69000 260.606
40.70000 263.957
40.71000 267.306
40.72000 266.940
40.73000 261.818
40.74000 256.686
40.75000 252.009
40.76000 247.720
40.77000 243.560
40.78000 245.390
40.79000 250.490
40.80000 255.340
40.81000 255.725
40.82000 254.462
40.83000 253.298
40.84000 253.390
40.85000 253.751
40.86000 254.280
40.87000 255.775
40.88000 257.425
40.89000 258.364
40.90000 256.624
40.91000 254.626
40.92000 253.175
40.93000 247.537
40.94000 243.042
40.95000 240.208
40.96000 240.213
40.97000 240.266
40.98000 240.471
40.99000 240.847
41.00000 241.222
41.01000 246.425
41.02000 255.068
41.03000 263.495
41.04000 264.749
41.05000 262.508
41.06000 260.149
41.07000 256.075
41.08000 251.436
41.09000 247.222
41.10000 247.488
41.11000 248.591
41.12000 249.970
41.13000 252.751
41.14000 255.727
41.15000 258.497
41.16000 260.576
41.17000 262.600
41.18000 264.019
41.19000 258.165
41.20000 253.525
41.21000 249.533
41.22000 246.527
41.23000 243.531
41.24000 245.565
41.25000 252.581
41.26000 259.548
41.27000 260.862
41.28000 258.561
41.29000 256.130
41.30000 250.441
41.31000 243.335
41.32000 237.068
41.33000 240.953
41.34000 247.819
41.35000 253.953
41.36000 250.785
41.37000 246.456
41.38000 242.407
41.39000 239.609
41.40000 236.962
41.41000 234.714
41.42000 233.655
41.43000 232.676
41.44000 232.016
41.45000 243.626
41.46000 252.530
41.47000 258.145
41.48000 259.317
41.49000 260.460
41.50000 258.111
41.51000 252.723
41.52000 247.395
41.53000 247.791
41.54000 251.389
41.55000 254.690
41.56000 252.135
41.57000 247.307
41.58000 242.997
41.59000 243.971
41.60000 246.324
41.61000 248.390
41.62000 241.948
41.63000 235.171
41.64000 230.716
41.65000 235.477
41.66000 241.189
41.67000 244.968
41.68000 243.594
41.69000 241.941
41.70000 240.871
41.71000 238.862
41.72000 237.378
41.73000 237.668
41.74000 240.077
41.75000 242.473
41.76000 240.904
41.77000 236.290
41.78000 231.754
41.79000 237.646
41.80000 248.511
41.81000 258.692
41.82000 258.007
41.83000 253.554
41.84000 248.801
41.85000 241.441
41.86000 233.478
41.87000 226.625
41.88000 231.245
41.89000 236.599
41.90000 241.422
41.91000 244.370
41.92000 247.154
41.93000 246.462
41.94000 237.496
41.95000 228.176
41.96000 222.404
41.97000 226.966
41.98000 230.344
41.99000 234.158
42.00000 238.432
42.01000 242.691
42.02000 245.287
42.03000 246.751
42.04000 248.181
42.05000 241.365
42.06000 231.236
42.07000 222.150
42.08000 226.724
42.09000 235.523
42.10000 243.354
42.11000 243.940
42.12000 243.041
42.13000 242.284
42.14000 242.709
42.15000 243.190
42.16000 243.410
42.17000 242.811
42.18000 242.151
42.19000 240.930
42.20000 238.516
42.21000 236.063
42.22000 234.617
42.23000 240.654
42.24000 244.954
42.25000 244.975
42.26000 241.055
42.27000 237.221
42.28000 239.082
42.29000 244.390
42.30000 249.532
42.31000 246.170
42.32000 239.702
42.33000 233.430
42.34000 229.298
42.35000 225.755
42.36000 222.628
42.37000 222.209
42.38000 222.277
42.39000 222.334
42.40000 223.719
42.41000 224.978
42.42000 226.646
42.43000 229.457
42.44000 232.337
42.45000 236.918
42.46000 244.727
42.47000 252.612
42.48000 257.019
42.49000 258.972
42.50000 260.303
42.51000 256.047
42.52000 247.256
42.53000 238.557
42.54000 233.955
42.55000 231.562
42.56000 229.265
42.57000 230.984
42.58000 233.960
42.59000 236.700
42.60000 237.239
42.61000 237.238
42.62000 236.735
42.63000 233.367
42.64000 229.547
42.65000 226.481
42.66000 228.785
42.67000 231.062
42.68000 233.678
42.69000 237.145
42.70000 240.652
42.71000 243.434
42.72000 244.990
42.73000 246.527
42.74000 247.336
42.75000 234.412
42.76000 225.701
42.77000 226.943
42.78000 235.332
42.79000 243.356
42.80000 239.565
42.81000 230.090
42.82000 221.091
42.83000 221.621
42.84000 224.974
42.85000 227.818
42.86000 226.590
42.87000 224.480
42.88000 223.776
42.89000 230.103
42.90000 237.396
42.91000 243.093
42.92000 239.039
42.93000 235.189
42.94000 233.838
42.95000 238.073
42.96000 242.516
42.97000 245.474
42.98000 246.198
42.99000 246.900
43.00000 243.780
43.01000 236.927
43.02000 230.182
43.03000 232.425
43.04000 240.399
43.05000 247.967
43.06000 245.584
43.07000 238.926
43.08000 232.676
43.09000 231.356
43.10000 231.455
43.11000 231.663
43.12000 232.619
43.13000 233.718
43.14000 234.983
43.15000 236.984
43.16000 239.071
43.17000 240.655
43.18000 236.285
43.19000 232.546
43.20000 229.375
43.21000 227.337
43.22000 225.330
43.23000 223.846
43.24000 223.059
43.25000 222.276
43.26000 219.971
43.27000 216.366
43.28000 212.912
43.29000 217.501
43.30000 226.654
43.31000 235.243
43.32000 232.948
43.33000 226.478
43.34000 220.485
43.35000 220.976
43.36000 222.923
43.37000 225.269
43.38000 230.021
43.39000 235.176
43.40000 238.598
43.41000 235.221
43.42000 231.155
43.43000 228.167
43.44000 230.584
43.45000 232.675
43.46000 233.099
43.47000 230.555
43.48000 227.954
43.49000 226.951
43.50000 227.830
43.51000 228.710
43.52000 228.576
43.53000 227.679
43.54000 226.850
43.55000 228.564
43.56000 231.564
43.57000 234.188
43.58000 230.939
43.59000 225.680
43.60000 220.877
43.61000 220.897
43.62000 221.893
43.63000 222.665
43.64000 222.245
43.65000 221.651
43.66000 222.092
43.67000 226.138
43.68000 230.492
43.69000 233.584
43.70000 233.385
43.71000 233.128
43.72000 232.583
43.73000 231.579
43.74000 230.569
43.75000 231.197
43.76000 233.523
43.77000 235.836
43.78000 235.124
43.79000 232.414
43.80000 229.609
43.81000 224.164
43.82000 217.526
43.83000 211.583
43.84000 214.566
43.85000 220.275
43.86000 225.405
43.87000 226.270
43.88000 226.272
43.89000 226.582
43.90000 228.330
43.91000 230.261
43.92000 230.876
43.93000 227.405
43.94000 223.642
43.95000 221.068
43.96000 218.264
43.97000 216.160
43.98000 217.354
43.99000 223.188
44.00000 229.053
44.01000 231.365
44.02000 230.451
44.03000 229.545
44.04000 231.760
44.05000 235.755
44.06000 239.501
44.07000 237.912
44.08000 234.171
44.09000 230.682
44.10000 229.914
44.11000 229.885
44.12000 229.859
44.13000 230.471
44.14000 231.096
44.15000 231.773
44.16000 232.664
44.17000 233.579
44.18000 235.044
44.19000 238.029
44.20000 241.103
44.21000 243.123
44.22000 235.919
44.23000 230.461
44.24000 227.517
44.25000 227.704
44.26000 227.901
44.27000 228.132
44.28000 228.392
44.29000 228.648
44.30000 230.751
44.31000 233.746
44.32000 236.523
44.33000 235.570
44.34000 233.274
44.35000 231.422
44.36000 233.642
44.37000 236.844
44.38000 239.619
44.39000 236.366
44.40000 232.800
44.41000 229.218
44.42000 225.580
44.43000 221.936
44.44000 219.671
44.45000 220.815
44.46000 222.118
44.47000 222.937
44.48000 226.468
44.49000 229.053
44.50000 232.165
44.51000 235.856
44.52000 239.511
44.53000 238.053
44.54000 232.970
44.55000 227.994
44.56000 229.839
44.57000 234.724
44.58000 239.512
44.59000 242.946
44.60000 245.945
44.61000 248.022
44.62000 242.843
44.63000 236.114
44.64000 230.404
44.65000 231.667
44.66000 233.519
44.67000 235.887
44.68000 239.945
44.69000 244.134
44.70000 249.389
44.71000 256.998
44.72000 264.692
44.73000 269.306
44.74000 270.771
44.75000 271.791
44.76000 273.742
44.77000 276.590
44.78000 279.474
44.79000 285.221
44.80000 292.771
44.81000 300.105
44.82000 308.568
44.83000 317.061
44.84000 324.993
44.85000 326.397
44.86000 325.932
44.87000 327.311
44.88000 341.263
44.89000 357.583
44.90000 371.123
44.91000 378.541
44.92000 384.081
44.93000 389.764
44.94000 395.863
44.95000 401.988
44.96000 412.491
44.97000 431.623
44.98000 450.986
44.99000 462.010
45.00000 468.153
45.01000 472.420
45.02000 476.333
45.03000 479.948
45.04000 483.626
45.05000 490.535
45.06000 499.256
45.07000 507.654
45.08000 504.631
45.09000 497.731
45.10000 491.000
45.11000 485.937
45.12000 481.299
45.13000 476.036
45.14000 467.059
45.15000 457.468
45.16000 449.702
45.17000 433.845
45.18000 420.278
45.19000 409.354
45.20000 405.303
45.21000 401.606
45.22000 393.048
45.23000 375.942
45.24000 358.676
45.25000 349.389
45.26000 345.416
45.27000 342.702
45.28000 339.270
45.29000 335.300
45.30000 331.186
45.31000 321.896
45.32000 310.018
45.33000 298.695
45.34000 295.380
45.35000 294.819
45.36000 293.518
45.37000 286.008
45.38000 277.096
45.39000 268.364
45.40000 260.570
45.41000 252.912
45.42000 246.872
45.43000 251.563
45.44000 256.048
45.45000 257.734
45.46000 252.918
45.47000 247.838
45.48000 245.010
45.49000 245.706
45.50000 246.445
45.51000 246.818
45.52000 250.044
45.53000 252.146
45.54000 248.635
45.55000 241.399
45.56000 234.237
45.57000 229.075
45.58000 224.804
45.59000 220.778
45.60000 220.127
45.61000 220.461
45.62000 220.678
45.63000 220.041
45.64000 219.234
45.65000 219.077
45.66000 221.914
45.67000 225.125
45.68000 227.586
45.69000 225.347
45.70000 223.319
45.71000 223.255
45.72000 227.264
45.73000 231.398
45.74000 231.241
45.75000 225.120
45.76000 218.964
45.77000 214.694
45.78000 212.118
45.79000 209.594
45.80000 210.198
45.81000 212.650
45.82000 215.049
45.83000 216.332
45.84000 217.170
45.85000 217.950
45.86000 215.043
45.87000 211.522
45.88000 208.253
45.89000 206.578
45.90000 205.183
45.91000 205.152
45.92000 210.694
45.93000 216.833
45.94000 221.394
45.95000 216.996
45.96000 213.179
45.97000 209.604
45.98000 206.473
45.99000 203.352
46.00000 201.246
46.01000 200.386
46.02000 199.531
46.03000 203.112
46.04000 210.165
46.05000 217.042
46.06000 216.590
46.07000 212.284
46.08000 208.110
46.09000 206.126
46.10000 204.921
46.11000 203.816
46.12000 205.255
46.13000 207.078
46.14000 208.890
46.15000 210.644
46.16000 212.388
46.17000 213.785
46.18000 213.923
46.19000 213.946
46.20000 213.963
46.21000 209.974
46.22000 206.783
46.23000 203.088
46.24000 198.564
46.25000 194.027
46.26000 194.420
46.27000 200.152
46.28000 205.859
46.29000 207.383
46.30000 205.995
46.31000 204.789
46.32000 209.125
46.33000 216.064
46.34000 222.203
46.35000 217.399
46.36000 209.121
46.37000 201.641
46.38000 207.386
46.39000 214.890
46.40000 220.960
46.41000 220.042
46.42000 218.193
46.43000 215.894
46.44000 212.144
46.45000 208.283
46.46000 205.607
46.47000 204.998
46.48000 204.594
46.49000 203.968
46.50000 203.014
46.51000 202.058
46.52000 200.631
46.53000 198.756
46.54000 196.897
46.55000 195.749
46.56000 195.056
46.57000 194.656
46.58000 201.050
46.59000 210.294
46.60000 218.674
46.61000 217.206
46.62000 212.954
46.63000 209.176
46.64000 208.857
46.65000 209.138
46.66000 208.794
46.67000 205.762
46.68000 202.420
46.69000 199.208
46.70000 196.366
46.71000 193.547
46.72000 191.669
46.73000 195.442
46.74000 198.343
46.75000 201.862
46.76000 206.184
46.77000 210.503
46.78000 211.136
46.79000 208.692
46.80000 206.279
46.81000 206.169
46.82000 207.302
46.83000 208.189
46.84000 204.563
46.85000 199.248
46.86000 194.813
46.87000 198.888
46.88000 205.102
46.89000 210.521
46.90000 209.365
46.91000 207.460
46.92000 205.569
46.93000 203.730
46.94000 201.896
46.95000 199.058
46.96000 193.638
46.97000 188.089
46.98000 184.545
46.99000 185.894
47.00000 186.940
47.01000 190.783
47.02000 197.835
47.03000 204.873
47.04000 208.882
47.05000 210.653
47.06000 212.390
47.07000 209.112
47.08000 203.566
47.09000 198.225
47.10000 195.924
47.11000 194.640
47.12000 193.684
47.13000 195.445
47.14000 197.812
47.15000 199.836
47.16000 197.699
47.17000 195.400
47.18000 193.900
47.19000 195.117
47.20000 196.558
47.21000 197.488
47.22000 197.246
47.23000 196.957
47.24000 196.781
47.25000 190.814
47.26000 186.502
47.27000 184.921
47.28000 186.092
47.29000 187.284
47.30000 190.551
47.31000 195.176
47.32000 199.682
47.33000 204.132
47.34000 208.351
47.35000 211.523
47.36000 201.764
47.37000 188.154
47.38000 176.839
47.39000 181.940
47.40000 190.268
47.41000 197.232
47.42000 198.389
47.43000 198.758
47.44000 198.459
47.45000 196.134
47.46000 193.671
47.47000 191.922
47.48000 191.638
47.49000 191.398
47.50000 191.259
47.51000 192.431
47.52000 193.258
47.53000 193.350
47.54000 192.794
47.55000 192.191
47.56000 188.868
47.57000 183.960
47.58000 179.218
47.59000 177.774
47.60000 177.636
47.61000 177.652
47.62000 179.258
47.63000 181.286
47.64000 183.479
47.65000 186.701
47.66000 190.102
47.67000 192.878
47.68000 195.774
47.69000 198.155
47.70000 198.254
47.71000 192.189
47.72000 185.781
47.73000 182.099
47.74000 183.397
47.75000 184.801
47.76000 185.571
47.77000 186.983
47.78000 187.962
47.79000 190.831
47.80000 195.172
47.81000 199.365
47.82000 197.597
47.83000 192.731
47.84000 188.077
47.85000 188.335
47.86000 190.184
47.87000 191.742
47.88000 190.732
47.89000 189.119
47.90000 187.330
47.91000 184.589
47.92000 181.704
47.93000 179.407
47.94000 178.446
47.95000 177.767
47.96000 176.226
47.97000 172.602
47.98000 168.886
47.99000 170.994
48.00000 182.586
48.01000 194.311
48.02000 200.366
48.03000 197.245
48.04000 195.152
48.05000 194.565
48.06000 195.018
48.07000 195.410
48.08000 193.993
48.09000 191.737
48.10000 189.602
48.11000 188.022
48.12000 186.730
48.13000 185.810
48.14000 187.737
48.15000 190.255
48.16000 192.250
48.17000 191.732
48.18000 190.885
48.19000 190.229
48.20000 190.064
48.21000 189.963
48.22000 188.919
48.23000 185.845
48.24000 182.703
48.25000 183.054
48.26000 188.460
48.27000 193.906
48.28000 194.193
48.29000 189.653
48.30000 185.130
48.31000 181.837
48.32000 179.298
48.33000 176.916
48.34000 178.085
48.35000 180.726
48.36000 183.194
48.37000 185.523
48.38000 187.602
48.39000 189.290
48.40000 188.393
48.41000 187.021
48.42000 185.602
48.43000 183.977
48.44000 182.329
48.45000 181.091
48.46000 182.857
48.47000 184.382
48.48000 185.117
48.49000 184.333
48.50000 183.511
48.51000 183.729
48.52000 185.281
48.53000 186.836
48.54000 185.437
48.55000 181.618
48.56000 177.856
48.57000 176.844
48.58000 177.335
48.59000 177.881
48.60000 179.431
48.61000 181.352
48.62000 183.123
48.63000 188.001
48.64000 193.060
48.65000 197.022
48.66000 194.640
48.67000 191.240
48.68000 188.753
48.69000 189.705
48.70000 190.988
48.71000 191.920
48.72000 189.390
48.73000 187.313
48.74000 184.091
48.75000 178.906
48.76000 173.688
48.77000 173.185
48.78000 178.015
48.79000 182.833
48.80000 187.057
48.81000 190.817
48.82000 194.501
48.83000 195.634
48.84000 195.521
48.85000 195.041
48.86000 189.191
48.87000 181.570
48.88000 174.645
48.89000 175.465
48.90000 177.694
48.91000 179.233
48.92000 177.269
48.93000 174.816
48.94000 173.893
48.95000 178.109
48.96000 182.740
48.97000 185.990
48.98000 178.999
48.99000 173.410
49.00000 170.690
49.01000 172.349
49.02000 174.054
49.03000 175.230
49.04000 175.879
49.05000 176.524
49.06000 176.213
49.07000 175.298
49.08000 174.442
49.09000 175.073
49.10000 176.352
49.11000 177.956
49.12000 183.490
49.13000 190.181
49.14000 196.161
49.15000 193.813
49.16000 190.360
49.17000 186.722
49.18000 182.257
49.19000 177.692
49.20000 173.963
49.21000 172.735
49.22000 171.675
49.23000 170.959
49.24000 177.128
49.25000 181.868
49.26000 183.268
49.27000 180.148
49.28000 177.006
49.29000 176.335
49.30000 177.819
49.31000 179.287
49.32000 181.038
49.33000 182.907
49.34000 184.613
49.35000 183.084
49.36000 180.296
49.37000 177.961
49.38000 180.237
49.39000 183.719
49.40000 186.776
49.41000 187.875
49.42000 188.532
49.43000 187.882
49.44000 182.035
49.45000 175.650
49.46000 172.745
49.47000 179.129
49.48000 186.019
49.49000 190.484
49.50000 179.097
49.51000 170.525
49.52000 167.134
49.53000 169.942
49.54000 172.761
49.55000 175.393
49.56000 177.881
49.57000 180.327
49.58000 180.568
49.59000 179.707
49.60000 178.749
49.61000 176.242
49.62000 173.197
49.63000 170.756
49.64000 173.565
49.65000 177.594
49.66000 181.061
49.67000 183.927
49.68000 186.279
49.69000 187.046
49.70000 182.217
49.71000 176.897
49.72000 172.780
49.73000 171.526
49.74000 170.397
49.75000 169.697
49.76000 174.279
49.77000 177.625
49.78000 181.889
49.79000 187.119
49.80000 192.275
49.81000 189.056
49.82000 180.125
49.83000 171.403
49.84000 170.225
49.85000 172.406
49.86000 174.541
49.87000 176.088
49.88000 177.452
49.89000 178.813
49.90000 180.151
49.91000 181.483
49.92000 182.605
49.93000 176.770
49.94000 171.149
49.95000 168.055
49.96000 172.913
49.97000 178.352
49.98000 180.731
49.99000 176.596
50.00000 172.246
50.01000 169.680
50.02000 170.570
50.03000 171.217
50.04000 173.100
50.05000 176.123
50.06000 179.084
50.07000 177.823
50.08000 174.003
50.09000 170.302
50.10000 172.775
50.11000 177.504
50.12000 181.680
50.13000 179.781
50.14000 176.206
50.15000 173.798
50.16000 178.996
50.17000 185.568
50.18000 190.979
50.19000 184.172
50.20000 177.458
50.21000 174.350
50.22000 181.371
50.23000 188.999
50.24000 193.237
50.25000 191.037
50.26000 188.683
50.27000 187.366
50.28000 188.381
50.29000 189.095
50.30000 192.195
50.31000 197.235
50.32000 202.190
50.33000 203.339
50.34000 202.431
50.35000 201.560
50.36000 197.454
50.37000 192.510
50.38000 188.400
50.39000 192.073
50.40000 197.654
50.41000 202.573
50.42000 203.724
50.43000 204.278
50.44000 204.723
50.45000 212.810
50.46000 219.946
50.47000 226.388
50.48000 231.089
50.49000 235.706
50.50000 240.539
50.51000 245.736
50.52000 250.939
50.53000 253.683
50.54000 236.289
50.55000 224.585
50.56000 230.194
50.57000 248.257
50.58000 265.825
50.59000 267.285
50.60000 260.983
50.61000 254.998
50.62000 258.789
50.63000 265.234
50.64000 271.569
50.65000 277.016
50.66000 282.272
50.67000 286.615
50.68000 286.383
50.69000 285.521
50.70000 284.848
50.71000 287.891
50.72000 290.555
50.73000 291.312
50.74000 287.803
50.75000 284.134
50.76000 281.724
50.77000 281.213
50.78000 280.720
50.79000 279.165
50.80000 276.572
50.81000 273.911
50.82000 265.578
50.83000 253.623
50.84000 241.982
50.85000 238.086
50.86000 237.524
50.87000 236.996
50.88000 240.211
50.89000 244.133
50.90000 246.601
50.91000 238.991
50.92000 229.453
50.93000 220.590
50.94000 214.718
50.95000 209.201
50.96000 205.014
50.97000 205.654
50.98000 206.405
50.99000 205.889
51.00000 202.839
51.01000 199.718
51.02000 198.258
51.03000 199.016
51.04000 199.785
51.05000 195.031
51.06000 185.547
51.07000 176.215
51.08000 174.994
51.09000 178.384
51.10000 181.864
51.11000 187.061
51.12000 192.918
51.13000 198.345
51.14000 194.117
51.15000 188.069
51.16000 183.014
51.17000 183.966
51.18000 185.927
51.19000 186.844
51.20000 183.660
51.21000 180.060
51.22000 177.413
51.23000 177.713
51.24000 178.065
51.25000 177.463
51.26000 175.159
51.27000 172.822
51.28000 171.841
51.29000 172.460
51.30000 173.081
51.31000 172.330
51.32000 170.549
51.33000 168.802
51.34000 168.344
51.35000 168.538
51.36000 168.809
51.37000 170.273
51.38000 172.145
51.39000 173.855
51.40000 176.698
51.41000 179.453
51.42000 181.211
51.43000 177.677
51.44000 173.367
51.45000 169.938
51.46000 169.580
51.47000 169.487
51.48000 169.420
51.49000 171.322
51.50000 172.832
51.51000 173.534
51.52000 172.955
51.53000 172.360
51.54000 175.429
51.55000 182.301
51.56000 189.135
51.57000 187.222
51.58000 179.519
51.59000 171.971
51.60000 168.683
51.61000 167.324
51.62000 165.913
51.63000 163.830
51.64000 161.541
51.65000 159.483
51.66000 163.097
51.67000 167.267
51.68000 170.615
51.69000 170.120
51.70000 169.136
51.71000 169.353
51.72000 173.303
51.73000 177.520
51.74000 180.406
51.75000 170.555
51.76000 162.875
51.77000 158.865
51.78000 160.030
51.79000 161.230
51.80000 160.307
51.81000 157.451
51.82000 154.622
51.83000 157.252
51.84000 163.030
51.85000 168.486
51.86000 167.052
51.87000 162.833
51.88000 158.893
51.89000 157.968
51.90000 157.864
51.91000 157.772
51.92000 161.129
51.93000 164.557
51.94000 167.225
51.95000 166.743
51.96000 165.918
51.97000 165.239
51.98000 164.963
51.99000 164.711
52.00000 164.546
52.01000 166.383
52.02000 167.770
52.03000 167.865
52.04000 166.346
52.05000 164.830
52.06000 165.888
52.07000 169.011
52.08000 172.088
52.09000 169.829
52.10000 164.876
52.11000 160.273
52.12000 161.664
52.13000 165.219
52.14000 168.329
52.15000 167.362
52.16000 165.408
52.17000 163.715
52.18000 161.216
52.19000 158.981
52.20000 157.418
52.21000 158.319
52.22000 159.449
52.23000 160.499
52.24000 161.349
52.25000 162.191
52.26000 162.720
52.27000 155.072
52.28000 149.445
52.29000 147.700
52.30000 150.224
52.31000 152.751
52.32000 155.480
52.33000 158.351
52.34000 161.161
52.35000 159.689
52.36000 156.316
52.37000 153.130
52.38000 152.563
52.39000 152.838
52.40000 153.026
52.41000 152.523
52.42000 151.872
52.43000 151.319
52.44000 155.610
52.45000 159.761
52.46000 162.032
52.47000 158.153
52.48000 153.795
52.49000 152.437
52.50000 157.715
52.51000 163.233
52.52000 166.545
52.53000 167.614
52.54000 168.358
52.55000 165.952
52.56000 160.508
52.57000 155.133
52.58000 155.254
52.59000 158.842
52.60000 162.327
52.61000 163.301
52.62000 163.212
52.63000 162.943
52.64000 160.567
52.65000 157.588
52.66000 154.962
52.67000 154.754
52.68000 155.002
52.69000 155.208
52.70000 151.303
52.71000 147.678
52.72000 146.580
52.73000 152.860
52.74000 159.614
52.75000 164.121
52.76000 164.191
52.77000 164.143
52.78000 164.115
52.79000 163.583
52.80000 163.214
52.81000 164.372
52.82000 166.826
52.83000 169.198
52.84000 167.363
52.85000 163.166
52.86000 159.123
52.87000 159.917
52.88000 162.385
52.89000 164.460
52.90000 162.659
52.91000 159.870
52.92000 157.790
52.93000 159.938
52.94000 162.786
52.95000 165.093
52.96000 159.943
52.97000 155.142
52.98000 153.249
52.99000 158.930
53.00000 165.004
53.01000 169.327
53.02000 170.569
53.03000 171.752
53.04000 172.389
53.05000 169.348
53.06000 167.274
53.07000 167.030
53.08000 168.156
53.09000 169.237
53.10000 168.660
53.11000 167.254
53.12000 165.913
53.13000 166.556
53.14000 167.776
53.15000 168.373
53.16000 163.720
53.17000 157.880
53.18000 153.077
53.19000 153.704
53.20000 155.115
53.21000 156.228
53.22000 159.031
53.23000 161.394
53.24000 162.184
53.25000 159.314
53.26000 156.296
53.27000 154.284
53.28000 153.852
53.29000 153.439
53.30000 153.229
53.31000 164.175
53.32000 171.428
53.33000 171.429
53.34000 166.608
53.35000 161.921
53.36000 160.816
53.37000 161.313
53.38000 161.782
53.39000 160.964
53.40000 159.859
53.41000 158.967
53.42000 159.621
53.43000 160.584
53.44000 161.330
53.45000 161.076
53.46000 160.697
53.47000 160.406
53.48000 156.015
53.49000 152.319
53.50000 150.436
53.51000 152.318
53.52000 154.316
53.53000 156.981
53.54000 160.571
53.55000 164.167
53.56000 163.814
53.57000 159.920
53.58000 156.106
53.59000 157.229
53.60000 161.270
53.61000 164.976
53.62000 161.683
53.63000 155.595
53.64000 149.928
53.65000 152.786
53.66000 157.440
53.67000 161.974
53.68000 165.746
53.69000 169.383
53.70000 171.619
53.71000 168.126
53.72000 164.018
53.73000 160.964
53.74000 162.788
53.75000 164.424
53.76000 164.141
53.77000 160.302
53.78000 156.384
53.79000 156.265
53.80000 160.822
53.81000 165.383
53.82000 167.478
53.83000 167.619
53.84000 167.751
53.85000 167.484
53.86000 167.005
53.87000 166.315
53.88000 162.070
53.89000 156.558
53.90000 151.499
53.91000 155.901
53.92000 161.841
53.93000 166.209
53.94000 161.867
53.95000 156.187
53.96000 151.909
53.97000 152.716
53.98000 153.987
53.99000 154.901
54.00000 148.428
54.01000 143.217
54.02000 141.284
54.03000 144.765
54.04000 148.327
54.05000 152.608
54.06000 157.669
54.07000 162.707
54.08000 166.114
54.09000 168.355
54.10000 170.455
54.11000 168.291
54.12000 164.122
54.13000 160.328
54.14000 161.686
54.15000 164.684
54.16000 167.393
54.17000 165.337
54.18000 162.644
54.19000 161.148
54.20000 165.492
54.21000 170.615
54.22000 173.818
54.23000 170.810
54.24000 167.329
54.25000 164.915
54.26000 160.503
54.27000 157.128
54.28000 155.393
54.29000 156.066
54.30000 156.760
54.31000 157.074
54.32000 157.027
54.33000 156.979
54.34000 155.544
54.35000 153.286
54.36000 151.072
54.37000 149.885
54.38000 149.130
54.39000 148.435
54.40000 148.439
54.41000 148.639
54.42000 148.818
54.43000 156.270
54.44000 163.908
54.45000 168.923
54.46000 162.622
54.47000 155.019
54.48000 149.967
54.49000 152.267
54.50000 155.029
54.51000 156.870
54.52000 157.686
54.53000 158.271
54.54000 159.397
54.55000 161.227
54.56000 163.060
54.57000 164.448
54.58000 165.465
54.59000 166.468
54.60000 162.007
54.61000 154.714
54.62000 147.849
54.63000 148.851
54.64000 152.803
54.65000 156.433
54.66000 156.945
54.67000 156.672
54.68000 156.433
54.69000 156.367
54.70000 156.335
54.71000 156.778
54.72000 159.044
54.73000 161.489
54.74000 162.442
54.75000 159.557
54.76000 156.477
54.77000 154.510
54.78000 157.437
54.79000 159.631
54.80000 162.824
54.81000 167.162
54.82000 171.464
54.83000 168.801
54.84000 160.985
54.85000 153.317
54.86000 151.522
54.87000 152.593
54.88000 153.756
54.89000 156.307
54.90000 159.323
54.91000 162.381
54.92000 165.791
54.93000 169.279
54.94000 172.261
54.95000 168.256
54.96000 164.041
54.97000 161.167
54.98000 162.855
54.99000 164.921
55.00000 166.151
55.01000 165.461
55.02000 164.696
55.03000 164.228
55.04000 160.621
55.05000 158.016
55.06000 159.102
55.07000 163.911
55.08000 168.667
55.09000 168.422
55.10000 164.893
55.11000 161.455
55.12000 155.582
55.13000 148.955
55.14000 143.384
55.15000 150.878
55.16000 162.270
55.17000 172.209
55.18000 171.734
55.19000 169.207
55.20000 167.094
55.21000 167.416
55.22000 167.932
55.23000 168.557
55.24000 169.513
55.25000 170.492
55.26000 171.510
55.27000 172.612
55.28000 173.716
55.29000 174.357
55.30000 169.112
55.31000 165.410
55.32000 165.536
55.33000 169.052
55.34000 172.513
55.35000 172.800
55.36000 171.234
55.37000 169.721
55.38000 171.245
55.39000 173.811
55.40000 176.424
55.41000 179.532
55.42000 182.771
55.43000 185.729
55.44000 186.932
55.45000 187.831
55.46000 188.565
55.47000 191.285
55.48000 193.682
55.49000 195.379
55.50000 195.179
55.51000 194.873
55.52000 197.409
55.53000 205.151
55.54000 213.004
55.55000 217.316
55.56000 213.490
55.57000 210.862
55.58000 213.134
55.59000 219.233
55.60000 225.419
55.61000 235.110
55.62000 246.626
55.63000 257.644
55.64000 266.735
55.65000 274.571
55.66000 283.037
55.67000 297.106
55.68000 312.495
55.69000 326.995
55.70000 336.638
55.71000 345.545
55.72000 352.637
55.73000 370.207
55.74000 385.128
55.75000 402.772
55.76000 426.999
55.77000 451.519
55.78000 473.880
55.79000 492.723
55.80000 511.517
55.81000 521.232
55.82000 540.185
55.83000 552.982
55.84000 567.946
55.85000 584.409
55.86000 600.689
55.87000 611.578
55.88000 619.962
55.89000 627.896
55.90000 641.183
55.91000 654.950
55.92000 666.587
55.93000 661.961
55.94000 653.945
55.95000 647.326
55.96000 647.430
55.97000 648.416
55.98000 649.180
55.99000 636.879
56.00000 626.336
56.01000 613.742
56.02000 596.719
56.03000 579.545
56.04000 566.252
56.05000 558.585
56.06000 550.964
56.07000 536.005
56.08000 514.171
56.09000 492.390
56.10000 474.346
56.11000 458.602
56.12000 442.765
56.13000 424.831
56.14000 406.027
56.15000 388.446
56.16000 367.786
56.17000 348.247
56.18000 330.574
56.19000 325.269
56.20000 322.234
56.21000 317.320
56.22000 304.405
56.23000 290.584
56.24000 280.199
56.25000 270.796
56.26000 263.492
56.27000 255.254
56.28000 245.215
56.29000 235.132
56.30000 227.211
56.31000 222.068
56.32000 216.941
56.33000 214.226
56.34000 213.503
56.35000 212.706
56.36000 208.369
56.37000 202.094
56.38000 195.919
56.39000 191.556
56.40000 187.864
56.41000 184.459
56.42000 181.291
56.43000 178.506
56.44000 176.148
56.45000 176.265
56.46000 176.781
56.47000 176.877
56.48000 175.388
56.49000 173.746
56.50000 172.552
56.51000 173.615
56.52000 174.519
56.53000 172.828
56.54000 166.680
56.55000 160.455
56.56000 158.521
56.57000 161.449
56.58000 164.371
56.59000 163.906
56.60000 160.993
56.61000 158.257
56.62000 161.495
56.63000 167.653
56.64000 173.124
56.65000 168.549
56.66000 160.652
56.67000 153.477
56.68000 150.709
56.69000 149.121
56.70000 147.926
56.71000 148.732
56.72000 149.818
56.73000 150.955
56.74000 152.262
56.75000 153.584
56.76000 154.512
56.77000 154.560
56.78000 154.571
56.79000 155.460
56.80000 157.690
56.81000 159.934
56.82000 159.575
56.83000 156.627
56.84000 153.699
56.85000 153.376
56.86000 154.720
56.87000 155.994
56.88000 155.480
56.89000 154.187
56.90000 153.205
56.91000 156.018
56.92000 159.949
56.93000 163.464
56.94000 159.758
56.95000 155.305
56.96000 152.347
56.97000 156.108
56.98000 160.682
56.99000 163.346
57.00000 160.285
57.01000 156.839
57.02000 154.510
57.03000 148.612
57.04000 144.143
57.05000 143.953
57.06000 149.568
57.07000 155.210
57.08000 157.214
57.09000 156.040
57.10000 154.880
57.11000 152.066
57.12000 148.386
57.13000 144.725
57.14000 141.431
57.15000 138.280
57.16000 135.723
57.17000 139.253
57.18000 144.378
57.19000 148.877
57.20000 148.539
57.21000 147.539
57.22000 146.566
57.23000 145.704
57.24000 144.853
57.25000 144.526
57.26000 145.600
57.27000 146.751
57.28000 147.497
57.29000 142.622
57.30000 138.968
57.31000 139.711
57.32000 145.723
57.33000 151.733
57.34000 154.686
57.35000 155.282
57.36000 155.869
57.37000 154.706
57.38000 152.713
57.39000 150.717
57.40000 148.686
57.41000 146.643
57.42000 144.804
57.43000 144.753
57.44000 145.117
57.45000 145.431
57.46000 148.377
57.47000 151.204
57.48000 152.249
57.49000 146.980
57.50000 141.157
57.51000 138.431
57.52000 143.100
57.53000 148.088
57.54000 151.182
57.55000 147.262
57.56000 144.374
57.57000 144.180
57.58000 146.825
57.59000 149.442
57.60000 148.834
57.61000 146.022
57.62000 143.276
57.63000 141.258
57.64000 139.646
57.65000 138.405
57.66000 142.053
57.67000 147.217
57.68000 151.465
57.69000 148.828
57.70000 144.776
57.71000 141.361
57.72000 136.709
57.73000 132.692
57.74000 130.154
57.75000 132.283
57.76000 134.754
57.77000 138.597
57.78000 145.367
57.79000 152.234
57.80000 156.289
57.81000 147.056
57.82000 140.463
57.83000 136.909
57.84000 136.166
57.85000 135.473
57.86000 138.242
57.87000 143.115
57.88000 147.836
57.89000 149.208
57.90000 149.207
57.91000 149.000
57.92000 146.520
57.93000 143.413
57.94000 140.616
57.95000 139.854
57.96000 139.459
57.97000 139.134
57.98000 139.387
57.99000 139.648
58.00000 140.802
58.01000 144.467
58.02000 148.284
58.03000 151.929
58.04000 155.248
58.05000 158.559
58.06000 160.412
58.07000 154.249
58.08000 149.962
58.09000 146.541
58.10000 143.825
58.11000 141.182
58.12000 141.840
58.13000 144.284
58.14000 146.630
58.15000 142.922
58.16000 137.381
58.17000 132.345
58.18000 132.017
58.19000 132.846
58.20000 133.412
58.21000 132.480
58.22000 131.311
58.23000 130.372
58.24000 132.582
58.25000 134.614
58.26000 136.284
58.27000 137.043
58.28000 137.759
58.29000 136.770
58.30000 132.889
58.31000 128.961
58.32000 126.887
58.33000 130.103
58.34000 132.280
58.35000 133.087
58.36000 132.905
58.37000 132.740
58.38000 133.152
58.39000 133.841
58.40000 134.496
58.41000 135.890
58.42000 137.402
58.43000 139.043
58.44000 141.723
58.45000 144.629
58.46000 146.171
58.47000 140.858
58.48000 134.601
58.49000 129.708
58.50000 132.814
58.51000 135.801
58.52000 139.414
58.53000 144.429
58.54000 149.497
58.55000 149.178
58.56000 140.730
58.57000 132.200
58.58000 131.090
58.59000 137.255
58.60000 143.362
58.61000 144.576
58.62000 142.660
58.63000 140.724
58.64000 138.297
58.65000 135.660
58.66000 133.184
58.67000 136.508
58.68000 141.079
58.69000 144.946
58.70000 143.921
58.71000 141.958
58.72000 139.821
58.73000 136.905
58.74000 133.896
58.75000 131.612
58.76000 129.279
58.77000 127.444
58.78000 127.853
58.79000 132.760
58.80000 137.792
58.81000 140.828
58.82000 141.192
58.83000 141.543
58.84000 141.204
58.85000 140.272
58.86000 139.285
58.87000 135.354
58.88000 129.745
58.89000 124.421
58.90000 124.617
58.91000 126.938
58.92000 129.088
58.93000 131.310
58.94000 133.326
58.95000 135.570
58.96000 139.199
58.97000 143.062
58.98000 145.692
58.99000 143.471
59.00000 140.755
59.01000 138.758
59.02000 136.595
59.03000 134.915
59.04000 132.518
59.05000 128.844
59.06000 125.144
59.07000 124.246
59.08000 126.664
59.09000 129.081
59.10000 132.674
59.11000 137.132
59.12000 141.416
59.13000 139.173
59.14000 133.616
59.15000 128.506
59.16000 130.398
59.17000 134.695
59.18000 138.621
59.19000 140.229
59.20000 141.185
59.21000 141.444
59.22000 138.004
59.23000 134.019
59.24000 132.356
59.25000 138.807
59.26000 145.958
59.27000 151.041
59.28000 145.183
59.29000 140.373
59.30000 137.587
59.31000 138.017
59.32000 138.489
59.33000 140.115
59.34000 142.941
59.35000 145.751
59.36000 145.338
59.37000 142.784
59.38000 140.446
59.39000 144.137
59.40000 150.560
59.41000 156.213
59.42000 151.921
59.43000 144.582
59.44000 137.983
59.45000 133.361
59.46000 129.665
59.47000 127.610
59.48000 133.252
59.49000 139.874
59.50000 143.429
59.51000 137.432
59.52000 130.750
59.53000 126.173
59.54000 127.805
59.55000 129.177
59.56000 131.317
59.57000 134.543
59.58000 137.776
59.59000 140.436
59.60000 142.573
59.61000 144.690
59.62000 141.793
59.63000 136.012
59.64000 130.412
59.65000 128.732
59.66000 128.638
59.67000 128.492
59.68000 127.783
59.69000 126.920
59.70000 126.157
59.71000 125.620
59.72000 125.191
59.73000 125.384
59.74000 128.158
59.75000 131.214
59.76000 132.919
59.77000 130.870
59.78000 128.601
59.79000 127.108
59.80000 134.117
59.81000 139.424
59.82000 139.081
59.83000 131.676
59.84000 124.263
59.85000 121.462
59.86000 122.369
59.87000 123.262
59.88000 128.785
59.89000 136.545
59.90000 143.714
59.91000 140.723
59.92000 134.059
59.93000 128.255
59.94000 130.364
59.95000 134.389
59.96000 137.878
59.97000 138.120
59.98000 137.895
59.99000 137.702
60.00000 137.622
60.01000 137.553
60.02000 137.283
60.03000 136.513
60.04000 135.719
60.05000 135.219
60.06000 131.513
60.07000 128.795
60.08000 127.735
60.09000 128.503
60.10000 129.264
60.11000 128.909
60.12000 127.759
60.13000 126.634
60.14000 127.554
60.15000 129.374
60.16000 131.100
60.17000 131.503
60.18000 131.479
60.19000 131.707
60.20000 133.928
60.21000 136.576
60.22000 138.825
60.23000 139.392
60.24000 139.676
60.25000 139.895
60.26000 139.902
60.27000 139.893
60.28000 138.421
60.29000 133.708
60.30000 128.877
60.31000 125.975
60.32000 127.814
60.33000 129.153
60.34000 129.513
60.35000 128.926
60.36000 128.366
60.37000 129.967
60.38000 132.933
60.39000 135.816
60.40000 137.746
60.41000 139.195
60.42000 140.423
60.43000 139.068
60.44000 136.972
60.45000 135.044
60.46000 134.276
60.47000 133.727
60.48000 133.271
60.49000 134.040
60.50000 134.795
60.51000 135.283
60.52000 134.996
60.53000 134.658
60.54000 134.542
60.55000 134.866
60.56000 135.202
60.57000 135.393
60.58000 135.344
60.59000 135.306
60.60000 133.401
60.61000 129.912
60.62000 126.516
60.63000 127.928
60.64000 132.044
60.65000 136.009
60.66000 135.461
60.67000 133.335
60.68000 131.311
60.69000 130.288
60.70000 129.522
60.71000 128.967
60.72000 129.679
60.73000 130.602
60.74000 131.349
60.75000 129.002
60.76000 126.838
60.77000 126.709
60.78000 131.894
60.79000 137.355
60.80000 141.182
60.81000 142.126
60.82000 143.016
60.83000 143.496
60.84000 138.387
60.85000 134.885
60.86000 130.900
60.87000 126.552
60.88000 122.293
60.89000 121.253
60.90000 121.827
60.91000 122.374
60.92000 126.874
60.93000 132.293
60.94000 137.381
60.95000 139.685
60.96000 141.357
60.97000 142.398
60.98000 140.127
60.99000 137.377
61.00000 135.207
61.01000 136.193
61.02000 137.198
61.03000 137.333
61.04000 135.441
61.05000 133.466
61.06000 132.338
61.07000 132.541
61.08000 132.760
61.09000 132.871
61.10000 133.981
61.11000 134.740
61.12000 137.186
61.13000 140.756
61.14000 144.167
61.15000 143.310
61.16000 140.540
61.17000 137.929
61.18000 142.090
61.19000 147.778
61.20000 152.561
61.21000 150.753
61.22000 147.625
61.23000 144.015
61.24000 138.170
61.25000 132.045
61.26000 127.346
61.27000 139.317
61.28000 149.701
61.29000 153.078
61.30000 141.875
61.31000 130.221
61.32000 124.987
61.33000 128.706
61.34000 132.483
61.35000 134.479
61.36000 134.873
61.37000 135.261
61.38000 135.264
61.39000 135.040
61.40000 134.948
61.41000 137.609
61.42000 141.373
61.43000 144.876
61.44000 142.101
61.45000 138.063
61.46000 135.176
61.47000 139.589
61.48000 145.287
61.49000 150.952
61.50000 156.480
61.51000 161.994
61.52000 166.095
61.53000 175.078
61.54000 182.282
61.55000 190.531
61.56000 200.718
61.57000 210.949
61.58000 222.625
61.59000 236.086
61.60000 249.527
61.61000 262.392
61.62000 274.744
61.63000 287.012
61.64000 295.708
61.65000 302.521
61.66000 309.420
61.67000 317.777
61.68000 326.653
61.69000 334.803
61.70000 332.738
61.71000 328.718
61.72000 325.139
61.73000 324.015
61.74000 323.268
61.75000 321.045
61.76000 313.455
61.77000 305.374
61.78000 299.562
61.79000 284.563
61.80000 272.759
61.81000 261.059
61.82000 249.529
61.83000 238.002
61.84000 223.148
61.85000 204.678
61.86000 186.288
61.87000 173.325
61.88000 164.270
61.89000 155.460
61.90000 154.136
61.91000 156.338
61.92000 158.204
61.93000 155.434
61.94000 151.186
61.95000 147.347
61.96000 143.845
61.97000 140.827
61.98000 138.777
61.99000 141.455
62.00000 144.767
62.01000 147.804
62.02000 149.952
62.03000 152.033
62.04000 153.476
62.05000 152.546
62.06000 151.783
62.07000 150.002
62.08000 146.724
62.09000 143.433
62.10000 144.199
62.11000 148.830
62.12000 153.424
62.13000 151.087
62.14000 144.544
62.15000 138.263
62.16000 138.129
62.17000 140.581
62.18000 142.722
62.19000 141.302
62.20000 138.871
62.21000 136.710
62.22000 138.756
62.23000 141.211
62.24000 142.921
62.25000 141.411
62.26000 139.530
62.27000 138.790
62.28000 141.344
62.29000 144.105
62.30000 145.947
62.31000 147.526
62.32000 148.690
62.33000 149.408
62.34000 149.547
62.35000 149.684
62.36000 150.423
62.37000 151.668
62.38000 152.897
62.39000 148.500
62.40000 141.176
62.41000 134.282
62.42000 135.332
62.43000 139.367
62.44000 143.136
62.45000 144.336
62.46000 144.887
62.47000 145.368
62.48000 143.423
62.49000 141.419
62.50000 139.786
62.51000 139.577
62.52000 139.507
62.53000 139.489
62.54000 139.601
62.55000 139.719
62.56000 139.795
62.57000 146.371
62.58000 151.244
62.59000 151.776
62.60000 147.313
62.61000 142.864
62.62000 142.380
62.63000 144.834
62.64000 147.242
62.65000 147.572
62.66000 146.898
62.67000 146.179
62.68000 144.777
62.69000 143.147
62.70000 141.884
62.71000 143.664
62.72000 146.125
62.73000 148.229
62.74000 147.855
62.75000 147.242
62.76000 146.727
62.77000 146.543
62.78000 146.388
62.79000 145.886
62.80000 144.588
62.81000 143.258
62.82000 142.447
62.83000 143.954
62.84000 145.050
62.85000 146.023
62.86000 146.870
62.87000 147.725
62.88000 149.306
62.89000 151.365
62.90000 153.370
62.91000 154.312
62.92000 154.761
62.93000 154.983
62.94000 152.378
62.95000 148.928
62.96000 145.794
62.97000 144.926
62.98000 144.504
62.99000 144.152
63.00000 145.721
63.01000 147.221
63.02000 148.402
63.03000 148.610
63.04000 148.752
63.05000 149.028
63.06000 149.580
63.07000 150.141
63.08000 150.467
63.09000 155.336
63.10000 158.772
63.11000 160.113
63.12000 159.595
63.13000 159.041
63.14000 156.339
63.15000 152.383
63.16000 148.560
63.17000 150.525
63.18000 154.534
63.19000 158.112
63.20000 157.197
63.21000 155.086
63.22000 152.739
63.23000 148.916
63.24000 144.837
63.25000 141.504
63.26000 148.665
63.27000 155.437
63.28000 159.561
63.29000 156.507
63.30000 153.050
63.31000 152.094
63.32000 155.723
63.33000 159.450
63.34000 161.498
63.35000 157.927
63.36000 155.463
63.37000 153.910
63.38000 153.072
63.39000 152.223
63.40000 150.904
63.41000 149.342
63.42000 147.847
63.43000 148.306
63.44000 149.376
63.45000 150.401
63.46000 151.022
63.47000 151.547
63.48000 152.047
63.49000 152.414
63.50000 152.761
63.51000 153.037
63.52000 153.777
63.53000 154.407
63.54000 155.836
63.55000 159.199
63.56000 162.649
63.57000 161.650
63.58000 153.385
63.59000 145.017
63.60000 140.687
63.61000 148.190
63.62000 153.211
63.63000 153.173
63.64000 149.628
63.65000 146.331
63.66000 150.397
63.67000 157.890
63.68000 164.982
63.69000 161.736
63.70000 155.758
63.71000 150.489
63.72000 150.651
63.73000 151.948
63.74000 152.906
63.75000 152.236
63.76000 151.352
63.77000 150.667
63.78000 154.160
63.79000 157.183
63.80000 158.460
63.81000 155.961
63.82000 153.333
63.83000 155.391
63.84000 164.251
63.85000 173.166
63.86000 174.276
63.87000 168.055
63.88000 161.877
63.89000 158.806
63.90000 157.651
63.91000 156.577
63.92000 157.359
63.93000 158.911
63.94000 160.363
63.95000 158.719
63.96000 156.437
63.97000 154.201
63.98000 152.261
63.99000 150.375
64.00000 149.061
64.01000 150.184
64.02000 151.583
64.03000 152.634
64.04000 158.184
64.05000 162.740
64.06000 165.639
64.07000 165.339
64.08000 164.959
64.09000 162.678
64.10000 157.951
64.11000 153.221
64.12000 152.090
64.13000 153.931
64.14000 155.788
64.15000 158.448
64.16000 161.547
64.17000 164.501
64.18000 164.830
64.19000 164.185
64.20000 163.590
64.21000 158.756
64.22000 153.478
64.23000 149.457
64.24000 152.738
64.25000 157.195
64.26000 161.351
64.27000 164.369
64.28000 167.277
64.29000 169.393
64.30000 165.772
64.31000 162.766
64.32000 160.884
64.33000 160.936
64.34000 161.021
64.35000 162.688
64.36000 166.151
64.37000 169.604
64.38000 170.954
64.39000 170.766
64.40000 170.525
64.41000 168.494
64.42000 165.586
64.43000 162.975
64.44000 164.724
64.45000 167.915
64.46000 170.816
64.47000 171.158
64.48000 170.960
64.49000 170.096
64.50000 165.832
64.51000 161.090
64.52000 159.225
64.53000 167.049
64.54000 175.660
64.55000 181.710
64.56000 171.128
64.57000 162.626
64.58000 157.235
64.59000 156.607
64.60000 156.029
64.61000 157.458
64.62000 160.886
64.63000 164.291
64.64000 168.996
64.65000 174.462
64.66000 179.661
64.67000 178.068
64.68000 173.508
64.69000 169.491
64.70000 172.095
64.71000 176.653
64.72000 180.729
64.73000 177.292
64.74000 173.022
64.75000 170.206
64.76000 173.943
64.77000 178.476
64.78000 181.000
64.79000 177.499
64.80000 173.591
64.81000 170.949
64.82000 177.530
64.83000 182.631
64.84000 187.203
64.85000 191.054
64.86000 194.898
64.87000 195.409
64.88000 193.002
64.89000 190.623
64.90000 193.679
64.91000 199.731
64.92000 205.405
64.93000 203.554
64.94000 198.765
64.95000 194.682
64.96000 197.839
64.97000 202.898
64.98000 207.341
64.99000 203.452
65.00000 198.884
65.01000 195.822
65.02000 198.768
65.03000 202.337
65.04000 203.777
65.05000 199.512
65.06000 194.934
65.07000 191.963
65.08000 205.976
65.09000 216.495
65.10000 220.139
65.11000 215.525
65.12000 210.915
65.13000 211.316
65.14000 215.586
65.15000 219.786
65.16000 223.589
65.17000 227.070
65.18000 230.685
65.19000 236.454
65.20000 242.972
65.21000 248.635
65.22000 246.823
65.23000 243.269
65.24000 240.207
65.25000 252.217
65.26000 264.301
65.27000 274.445
65.28000 277.710
65.29000 280.369
65.30000 284.409
65.31000 291.750
65.32000 299.234
65.33000 303.877
65.34000 317.027
65.35000 326.572
65.36000 333.609
65.37000 337.994
65.38000 342.415
65.39000 351.051
65.40000 362.570
65.41000 373.822
65.42000 378.003
65.43000 378.894
65.44000 380.488
65.45000 391.372
65.46000 405.144
65.47000 418.583
65.48000 429.516
65.49000 439.934
65.50000 448.717
65.51000 449.601
65.52000 449.483
65.53000 447.915
65.54000 441.766
65.55000 435.280
65.56000 435.193
65.57000 448.774
65.58000 462.809
65.59000 471.102
65.60000 478.562
65.61000 483.826
65.62000 487.906
65.63000 490.888
65.64000 493.900
65.65000 499.020
65.66000 505.422
65.67000 511.625
65.68000 536.824
65.69000 568.057
65.70000 600.519
65.71000 646.570
65.72000 696.380
65.73000 747.220
65.74000 804.798
65.75000 863.599
65.76000 912.046
65.77000 984.005
65.78000 1045.371
65.79000 1104.905
65.80000 1159.273
65.81000 1213.330
65.82000 1253.243
65.83000 1266.193
65.84000 1278.490
65.85000 1285.379
65.86000 1322.181
65.87000 1347.706
65.88000 1351.488
65.89000 1337.529
65.90000 1323.553
65.91000 1308.818
65.92000 1293.672
65.93000 1279.130
65.94000 1231.544
65.95000 1175.700
65.96000 1118.834
65.97000 1052.375
65.98000 983.558
65.99000 913.488
66.00000 836.253
66.01000 757.879
66.02000 694.897
66.03000 627.294
66.04000 572.141
66.05000 522.613
66.06000 487.236
66.07000 452.543
66.08000 420.599
66.09000 393.328
66.10000 366.133
66.11000 351.763
66.12000 332.845
66.13000 320.038
66.14000 314.208
66.15000 313.414
66.16000 312.561
66.17000 309.751
66.18000 305.994
66.19000 302.425
66.20000 310.665
66.21000 321.847
66.22000 333.025
66.23000 344.168
66.24000 355.303
66.25000 364.774
66.26000 365.874
66.27000 365.816
66.28000 365.771
66.29000 383.011
66.30000 397.876
66.31000 410.313
66.32000 417.295
66.33000 424.073
66.34000 433.938
66.35000 448.470
66.36000 463.049
66.37000 470.322
66.38000 470.417
66.39000 470.661
66.40000 483.538
66.41000 504.513
66.42000 524.803
66.43000 528.117
66.44000 524.103
66.45000 520.333
66.46000 514.998
66.47000 509.715
66.48000 503.407
66.49000 489.951
66.50000 475.122
66.51000 462.773
66.52000 461.440
66.53000 461.424
66.54000 461.411
66.55000 434.398
66.56000 411.763
66.57000 392.376
66.58000 379.503
66.59000 366.813
66.60000 362.115
66.61000 368.135
66.62000 374.206
66.63000 368.809
66.64000 353.545
66.65000 338.413
66.66000 330.452
66.67000 326.580
66.68000 322.986
66.69000 324.804
66.70000 328.708
66.71000 332.328
66.72000 331.944
66.73000 330.665
66.74000 329.958
66.75000 332.721
66.76000 336.069
66.77000 338.068
66.78000 334.752
66.79000 330.892
66.80000 328.052
66.81000 333.590
66.82000 338.223
66.83000 340.374
66.84000 338.086
66.85000 335.710
66.86000 335.556
66.87000 338.033
66.88000 340.508
66.89000 343.685
66.90000 347.372
66.91000 351.043
66.92000 354.115
66.93000 356.881
66.94000 359.490
66.95000 359.627
66.96000 358.913
66.97000 358.261
66.98000 358.198
66.99000 358.262
67.00000 358.853
67.01000 362.254
67.02000 366.069
67.03000 370.097
67.04000 374.871
67.05000 379.710
67.06000 383.152
67.07000 382.073
67.08000 381.106
67.09000 382.258
67.10000 386.786
67.11000 391.358
67.12000 393.217
67.13000 392.249
67.14000 391.286
67.15000 392.921
67.16000 396.268
67.17000 399.561
67.18000 401.354
67.19000 402.467
67.20000 403.413
67.21000 402.206
67.22000 400.337
67.23000 398.657
67.24000 395.126
67.25000 391.703
67.26000 389.850
67.27000 395.369
67.28000 401.828
67.29000 407.378
67.30000 410.092
67.31000 412.602
67.32000 414.322
67.33000 412.859
67.34000 411.687
67.35000 415.317
67.36000 425.744
67.37000 436.215
67.38000 437.014
67.39000 428.976
67.40000 421.014
67.41000 419.049
67.42000 420.653
67.43000 422.367
67.44000 426.438
67.45000 431.464
67.46000 436.379
67.47000 440.082
67.48000 443.454
67.49000 446.434
67.50000 446.962
67.51000 447.040
67.52000 447.159
67.53000 447.454
67.54000 447.767
67.55000 449.964
67.56000 457.403
67.57000 465.151
67.58000 470.251
67.59000 480.052
67.60000 487.352
67.61000 487.672
67.62000 479.246
67.63000 470.819
67.64000 471.168
67.65000 478.584
67.66000 485.892
67.67000 489.019
67.68000 489.882
67.69000 490.800
67.70000 492.654
67.71000 494.848
67.72000 497.350
67.73000 502.691
67.74000 508.722
67.75000 513.951
67.76000 515.281
67.77000 515.893
67.78000 516.018
67.79000 514.344
67.80000 512.503
67.81000 512.499
67.82000 517.057
67.83000 521.830
67.84000 524.838
67.85000 537.446
67.86000 546.683
67.87000 549.546
67.88000 545.371
67.89000 541.239
67.90000 543.958
67.91000 551.560
67.92000 559.004
67.93000 563.695
67.94000 566.938
67.95000 569.492
67.96000 562.325
67.97000 552.018
67.98000 544.058
67.99000 554.675
68.00000 569.284
68.01000 581.693
68.02000 577.842
68.03000 572.753
68.04000 572.314
68.05000 587.150
68.06000 603.182
68.07000 614.496
68.08000 615.344
68.09000 615.809
68.10000 616.089
68.11000 620.207
68.12000 623.162
68.13000 631.212
68.14000 644.196
68.15000 656.974
68.16000 653.158
68.17000 638.840
68.18000 624.926
68.19000 621.059
68.20000 621.456
68.21000 622.856
68.22000 636.015
68.23000 652.559
68.24000 667.256
68.25000 669.283
68.26000 668.910
68.27000 668.600
68.28000 673.906
68.29000 678.839
68.30000 682.484
68.31000 682.356
68.32000 681.985
68.33000 689.417
68.34000 712.311
68.35000 735.624
68.36000 748.930
68.37000 755.372
68.38000 759.851
68.39000 768.288
68.40000 780.095
68.41000 791.765
68.42000 796.346
68.43000 796.934
68.44000 797.500
68.45000 802.164
68.46000 808.010
68.47000 814.118
68.48000 822.806
68.49000 832.154
68.50000 842.270
68.51000 856.980
68.52000 872.452
68.53000 884.995
68.54000 909.680
68.55000 930.785
68.56000 952.632
68.57000 976.421
68.58000 1000.311
68.59000 1029.710
68.60000 1068.842
68.61000 1108.159
68.62000 1129.362
68.63000 1210.925
68.64000 1266.742
68.65000 1316.362
68.66000 1361.320
68.67000 1406.839
68.68000 1472.766
68.69000 1548.949
68.70000 1621.604
68.71000 1689.392
68.72000 1750.750
68.73000 1813.493
68.74000 1887.943
68.75000 1965.050
68.76000 2038.387
68.77000 2091.915
68.78000 2142.571
68.79000 2182.566
68.80000 2279.970
68.81000 2362.040
68.82000 2447.996
68.83000 2543.023
68.84000 2638.423
68.85000 2749.179
68.86000 2884.091
68.87000 3019.297
68.88000 3087.815
68.89000 3569.223
68.90000 3894.390
68.91000 4502.897
68.92000 5300.411
68.93000 6135.896
68.94000 8000.925
68.95000 10327.810
68.96000 12522.054
68.97000 16857.373
68.98000 21423.607
68.99000 26171.428
69.00000 32245.709
69.01000 38585.906
69.02000 44870.715
69.03000 50898.914
69.04000 56894.887
69.05000 61496.055
69.06000 66066.391
69.07000 69676.391
69.08000 72536.102
69.09000 73831.945
69.10000 75079.055
69.11000 75926.906
69.12000 76217.102
69.13000 76503.445
69.14000 77045.203
69.15000 77816.352
69.16000 78585.836
69.17000 79252.328
69.18000 79857.719
69.19000 80402.539
69.20000 79672.375
69.21000 78431.406
69.22000 77275.828
69.23000 73904.945
69.24000 70316.563
69.25000 66693.586
69.26000 62850.809
69.27000 58969.277
69.28000 55184.941
69.29000 51799.324
69.30000 48456.688
69.31000 45969.445
69.32000 43716.250
69.33000 41973.766
69.34000 40525.047
69.35000 39622.695
69.36000 38732.629
69.37000 37661.730
69.38000 36367.320
69.39000 35074.617
69.40000 33043.891
69.41000 30438.895
69.42000 27825.676
69.43000 24865.232
69.44000 21721.193
69.45000 18600.049
69.46000 15864.485
69.47000 13266.849
69.48000 10881.498
69.49000 8869.683
69.50000 7154.631
69.51000 5563.184
69.52000 4659.463
69.53000 3861.827
69.54000 3160.072
69.55000 2807.668
69.56000 2487.242
69.57000 2256.629
69.58000 2084.315
69.59000 1954.424
69.60000 1841.413
69.61000 1756.373
69.62000 1671.754
69.63000 1589.610
69.64000 1510.159
69.65000 1431.054
69.66000 1387.673
69.67000 1369.612
69.68000 1350.932
69.69000 1313.245
69.70000 1266.591
69.71000 1220.749
69.72000 1186.113
69.73000 1155.053
69.74000 1126.967
69.75000 1098.140
69.76000 1072.633
69.77000 1049.646
69.78000 1038.997
69.79000 1030.001
69.80000 1016.675
69.81000 989.297
69.82000 960.843
69.83000 941.089
69.84000 927.342
69.85000 917.146
69.86000 905.527
69.87000 891.812
69.88000 878.080
69.89000 868.049
69.90000 861.555
69.91000 855.112
69.92000 842.196
69.93000 825.534
69.94000 809.273
69.95000 802.416
69.96000 799.522
69.97000 796.204
69.98000 788.013
69.99000 778.437
70.00000 769.923
