20.00000 568.523
20.01000 564.477
20.02000 559.852
20.03000 558.513
20.04000 569.982
20.05000 582.741
20.06000 592.104
20.07000 578.874
20.08000 567.735
20.09000 563.102
20.10000 569.989
20.11000 577.096
20.12000 578.620
20.13000 573.601
20.14000 568.585
20.15000 561.568
20.16000 553.100
20.17000 544.941
20.18000 548.125
20.19000 557.022
20.20000 565.123
20.21000 560.966
20.22000 552.632
20.23000 545.028
20.24000 544.618
20.25000 545.705
20.26000 547.170
20.27000 550.620
20.28000 554.359
20.29000 559.904
20.30000 571.713
20.31000 584.054
20.32000 592.803
20.33000 581.417
20.34000 572.126
20.35000 567.569
20.36000 570.474
20.37000 573.471
20.38000 570.702
20.39000 561.996
20.40000 553.340
20.41000 554.326
20.42000 561.660
20.43000 568.848
20.44000 572.057
20.45000 573.477
20.46000 574.890
20.47000 576.211
20.48000 577.505
20.49000 578.667
20.50000 573.779
20.51000 568.440
20.52000 563.845
20.53000 562.709
20.54000 562.008
20.55000 560.121
20.56000 554.573
20.57000 548.766
20.58000 544.799
20.59000 552.219
20.60000 558.036
20.61000 562.961
20.62000 566.638
20.63000 570.298
20.64000 561.829
20.65000 542.402
20.66000 523.167
20.67000 532.315
20.68000 557.789
20.69000 581.881
20.70000 576.757
20.71000 559.904
20.72000 544.946
20.73000 550.270
20.74000 561.078
20.75000 570.614
20.76000 574.214
20.77000 576.415
20.78000 577.376
20.79000 573.238
20.80000 568.550
20.81000 564.368
20.82000 561.584
20.83000 558.880
20.84000 557.107
20.85000 551.826
20.86000 547.884
20.87000 545.636
20.88000 545.485
20.89000 545.344
20.90000 546.213
20.91000 547.888
20.92000 549.538
20.93000 553.566
20.94000 558.693
20.95000 563.646
20.96000 565.642
20.97000 566.578
20.98000 566.571
20.99000 557.982
21.00000 547.334
21.01000 538.117
21.02000 547.337
21.03000 557.601
21.04000 562.772
21.05000 549.339
21.06000 534.198
21.07000 523.738
21.08000 524.795
21.09000 526.382
21.10000 527.379
21.11000 551.800
21.12000 569.707
21.13000 573.189
21.14000 560.922
21.15000 548.699
21.16000 543.674
21.17000 543.722
21.18000 543.770
21.19000 539.137
21.20000 532.566
21.21000 527.016
21.22000 535.597
21.23000 548.696
21.24000 560.142
21.25000 558.662
21.26000 554.437
21.27000 550.855
21.28000 550.143
21.29000 549.870
21.30000 549.713
21.31000 549.934
21.32000 550.184
21.33000 551.172
21.34000 553.782
21.35000 556.450
21.36000 558.046
21.37000 545.915
21.38000 537.216
21.39000 535.636
21.40000 540.868
21.41000 546.040
21.42000 546.576
21.43000 544.206
21.44000 541.906
21.45000 543.694
21.46000 547.031
21.47000 550.367
21.48000 553.689
21.49000 557.007
21.50000 560.072
21.51000 561.429
21.52000 562.465
21.53000 563.324
21.54000 568.543
21.55000 573.270
21.56000 575.783
21.57000 571.878
21.58000 567.565
21.59000 562.642
21.60000 556.524
21.61000 550.374
21.62000 546.881
21.63000 552.663
21.64000 556.715
21.65000 558.624
21.66000 558.730
21.67000 558.848
21.68000 559.522
21.69000 560.506
21.70000 561.454
21.71000 562.537
21.72000 563.600
21.73000 564.311
21.74000 561.577
21.75000 557.971
21.76000 555.630
21.77000 560.779
21.78000 567.158
21.79000 572.317
21.80000 583.006
21.81000 592.149
21.82000 600.762
21.83000 608.005
21.84000 615.178
21.85000 619.938
21.86000 620.477
21.87000 620.939
21.88000 621.187
21.89000 628.891
21.90000 634.148
21.91000 637.675
21.92000 639.915
21.93000 642.272
21.94000 648.807
21.95000 657.420
21.96000 665.626
21.97000 678.035
21.98000 690.846
21.99000 702.617
22.00000 705.698
22.01000 706.828
22.02000 707.035
22.03000 702.444
22.04000 697.167
22.05000 693.010
22.06000 699.792
22.07000 705.959
22.08000 709.279
22.09000 706.021
22.10000 702.499
22.11000 699.762
22.12000 698.245
22.13000 696.743
22.14000 695.986
22.15000 684.847
22.16000 677.412
22.17000 671.050
22.18000 665.395
22.19000 659.781
22.20000 655.253
22.21000 651.208
22.22000 647.397
22.23000 637.470
22.24000 626.708
22.25000 616.287
22.26000 608.332
22.27000 600.865
22.28000 593.415
22.29000 586.039
22.30000 578.674
22.31000 573.036
22.32000 570.810
22.33000 569.239
22.34000 566.612
22.35000 561.805
22.36000 556.932
22.37000 554.960
22.38000 556.997
22.39000 559.059
22.40000 559.494
22.41000 558.481
22.42000 557.400
22.43000 552.287
22.44000 544.806
22.45000 537.443
22.46000 532.504
22.47000 528.527
22.48000 524.828
22.49000 529.360
22.50000 535.438
22.51000 540.181
22.52000 536.550
22.53000 531.459
22.54000 528.883
22.55000 536.520
22.56000 545.242
22.57000 551.714
22.58000 556.162
22.59000 559.529
22.60000 555.602
22.61000 538.244
22.62000 520.594
22.63000 513.164
22.64000 518.228
22.65000 523.312
22.66000 523.249
22.67000 519.161
22.68000 515.199
22.69000 516.388
22.70000 520.275
22.71000 524.035
22.72000 525.700
22.73000 526.623
22.74000 527.469
22.75000 525.882
22.76000 523.953
22.77000 521.911
22.78000 519.244
22.79000 516.481
22.80000 513.885
22.81000 511.892
22.82000 509.954
22.83000 508.563
22.84000 510.767
22.85000 512.575
22.86000 515.686
22.87000 520.932
22.88000 526.209
22.89000 525.513
22.90000 518.386
22.91000 511.290
22.92000 512.025
22.93000 518.143
22.94000 524.019
22.95000 522.650
22.96000 517.897
22.97000 513.064
22.98000 507.160
22.99000 500.916
23.00000 495.279
23.01000 507.253
23.02000 521.023
23.03000 530.797
23.04000 521.213
23.05000 509.067
23.06000 501.498
23.07000 508.626
23.08000 516.863
23.09000 522.563
23.10000 518.837
23.11000 515.789
23.12000 515.999
23.13000 520.959
23.14000 525.958
23.15000 524.810
23.16000 517.862
23.17000 510.971
23.18000 511.826
23.19000 517.366
23.20000 522.724
23.21000 523.900
23.22000 523.331
23.23000 522.196
23.24000 514.637
23.25000 505.272
23.26000 496.958
23.27000 499.184
23.28000 502.802
23.29000 504.600
23.30000 498.606
23.31000 491.723
23.32000 489.743
23.33000 501.798
23.34000 514.725
23.35000 523.324
23.36000 519.458
23.37000 516.365
23.38000 513.178
23.39000 509.870
23.40000 506.573
23.41000 508.105
23.42000 513.650
23.43000 519.121
23.44000 521.646
23.45000 522.522
23.46000 523.097
23.47000 518.185
23.48000 511.229
23.49000 504.667
23.50000 501.885
23.51000 500.048
23.52000 498.448
23.53000 503.459
23.54000 508.657
23.55000 513.708
23.56000 518.202
23.57000 522.643
23.58000 524.090
23.59000 517.887
23.60000 511.301
23.61000 507.104
23.62000 506.567
23.63000 506.224
23.64000 504.997
23.65000 502.764
23.66000 500.544
23.67000 500.892
23.68000 503.125
23.69000 505.316
23.70000 507.374
23.71000 509.294
23.72000 511.036
23.73000 510.144
23.74000 508.376
23.75000 507.014
23.76000 508.975
23.77000 511.673
23.78000 513.976
23.79000 517.510
23.80000 520.632
23.81000 523.853
23.82000 527.405
23.83000 530.985
23.84000 531.847
23.85000 526.505
23.86000 520.921
23.87000 517.523
23.88000 530.331
23.89000 539.606
23.90000 540.886
23.91000 534.163
23.92000 527.509
23.93000 527.156
23.94000 530.910
23.95000 534.565
23.96000 538.915
23.97000 543.351
23.98000 547.668
23.99000 550.533
24.00000 552.967
24.01000 554.940
24.02000 553.641
24.03000 551.703
24.04000 550.083
24.05000 541.092
24.06000 532.882
24.07000 527.402
24.08000 530.146
24.09000 533.449
24.10000 535.798
24.11000 536.202
24.12000 536.549
24.13000 536.750
24.14000 536.345
24.15000 536.056
24.16000 532.675
24.17000 526.577
24.18000 520.637
24.19000 523.746
24.20000 532.103
24.21000 540.171
24.22000 539.228
24.23000 535.013
24.24000 531.078
24.25000 530.035
24.26000 529.754
24.27000 529.006
24.28000 525.359
24.29000 521.214
24.30000 517.833
24.31000 525.624
24.32000 532.950
24.33000 537.125
24.34000 532.828
24.35000 528.063
24.36000 522.192
24.37000 514.308
24.38000 506.382
24.39000 502.045
24.40000 505.690
24.41000 508.187
24.42000 505.260
24.43000 498.129
24.44000 491.234
24.45000 493.670
24.46000 500.930
24.47000 507.873
24.48000 504.858
24.49000 498.810
24.50000 493.677
24.51000 496.593
24.52000 501.391
24.53000 503.565
24.54000 491.512
24.55000 477.322
24.56000 466.042
24.57000 480.322
24.58000 493.648
24.59000 500.840
24.60000 493.303
24.61000 485.123
24.62000 480.055
24.63000 480.029
24.64000 480.073
24.65000 480.095
24.66000 485.798
24.67000 489.666
24.68000 496.793
24.69000 506.161
24.70000 515.100
24.71000 511.574
24.72000 502.296
24.73000 493.521
24.74000 495.859
24.75000 501.194
24.76000 504.903
24.77000 496.303
24.78000 485.156
24.79000 475.695
24.80000 474.290
24.81000 473.934
24.82000 473.659
24.83000 474.164
24.84000 474.610
24.85000 476.485
24.86000 481.422
24.87000 486.462
24.88000 490.630
24.89000 493.543
24.90000 496.445
24.91000 492.861
24.92000 483.244
24.93000 473.795
24.94000 476.001
24.95000 485.325
24.96000 494.017
24.97000 488.565
24.98000 477.284
24.99000 466.745
25.00000 469.651
25.01000 475.676
25.02000 481.589
25.03000 486.771
25.04000 491.819
25.05000 496.624
25.06000 500.398
25.07000 504.056
25.08000 506.800
25.09000 495.227
25.10000 485.510
25.11000 478.311
25.12000 475.928
25.13000 473.664
25.14000 474.910
25.15000 480.631
25.16000 486.361
25.17000 484.888
25.18000 477.538
25.19000 470.262
25.20000 466.407
25.21000 464.413
25.22000 462.715
25.23000 466.254
25.24000 471.721
25.25000 476.759
25.26000 474.665
25.27000 471.215
25.28000 468.173
25.29000 467.480
25.30000 467.161
25.31000 467.909
25.32000 472.660
25.33000 477.793
25.34000 481.520
25.35000 471.263
25.36000 462.854
25.37000 461.923
25.38000 473.746
25.39000 485.783
25.40000 490.549
25.41000 487.141
25.42000 483.737
25.43000 480.293
25.44000 476.849
25.45000 473.526
25.46000 474.194
25.47000 476.801
25.48000 478.995
25.49000 475.207
25.50000 469.454
25.51000 464.232
25.52000 472.273
25.53000 481.935
25.54000 489.306
25.55000 485.101
25.56000 479.287
25.57000 473.482
25.58000 467.709
25.59000 461.939
25.60000 457.896
25.61000 470.199
25.62000 479.973
25.63000 485.809
25.64000 485.668
25.65000 485.466
25.66000 480.377
25.67000 470.467
25.68000 460.626
25.69000 453.339
25.70000 447.784
25.71000 442.515
25.72000 444.390
25.73000 449.361
25.74000 454.188
25.75000 457.292
25.76000 459.890
25.77000 462.211
25.78000 467.737
25.79000 473.089
25.80000 476.816
25.81000 473.295
25.82000 468.905
25.83000 466.016
25.84000 467.600
25.85000 469.481
25.86000 470.749
25.87000 472.993
25.88000 474.683
25.89000 472.754
25.90000 465.955
25.91000 459.136
25.92000 457.659
25.93000 460.812
25.94000 463.929
25.95000 462.466
25.96000 458.478
25.97000 454.667
25.98000 454.328
25.99000 455.334
26.00000 456.471
26.01000 458.942
26.02000 461.760
26.03000 464.231
26.04000 458.376
26.05000 452.137
26.06000 448.456
26.07000 454.893
26.08000 462.369
26.09000 468.772
26.10000 472.324
26.11000 475.722
26.12000 477.920
26.13000 470.517
26.14000 464.961
26.15000 462.321
26.16000 463.150
26.17000 463.980
26.18000 463.626
26.19000 462.366
26.20000 461.128
26.21000 464.656
26.22000 470.419
26.23000 475.573
26.24000 471.092
26.25000 463.282
26.26000 455.954
26.27000 452.791
26.28000 450.588
26.29000 448.694
26.30000 449.230
26.31000 449.987
26.32000 453.301
26.33000 465.602
26.34000 478.684
26.35000 486.350
26.36000 481.169
26.37000 475.441
26.38000 471.899
26.39000 458.602
26.40000 448.956
26.41000 445.413
26.42000 448.257
26.43000 451.107
26.44000 454.462
26.45000 458.159
26.46000 461.768
26.47000 459.377
26.48000 454.474
26.49000 450.428
26.50000 457.543
26.51000 468.098
26.52000 477.752
26.53000 480.694
26.54000 482.267
26.55000 483.591
26.56000 474.149
26.57000 465.121
26.58000 457.489
26.59000 454.225
26.60000 451.277
26.61000 450.134
26.62000 452.812
26.63000 455.615
26.64000 457.265
26.65000 458.501
26.66000 459.369
26.67000 455.760
26.68000 448.043
26.69000 440.411
26.70000 438.447
26.71000 439.901
26.72000 441.309
26.73000 445.429
26.74000 450.369
26.75000 454.453
26.76000 449.197
26.77000 441.379
26.78000 435.811
26.79000 444.821
26.80000 456.449
26.81000 466.013
26.82000 470.486
26.83000 473.701
26.84000 473.901
26.85000 465.675
26.86000 456.950
26.87000 452.218
26.88000 455.032
26.89000 458.024
26.90000 459.694
26.91000 445.924
26.92000 436.385
26.93000 436.022
26.94000 443.079
26.95000 450.068
26.96000 454.090
26.97000 456.518
26.98000 458.847
26.99000 453.192
27.00000 445.194
27.01000 438.350
27.02000 442.196
27.03000 448.647
27.04000 453.165
27.05000 446.731
27.06000 438.575
27.07000 432.034
27.08000 428.454
27.09000 425.781
27.10000 426.525
27.11000 435.797
27.12000 445.473
27.13000 450.957
27.14000 449.377
27.15000 447.684
27.16000 446.793
27.17000 439.214
27.18000 434.099
27.19000 433.069
27.20000 434.961
27.21000 436.972
27.22000 442.799
27.23000 450.456
27.24000 457.726
27.25000 459.559
27.26000 459.624
27.27000 459.014
27.28000 453.025
27.29000 445.875
27.30000 438.744
27.31000 431.702
27.32000 424.673
27.33000 419.186
27.34000 423.164
27.35000 426.931
27.36000 428.834
27.37000 426.584
27.38000 424.182
27.39000 421.664
27.40000 418.974
27.41000 416.282
27.42000 417.245
27.43000 421.763
27.44000 426.321
27.45000 434.156
27.46000 444.074
27.47000 453.530
27.48000 451.739
27.49000 445.133
27.50000 438.935
27.51000 437.897
27.52000 438.309
27.53000 438.472
27.54000 436.907
27.55000 435.014
27.56000 435.014
27.57000 443.349
27.58000 452.669
27.59000 459.732
27.60000 458.618
27.61000 457.327
27.62000 455.822
27.63000 453.894
27.64000 451.955
27.65000 450.121
27.66000 448.427
27.67000 446.734
27.68000 443.226
27.69000 438.177
27.70000 433.251
27.71000 434.831
27.72000 440.092
27.73000 444.912
27.74000 441.301
27.75000 434.466
27.76000 428.137
27.77000 425.695
27.78000 424.397
27.79000 424.470
27.80000 432.781
27.81000 442.469
27.82000 448.446
27.83000 439.928
27.84000 429.948
27.85000 422.620
27.86000 434.044
27.87000 443.636
27.88000 445.155
27.89000 432.355
27.90000 419.278
27.91000 415.393
27.92000 422.300
27.93000 429.205
27.94000 430.736
27.95000 428.225
27.96000 425.641
27.97000 420.387
27.98000 413.786
27.99000 408.116
28.00000 416.846
28.01000 430.490
28.02000 442.942
28.03000 445.913
28.04000 446.631
28.05000 446.089
28.06000 438.896
28.07000 430.735
28.08000 425.709
28.09000 431.573
28.10000 438.365
28.11000 443.183
28.12000 440.924
28.13000 438.983
28.14000 436.244
28.15000 432.246
28.16000 428.232
28.17000 425.457
28.18000 423.959
28.19000 422.471
28.20000 421.078
28.21000 419.766
28.22000 418.477
28.23000 417.814
28.24000 417.433
28.25000 417.482
28.26000 423.021
28.27000 430.230
28.28000 436.705
28.29000 437.525
28.30000 437.246
28.31000 437.137
28.32000 437.818
28.33000 438.599
28.34000 437.542
28.35000 430.801
28.36000 423.656
28.37000 418.773
28.38000 428.140
28.39000 435.484
28.40000 438.084
28.41000 434.032
28.42000 429.935
28.43000 428.108
28.44000 428.334
28.45000 428.558
28.46000 422.808
28.47000 413.698
28.48000 405.021
28.49000 405.540
28.50000 409.758
28.51000 414.172
28.52000 420.699
28.53000 427.798
28.54000 434.063
28.55000 426.477
28.56000 417.815
28.57000 412.221
28.58000 419.265
28.59000 427.679
28.60000 432.005
28.61000 425.050
28.62000 417.440
28.63000 412.446
28.64000 425.648
28.65000 435.665
28.66000 439.683
28.67000 436.255
28.68000 432.817
28.69000 432.767
28.70000 435.419
28.71000 438.033
28.72000 434.851
28.73000 428.782
28.74000 422.696
28.75000 416.316
28.76000 409.831
28.77000 404.125
28.78000 405.516
28.79000 408.615
28.80000 411.299
28.81000 417.160
28.82000 422.564
28.83000 425.798
28.84000 421.089
28.85000 415.648
28.86000 412.856
28.87000 416.589
28.88000 420.624
28.89000 423.158
28.90000 422.733
28.91000 422.392
28.92000 419.839
28.93000 414.866
28.94000 409.937
28.95000 411.290
28.96000 417.080
28.97000 422.746
28.98000 425.178
28.99000 426.042
29.00000 427.075
29.01000 430.460
29.02000 434.597
29.03000 438.444
29.04000 440.020
29.05000 441.113
29.06000 442.039
29.07000 429.075
29.08000 416.638
29.09000 409.087
29.10000 417.448
29.11000 427.036
29.12000 432.017
29.13000 426.857
29.14000 421.335
29.15000 418.028
29.16000 413.947
29.17000 411.044
29.18000 406.908
29.19000 401.589
29.20000 396.347
29.21000 397.053
29.22000 401.492
29.23000 405.803
29.24000 406.612
29.25000 405.974
29.26000 405.087
29.27000 401.318
29.28000 396.728
29.29000 393.092
29.30000 395.945
29.31000 400.014
29.32000 403.389
29.33000 403.998
29.34000 404.236
29.35000 404.762
29.36000 406.124
29.37000 407.540
29.38000 409.114
29.39000 410.996
29.40000 412.887
29.41000 413.962
29.42000 417.569
29.43000 420.087
29.44000 421.294
29.45000 421.395
29.46000 421.497
29.47000 421.643
29.48000 421.814
29.49000 421.979
29.50000 421.184
29.51000 420.098
29.52000 418.930
29.53000 416.958
29.54000 414.782
29.55000 412.063
29.56000 406.126
29.57000 399.658
29.58000 394.426
29.59000 401.179
29.60000 407.643
29.61000 413.896
29.62000 419.606
29.63000 425.289
29.64000 429.713
29.65000 431.935
29.66000 434.115
29.67000 435.286
29.68000 415.997
29.69000 402.867
29.70000 401.563
29.71000 409.076
29.72000 416.320
29.73000 414.046
29.74000 407.028
29.75000 400.341
29.76000 398.201
29.77000 397.639
29.78000 396.998
29.79000 395.690
29.80000 394.233
29.81000 395.052
29.82000 407.717
29.83000 422.081
29.84000 433.400
29.85000 432.632
29.86000 431.207
29.87000 429.187
29.88000 425.793
29.89000 422.343
29.90000 420.215
29.91000 420.148
29.92000 420.106
29.93000 420.084
29.94000 434.340
29.95000 443.826
29.96000 448.886
29.97000 451.018
29.98000 453.212
29.99000 457.051
30.00000 461.620
30.01000 465.926
30.02000 466.935
30.03000 466.951
30.04000 467.416
30.05000 471.124
30.06000 475.475
30.07000 477.237
30.08000 467.110
30.09000 455.507
30.10000 446.622
30.11000 448.931
30.12000 451.367
30.13000 450.528
30.14000 442.919
30.15000 435.103
30.16000 432.905
30.17000 438.482
30.18000 444.107
30.19000 446.959
30.20000 447.334
30.21000 447.682
30.22000 446.400
30.23000 444.159
30.24000 441.806
30.25000 437.133
30.26000 431.539
30.27000 426.334
30.28000 426.543
30.29000 428.038
30.30000 428.904
30.31000 425.806
30.32000 422.016
30.33000 419.425
30.34000 421.705
30.35000 424.505
30.36000 426.583
30.37000 432.605
30.38000 437.459
30.39000 440.137
30.40000 438.805
30.41000 437.386
30.42000 432.442
30.43000 423.181
30.44000 413.927
30.45000 410.786
30.46000 412.449
30.47000 414.211
30.48000 420.012
30.49000 427.931
30.50000 435.520
30.51000 437.629
30.52000 437.795
30.53000 437.946
30.54000 432.171
30.55000 425.768
30.56000 421.307
30.57000 427.544
30.58000 435.414
30.59000 442.664
30.60000 447.677
30.61000 452.488
30.62000 455.942
30.63000 450.485
30.64000 446.004
30.65000 443.472
30.66000 444.143
30.67000 444.861
30.68000 443.311
30.69000 439.314
30.70000 435.335
30.71000 441.346
30.72000 454.183
30.73000 466.585
30.74000 465.922
30.75000 459.145
30.76000 452.934
30.77000 454.421
30.78000 458.343
30.79000 461.886
30.80000 457.802
30.81000 452.803
30.82000 449.400
30.83000 453.743
30.84000 459.114
30.85000 463.148
30.86000 462.882
30.87000 462.292
30.88000 461.883
30.89000 484.431
30.90000 501.996
30.91000 508.776
30.92000 499.803
30.93000 490.697
30.94000 489.582
30.95000 496.023
30.96000 502.411
30.97000 512.556
30.98000 524.799
30.99000 537.299
31.00000 555.697
31.01000 576.559
31.02000 597.141
31.03000 614.531
31.04000 631.022
31.05000 645.665
31.06000 665.111
31.07000 682.740
31.08000 705.229
31.09000 748.575
31.10000 794.303
31.11000 844.570
31.12000 907.856
31.13000 971.952
31.14000 1014.614
31.15000 1093.510
31.16000 1152.572
31.17000 1233.583
31.18000 1343.001
31.19000 1452.542
31.20000 1566.558
31.21000 1684.298
31.22000 1800.488
31.23000 1940.317
31.24000 2089.072
31.25000 2237.010
31.26000 2370.058
31.27000 2497.551
31.28000 2624.737
31.29000 2748.983
31.30000 2872.493
31.31000 2980.148
31.32000 3084.207
31.33000 3172.646
31.34000 3260.420
31.35000 3345.667
31.36000 3430.668
31.37000 3488.293
31.38000 3475.814
31.39000 3459.825
31.40000 3449.628
31.41000 3375.572
31.42000 3320.893
31.43000 3255.246
31.44000 3177.070
31.45000 3098.779
31.46000 3002.697
31.47000 2893.526
31.48000 2786.442
31.49000 2654.981
31.50000 2516.765
31.51000 2377.344
31.52000 2220.051
31.53000 2056.805
31.54000 1897.518
31.55000 1770.825
31.56000 1651.365
31.57000 1549.323
31.58000 1411.714
31.59000 1291.551
31.60000 1180.458
31.61000 1100.079
31.62000 1022.221
31.63000 951.917
31.64000 898.888
31.65000 846.536
31.66000 814.660
31.67000 748.911
31.68000 701.672
31.69000 664.151
31.70000 636.376
31.71000 608.707
31.72000 590.865
31.73000 579.437
31.74000 568.309
31.75000 552.394
31.76000 535.222
31.77000 518.699
31.78000 510.151
31.79000 503.972
31.80000 497.131
31.81000 485.588
31.82000 473.123
31.83000 462.707
31.84000 454.446
31.85000 447.807
31.86000 442.957
31.87000 443.508
31.88000 444.427
31.89000 443.686
31.90000 439.556
31.91000 435.326
31.92000 432.877
31.93000 433.419
31.94000 433.812
31.95000 435.291
31.96000 437.726
31.97000 440.051
31.98000 436.054
31.99000 428.385
32.00000 420.979
32.01000 418.829
32.02000 418.748
32.03000 418.427
32.04000 415.640
32.05000 412.200
32.06000 409.369
32.07000 410.311
32.08000 411.901
32.09000 413.200
32.10000 414.020
32.11000 414.651
32.12000 414.492
32.13000 412.205
32.14000 409.801
32.15000 405.920
32.16000 399.348
32.17000 392.720
32.18000 389.090
32.19000 391.136
32.20000 392.558
32.21000 395.643
32.22000 400.020
32.23000 404.293
32.24000 404.438
32.25000 402.444
32.26000 400.538
32.27000 401.467
32.28000 403.257
32.29000 404.823
32.30000 404.418
32.31000 403.550
32.32000 403.338
32.33000 406.686
32.34000 410.568
32.35000 413.656
32.36000 410.626
32.37000 407.747
32.38000 405.212
32.39000 403.504
32.40000 401.832
32.41000 396.498
32.42000 385.224
32.43000 373.867
32.44000 368.012
32.45000 379.450
32.46000 387.117
32.47000 390.043
32.48000 389.706
32.49000 389.446
32.50000 391.448
32.51000 394.496
32.52000 397.378
32.53000 388.533
32.54000 377.033
32.55000 366.902
32.56000 367.156
32.57000 369.564
32.58000 372.934
32.59000 380.916
32.60000 389.499
32.61000 396.137
32.62000 388.611
32.63000 381.806
32.64000 376.630
32.65000 374.953
32.66000 373.393
32.67000 371.673
32.68000 369.723
32.69000 367.771
32.70000 368.508
32.71000 371.750
32.72000 374.958
32.73000 375.684
32.74000 374.894
32.75000 374.004
32.76000 370.892
32.77000 366.864
32.78000 363.099
32.79000 361.309
32.80000 360.182
32.81000 359.523
32.82000 361.940
32.83000 364.920
32.84000 367.282
32.85000 367.033
32.86000 366.490
32.87000 366.083
32.88000 375.827
32.89000 383.923
32.90000 388.921
32.91000 387.984
32.92000 386.900
32.93000 392.118
32.94000 405.385
32.95000 418.664
32.96000 423.046
32.97000 420.135
32.98000 417.132
32.99000 409.913
33.00000 400.395
33.01000 391.277
33.02000 389.277
33.03000 389.901
33.04000 390.476
33.05000 392.824
33.06000 395.320
33.07000 397.118
33.08000 394.902
33.09000 392.044
33.10000 388.421
33.11000 381.923
33.12000 375.150
33.13000 370.232
33.14000 373.585
33.15000 376.475
33.16000 376.039
33.17000 369.921
33.18000 363.706
33.19000 362.237
33.20000 366.114
33.21000 369.982
33.22000 368.054
33.23000 361.971
33.24000 355.877
33.25000 349.456
33.26000 342.876
33.27000 337.496
33.28000 349.520
33.29000 367.270
33.30000 383.388
33.31000 379.169
33.32000 371.508
33.33000 362.933
33.34000 349.734
33.35000 335.891
33.36000 327.773
33.37000 338.800
33.38000 351.368
33.39000 360.179
33.40000 350.814
33.41000 343.205
33.42000 339.458
33.43000 341.582
33.44000 343.768
33.45000 347.958
33.46000 354.130
33.47000 360.258
33.48000 357.708
33.49000 349.689
33.50000 341.941
33.51000 340.989
33.52000 342.988
33.53000 344.915
33.54000 345.988
33.55000 346.811
33.56000 347.546
33.57000 350.009
33.58000 352.445
33.59000 352.264
33.60000 340.380
33.61000 327.088
33.62000 319.549
33.63000 329.165
33.64000 339.923
33.65000 347.181
33.66000 350.765
33.67000 353.353
33.68000 350.121
33.69000 339.040
33.70000 327.925
33.71000 324.790
33.72000 328.585
33.73000 332.336
33.74000 335.228
33.75000 337.570
33.76000 339.849
33.77000 340.903
33.78000 341.482
33.79000 342.321
33.80000 345.801
33.81000 349.969
33.82000 353.626
33.83000 352.760
33.84000 351.357
33.85000 349.605
33.86000 346.468
33.87000 343.190
33.88000 340.399
33.89000 338.907
33.90000 337.484
33.91000 336.563
33.92000 341.971
33.93000 346.021
33.94000 348.318
33.95000 348.524
33.96000 348.716
33.97000 346.184
33.98000 341.565
33.99000 337.025
34.00000 336.633
34.01000 338.307
34.02000 340.065
34.03000 343.152
34.04000 346.699
34.05000 349.969
34.06000 350.839
34.07000 351.153
34.08000 351.424
34.09000 342.822
34.10000 334.426
34.11000 329.175
34.12000 335.001
34.13000 341.791
34.14000 346.641
34.15000 346.881
34.16000 346.924
34.17000 346.950
34.18000 349.641
34.19000 351.599
34.20000 349.382
34.21000 342.785
34.22000 336.234
34.23000 334.977
34.24000 337.316
34.25000 339.601
34.26000 345.878
34.27000 353.629
34.28000 360.935
34.29000 362.440
34.30000 362.154
34.31000 361.563
34.32000 358.686
34.33000 355.342
34.34000 352.526
34.35000 347.695
34.36000 343.447
34.37000 340.076
34.38000 339.455
34.39000 339.033
34.40000 338.272
34.41000 336.788
34.42000 335.281
34.43000 334.394
34.44000 346.272
34.45000 354.718
34.46000 352.776
34.47000 341.282
34.48000 329.957
34.49000 329.887
34.50000 336.616
34.51000 343.134
34.52000 342.964
34.53000 340.225
34.54000 337.768
34.55000 338.398
34.56000 339.876
34.57000 341.612
34.58000 345.018
34.59000 348.725
34.60000 351.775
34.61000 339.082
34.62000 327.218
34.63000 322.785
34.64000 339.157
34.65000 356.766
34.66000 367.399
34.67000 364.822
34.68000 361.932
34.69000 360.318
34.70000 346.932
34.71000 337.656
34.72000 334.849
34.73000 337.282
34.74000 339.622
34.75000 337.769
34.76000 333.659
34.77000 329.716
34.78000 329.631
34.79000 330.865
34.80000 332.257
34.81000 335.108
34.82000 338.316
34.83000 340.623
34.84000 337.810
34.85000 334.190
34.86000 331.285
34.87000 328.760
34.88000 326.744
34.89000 326.395
34.90000 330.211
34.91000 334.225
34.92000 334.830
34.93000 329.683
34.94000 324.442
34.95000 321.683
34.96000 331.259
34.97000 337.733
34.98000 340.083
34.99000 339.476
35.00000 338.802
35.01000 335.983
35.02000 332.134
35.03000 328.479
35.04000 332.513
35.05000 338.544
35.06000 343.073
35.07000 335.631
35.08000 325.601
35.09000 317.541
35.10000 319.320
35.11000 322.447
35.12000 324.890
35.13000 324.118
35.14000 323.301
35.15000 321.983
35.16000 319.548
35.17000 317.071
35.18000 315.958
35.19000 316.892
35.20000 317.845
35.21000 320.431
35.22000 324.608
35.23000 328.712
35.24000 326.811
35.25000 321.089
35.26000 315.531
35.27000 313.963
35.28000 314.108
35.29000 314.244
35.30000 315.739
35.31000 317.460
35.32000 318.328
35.33000 313.308
35.34000 307.165
35.35000 303.142
35.36000 308.473
35.37000 314.912
35.38000 319.794
35.39000 321.828
35.40000 323.280
35.41000 321.975
35.42000 315.179
35.43000 308.231
35.44000 305.444
35.45000 308.194
35.46000 310.970
35.47000 315.498
35.48000 321.514
35.49000 327.374
35.50000 325.016
35.51000 318.002
35.52000 311.422
35.53000 313.197
35.54000 318.170
35.55000 322.777
35.56000 318.618
35.57000 312.848
35.58000 309.159
35.59000 318.007
35.60000 328.953
35.61000 335.680
35.62000 325.900
35.63000 314.450
35.64000 306.039
35.65000 307.390
35.66000 308.833
35.67000 309.979
35.68000 310.598
35.69000 311.206
35.70000 310.722
35.71000 308.953
35.72000 307.186
35.73000 306.825
35.74000 307.524
35.75000 308.217
35.76000 308.706
35.77000 309.093
35.78000 309.556
35.79000 311.212
35.80000 313.276
35.81000 315.160
35.82000 314.313
35.83000 313.009
35.84000 311.377
35.85000 308.013
35.86000 304.397
35.87000 303.252
35.88000 310.706
35.89000 318.895
35.90000 324.706
35.91000 320.186
35.92000 316.421
35.93000 313.797
35.94000 312.980
35.95000 312.186
35.96000 313.170
35.97000 315.995
35.98000 318.803
35.99000 313.263
36.00000 302.268
36.01000 291.776
36.02000 295.130
36.03000 304.730
36.04000 313.802
36.05000 316.108
36.06000 316.350
36.07000 316.568
36.08000 310.082
36.09000 303.223
36.10000 298.431
36.11000 303.278
36.12000 309.344
36.13000 312.390
36.14000 306.079
36.15000 299.103
36.16000 294.332
36.17000 298.286
36.18000 301.452
36.19000 302.197
36.20000 299.542
36.21000 296.865
36.22000 297.159
36.23000 300.148
36.24000 303.107
36.25000 306.282
36.26000 309.516
36.27000 312.577
36.28000 311.973
36.29000 309.892
36.30000 307.548
36.31000 302.379
36.32000 296.442
36.33000 291.202
36.34000 294.790
36.35000 299.237
36.36000 302.314
36.37000 299.732
36.38000 296.536
36.39000 294.413
36.40000 295.258
36.41000 296.275
36.42000 296.944
36.43000 295.153
36.44000 293.793
36.45000 296.834
36.46000 305.347
36.47000 313.852
36.48000 314.720
36.49000 309.483
36.50000 304.325
36.51000 301.334
36.52000 299.551
36.53000 298.111
36.54000 302.525
36.55000 309.044
36.56000 314.443
36.57000 309.602
36.58000 302.294
36.59000 295.965
36.60000 290.007
36.61000 284.989
36.62000 281.100
36.63000 281.354
36.64000 281.990
36.65000 281.615
36.66000 278.745
36.67000 275.760
36.68000 273.883
36.69000 287.085
36.70000 296.799
36.71000 303.299
36.72000 306.275
36.73000 309.206
36.74000 306.055
36.75000 298.602
36.76000 291.308
36.77000 289.526
36.78000 290.327
36.79000 291.421
36.80000 296.613
36.81000 303.119
36.82000 308.559
36.83000 305.631
36.84000 300.919
36.85000 296.921
36.86000 295.782
36.87000 295.150
36.88000 295.335
36.89000 298.188
36.90000 301.246
36.91000 303.372
36.92000 303.443
36.93000 303.440
36.94000 303.438
36.95000 308.996
36.96000 312.979
36.97000 309.668
36.98000 299.347
36.99000 289.151
37.00000 288.755
37.01000 294.520
37.02000 300.118
37.03000 303.715
37.04000 306.325
37.05000 308.730
37.06000 308.763
37.07000 308.117
37.08000 308.395
37.09000 314.957
37.10000 322.700
37.11000 329.123
37.12000 323.440
37.13000 317.580
37.14000 311.022
37.15000 302.433
37.16000 293.714
37.17000 288.162
37.18000 288.842
37.19000 289.688
37.20000 290.170
37.21000 300.265
37.22000 307.322
37.23000 310.093
37.24000 309.241
37.25000 308.341
37.26000 305.010
37.27000 300.317
37.28000 295.799
37.29000 292.188
37.30000 289.120
37.31000 286.545
37.32000 288.799
37.33000 292.281
37.34000 294.628
37.35000 290.236
37.36000 284.732
37.37000 280.278
37.38000 281.639
37.39000 283.217
37.40000 284.408
37.41000 284.591
37.42000 284.722
37.43000 285.552
37.44000 287.606
37.45000 289.684
37.46000 290.800
37.47000 291.498
37.48000 291.991
37.49000 295.506
37.50000 301.278
37.51000 306.896
37.52000 307.009
37.53000 304.374
37.54000 301.862
37.55000 302.654
37.56000 304.423
37.57000 305.766
37.58000 303.548
37.59000 300.527
37.60000 296.845
37.61000 289.718
37.62000 282.096
37.63000 276.087
37.64000 283.928
37.65000 291.147
37.66000 295.262
37.67000 292.185
37.68000 288.816
37.69000 288.051
37.70000 291.352
37.71000 294.701
37.72000 296.392
37.73000 295.125
37.74000 294.299
37.75000 295.558
37.76000 298.198
37.77000 300.626
37.78000 297.383
37.79000 291.612
37.80000 286.175
37.81000 289.047
37.82000 293.967
37.83000 297.919
37.84000 294.860
37.85000 290.405
37.86000 286.942
37.87000 288.041
37.88000 289.709
37.89000 290.987
37.90000 294.807
37.91000 297.963
37.92000 300.545
37.93000 301.940
37.94000 303.298
37.95000 305.536
37.96000 308.995
37.97000 312.459
37.98000 309.724
37.99000 301.452
38.00000 293.320
38.01000 293.641
38.02000 298.944
38.03000 304.040
38.04000 304.849
38.05000 303.951
38.06000 303.115
38.07000 302.250
38.08000 301.462
38.09000 300.726
38.10000 300.324
38.11000 299.980
38.12000 298.936
38.13000 295.039
38.14000 290.838
38.15000 287.718
38.16000 290.544
38.17000 293.003
38.18000 296.840
38.19000 303.225
38.20000 309.666
38.21000 310.372
38.22000 304.041
38.23000 297.705
38.24000 296.326
38.25000 298.845
38.26000 301.434
38.27000 306.910
38.28000 313.901
38.29000 320.736
38.30000 324.958
38.31000 328.253
38.32000 331.275
38.33000 328.535
38.34000 324.872
38.35000 321.771
38.36000 321.776
38.37000 322.258
38.38000 324.193
38.39000 331.388
38.40000 339.059
38.41000 344.569
38.42000 357.384
38.43000 367.439
38.44000 378.420
38.45000 390.925
38.46000 403.452
38.47000 415.885
38.48000 428.217
38.49000 440.492
38.50000 462.338
38.51000 490.562
38.52000 518.537
38.53000 539.007
38.54000 555.960
38.55000 572.640
38.56000 585.612
38.57000 597.408
38.58000 608.065
38.59000 638.783
38.60000 669.504
38.61000 699.402
38.62000 725.295
38.63000 750.656
38.64000 776.052
38.65000 801.559
38.66000 827.074
38.67000 844.748
38.68000 882.598
38.69000 911.612
38.70000 926.422
38.71000 920.450
38.72000 914.301
38.73000 921.583
38.74000 941.591
38.75000 961.434
38.76000 953.758
38.77000 929.452
38.78000 905.583
38.79000 891.838
38.80000 882.329
38.81000 871.149
38.82000 840.936
38.83000 805.350
38.84000 773.743
38.85000 743.498
38.86000 717.492
38.87000 690.266
38.88000 657.798
38.89000 624.729
38.90000 594.311
38.91000 571.509
38.92000 549.183
38.93000 534.313
38.94000 498.350
38.95000 471.333
38.96000 450.700
38.97000 438.345
38.98000 426.011
38.99000 407.729
39.00000 384.488
39.01000 361.552
39.02000 351.560
39.03000 348.798
39.04000 345.919
39.05000 340.882
39.06000 335.038
39.07000 329.180
39.08000 323.176
39.09000 317.137
39.10000 311.872
39.11000 307.086
39.12000 303.062
39.13000 299.911
39.14000 300.094
39.15000 300.603
39.16000 300.137
39.17000 297.175
39.18000 294.087
39.19000 292.116
39.20000 289.840
39.21000 288.180
39.22000 286.393
39.23000 284.461
39.24000 282.533
39.25000 281.233
39.26000 280.395
39.27000 279.574
39.28000 278.032
39.29000 276.203
39.30000 274.522
39.31000 275.019
39.32000 276.243
39.33000 277.808
39.34000 282.185
39.35000 287.187
39.36000 291.461
39.37000 292.237
39.38000 292.474
39.39000 291.075
39.40000 284.132
39.41000 276.733
39.42000 270.963
39.43000 268.923
39.44000 267.030
39.45000 265.876
39.46000 265.978
39.47000 266.062
39.48000 269.732
39.49000 277.008
39.50000 284.215
39.51000 284.941
39.52000 281.428
39.53000 278.007
39.54000 276.950
39.55000 276.935
39.56000 277.076
39.57000 279.151
39.58000 281.801
39.59000 283.124
39.60000 274.983
39.61000 264.985
39.62000 256.626
39.63000 257.902
39.64000 259.942
39.65000 261.522
39.66000 261.708
39.67000 261.800
39.68000 261.135
39.69000 258.924
39.70000 256.666
39.71000 255.359
39.72000 259.439
39.73000 262.321
39.74000 263.554
39.75000 263.333
39.76000 263.142
39.77000 264.736
39.78000 267.371
39.79000 269.915
39.80000 268.236
39.81000 265.091
39.82000 261.945
39.83000 258.794
39.84000 255.643
39.85000 254.390
39.86000 264.936
39.87000 277.517
39.88000 287.787
39.89000 272.273
39.90000 257.366
39.91000 247.408
39.92000 250.804
39.93000 254.941
39.94000 259.845
39.95000 266.148
39.96000 272.480
39.97000 275.952
39.98000 264.885
39.99000 257.270
40.00000 254.626
40.01000 255.852
40.02000 257.171
40.03000 262.195
40.04000 269.141
40.05000 275.784
40.06000 271.056
40.07000 262.938
40.08000 255.534
40.09000 254.436
40.10000 254.820
40.11000 255.865
40.12000 260.514
40.13000 265.706
40.14000 269.836
40.15000 261.862
40.16000 254.567
40.17000 250.254
40.18000 253.125
40.19000 256.312
40.20000 257.273
40.21000 254.617
40.22000 251.911
40.23000 250.514
40.24000 250.141
40.25000 249.914
40.26000 252.594
40.27000 257.279
40.28000 261.796
40.29000 261.361
40.30000 258.633
40.31000 256.053
40.32000 254.120
40.33000 252.528
40.34000 251.200
40.35000 251.878
40.36000 252.972
40.37000 254.112
40.38000 255.467
40.39000 256.850
40.40000 257.920
40.41000 257.917
40.42000 257.851
40.43000 259.433
40.44000 264.559
40.45000 269.804
40.46000 272.567
40.47000 271.745
40.48000 270.893
40.49000 266.031
40.50000 257.427
40.51000 248.974
40.52000 251.199
40.53000 259.967
40.54000 268.293
40.55000 266.644
40.56000 260.869
40.57000 255.472
40.58000 255.374
40.59000 256.625
40.60000 257.276
40.61000 253.959
40.62000 249.916
40.63000 246.751
40.64000 247.308
40.65000 248.284
40.66000 249.017
40.67000 261.082
40.68000 271.051
40.69000 273.727
40.70000 262.400
40.71000 250.725
40.72000 242.786
40.73000 239.625
40.74000 236.486
40.75000 243.633
40.76000 259.187
40.77000 274.445
40.78000 275.916
40.79000 269.858
40.80000 263.784
40.81000 257.420
40.82000 250.949
40.83000 244.983
40.84000 246.165
40.85000 248.809
40.86000 250.833
40.87000 249.279
40.88000 247.152
40.89000 245.380
40.90000 244.944
40.91000 244.636
40.92000 244.412
40.93000 245.978
40.94000 247.250
40.95000 249.119
40.96000 252.013
40.97000 254.925
40.98000 254.441
40.99000 250.126
41.00000 245.823
41.01000 246.711
41.02000 251.336
41.03000 255.760
41.04000 253.441
41.05000 247.837
41.06000 242.607
41.07000 242.815
41.08000 244.816
41.09000 246.633
41.10000 245.164
41.11000 243.229
41.12000 241.829
41.13000 243.138
41.14000 244.825
41.15000 246.788
41.16000 249.677
41.17000 252.642
41.18000 254.721
41.19000 247.972
41.20000 242.609
41.21000 242.416
41.22000 250.097
41.23000 257.860
41.24000 258.362
41.25000 251.671
41.26000 245.026
41.27000 247.338
41.28000 255.310
41.29000 262.706
41.30000 255.605
41.31000 242.200
41.32000 229.922
41.33000 231.253
41.34000 236.579
41.35000 241.339
41.36000 239.129
41.37000 236.029
41.38000 234.018
41.39000 236.887
41.40000 240.345
41.41000 242.988
41.42000 243.198
41.43000 243.245
41.44000 243.277
41.45000 245.376
41.46000 246.982
41.47000 245.758
41.48000 240.709
41.49000 235.646
41.50000 236.193
41.51000 241.621
41.52000 246.987
41.53000 248.371
41.54000 247.490
41.55000 246.487
41.56000 243.106
41.57000 238.801
41.58000 234.759
41.59000 233.388
41.60000 232.715
41.61000 232.124
41.62000 233.944
41.63000 235.860
41.64000 238.926
41.65000 246.561
41.66000 254.667
41.67000 257.183
41.68000 244.801
41.69000 231.612
41.70000 223.068
41.71000 237.315
41.72000 248.079
41.73000 253.342
41.74000 252.036
41.75000 250.711
41.76000 248.262
41.77000 244.948
41.78000 241.690
41.79000 240.781
41.80000 241.066
41.81000 241.330
41.82000 241.259
41.83000 241.072
41.84000 240.625
41.85000 237.922
41.86000 234.696
41.87000 231.921
41.88000 235.736
41.89000 239.795
41.90000 242.346
41.91000 239.577
41.92000 236.343
41.93000 235.378
41.94000 239.815
41.95000 244.484
41.96000 247.374
41.97000 246.803
41.98000 246.360
41.99000 246.390
42.00000 246.917
42.01000 247.417
42.02000 244.715
42.03000 239.834
42.04000 235.068
42.05000 232.939
42.06000 232.056
42.07000 231.520
42.08000 235.532
42.09000 240.949
42.10000 245.999
42.11000 248.301
42.12000 250.040
42.13000 251.505
42.14000 240.227
42.15000 229.446
42.16000 221.523
42.17000 222.578
42.18000 224.287
42.19000 227.351
42.20000 233.295
42.21000 239.333
42.22000 242.893
42.23000 241.482
42.24000 240.461
42.25000 242.156
42.26000 246.352
42.27000 250.502
42.28000 251.562
42.29000 250.752
42.30000 249.968
42.31000 244.844
42.32000 238.319
42.33000 232.415
42.34000 233.328
42.35000 236.116
42.36000 238.930
42.37000 241.903
42.38000 244.905
42.39000 247.376
42.40000 246.607
42.41000 245.680
42.42000 245.160
42.43000 245.780
42.44000 246.468
42.45000 246.118
42.46000 243.799
42.47000 241.432
42.48000 240.110
42.49000 239.102
42.50000 238.401
42.51000 236.620
42.52000 233.963
42.53000 231.357
42.54000 231.056
42.55000 231.998
42.56000 232.902
42.57000 234.288
42.58000 235.748
42.59000 236.974
42.60000 236.029
42.61000 234.552
42.62000 233.681
42.63000 236.251
42.64000 239.364
42.65000 241.863
42.66000 240.747
42.67000 239.566
42.68000 237.500
42.69000 233.215
42.70000 228.824
42.71000 224.791
42.72000 221.364
42.73000 217.946
42.74000 216.145
42.75000 226.210
42.76000 233.013
42.77000 234.847
42.78000 233.113
42.79000 231.349
42.80000 228.629
42.81000 225.449
42.82000 222.429
42.83000 230.656
42.84000 241.634
42.85000 251.051
42.86000 247.999
42.87000 242.247
42.88000 237.052
42.89000 234.641
42.90000 232.612
42.91000 231.028
42.92000 237.951
42.93000 244.012
42.94000 245.807
42.95000 238.066
42.96000 229.971
42.97000 226.543
42.98000 230.133
42.99000 233.793
43.00000 237.077
43.01000 239.992
43.02000 242.880
43.03000 243.438
43.04000 242.511
43.05000 241.585
43.06000 240.687
43.07000 239.801
43.08000 238.970
43.09000 236.422
43.10000 233.646
43.11000 231.394
43.12000 232.772
43.13000 234.843
43.14000 236.660
43.15000 237.353
43.16000 237.913
43.17000 238.338
43.18000 235.980
43.19000 233.985
43.20000 234.040
43.21000 238.187
43.22000 242.447
43.23000 239.930
43.24000 228.374
43.25000 216.782
43.26000 212.321
43.27000 213.977
43.28000 215.648
43.29000 218.134
43.30000 221.083
43.31000 223.796
43.32000 221.956
43.33000 218.368
43.34000 215.045
43.35000 215.308
43.36000 216.376
43.37000 217.601
43.38000 219.773
43.39000 222.104
43.40000 224.198
43.41000 225.361
43.42000 226.429
43.43000 227.215
43.44000 231.278
43.45000 234.554
43.46000 235.098
43.47000 230.778
43.48000 226.364
43.49000 222.950
43.50000 220.714
43.51000 218.486
43.52000 220.766
43.53000 226.426
43.54000 231.893
43.55000 230.221
43.56000 224.934
43.57000 219.917
43.58000 219.104
43.59000 219.731
43.60000 220.304
43.61000 223.669
43.62000 227.223
43.63000 230.015
43.64000 228.775
43.65000 226.945
43.66000 226.163
43.67000 229.029
43.68000 232.208
43.69000 234.465
43.70000 235.182
43.71000 235.680
43.72000 235.493
43.73000 234.223
43.74000 232.940
43.75000 229.056
43.76000 222.479
43.77000 215.938
43.78000 214.640
43.79000 216.837
43.80000 219.091
43.81000 222.920
43.82000 227.461
43.83000 231.404
43.84000 227.663
43.85000 221.575
43.86000 216.105
43.87000 216.605
43.88000 218.099
43.89000 219.372
43.90000 219.616
43.91000 219.729
43.92000 221.383
43.93000 227.819
43.94000 234.597
43.95000 239.234
43.96000 232.573
43.97000 227.318
43.98000 225.167
43.99000 227.382
44.00000 229.628
44.01000 231.733
44.02000 233.711
44.03000 235.669
44.04000 230.248
44.05000 220.621
44.06000 211.399
44.07000 210.833
44.08000 213.759
44.09000 216.585
44.10000 218.337
44.11000 219.797
44.12000 221.086
44.13000 226.202
44.14000 231.206
44.15000 234.237
44.16000 229.120
44.17000 223.114
44.18000 219.148
44.19000 220.828
44.20000 222.837
44.21000 224.158
44.22000 217.477
44.23000 212.424
44.24000 213.780
44.25000 223.120
44.26000 232.461
44.27000 234.323
44.28000 230.196
44.29000 226.131
44.30000 226.567
44.31000 229.316
44.32000 231.788
44.33000 229.548
44.34000 225.609
44.35000 222.114
44.36000 222.688
44.37000 224.245
44.38000 225.593
44.39000 220.094
44.40000 214.508
44.41000 210.816
44.42000 214.079
44.43000 217.985
44.44000 220.086
44.45000 217.723
44.46000 215.152
44.47000 213.535
44.48000 224.559
44.49000 232.676
44.50000 234.564
44.51000 229.614
44.52000 224.694
44.53000 224.503
44.54000 227.664
44.55000 230.757
44.56000 232.499
44.57000 233.555
44.58000 234.619
44.59000 235.802
44.60000 237.022
44.61000 237.728
44.62000 234.380
44.63000 230.167
44.64000 226.592
44.65000 233.208
44.66000 239.912
44.67000 244.090
44.68000 240.010
44.69000 235.289
44.70000 232.978
44.71000 235.988
44.72000 239.189
44.73000 241.109
44.74000 242.251
44.75000 243.057
44.76000 245.634
44.77000 249.917
44.78000 254.227
44.79000 260.710
44.80000 268.562
44.81000 276.189
44.82000 276.767
44.83000 274.474
44.84000 272.810
44.85000 278.466
44.86000 286.217
44.87000 293.415
44.88000 296.844
44.89000 299.562
44.90000 301.817
44.91000 306.145
44.92000 309.921
44.93000 312.411
44.94000 311.153
44.95000 309.655
44.96000 311.911
44.97000 321.569
44.98000 331.426
44.99000 337.037
45.00000 344.651
45.01000 349.961
45.02000 352.981
45.03000 354.063
45.04000 355.229
45.05000 360.722
45.06000 368.641
45.07000 376.266
45.08000 379.520
45.09000 381.021
45.10000 382.199
45.11000 380.206
45.12000 377.406
45.13000 375.566
45.14000 379.440
45.15000 384.258
45.16000 388.159
45.17000 374.587
45.18000 362.119
45.19000 350.787
45.20000 342.411
45.21000 334.188
45.22000 329.327
45.23000 330.376
45.24000 331.535
45.25000 332.159
45.26000 324.133
45.27000 318.645
45.28000 313.965
45.29000 309.891
45.30000 305.776
45.31000 300.208
45.32000 293.914
45.33000 287.914
45.34000 286.970
45.35000 287.681
45.36000 287.566
45.37000 280.510
45.38000 271.887
45.39000 263.587
45.40000 256.969
45.41000 250.593
45.42000 245.565
45.43000 250.841
45.44000 255.768
45.45000 258.186
45.46000 254.779
45.47000 251.135
45.48000 246.452
45.49000 240.143
45.50000 233.814
45.51000 230.616
45.52000 230.981
45.53000 231.213
45.54000 230.133
45.55000 228.184
45.56000 226.256
45.57000 224.911
45.58000 223.827
45.59000 222.805
45.60000 223.984
45.61000 225.672
45.62000 227.028
45.63000 225.977
45.64000 224.447
45.65000 222.969
45.66000 221.733
45.67000 220.527
45.68000 219.604
45.69000 217.381
45.70000 215.554
45.71000 213.980
45.72000 212.931
45.73000 211.899
45.74000 211.519
45.75000 212.045
45.76000 212.577
45.77000 214.626
45.78000 218.030
45.79000 221.358
45.80000 220.070
45.81000 216.057
45.82000 212.221
45.83000 212.065
45.84000 213.376
45.85000 214.596
45.86000 216.506
45.87000 218.399
45.88000 219.464
45.89000 215.303
45.90000 210.225
45.91000 206.297
45.92000 207.061
45.93000 208.326
45.94000 209.266
45.95000 206.242
45.96000 203.716
45.97000 202.196
45.98000 202.539
45.99000 202.923
46.00000 204.518
46.01000 207.603
46.02000 210.686
46.03000 210.692
46.04000 208.279
46.05000 205.883
46.06000 204.158
46.07000 202.787
46.08000 201.480
46.09000 201.243
46.10000 201.386
46.11000 201.517
46.12000 206.346
46.13000 211.649
46.14000 216.015
46.15000 215.197
46.16000 213.583
46.17000 212.563
46.18000 213.691
46.19000 215.015
46.20000 215.967
46.21000 212.215
46.22000 209.180
46.23000 209.003
46.24000 213.537
46.25000 218.141
46.26000 217.367
46.27000 210.771
46.28000 204.202
46.29000 200.956
46.30000 200.047
46.31000 199.179
46.32000 199.566
46.33000 200.543
46.34000 201.644
46.35000 204.435
46.36000 207.764
46.37000 210.771
46.38000 212.581
46.39000 213.950
46.40000 214.195
46.41000 208.968
46.42000 203.011
46.43000 198.553
46.44000 198.928
46.45000 199.670
46.46000 200.185
46.47000 205.703
46.48000 209.989
46.49000 210.944
46.50000 207.019
46.51000 203.052
46.52000 202.595
46.53000 205.472
46.54000 208.324
46.55000 206.845
46.56000 202.747
46.57000 198.742
46.58000 196.872
46.59000 195.897
46.60000 195.306
46.61000 199.108
46.62000 204.151
46.63000 208.631
46.64000 205.806
46.65000 202.178
46.66000 199.205
46.67000 199.050
46.68000 199.218
46.69000 199.349
46.70000 199.376
46.71000 199.396
46.72000 199.410
46.73000 210.901
46.74000 219.627
46.75000 221.006
46.76000 212.842
46.77000 204.647
46.78000 200.544
46.79000 199.858
46.80000 199.181
46.81000 198.155
46.82000 196.966
46.83000 195.787
46.84000 194.768
46.85000 193.809
46.86000 193.063
46.87000 194.372
46.88000 196.197
46.89000 197.790
46.90000 195.210
46.91000 192.424
46.92000 189.327
46.93000 185.042
46.94000 180.641
46.95000 178.629
46.96000 182.753
46.97000 187.186
46.98000 190.017
46.99000 191.942
47.00000 193.331
47.01000 197.606
47.02000 205.189
47.03000 212.736
47.04000 213.023
47.05000 207.948
47.06000 202.969
47.07000 198.635
47.08000 194.767
47.09000 191.430
47.10000 196.016
47.11000 203.250
47.12000 208.963
47.13000 202.086
47.14000 192.406
47.15000 184.132
47.16000 188.446
47.17000 193.587
47.18000 197.339
47.19000 196.370
47.20000 195.012
47.21000 194.822
47.22000 197.311
47.23000 199.907
47.24000 201.489
47.25000 204.888
47.26000 207.332
47.27000 207.136
47.28000 204.281
47.29000 201.409
47.30000 196.950
47.31000 191.451
47.32000 186.095
47.33000 188.046
47.34000 192.976
47.35000 197.299
47.36000 194.111
47.37000 188.687
47.38000 184.005
47.39000 184.640
47.40000 186.320
47.41000 187.725
47.42000 184.072
47.43000 180.523
47.44000 178.891
47.45000 183.069
47.46000 187.643
47.47000 191.825
47.48000 195.199
47.49000 198.550
47.50000 200.493
47.51000 196.379
47.52000 193.466
47.53000 189.157
47.54000 183.613
47.55000 178.180
47.56000 179.167
47.57000 183.896
47.58000 188.463
47.59000 193.195
47.60000 197.715
47.61000 201.697
47.62000 200.085
47.63000 196.992
47.64000 194.250
47.65000 193.697
47.66000 193.522
47.67000 193.380
47.68000 190.020
47.69000 186.993
47.70000 186.366
47.71000 192.222
47.72000 198.439
47.73000 200.183
47.74000 193.754
47.75000 187.151
47.76000 183.529
47.77000 187.236
47.78000 189.783
47.79000 188.288
47.80000 183.640
47.81000 179.140
47.82000 180.576
47.83000 185.097
47.84000 189.422
47.85000 188.516
47.86000 185.961
47.87000 183.609
47.88000 183.065
47.89000 182.946
47.90000 183.414
47.91000 187.079
47.92000 191.227
47.93000 194.529
47.94000 191.329
47.95000 188.282
47.96000 185.177
47.97000 181.934
47.98000 178.684
47.99000 178.955
48.00000 184.956
48.01000 191.038
48.02000 194.178
48.03000 194.407
48.04000 194.569
48.05000 195.844
48.06000 197.887
48.07000 199.717
48.08000 195.292
48.09000 187.966
48.10000 181.034
48.11000 176.409
48.12000 172.821
48.13000 169.917
48.14000 172.236
48.15000 175.640
48.16000 178.462
48.17000 178.481
48.18000 178.132
48.19000 177.863
48.20000 183.687
48.21000 188.671
48.22000 192.495
48.23000 193.819
48.24000 195.058
48.25000 195.053
48.26000 193.248
48.27000 191.429
48.28000 189.104
48.29000 186.306
48.30000 183.572
48.31000 185.388
48.32000 189.999
48.33000 194.389
48.34000 193.790
48.35000 191.124
48.36000 188.632
48.37000 187.931
48.38000 187.748
48.39000 187.402
48.40000 185.983
48.41000 184.367
48.42000 183.415
48.43000 185.287
48.44000 187.477
48.45000 189.122
48.46000 183.994
48.47000 179.662
48.48000 177.931
48.49000 181.202
48.50000 184.599
48.51000 186.894
48.52000 187.780
48.53000 188.659
48.54000 189.067
48.55000 189.087
48.56000 189.098
48.57000 188.697
48.58000 188.070
48.59000 187.500
48.60000 187.940
48.61000 188.754
48.62000 189.505
48.63000 189.329
48.64000 188.965
48.65000 188.334
48.66000 186.163
48.67000 183.744
48.68000 183.257
48.69000 190.056
48.70000 197.555
48.71000 203.007
48.72000 192.813
48.73000 184.378
48.74000 177.856
48.75000 174.613
48.76000 171.426
48.77000 170.088
48.78000 170.844
48.79000 171.598
48.80000 172.822
48.81000 174.376
48.82000 175.977
48.83000 179.175
48.84000 183.152
48.85000 187.012
48.86000 189.157
48.87000 190.736
48.88000 192.171
48.89000 190.468
48.90000 188.353
48.91000 185.591
48.92000 179.542
48.93000 173.034
48.94000 169.090
48.95000 173.756
48.96000 179.118
48.97000 182.881
48.98000 179.815
48.99000 177.295
49.00000 177.597
49.01000 182.203
49.02000 186.855
49.03000 190.911
49.04000 194.374
49.05000 197.813
49.06000 197.857
49.07000 195.737
49.08000 193.586
49.09000 190.638
49.10000 187.344
49.11000 184.253
49.12000 183.625
49.13000 183.720
49.14000 183.806
49.15000 185.709
49.16000 187.675
49.17000 188.470
49.18000 184.007
49.19000 178.909
49.20000 175.325
49.21000 176.268
49.22000 177.514
49.23000 178.356
49.24000 185.935
49.25000 191.723
49.26000 193.887
49.27000 191.148
49.28000 188.382
49.29000 185.290
49.30000 181.914
49.31000 178.576
49.32000 177.473
49.33000 177.652
49.34000 177.871
49.35000 178.869
49.36000 180.171
49.37000 181.154
49.38000 178.873
49.39000 175.739
49.40000 172.988
49.41000 177.600
49.42000 182.639
49.43000 186.057
49.44000 183.025
49.45000 179.326
49.46000 178.434
49.47000 185.036
49.48000 192.045
49.49000 196.589
49.50000 189.266
49.51000 183.729
49.52000 181.706
49.53000 183.889
49.54000 186.067
49.55000 185.180
49.56000 181.935
49.57000 178.745
49.58000 179.292
49.59000 181.676
49.60000 184.001
49.61000 185.401
49.62000 186.479
49.63000 186.902
49.64000 181.614
49.65000 175.002
49.66000 169.310
49.67000 173.252
49.68000 177.805
49.69000 180.480
49.70000 176.522
49.71000 171.983
49.72000 169.068
49.73000 170.025
49.74000 171.147
49.75000 171.843
49.76000 174.023
49.77000 175.605
49.78000 177.220
49.79000 178.870
49.80000 180.520
49.81000 182.215
49.82000 183.939
49.83000 185.624
49.84000 185.509
49.85000 184.612
49.86000 183.543
49.87000 180.231
49.88000 176.223
49.89000 172.858
49.90000 174.309
49.91000 176.749
49.92000 178.805
49.93000 179.966
49.94000 180.839
49.95000 181.182
49.96000 179.859
49.97000 178.414
49.98000 176.404
49.99000 173.189
50.00000 169.935
50.01000 168.015
50.02000 169.086
50.03000 169.858
50.04000 172.539
50.05000 176.982
50.06000 181.361
50.07000 181.429
50.08000 178.884
50.09000 176.418
50.10000 175.957
50.11000 176.297
50.12000 176.458
50.13000 174.643
50.14000 172.284
50.15000 170.532
50.16000 172.744
50.17000 175.672
50.18000 178.083
50.19000 172.931
50.20000 168.003
50.21000 165.341
50.22000 169.042
50.23000 173.123
50.24000 177.311
50.25000 181.702
50.26000 186.098
50.27000 188.556
50.28000 183.945
50.29000 180.751
50.30000 183.872
50.31000 192.129
50.32000 200.229
50.33000 201.274
50.34000 198.507
50.35000 195.852
50.36000 197.914
50.37000 201.454
50.38000 204.681
50.39000 204.982
50.40000 204.567
50.41000 204.250
50.42000 204.491
50.43000 204.821
50.44000 205.085
50.45000 202.831
50.46000 200.811
50.47000 200.582
50.48000 204.840
50.49000 209.314
50.50000 216.582
50.51000 228.579
50.52000 240.654
50.53000 247.023
50.54000 236.659
50.55000 229.671
50.56000 231.078
50.57000 238.527
50.58000 245.818
50.59000 248.009
50.60000 247.743
50.61000 247.489
50.62000 248.762
50.63000 250.396
50.64000 252.236
50.65000 255.716
50.66000 259.552
50.67000 262.541
50.68000 261.284
50.69000 259.443
50.70000 258.005
50.71000 266.601
50.72000 274.095
50.73000 277.680
50.74000 272.511
50.75000 267.015
50.76000 260.828
50.77000 253.599
50.78000 246.360
50.79000 241.378
50.80000 238.604
50.81000 235.833
50.82000 233.327
50.83000 230.988
50.84000 228.819
50.85000 230.818
50.86000 234.611
50.87000 238.171
50.88000 235.721
50.89000 231.896
50.90000 227.960
50.91000 223.254
50.92000 218.401
50.93000 214.402
50.94000 214.187
50.95000 214.422
50.96000 214.600
50.97000 202.398
50.98000 192.173
50.99000 186.777
51.00000 191.035
51.01000 195.561
51.02000 196.235
51.03000 191.762
51.04000 187.267
51.05000 186.781
51.06000 189.736
51.07000 192.651
51.08000 193.384
51.09000 192.876
51.10000 192.318
51.11000 190.798
51.12000 188.908
51.13000 187.156
51.14000 184.095
51.15000 181.037
51.16000 178.229
51.17000 176.939
51.18000 175.904
51.19000 175.354
51.20000 176.707
51.21000 178.254
51.22000 179.391
51.23000 171.831
51.24000 165.625
51.25000 162.624
51.26000 165.336
51.27000 168.161
51.28000 168.555
51.29000 166.081
51.30000 163.609
51.31000 164.243
51.32000 167.217
51.33000 170.181
51.34000 172.795
51.35000 175.232
51.36000 177.334
51.37000 174.231
51.38000 169.342
51.39000 164.877
51.40000 164.806
51.41000 165.637
51.42000 166.276
51.43000 165.903
51.44000 165.381
51.45000 165.098
51.46000 165.652
51.47000 166.277
51.48000 166.721
51.49000 167.603
51.50000 168.288
51.51000 167.981
51.52000 166.100
51.53000 164.199
51.54000 163.437
51.55000 163.858
51.56000 164.276
51.57000 164.458
51.58000 164.480
51.59000 164.561
51.60000 166.293
51.61000 168.770
51.62000 170.996
51.63000 169.975
51.64000 167.961
51.65000 166.151
51.66000 161.878
51.67000 157.701
51.68000 154.657
51.69000 156.918
51.70000 159.853
51.71000 162.086
51.72000 162.133
51.73000 162.024
51.74000 161.950
51.75000 159.259
51.76000 157.182
51.77000 156.067
51.78000 156.311
51.79000 156.564
51.80000 158.074
51.81000 160.728
51.82000 163.356
51.83000 164.286
51.84000 164.201
51.85000 164.117
51.86000 164.032
51.87000 163.948
51.88000 163.878
51.89000 163.964
51.90000 164.092
51.91000 164.206
51.92000 162.919
51.93000 161.593
51.94000 160.627
51.95000 161.152
51.96000 161.840
51.97000 162.312
51.98000 162.183
51.99000 162.019
52.00000 161.911
52.01000 170.904
52.02000 177.679
52.03000 178.863
52.04000 173.069
52.05000 167.255
52.06000 162.229
52.07000 157.834
52.08000 153.504
52.09000 154.028
52.10000 157.049
52.11000 159.985
52.12000 161.475
52.13000 162.443
52.14000 163.542
52.15000 165.839
52.16000 168.425
52.17000 170.666
52.18000 163.509
52.19000 156.171
52.20000 151.036
52.21000 154.000
52.22000 157.716
52.23000 160.543
52.24000 161.170
52.25000 161.694
52.26000 162.024
52.27000 156.106
52.28000 151.754
52.29000 149.745
52.30000 150.313
52.31000 150.893
52.32000 153.053
52.33000 156.336
52.34000 159.549
52.35000 162.638
52.36000 165.549
52.37000 168.258
52.38000 168.142
52.39000 167.117
52.40000 166.376
52.41000 167.868
52.42000 169.837
52.43000 171.509
52.44000 165.930
52.45000 160.426
52.46000 155.920
52.47000 154.684
52.48000 153.701
52.49000 154.682
52.50000 160.006
52.51000 165.487
52.52000 168.777
52.53000 160.571
52.54000 154.664
52.55000 152.180
52.56000 152.999
52.57000 153.845
52.58000 156.853
52.59000 161.224
52.60000 165.471
52.61000 164.062
52.62000 160.439
52.63000 157.101
52.64000 157.088
52.65000 158.028
52.66000 159.021
52.67000 160.378
52.68000 161.803
52.69000 162.986
52.70000 160.811
52.71000 158.689
52.72000 156.404
52.73000 153.642
52.74000 150.850
52.75000 150.673
52.76000 155.660
52.77000 160.787
52.78000 163.708
52.79000 157.539
52.80000 153.217
52.81000 153.880
52.82000 158.771
52.83000 163.584
52.84000 164.353
52.85000 162.850
52.86000 161.404
52.87000 157.185
52.88000 152.236
52.89000 148.033
52.90000 151.184
52.91000 156.212
52.92000 160.408
52.93000 159.648
52.94000 158.068
52.95000 156.789
52.96000 155.627
52.97000 154.690
52.98000 155.063
52.99000 158.845
53.00000 162.805
53.01000 164.547
53.02000 162.385
53.03000 160.150
53.04000 158.947
53.05000 158.214
53.06000 157.713
53.07000 157.106
53.08000 156.418
53.09000 155.796
53.10000 157.548
53.11000 160.489
53.12000 163.292
53.13000 163.694
53.14000 163.311
53.15000 162.440
53.16000 157.452
53.17000 151.532
53.18000 147.417
53.19000 152.743
53.20000 159.433
53.21000 164.711
53.22000 167.634
53.23000 169.819
53.24000 171.828
53.25000 173.423
53.26000 175.002
53.27000 173.700
53.28000 167.882
53.29000 162.010
53.30000 159.040
53.31000 157.479
53.32000 156.474
53.33000 159.410
53.34000 164.967
53.35000 170.187
53.36000 166.340
53.37000 158.440
53.38000 150.992
53.39000 152.853
53.40000 157.133
53.41000 160.699
53.42000 159.076
53.43000 156.417
53.44000 154.530
53.45000 156.205
53.46000 158.326
53.47000 159.952
53.48000 159.029
53.49000 158.160
53.50000 157.541
53.51000 157.446
53.52000 157.366
53.53000 157.237
53.54000 157.038
53.55000 156.839
53.56000 159.730
53.57000 165.389
53.58000 170.916
53.59000 168.293
53.60000 160.851
53.61000 153.739
53.62000 153.507
53.63000 156.022
53.64000 158.364
53.65000 158.568
53.66000 158.234
53.67000 157.852
53.68000 157.166
53.69000 156.427
53.70000 155.831
53.71000 155.819
53.72000 155.870
53.73000 155.908
53.74000 159.872
53.75000 163.130
53.76000 165.870
53.77000 167.649
53.78000 169.408
53.79000 169.056
53.80000 166.107
53.81000 163.156
53.82000 161.930
53.83000 162.069
53.84000 162.299
53.85000 166.338
53.86000 172.383
53.87000 177.777
53.88000 172.249
53.89000 162.828
53.90000 154.181
53.91000 151.036
53.92000 149.402
53.93000 148.276
53.94000 149.962
53.95000 152.080
53.96000 153.460
53.97000 152.161
53.98000 150.618
53.99000 149.509
54.00000 154.936
54.01000 159.317
54.02000 161.557
54.03000 160.260
54.04000 158.911
54.05000 158.969
54.06000 160.554
54.07000 162.132
54.08000 160.438
54.09000 156.493
54.10000 152.750
54.11000 155.184
54.12000 160.523
54.13000 165.541
54.14000 166.157
54.15000 165.373
54.16000 164.664
54.17000 161.710
54.18000 158.694
54.19000 156.902
54.20000 161.078
54.21000 166.051
54.22000 168.645
54.23000 163.547
54.24000 157.862
54.25000 153.920
54.26000 151.856
54.27000 150.352
54.28000 151.112
54.29000 155.197
54.30000 159.310
54.31000 159.797
54.32000 156.834
54.33000 153.894
54.34000 152.538
54.35000 152.173
54.36000 151.844
54.37000 152.333
54.38000 153.165
54.39000 154.126
54.40000 156.560
54.41000 159.410
54.42000 161.944
54.43000 160.681
54.44000 158.973
54.45000 157.614
54.46000 157.760
54.47000 158.078
54.48000 157.693
54.49000 155.278
54.50000 152.736
54.51000 151.041
54.52000 158.548
54.53000 164.284
54.54000 167.511
54.55000 167.474
54.56000 167.421
54.57000 166.542
54.58000 164.971
54.59000 163.420
54.60000 162.662
54.61000 162.352
54.62000 161.935
54.63000 159.565
54.64000 156.462
54.65000 154.051
54.66000 158.337
54.67000 164.308
54.68000 169.518
54.69000 163.096
54.70000 155.980
54.71000 151.377
54.72000 156.393
54.73000 162.352
54.74000 165.586
54.75000 161.806
54.76000 157.672
54.77000 155.030
54.78000 154.219
54.79000 153.652
54.80000 155.072
54.81000 158.773
54.82000 162.460
54.83000 162.965
54.84000 161.116
54.85000 159.302
54.86000 156.002
54.87000 152.112
54.88000 148.435
54.89000 147.938
54.90000 148.506
54.91000 149.011
54.92000 149.000
54.93000 148.874
54.94000 148.765
54.95000 148.643
54.96000 148.537
54.97000 149.282
54.98000 152.921
54.99000 156.800
55.00000 159.180
55.01000 158.118
55.02000 156.919
55.03000 156.188
55.04000 166.431
55.05000 173.844
55.06000 174.787
55.07000 169.205
55.08000 163.623
55.09000 158.132
55.10000 152.700
55.11000 147.409
55.12000 150.896
55.13000 157.919
55.14000 164.533
55.15000 166.073
55.16000 166.100
55.17000 165.990
55.18000 164.903
55.19000 163.624
55.20000 162.553
55.21000 163.983
55.22000 165.425
55.23000 166.348
55.24000 165.691
55.25000 164.926
55.26000 165.929
55.27000 170.561
55.28000 175.300
55.29000 178.050
55.30000 174.422
55.31000 171.848
55.32000 168.310
55.33000 163.918
55.34000 159.608
55.35000 160.141
55.36000 163.500
55.37000 166.745
55.38000 171.949
55.39000 177.583
55.40000 182.696
55.41000 182.374
55.42000 180.610
55.43000 179.426
55.44000 181.866
55.45000 184.933
55.46000 187.439
55.47000 188.750
55.48000 189.719
55.49000 190.844
55.50000 192.389
55.51000 193.957
55.52000 195.372
55.53000 196.504
55.54000 197.629
55.55000 198.248
55.56000 209.250
55.57000 216.830
55.58000 222.103
55.59000 225.574
55.60000 229.102
55.61000 234.974
55.62000 242.066
55.63000 248.850
55.64000 258.161
55.65000 267.662
55.66000 277.144
55.67000 286.460
55.68000 295.737
55.69000 305.358
55.70000 316.863
55.71000 328.653
55.72000 338.040
55.73000 354.799
55.74000 368.843
55.75000 384.956
55.76000 406.068
55.77000 427.403
55.78000 444.750
55.79000 455.595
55.80000 466.348
55.81000 471.906
55.82000 503.779
55.83000 525.226
55.84000 541.149
55.85000 553.249
55.86000 565.462
55.87000 581.024
55.88000 598.141
55.89000 614.340
55.90000 617.668
55.91000 617.009
55.92000 617.312
55.93000 624.959
55.94000 634.136
55.95000 642.256
55.96000 645.286
55.97000 647.647
55.98000 649.475
55.99000 632.989
56.00000 618.812
56.01000 608.239
56.02000 605.447
56.03000 602.920
56.04000 595.183
56.05000 579.897
56.06000 564.550
56.07000 550.854
56.08000 538.709
56.09000 526.452
56.10000 506.168
56.11000 480.949
56.12000 455.927
56.13000 435.395
56.14000 416.727
56.15000 399.272
56.16000 392.081
56.17000 388.158
56.18000 382.475
56.19000 365.121
56.20000 345.626
56.21000 327.469
56.22000 315.010
56.23000 303.196
56.24000 294.320
56.25000 280.789
56.26000 269.988
56.27000 258.520
56.28000 245.767
56.29000 232.982
56.30000 224.849
56.31000 222.689
56.32000 220.555
56.33000 214.773
56.34000 206.007
56.35000 197.399
56.36000 196.218
56.37000 199.105
56.38000 201.689
56.39000 198.806
56.40000 193.899
56.41000 189.372
56.42000 186.323
56.43000 183.920
56.44000 181.215
56.45000 176.755
56.46000 172.013
56.47000 168.193
56.48000 167.858
56.49000 167.860
56.50000 167.861
56.51000 171.173
56.52000 173.847
56.53000 175.038
56.54000 173.681
56.55000 172.281
56.56000 169.007
56.57000 163.612
56.58000 158.233
56.59000 157.050
56.60000 158.914
56.61000 160.729
56.62000 160.898
56.63000 160.262
56.64000 159.746
56.65000 160.983
56.66000 162.801
56.67000 164.453
56.68000 159.627
56.69000 154.101
56.70000 149.484
56.71000 149.498
56.72000 150.160
56.73000 149.992
56.74000 147.035
56.75000 143.851
56.76000 141.615
56.77000 149.278
56.78000 155.369
56.79000 156.715
56.80000 150.810
56.81000 144.828
56.82000 144.459
56.83000 149.673
56.84000 154.852
56.85000 152.762
56.86000 146.066
56.87000 139.635
56.88000 139.952
56.89000 143.214
56.90000 146.599
56.91000 151.482
56.92000 156.806
56.93000 161.566
56.94000 157.834
56.95000 153.142
56.96000 149.099
56.97000 147.967
56.98000 147.187
56.99000 147.518
57.00000 151.174
57.01000 155.054
57.02000 157.677
57.03000 159.072
57.04000 160.084
57.05000 159.411
57.06000 156.452
57.07000 153.482
57.08000 151.648
57.09000 150.806
57.10000 149.974
57.11000 150.438
57.12000 151.621
57.13000 152.711
57.14000 151.945
57.15000 150.456
57.16000 149.193
57.17000 150.251
57.18000 151.917
57.19000 153.380
57.20000 149.491
57.21000 145.364
57.22000 142.105
57.23000 142.302
57.24000 142.857
57.25000 143.713
57.26000 145.375
57.27000 147.081
57.28000 148.188
57.29000 145.277
57.30000 143.085
57.31000 141.675
57.32000 141.202
57.33000 140.730
57.34000 139.831
57.35000 138.605
57.36000 137.399
57.37000 140.655
57.38000 146.023
57.39000 151.395
57.40000 156.835
57.41000 162.300
57.42000 166.400
57.43000 158.587
57.44000 148.005
57.45000 138.894
57.46000 141.461
57.47000 145.112
57.48000 147.890
57.49000 147.581
57.50000 147.001
57.51000 146.444
57.52000 145.942
57.53000 145.442
57.54000 145.131
57.55000 147.093
57.56000 148.526
57.57000 148.667
57.58000 147.443
57.59000 146.239
57.60000 147.299
57.61000 149.906
57.62000 152.452
57.63000 153.922
57.64000 154.855
57.65000 155.355
57.66000 150.139
57.67000 143.150
57.68000 136.795
57.69000 135.202
57.70000 134.588
57.71000 134.070
57.72000 134.199
57.73000 134.376
57.74000 135.603
57.75000 140.143
57.76000 144.925
57.77000 147.395
57.78000 144.934
57.79000 142.310
57.80000 140.760
57.81000 140.760
57.82000 140.768
57.83000 142.700
57.84000 146.409
57.85000 150.074
57.86000 150.643
57.87000 149.333
57.88000 148.064
57.89000 147.808
57.90000 147.960
57.91000 148.162
57.92000 148.922
57.93000 149.836
57.94000 150.367
57.95000 148.399
57.96000 145.978
57.97000 143.984
57.98000 143.887
57.99000 143.981
58.00000 143.861
58.01000 143.139
58.02000 142.380
58.03000 140.050
58.04000 134.727
58.05000 129.332
58.06000 126.312
58.07000 142.839
58.08000 154.310
58.09000 155.496
58.10000 148.305
58.11000 141.226
58.12000 139.236
58.13000 140.001
58.14000 140.734
58.15000 141.672
58.16000 142.619
58.17000 143.595
58.18000 144.840
58.19000 146.150
58.20000 146.847
58.21000 144.036
58.22000 140.670
58.23000 137.965
58.24000 138.138
58.25000 138.498
58.26000 137.574
58.27000 133.425
58.28000 129.121
58.29000 128.693
58.30000 134.839
58.31000 141.094
58.32000 144.396
58.33000 143.370
58.34000 142.662
58.35000 140.463
58.36000 137.190
58.37000 134.037
58.38000 134.766
58.39000 137.369
58.40000 139.843
58.41000 139.561
58.42000 138.470
58.43000 137.759
58.44000 140.106
58.45000 143.116
58.46000 144.283
58.47000 136.193
58.48000 126.825
58.49000 119.501
58.50000 127.856
58.51000 135.521
58.52000 139.870
58.53000 136.783
58.54000 133.417
58.55000 131.871
58.56000 133.069
58.57000 134.295
58.58000 136.961
58.59000 141.039
58.60000 145.072
58.61000 145.318
58.62000 143.141
58.63000 141.079
58.64000 141.833
58.65000 143.802
58.66000 145.650
58.67000 142.256
58.68000 137.769
58.69000 133.916
58.70000 134.463
58.71000 135.853
58.72000 137.184
58.73000 138.253
58.74000 139.291
58.75000 140.079
58.76000 142.122
58.77000 143.792
58.78000 142.982
58.79000 137.205
58.80000 131.289
58.81000 130.247
58.82000 135.728
58.83000 141.238
58.84000 143.703
58.85000 143.543
58.86000 143.370
58.87000 142.471
58.88000 141.159
58.89000 139.720
58.90000 135.838
58.91000 131.014
58.92000 126.544
58.93000 127.722
58.94000 130.097
58.95000 132.852
58.96000 137.910
58.97000 143.356
58.98000 147.566
58.99000 146.920
59.00000 145.778
59.01000 144.938
59.02000 141.381
59.03000 138.517
59.04000 136.245
59.05000 135.031
59.06000 133.837
59.07000 132.908
59.08000 132.293
59.09000 131.680
59.10000 131.228
59.11000 130.902
59.12000 130.577
59.13000 130.298
59.14000 130.043
59.15000 129.868
59.16000 130.933
59.17000 132.425
59.18000 133.788
59.19000 136.810
59.20000 139.830
59.21000 142.220
59.22000 141.256
59.23000 139.798
59.24000 138.920
59.25000 140.067
59.26000 141.388
59.27000 142.328
59.28000 141.357
59.29000 140.557
59.30000 139.470
59.31000 137.925
59.32000 136.374
59.33000 138.260
59.34000 143.721
59.35000 149.152
59.36000 148.667
59.37000 144.249
59.38000 139.903
59.39000 137.541
59.40000 136.079
59.41000 134.805
59.42000 135.962
59.43000 137.863
59.44000 139.572
59.45000 138.272
59.46000 136.599
59.47000 135.346
59.48000 136.062
59.49000 137.029
59.50000 137.452
59.51000 136.183
59.52000 134.793
59.53000 133.841
59.54000 138.786
59.55000 142.630
59.56000 145.297
59.57000 146.300
59.58000 147.290
59.59000 146.295
59.60000 143.490
59.61000 140.711
59.62000 136.162
59.63000 130.667
59.64000 125.636
59.65000 130.619
59.66000 139.655
59.67000 147.647
59.68000 144.341
59.69000 137.954
59.70000 132.311
59.71000 132.328
59.72000 133.215
59.73000 134.022
59.74000 134.502
59.75000 134.947
59.76000 134.501
59.77000 131.585
59.78000 128.523
59.79000 126.509
59.80000 126.790
59.81000 127.035
59.82000 125.677
59.83000 122.313
59.84000 118.953
59.85000 119.072
59.86000 121.987
59.87000 124.859
59.88000 124.478
59.89000 122.419
59.90000 120.707
59.91000 124.938
59.92000 131.318
59.93000 137.037
59.94000 136.682
59.95000 134.855
59.96000 133.272
59.97000 133.520
59.98000 133.975
59.99000 133.803
60.00000 131.321
60.01000 128.625
60.02000 128.169
60.03000 133.274
60.04000 138.639
60.05000 142.018
60.06000 139.758
60.07000 138.058
60.08000 135.693
60.09000 132.596
60.10000 129.512
60.11000 128.446
60.12000 128.815
60.13000 129.177
60.14000 131.579
60.15000 134.821
60.16000 137.736
60.17000 136.067
60.18000 132.919
60.19000 130.075
60.20000 129.630
60.21000 129.700
60.22000 129.759
60.23000 131.454
60.24000 133.063
60.25000 134.632
60.26000 136.073
60.27000 137.503
60.28000 138.419
60.29000 138.195
60.30000 137.930
60.31000 137.770
60.32000 136.697
60.33000 135.927
60.34000 135.723
60.35000 136.064
60.36000 136.404
60.37000 136.660
60.38000 136.863
60.39000 137.059
60.40000 134.482
60.41000 130.910
60.42000 127.686
60.43000 128.525
60.44000 130.532
60.45000 131.925
60.46000 129.123
60.47000 125.526
60.48000 122.540
60.49000 126.918
60.50000 131.251
60.51000 134.174
60.52000 132.976
60.53000 131.512
60.54000 131.824
60.55000 135.649
60.56000 139.569
60.57000 141.805
60.58000 133.277
60.59000 127.300
60.60000 124.542
60.61000 124.521
60.62000 124.509
60.63000 124.951
60.64000 125.647
60.65000 126.318
60.66000 126.181
60.67000 125.764
60.68000 125.900
60.69000 131.507
60.70000 138.510
60.71000 144.093
60.72000 141.192
60.73000 136.884
60.74000 133.393
60.75000 135.279
60.76000 137.254
60.77000 138.778
60.78000 139.126
60.79000 139.413
60.80000 138.615
60.81000 135.904
60.82000 133.156
60.83000 131.676
60.84000 135.412
60.85000 137.957
60.86000 137.406
60.87000 134.531
60.88000 131.690
60.89000 130.103
60.90000 129.144
60.91000 128.230
60.92000 129.467
60.93000 131.290
60.94000 133.052
60.95000 134.293
60.96000 135.416
60.97000 136.533
60.98000 137.625
60.99000 138.712
61.00000 139.570
61.01000 138.912
61.02000 138.281
61.03000 136.993
61.04000 134.172
61.05000 131.289
61.06000 130.047
61.07000 131.380
61.08000 132.744
61.09000 133.435
61.10000 136.245
61.11000 138.112
61.12000 138.554
61.13000 138.045
61.14000 137.548
61.15000 137.374
61.16000 137.345
61.17000 137.317
61.18000 137.370
61.19000 137.441
61.20000 137.240
61.21000 135.062
61.22000 132.488
61.23000 130.622
61.24000 132.025
61.25000 133.838
61.26000 135.228
61.27000 137.618
61.28000 139.562
61.29000 139.288
61.30000 134.395
61.31000 129.360
61.32000 130.933
61.33000 141.721
61.34000 152.565
61.35000 152.806
61.36000 143.519
61.37000 134.329
61.38000 131.150
61.39000 131.530
61.40000 131.968
61.41000 133.636
61.42000 135.795
61.43000 137.805
61.44000 139.871
61.45000 141.753
61.46000 143.247
61.47000 142.286
61.48000 140.892
61.49000 141.197
61.50000 148.458
61.51000 156.468
61.52000 162.425
61.53000 171.675
61.54000 179.016
61.55000 186.649
61.56000 194.823
61.57000 203.009
61.58000 208.577
61.59000 210.913
61.60000 213.236
61.61000 223.683
61.62000 240.492
61.63000 256.983
61.64000 260.084
61.65000 256.118
61.66000 252.787
61.67000 260.105
61.68000 271.227
61.69000 281.438
61.70000 275.677
61.71000 267.132
61.72000 260.003
61.73000 260.737
61.74000 262.682
61.75000 264.209
61.76000 264.219
61.77000 264.090
61.78000 263.997
61.79000 240.361
61.80000 221.443
61.81000 205.030
61.82000 192.760
61.83000 180.552
61.84000 172.560
61.85000 169.153
61.86000 165.762
61.87000 161.516
61.88000 156.719
61.89000 151.846
61.90000 144.631
61.91000 136.313
61.92000 128.831
61.93000 132.846
61.94000 140.524
61.95000 147.465
61.96000 146.971
61.97000 145.152
61.98000 144.008
61.99000 146.163
62.00000 148.759
62.01000 150.397
62.02000 148.933
62.03000 147.233
62.04000 146.053
62.05000 142.546
62.06000 139.843
62.07000 138.304
62.08000 138.478
62.09000 138.666
62.10000 138.796
62.11000 138.869
62.12000 138.942
62.13000 139.828
62.14000 141.196
62.15000 142.473
62.16000 141.612
62.17000 139.851
62.18000 138.188
62.19000 137.633
62.20000 137.392
62.21000 137.178
62.22000 139.374
62.23000 141.669
62.24000 143.868
62.25000 145.648
62.26000 147.380
62.27000 148.118
62.28000 145.984
62.29000 143.670
62.30000 142.125
62.31000 139.082
62.32000 136.799
62.33000 138.695
62.34000 146.040
62.35000 153.397
62.36000 155.199
62.37000 152.342
62.38000 149.523
62.39000 148.630
62.40000 148.803
62.41000 148.900
62.42000 147.593
62.43000 145.758
62.44000 143.808
62.45000 140.739
62.46000 137.388
62.47000 134.464
62.48000 136.417
62.49000 138.770
62.50000 141.341
62.51000 144.749
62.52000 148.240
62.53000 149.919
62.54000 146.929
62.55000 143.702
62.56000 141.638
62.57000 140.978
62.58000 140.516
62.59000 139.907
62.60000 139.130
62.61000 138.356
62.62000 138.036
62.63000 138.055
62.64000 138.072
62.65000 137.362
62.66000 136.328
62.67000 135.607
62.68000 139.573
62.69000 145.111
62.70000 150.072
62.71000 150.245
62.72000 149.348
62.73000 148.581
62.74000 142.784
62.75000 137.291
62.76000 133.742
62.77000 136.820
62.78000 140.448
62.79000 141.525
62.80000 136.732
62.81000 131.705
62.82000 128.636
62.83000 124.878
62.84000 122.184
62.85000 125.772
62.86000 135.708
62.87000 145.531
62.88000 144.446
62.89000 136.191
62.90000 128.148
62.91000 131.109
62.92000 138.576
62.93000 145.395
62.94000 144.178
62.95000 140.557
62.96000 137.373
62.97000 137.313
62.98000 137.870
62.99000 138.336
63.00000 139.948
63.01000 141.404
63.02000 143.139
63.03000 145.719
63.04000 148.357
63.05000 149.787
63.06000 148.733
63.07000 147.605
63.08000 146.949
63.09000 146.388
63.10000 145.993
63.11000 144.347
63.12000 141.590
63.13000 138.889
63.14000 139.446
63.15000 141.910
63.16000 144.290
63.17000 142.661
63.18000 139.631
63.19000 136.955
63.20000 137.976
63.21000 139.980
63.22000 141.705
63.23000 141.688
63.24000 141.369
63.25000 141.108
63.26000 143.526
63.27000 145.737
63.28000 147.463
63.29000 147.874
63.30000 148.212
63.31000 147.198
63.32000 143.706
63.33000 140.161
63.34000 138.212
63.35000 145.411
63.36000 150.358
63.37000 149.096
63.38000 142.972
63.39000 136.999
63.40000 137.068
63.41000 140.289
63.42000 143.371
63.43000 147.962
63.44000 152.736
63.45000 157.126
63.46000 158.103
63.47000 158.275
63.48000 157.564
63.49000 152.023
63.50000 145.749
63.51000 140.752
63.52000 139.813
63.53000 139.349
63.54000 138.628
63.55000 137.285
63.56000 135.915
63.57000 136.735
63.58000 141.135
63.59000 145.586
63.60000 147.889
63.61000 147.724
63.62000 147.628
63.63000 149.401
63.64000 152.471
63.65000 155.385
63.66000 153.712
63.67000 149.905
63.68000 146.300
63.69000 151.702
63.70000 159.278
63.71000 165.463
63.72000 160.991
63.73000 154.295
63.74000 148.385
63.75000 146.270
63.76000 144.654
63.77000 143.403
63.78000 148.014
63.79000 152.026
63.80000 154.247
63.81000 152.599
63.82000 150.817
63.83000 149.300
63.84000 148.166
63.85000 147.035
63.86000 147.881
63.87000 150.584
63.88000 153.213
63.89000 150.497
63.90000 144.489
63.91000 138.902
63.92000 142.913
63.93000 150.913
63.94000 158.393
63.95000 154.264
63.96000 147.560
63.97000 141.663
63.98000 141.131
63.99000 141.585
64.00000 143.178
64.01000 149.622
64.02000 156.616
64.03000 161.874
64.04000 162.542
64.05000 162.844
64.06000 163.657
64.07000 165.456
64.08000 167.280
64.09000 166.687
64.10000 162.985
64.11000 159.276
64.12000 157.890
64.13000 158.425
64.14000 158.963
64.15000 159.658
64.16000 160.441
64.17000 161.008
64.18000 157.703
64.19000 152.959
64.20000 148.583
64.21000 147.533
64.22000 147.334
64.23000 147.551
64.24000 150.179
64.25000 153.196
64.26000 155.939
64.27000 157.646
64.28000 159.252
64.29000 160.421
64.30000 170.866
64.31000 179.259
64.32000 183.002
64.33000 178.746
64.34000 174.352
64.35000 172.883
64.36000 174.737
64.37000 176.588
64.38000 174.187
64.39000 168.724
64.40000 163.358
64.41000 161.310
64.42000 160.887
64.43000 160.335
64.44000 157.895
64.45000 154.830
64.46000 152.044
64.47000 157.954
64.48000 164.873
64.49000 170.468
64.50000 169.303
64.51000 167.190
64.52000 165.175
64.53000 163.492
64.54000 161.837
64.55000 160.674
64.56000 162.934
64.57000 164.746
64.58000 167.113
64.59000 170.330
64.60000 173.556
64.61000 175.009
64.62000 174.695
64.63000 174.382
64.64000 173.147
64.65000 171.341
64.66000 169.695
64.67000 172.126
64.68000 176.340
64.69000 179.917
64.70000 175.755
64.71000 169.308
64.72000 163.544
64.73000 166.933
64.74000 171.442
64.75000 176.059
64.76000 181.167
64.77000 186.335
64.78000 189.317
64.79000 185.743
64.80000 181.726
64.81000 179.010
64.82000 176.793
64.83000 175.152
64.84000 174.784
64.85000 176.143
64.86000 177.510
64.87000 176.768
64.88000 174.182
64.89000 171.624
64.90000 171.179
64.91000 171.937
64.92000 172.886
64.93000 177.640
64.94000 183.879
64.95000 189.497
64.96000 188.743
64.97000 186.317
64.98000 184.186
64.99000 183.955
65.00000 184.035
65.01000 184.731
65.02000 187.881
65.03000 191.287
65.04000 192.552
65.05000 188.085
65.06000 183.303
65.07000 180.201
65.08000 188.546
65.09000 194.830
65.10000 200.368
65.11000 205.009
65.12000 209.646
65.13000 213.747
65.14000 217.433
65.15000 221.058
65.16000 219.198
65.17000 214.666
65.18000 210.665
65.19000 215.181
65.20000 222.665
65.21000 229.408
65.22000 229.663
65.23000 228.408
65.24000 227.327
65.25000 236.341
65.26000 245.257
65.27000 253.363
65.28000 258.599
65.29000 263.583
65.30000 267.548
65.31000 269.076
65.32000 270.499
65.33000 271.381
65.34000 285.066
65.35000 295.038
65.36000 299.839
65.37000 299.175
65.38000 298.584
65.39000 306.551
65.40000 320.376
65.41000 333.879
65.42000 338.598
65.43000 339.251
65.44000 340.139
65.45000 344.137
65.46000 349.101
65.47000 354.324
65.48000 361.497
65.49000 369.071
65.50000 375.457
65.51000 384.192
65.52000 391.741
65.53000 398.372
65.54000 402.107
65.55000 405.629
65.56000 408.338
65.57000 409.313
65.58000 410.230
65.59000 410.772
65.60000 415.155
65.61000 418.273
65.62000 421.878
65.63000 425.935
65.64000 430.016
65.65000 435.775
65.66000 442.554
65.67000 449.123
65.68000 475.527
65.69000 508.229
65.70000 541.198
65.71000 577.114
65.72000 613.846
65.73000 650.703
65.74000 688.387
65.75000 726.220
65.76000 757.392
65.77000 807.119
65.78000 849.738
65.79000 889.905
65.80000 923.166
65.81000 956.011
65.82000 983.729
65.83000 1001.677
65.84000 1019.388
65.85000 1029.310
65.86000 1019.781
65.87000 1013.120
65.88000 1002.400
65.89000 988.366
65.90000 974.516
65.91000 969.046
65.92000 968.117
65.93000 967.225
65.94000 927.229
65.95000 876.407
65.96000 825.437
65.97000 773.083
65.98000 720.388
65.99000 667.364
66.00000 612.457
66.01000 557.251
66.02000 512.887
66.03000 461.600
66.04000 419.496
66.05000 383.512
66.06000 362.928
66.07000 343.087
66.08000 328.514
66.09000 322.894
66.10000 317.422
66.11000 314.530
66.12000 299.852
66.13000 289.904
66.14000 284.387
66.15000 282.070
66.16000 279.810
66.17000 279.445
66.18000 279.997
66.19000 280.521
66.20000 280.027
66.21000 279.263
66.22000 279.094
66.23000 283.710
66.24000 289.367
66.25000 296.094
66.26000 308.198
66.27000 321.045
66.28000 331.093
66.29000 336.843
66.30000 341.159
66.31000 346.146
66.32000 352.642
66.33000 359.193
66.34000 366.486
66.35000 374.900
66.36000 383.325
66.37000 389.622
66.38000 393.828
66.39000 398.038
66.40000 402.499
66.41000 407.122
66.42000 411.466
66.43000 408.905
66.44000 403.364
66.45000 398.160
66.46000 398.810
66.47000 400.959
66.48000 403.482
66.49000 408.607
66.50000 414.232
66.51000 415.643
66.52000 398.326
66.53000 378.773
66.54000 363.920
66.55000 354.700
66.56000 347.745
66.57000 340.691
66.58000 333.443
66.59000 326.188
66.60000 320.638
66.61000 317.373
66.62000 314.122
66.63000 309.729
66.64000 304.361
66.65000 299.078
66.66000 298.434
66.67000 300.436
66.68000 302.273
66.69000 300.896
66.70000 298.280
66.71000 295.854
66.72000 295.395
66.73000 295.441
66.74000 295.392
66.75000 294.768
66.76000 294.047
66.77000 293.632
66.78000 294.418
66.79000 295.327
66.80000 295.997
66.81000 308.562
66.82000 318.778
66.83000 323.056
66.84000 316.713
66.85000 310.159
66.86000 310.851
66.87000 320.130
66.88000 329.401
66.89000 328.467
66.90000 319.811
66.91000 311.341
66.92000 309.882
66.93000 311.990
66.94000 314.253
66.95000 318.955
66.96000 324.496
66.97000 329.559
66.98000 325.167
66.99000 319.336
67.00000 315.101
67.01000 319.364
67.02000 324.879
67.03000 329.562
67.04000 331.334
67.05000 332.856
67.06000 333.938
67.07000 348.190
67.08000 359.467
67.09000 363.147
67.10000 354.726
67.11000 346.150
67.12000 342.025
67.13000 342.539
67.14000 343.050
67.15000 343.930
67.16000 345.044
67.17000 346.189
67.18000 348.194
67.19000 350.589
67.20000 352.877
67.21000 353.771
67.22000 354.238
67.23000 354.658
67.24000 363.309
67.25000 372.352
67.26000 378.616
67.27000 371.828
67.28000 363.375
67.29000 358.204
67.30000 363.272
67.31000 369.078
67.32000 373.056
67.33000 373.186
67.34000 373.190
67.35000 374.417
67.36000 377.375
67.37000 380.344
67.38000 382.172
67.39000 382.955
67.40000 383.731
67.41000 383.827
67.42000 383.519
67.43000 383.086
67.44000 379.946
67.45000 375.707
67.46000 372.292
67.47000 377.820
67.48000 385.790
67.49000 392.834
67.50000 406.163
67.51000 418.644
67.52000 427.965
67.53000 424.147
67.54000 418.888
67.55000 414.089
67.56000 410.570
67.57000 407.126
67.58000 404.858
67.59000 410.380
67.60000 414.581
67.61000 421.864
67.62000 433.006
67.63000 444.140
67.64000 447.734
67.65000 445.258
67.66000 442.818
67.67000 437.685
67.68000 431.304
67.69000 425.289
67.70000 425.580
67.71000 428.155
67.72000 430.584
67.73000 431.671
67.74000 432.434
67.75000 433.095
67.76000 449.817
67.77000 466.196
67.78000 478.191
67.79000 474.007
67.80000 468.314
67.81000 463.680
67.82000 461.673
67.83000 459.790
67.84000 458.604
67.85000 469.516
67.86000 477.553
67.87000 479.159
67.88000 473.663
67.89000 468.206
67.90000 469.064
67.91000 474.423
67.92000 479.670
67.93000 479.879
67.94000 477.767
67.95000 476.123
67.96000 481.077
67.97000 488.163
67.98000 494.717
67.99000 497.057
68.00000 498.492
68.01000 499.711
68.02000 510.669
68.03000 520.977
68.04000 528.509
68.05000 526.924
68.06000 524.625
68.07000 523.660
68.08000 525.653
68.09000 527.755
68.10000 529.018
68.11000 529.088
68.12000 529.130
68.13000 532.059
68.14000 537.784
68.15000 543.472
68.16000 546.166
68.17000 546.966
68.18000 547.744
68.19000 549.413
68.20000 551.361
68.21000 553.285
68.22000 554.935
68.23000 556.505
68.24000 559.083
68.25000 568.564
68.26000 579.352
68.27000 588.312
68.28000 605.441
68.29000 620.399
68.30000 629.141
68.31000 619.676
68.32000 609.035
68.33000 605.256
68.34000 615.073
68.35000 625.259
68.36000 631.072
68.37000 641.949
68.38000 649.545
68.39000 651.710
68.40000 649.251
68.41000 646.914
68.42000 650.965
68.43000 658.615
68.44000 665.985
68.45000 687.420
68.46000 712.585
68.47000 735.891
68.48000 740.792
68.49000 740.982
68.50000 743.352
68.51000 758.770
68.52000 776.358
68.53000 790.614
68.54000 791.813
68.55000 791.721
68.56000 799.874
68.57000 829.575
68.58000 860.401
68.59000 885.460
68.60000 900.331
68.61000 915.008
68.62000 922.924
68.63000 983.082
68.64000 1024.307
68.65000 1070.830
68.66000 1121.340
68.67000 1171.742
68.68000 1218.251
68.69000 1262.804
68.70000 1305.294
68.71000 1351.071
68.72000 1394.580
68.73000 1439.248
68.74000 1493.712
68.75000 1550.399
68.76000 1606.387
68.77000 1658.703
68.78000 1710.488
68.79000 1751.373
68.80000 1818.957
68.81000 1875.008
68.82000 1938.536
68.83000 2019.519
68.84000 2101.219
68.85000 2190.757
68.86000 2292.624
68.87000 2394.641
68.88000 2446.340
68.89000 2830.050
68.90000 3089.611
68.91000 3614.189
68.92000 4315.551
68.93000 5047.396
68.94000 6605.753
68.95000 8534.885
68.96000 10354.048
68.97000 13855.834
68.98000 17531.143
68.99000 21306.502
69.00000 25812.713
69.01000 30465.438
69.02000 34967.672
69.03000 38772.672
69.04000 42490.102
69.05000 45342.773
69.06000 47937.371
69.07000 49973.375
69.08000 51482.375
69.09000 51892.891
69.10000 52269.172
69.11000 52607.391
69.12000 52892.445
69.13000 53177.039
69.14000 53598.508
69.15000 54142.770
69.16000 54685.758
69.17000 55149.418
69.18000 55566.016
69.19000 55927.273
69.20000 55123.781
69.21000 53853.648
69.22000 52670.914
69.23000 49598.145
69.24000 46358.664
69.25000 43193.918
69.26000 40504.102
69.27000 37898.031
69.28000 35423.605
69.29000 33489.219
69.30000 31613.051
69.31000 30217.002
69.32000 29014.158
69.33000 28087.006
69.34000 27290.398
69.35000 26736.578
69.36000 26188.217
69.37000 25435.756
69.38000 24431.020
69.39000 23427.395
69.40000 21888.689
69.41000 19933.930
69.42000 17973.021
69.43000 15752.437
69.44000 13394.547
69.45000 11067.585
69.46000 9261.548
69.47000 7641.849
69.48000 6154.517
69.49000 5013.085
69.50000 4068.653
69.51000 3202.593
69.52000 2772.584
69.53000 2409.838
69.54000 2088.926
69.55000 1920.442
69.56000 1765.910
69.57000 1654.692
69.58000 1552.187
69.59000 1474.006
69.60000 1398.365
69.61000 1326.936
69.62000 1255.569
69.63000 1204.566
69.64000 1175.740
69.65000 1147.048
69.66000 1109.174
69.67000 1065.298
69.68000 1022.136
69.69000 1000.898
69.70000 990.006
69.71000 978.428
69.72000 957.396
69.73000 933.347
69.74000 911.600
69.75000 894.204
69.76000 879.707
69.77000 866.294
69.78000 858.193
69.79000 850.804
69.80000 840.771
69.81000 822.160
69.82000 802.891
69.83000 789.514
69.84000 769.928
69.85000 755.009
69.86000 746.486
69.87000 747.389
69.88000 748.375
69.89000 744.631
69.90000 736.370
69.91000 728.175
69.92000 712.905
69.93000 693.561
69.94000 674.563
69.95000 663.673
69.96000 656.199
69.97000 649.524
69.98000 652.031
69.99000 657.148
70.00000 661.697
