20.00000 551.210
20.01000 559.431
20.02000 568.827
20.03000 576.743
20.04000 578.892
20.05000 580.460
20.06000 581.610
20.07000 581.349
20.08000 581.089
20.09000 580.391
20.10000 578.914
20.11000 577.422
20.12000 576.093
20.13000 574.955
20.14000 573.819
20.15000 576.026
20.16000 580.722
20.17000 585.164
20.18000 580.305
20.19000 570.762
20.20000 561.795
20.21000 561.714
20.22000 564.661
20.23000 567.350
20.24000 571.624
20.25000 575.734
20.26000 579.684
20.27000 582.790
20.28000 585.773
20.29000 585.723
20.30000 575.161
20.31000 563.705
20.32000 555.584
20.33000 562.055
20.34000 567.433
20.35000 565.436
20.36000 551.812
20.37000 538.045
20.38000 534.939
20.39000 542.813
20.40000 550.643
20.41000 559.069
20.42000 567.776
20.43000 576.078
20.44000 573.325
20.45000 565.602
20.46000 558.807
20.47000 563.829
20.48000 572.441
20.49000 580.174
20.50000 581.751
20.51000 582.048
20.52000 580.281
20.53000 568.927
20.54000 556.366
20.55000 548.230
20.56000 553.762
20.57000 560.260
20.58000 564.698
20.59000 569.019
20.60000 572.248
20.61000 573.341
20.62000 571.442
20.63000 569.524
20.64000 569.174
20.65000 570.241
20.66000 571.297
20.67000 571.977
20.68000 572.425
20.69000 572.651
20.70000 568.199
20.71000 561.869
20.72000 555.698
20.73000 551.227
20.74000 547.216
20.75000 543.677
20.76000 550.186
20.77000 557.332
20.78000 561.336
20.79000 552.422
20.80000 542.112
20.81000 536.589
20.82000 544.259
20.83000 552.691
20.84000 558.221
20.85000 563.605
20.86000 567.562
20.87000 563.602
20.88000 549.834
20.89000 536.083
20.90000 536.423
20.91000 547.986
20.92000 559.374
20.93000 560.004
20.94000 555.087
20.95000 549.883
20.96000 539.837
20.97000 528.055
20.98000 518.456
20.99000 528.700
21.00000 543.708
21.01000 556.700
21.02000 558.695
21.03000 558.946
21.04000 558.653
21.05000 556.379
21.06000 553.923
21.07000 553.752
21.08000 559.205
21.09000 564.917
21.10000 568.503
21.11000 560.628
21.12000 554.810
21.13000 555.915
21.14000 564.576
21.15000 573.194
21.16000 575.314
21.17000 572.852
21.18000 570.443
21.19000 565.543
21.20000 559.708
21.21000 554.407
21.22000 556.481
21.23000 560.914
21.24000 564.579
21.25000 562.248
21.26000 558.644
21.27000 555.588
21.28000 555.619
21.29000 555.994
21.30000 557.931
21.31000 564.946
21.32000 572.353
21.33000 571.809
21.34000 553.797
21.35000 535.162
21.36000 524.011
21.37000 531.275
21.38000 536.548
21.39000 538.558
21.40000 537.442
21.41000 536.380
21.42000 539.356
21.43000 544.862
21.44000 550.209
21.45000 555.039
21.46000 559.416
21.47000 563.780
21.48000 568.001
21.49000 572.180
21.50000 575.743
21.51000 575.127
21.52000 573.728
21.53000 572.569
21.54000 562.443
21.55000 553.221
21.56000 547.508
21.57000 551.960
21.58000 557.058
21.59000 561.292
21.60000 563.831
21.61000 566.325
21.62000 567.742
21.63000 568.515
21.64000 569.041
21.65000 564.537
21.66000 555.797
21.67000 547.242
21.68000 547.998
21.69000 553.948
21.70000 559.674
21.71000 566.185
21.72000 572.572
21.73000 579.442
21.74000 591.033
21.75000 603.819
21.76000 614.454
21.77000 612.358
21.78000 608.172
21.79000 604.786
21.80000 608.275
21.81000 611.667
21.82000 618.936
21.83000 636.238
21.84000 654.052
21.85000 666.166
21.86000 668.310
21.87000 670.270
21.88000 671.322
21.89000 680.144
21.90000 686.225
21.91000 701.992
21.92000 724.967
21.93000 747.653
21.94000 760.124
21.95000 767.514
21.96000 774.555
21.97000 787.465
21.98000 801.261
21.99000 814.018
22.00000 818.100
22.01000 820.236
22.02000 823.137
22.03000 830.011
22.04000 837.455
22.05000 843.317
22.06000 850.192
22.07000 855.770
22.08000 858.528
22.09000 854.771
22.10000 850.753
22.11000 839.659
22.12000 817.552
22.13000 795.317
22.14000 784.114
22.15000 749.893
22.16000 727.110
22.17000 713.066
22.18000 704.791
22.19000 696.517
22.20000 688.310
22.21000 680.133
22.22000 672.429
22.23000 665.919
22.24000 660.288
22.25000 654.094
22.26000 643.833
22.27000 632.766
22.28000 621.802
22.29000 611.314
22.30000 600.885
22.31000 592.903
22.32000 584.565
22.33000 577.966
22.34000 571.431
22.35000 565.028
22.36000 558.629
22.37000 553.237
22.38000 549.239
22.39000 545.251
22.40000 546.548
22.41000 552.545
22.42000 558.434
22.43000 557.853
22.44000 553.472
22.45000 549.200
22.46000 547.174
22.47000 546.039
22.48000 544.984
22.49000 548.305
22.50000 552.360
22.51000 555.345
22.52000 551.614
22.53000 546.712
22.54000 541.267
22.55000 533.614
22.56000 525.727
22.57000 519.875
22.58000 527.208
22.59000 533.483
22.60000 536.792
22.61000 534.638
22.62000 532.366
22.63000 532.608
22.64000 535.923
22.65000 539.240
22.66000 533.403
22.67000 520.438
22.68000 507.884
22.69000 512.177
22.70000 525.288
22.71000 537.331
22.72000 531.736
22.73000 519.894
22.74000 509.034
22.75000 516.064
22.76000 526.106
22.77000 534.879
22.78000 536.669
22.79000 537.395
22.80000 539.006
22.81000 543.814
22.82000 548.909
22.83000 552.565
22.84000 536.711
22.85000 523.920
22.86000 513.546
22.87000 507.137
22.88000 500.785
22.89000 498.904
22.90000 501.836
22.91000 504.756
22.92000 511.389
22.93000 520.505
22.94000 529.214
22.95000 525.680
22.96000 516.428
22.97000 507.791
22.98000 507.494
22.99000 509.831
23.00000 511.941
23.01000 510.600
23.02000 508.785
23.03000 507.340
23.04000 507.690
23.05000 508.278
23.06000 509.595
23.07000 513.254
23.08000 517.091
23.09000 519.745
23.10000 521.920
23.11000 523.544
23.12000 524.131
23.13000 523.208
23.14000 522.271
23.15000 515.568
23.16000 503.425
23.17000 491.383
23.18000 492.779
23.19000 502.308
23.20000 511.471
23.21000 512.241
23.22000 509.510
23.23000 506.919
23.24000 505.921
23.25000 505.371
23.26000 504.883
23.27000 504.833
23.28000 504.861
23.29000 505.246
23.30000 507.158
23.31000 509.245
23.32000 511.141
23.33000 512.486
23.34000 513.797
23.35000 514.670
23.36000 512.087
23.37000 510.111
23.38000 509.421
23.39000 510.391
23.40000 511.370
23.41000 513.493
23.42000 516.566
23.43000 519.598
23.44000 520.404
23.45000 519.994
23.46000 519.466
23.47000 516.806
23.48000 513.352
23.49000 510.325
23.50000 511.403
23.51000 513.507
23.52000 515.341
23.53000 514.499
23.54000 513.409
23.55000 511.219
23.56000 504.851
23.57000 498.077
23.58000 495.537
23.59000 503.825
23.60000 512.654
23.61000 518.281
23.62000 508.019
23.63000 500.355
23.64000 502.025
23.65000 514.337
23.66000 526.583
23.67000 525.141
23.68000 513.648
23.69000 502.376
23.70000 501.295
23.71000 505.078
23.72000 508.820
23.73000 511.938
23.74000 514.849
23.75000 517.003
23.76000 512.938
23.77000 507.494
23.78000 502.846
23.79000 502.428
23.80000 502.579
23.81000 502.321
23.82000 500.684
23.83000 498.933
23.84000 499.661
23.85000 506.050
23.86000 512.660
23.87000 516.681
23.88000 532.183
23.89000 543.345
23.90000 542.140
23.91000 528.556
23.92000 515.027
23.93000 506.532
23.94000 501.318
23.95000 496.242
23.96000 496.776
23.97000 499.631
23.98000 502.633
23.99000 507.447
24.00000 512.797
24.01000 517.844
24.02000 520.733
24.03000 523.201
24.04000 525.262
24.05000 526.712
24.06000 527.854
24.07000 528.715
24.08000 528.728
24.09000 528.683
24.10000 524.772
24.11000 512.980
24.12000 500.957
24.13000 494.002
24.14000 502.296
24.15000 508.168
24.16000 509.876
24.17000 507.926
24.18000 505.978
24.19000 504.175
24.20000 502.455
24.21000 500.795
24.22000 502.012
24.23000 504.220
24.24000 505.694
24.25000 499.599
24.26000 491.509
24.27000 485.120
24.28000 489.262
24.29000 495.214
24.30000 500.069
24.31000 505.219
24.32000 509.456
24.33000 511.042
24.34000 505.500
24.35000 499.565
24.36000 495.626
24.37000 495.318
24.38000 495.085
24.39000 494.958
24.40000 497.699
24.41000 499.583
24.42000 500.462
24.43000 500.561
24.44000 500.561
24.45000 496.620
24.46000 490.642
24.47000 484.926
24.48000 486.390
24.49000 490.091
24.50000 492.501
24.51000 483.551
24.52000 471.945
24.53000 462.807
24.54000 467.065
24.55000 473.334
24.56000 478.317
24.57000 484.498
24.58000 489.563
24.59000 493.565
24.60000 495.019
24.61000 496.362
24.62000 496.311
24.63000 494.004
24.64000 491.665
24.65000 490.461
24.66000 493.279
24.67000 495.164
24.68000 495.640
24.69000 495.147
24.70000 494.743
24.71000 496.893
24.72000 500.222
24.73000 503.371
24.74000 498.026
24.75000 490.680
24.76000 483.969
24.77000 482.070
24.78000 481.168
24.79000 481.217
24.80000 485.816
24.81000 491.009
24.82000 495.022
24.83000 487.135
24.84000 480.180
24.85000 478.279
24.86000 487.217
24.87000 496.518
24.88000 502.435
24.89000 503.481
24.90000 504.488
24.91000 502.440
24.92000 497.552
24.93000 492.700
24.94000 490.395
24.95000 489.646
24.96000 488.623
24.97000 481.489
24.98000 471.838
24.99000 462.821
25.00000 466.026
25.01000 472.013
25.02000 478.252
25.03000 486.145
25.04000 494.339
25.05000 499.258
25.06000 490.330
25.07000 479.850
25.08000 471.990
25.09000 484.595
25.10000 495.411
25.11000 500.981
25.12000 496.515
25.13000 491.802
25.14000 491.281
25.15000 496.104
25.16000 500.940
25.17000 495.702
25.18000 482.255
25.19000 469.072
25.20000 468.016
25.21000 473.560
25.22000 479.020
25.23000 482.983
25.24000 486.396
25.25000 489.541
25.26000 487.549
25.27000 484.632
25.28000 482.398
25.29000 484.097
25.30000 486.424
25.31000 487.815
25.32000 485.700
25.33000 483.251
25.34000 481.473
25.35000 482.036
25.36000 482.557
25.37000 484.536
25.38000 489.001
25.39000 493.509
25.40000 492.626
25.41000 485.681
25.42000 478.756
25.43000 471.565
25.44000 464.247
25.45000 457.301
25.46000 462.704
25.47000 474.100
25.48000 484.570
25.49000 481.636
25.50000 474.300
25.51000 467.640
25.52000 481.090
25.53000 496.849
25.54000 508.657
25.55000 500.501
25.56000 489.572
25.57000 480.600
25.58000 478.167
25.59000 476.259
25.60000 474.922
25.61000 472.772
25.62000 471.122
25.63000 468.944
25.64000 465.966
25.65000 462.979
25.66000 467.592
25.67000 479.703
25.68000 491.730
25.69000 489.315
25.70000 477.792
25.71000 466.699
25.72000 466.359
25.73000 470.681
25.74000 474.928
25.75000 478.275
25.76000 481.358
25.77000 484.112
25.78000 478.490
25.79000 472.187
25.80000 467.406
25.81000 469.417
25.82000 472.243
25.83000 476.747
25.84000 486.247
25.85000 496.080
25.86000 502.710
25.87000 483.798
25.88000 469.188
25.89000 461.555
25.90000 463.315
25.91000 465.121
25.92000 463.292
25.93000 458.313
25.94000 453.392
25.95000 453.884
25.96000 457.390
25.97000 461.032
25.98000 467.359
25.99000 474.725
26.00000 481.489
26.01000 482.148
26.02000 481.218
26.03000 480.402
26.04000 483.776
26.05000 487.282
26.06000 488.510
26.07000 480.728
26.08000 472.021
26.09000 465.104
26.10000 462.944
26.11000 461.039
26.12000 459.807
26.13000 456.880
26.14000 454.714
26.15000 455.952
26.16000 461.241
26.17000 466.532
26.18000 470.503
26.19000 473.464
26.20000 476.375
26.21000 475.428
26.22000 472.607
26.23000 470.074
26.24000 472.082
26.25000 475.658
26.26000 478.202
26.27000 471.811
26.28000 463.358
26.29000 456.089
26.30000 457.638
26.31000 460.052
26.32000 460.297
26.33000 452.914
26.34000 444.868
26.35000 440.574
26.36000 445.180
26.37000 450.164
26.38000 453.246
26.39000 458.285
26.40000 461.924
26.41000 463.948
26.42000 464.282
26.43000 464.624
26.44000 465.947
26.45000 467.934
26.46000 469.875
26.47000 466.588
26.48000 461.166
26.49000 455.979
26.50000 453.849
26.51000 452.661
26.52000 451.539
26.53000 450.906
26.54000 450.373
26.55000 449.924
26.56000 453.895
26.57000 457.680
26.58000 459.860
26.59000 457.013
26.60000 453.802
26.61000 451.953
26.62000 452.990
26.63000 454.121
26.64000 454.787
26.65000 447.152
26.66000 441.726
26.67000 443.981
26.68000 453.284
26.69000 462.492
26.70000 465.379
26.71000 464.454
26.72000 463.558
26.73000 461.350
26.74000 458.756
26.75000 456.518
26.76000 458.164
26.77000 460.876
26.78000 462.738
26.79000 459.093
26.80000 454.458
26.81000 450.647
26.82000 457.030
26.83000 463.200
26.84000 467.055
26.85000 464.442
26.86000 461.445
26.87000 458.572
26.88000 455.930
26.89000 453.293
26.90000 451.822
26.91000 451.214
26.92000 450.788
26.93000 448.049
26.94000 443.439
26.95000 438.986
26.96000 441.526
26.97000 447.825
26.98000 453.867
26.99000 450.394
27.00000 443.916
27.01000 437.995
27.02000 437.247
27.03000 437.760
27.04000 439.421
27.05000 447.595
27.06000 456.792
27.07000 464.169
27.08000 460.728
27.09000 457.121
27.10000 455.184
27.11000 457.415
27.12000 459.844
27.13000 461.777
27.14000 462.877
27.15000 463.964
27.16000 464.535
27.17000 448.481
27.18000 437.646
27.19000 435.765
27.20000 440.290
27.21000 444.750
27.22000 447.130
27.23000 448.513
27.24000 449.826
27.25000 452.164
27.26000 454.630
27.27000 456.604
27.28000 454.664
27.29000 451.879
27.30000 449.270
27.31000 447.536
27.32000 445.921
27.33000 444.660
27.34000 442.997
27.35000 441.645
27.36000 439.962
27.37000 437.542
27.38000 435.095
27.39000 435.010
27.40000 438.466
27.41000 441.956
27.42000 438.554
27.43000 428.447
27.44000 418.559
27.45000 426.667
27.46000 446.209
27.47000 464.750
27.48000 458.938
27.49000 442.700
27.50000 427.463
27.51000 434.950
27.52000 447.755
27.53000 458.122
27.54000 451.679
27.55000 442.039
27.56000 436.342
27.57000 448.014
27.58000 461.737
27.59000 472.138
27.60000 462.037
27.61000 453.059
27.62000 447.748
27.63000 449.731
27.64000 451.915
27.65000 451.992
27.66000 449.271
27.67000 446.539
27.68000 443.352
27.69000 439.786
27.70000 436.247
27.71000 434.152
27.72000 432.872
27.73000 431.800
27.74000 434.690
27.75000 439.095
27.76000 443.173
27.77000 443.343
27.78000 442.592
27.79000 440.653
27.80000 431.571
27.81000 421.296
27.82000 415.059
27.83000 424.586
27.84000 435.705
27.85000 443.869
27.86000 449.551
27.87000 453.841
27.88000 453.561
27.89000 445.171
27.90000 436.624
27.91000 430.215
27.92000 426.316
27.93000 422.432
27.94000 425.020
27.95000 432.447
27.96000 439.725
27.97000 441.516
27.98000 440.539
27.99000 439.989
28.00000 446.050
28.01000 454.366
28.02000 461.956
28.03000 454.091
28.04000 443.989
28.05000 434.544
28.06000 428.564
28.07000 423.089
28.08000 419.952
28.09000 424.933
28.10000 430.606
28.11000 434.630
28.12000 441.503
28.13000 446.820
28.14000 450.379
28.15000 451.160
28.16000 451.907
28.17000 449.603
28.18000 444.150
28.19000 438.728
28.20000 437.357
28.21000 438.682
28.22000 440.023
28.23000 441.811
28.24000 443.800
28.25000 445.656
28.26000 445.801
28.27000 445.426
28.28000 445.089
28.29000 446.914
28.30000 448.892
28.31000 449.644
28.32000 444.699
28.33000 439.035
28.34000 433.876
28.35000 430.279
28.36000 426.794
28.37000 424.412
28.38000 428.177
28.39000 431.138
28.40000 437.800
28.41000 449.653
28.42000 461.534
28.43000 462.509
28.44000 453.614
28.45000 444.806
28.46000 440.900
28.47000 439.934
28.48000 438.758
28.49000 433.133
28.50000 425.719
28.51000 419.541
28.52000 426.620
28.53000 437.290
28.54000 446.707
28.55000 441.581
28.56000 434.937
28.57000 428.261
28.58000 421.456
28.59000 414.638
28.60000 413.421
28.61000 427.664
28.62000 442.803
28.63000 452.738
28.64000 440.070
28.65000 430.372
28.66000 424.115
28.67000 422.129
28.68000 420.176
28.69000 425.256
28.70000 435.945
28.71000 446.474
28.72000 441.911
28.73000 429.717
28.74000 418.014
28.75000 414.667
28.76000 414.319
28.77000 414.546
28.78000 420.011
28.79000 426.736
28.80000 432.559
28.81000 430.105
28.82000 426.927
28.83000 424.741
28.84000 426.183
28.85000 427.959
28.86000 427.541
28.87000 421.714
28.88000 415.637
28.89000 411.820
28.90000 413.668
28.91000 415.066
28.92000 419.160
28.93000 426.203
28.94000 433.205
28.95000 434.243
28.96000 431.071
28.97000 427.966
28.98000 429.900
28.99000 434.049
29.00000 437.992
29.01000 439.086
29.02000 439.266
29.03000 438.444
29.04000 429.765
29.05000 419.413
29.06000 410.635
29.07000 414.569
29.08000 419.303
29.09000 423.054
29.10000 423.607
29.11000 423.912
29.12000 425.074
29.13000 428.122
29.14000 431.237
29.15000 433.102
29.16000 419.399
29.17000 409.569
29.18000 406.171
29.19000 408.941
29.20000 411.723
29.21000 415.525
29.22000 419.966
29.23000 424.279
29.24000 425.830
29.25000 426.194
29.26000 426.200
29.27000 422.064
29.28000 416.747
29.29000 412.496
29.30000 415.484
29.31000 419.831
29.32000 423.435
29.33000 430.240
29.34000 436.168
29.35000 439.968
29.36000 437.584
29.37000 434.808
29.38000 431.947
29.39000 428.923
29.40000 425.894
29.41000 424.173
29.42000 411.210
29.43000 402.164
29.44000 404.480
29.45000 416.380
29.46000 428.131
29.47000 432.405
29.48000 432.503
29.49000 432.596
29.50000 431.314
29.51000 429.624
29.52000 427.554
29.53000 421.766
29.54000 415.035
29.55000 410.113
29.56000 415.912
29.57000 423.477
29.58000 429.597
29.59000 422.798
29.60000 416.223
29.61000 411.453
29.62000 411.366
29.63000 411.519
29.64000 412.301
29.65000 414.186
29.66000 416.091
29.67000 417.114
29.68000 422.749
29.69000 426.603
29.70000 430.959
29.71000 435.689
29.72000 440.198
29.73000 436.885
29.74000 429.673
29.75000 422.802
29.76000 420.351
29.77000 419.460
29.78000 419.674
29.79000 429.128
29.80000 440.660
29.81000 450.297
29.82000 450.075
29.83000 448.437
29.84000 447.147
29.85000 436.551
29.86000 427.434
29.87000 421.469
29.88000 422.804
29.89000 424.432
29.90000 429.643
29.91000 440.442
29.92000 451.306
29.93000 456.785
29.94000 443.644
29.95000 434.974
29.96000 437.658
29.97000 447.849
29.98000 457.770
29.99000 460.475
30.00000 459.971
30.01000 459.495
30.02000 457.995
30.03000 456.339
30.04000 454.291
30.05000 449.409
30.06000 443.964
30.07000 441.305
30.08000 451.436
30.09000 463.156
30.10000 472.129
30.11000 463.001
30.12000 454.803
30.13000 451.349
30.14000 457.702
30.15000 464.355
30.16000 462.899
30.17000 450.219
30.18000 437.473
30.19000 429.777
30.20000 426.591
30.21000 423.493
30.22000 425.716
30.23000 431.069
30.24000 436.130
30.25000 435.157
30.26000 431.787
30.27000 428.653
30.28000 433.070
30.29000 438.884
30.30000 443.935
30.31000 444.176
30.32000 443.578
30.33000 443.152
30.34000 443.421
30.35000 443.765
30.36000 444.021
30.37000 435.662
30.38000 428.788
30.39000 426.267
30.40000 431.776
30.41000 437.461
30.42000 439.085
30.43000 435.736
30.44000 432.381
30.45000 431.929
30.46000 433.753
30.47000 435.512
30.48000 434.574
30.49000 432.222
30.50000 429.862
30.51000 427.367
30.52000 424.824
30.53000 422.491
30.54000 426.363
30.55000 431.127
30.56000 436.677
30.57000 446.560
30.58000 457.105
30.59000 463.848
30.60000 456.860
30.61000 448.630
30.62000 442.722
30.63000 445.183
30.64000 447.353
30.65000 448.547
30.66000 448.136
30.67000 447.703
30.68000 445.599
30.69000 441.695
30.70000 437.807
30.71000 444.156
30.72000 457.497
30.73000 470.680
30.74000 479.124
30.75000 485.350
30.76000 490.633
30.77000 483.082
30.78000 471.471
30.79000 460.983
30.80000 463.758
30.81000 468.647
30.82000 473.805
30.83000 480.274
30.84000 486.917
30.85000 490.499
30.86000 484.234
30.87000 477.225
30.88000 472.373
30.89000 497.873
30.90000 517.852
30.91000 530.074
30.92000 530.967
30.93000 531.764
30.94000 536.616
30.95000 545.304
30.96000 553.919
30.97000 564.965
30.98000 577.288
30.99000 589.534
31.00000 600.004
31.01000 609.732
31.02000 620.744
31.03000 646.344
31.04000 676.055
31.05000 702.438
31.06000 733.967
31.07000 762.126
31.08000 794.574
31.09000 845.429
31.10000 898.386
31.11000 952.007
31.12000 1007.531
31.13000 1063.174
31.14000 1100.209
31.15000 1223.591
31.16000 1316.517
31.17000 1418.074
31.18000 1530.802
31.19000 1643.608
31.20000 1772.451
31.21000 1914.639
31.22000 2054.955
31.23000 2196.268
31.24000 2334.308
31.25000 2473.170
31.26000 2627.030
31.27000 2786.487
31.28000 2943.338
31.29000 3075.127
31.30000 3200.641
31.31000 3310.042
31.32000 3435.774
31.33000 3545.500
31.34000 3640.609
31.35000 3680.076
31.36000 3714.122
31.37000 3742.925
31.38000 3758.298
31.39000 3773.000
31.40000 3782.376
31.41000 3678.468
31.42000 3601.443
31.43000 3512.604
31.44000 3410.269
31.45000 3307.834
31.46000 3190.486
31.47000 3062.163
31.48000 2936.295
31.49000 2771.960
31.50000 2595.392
31.51000 2419.977
31.52000 2261.660
31.53000 2109.038
31.54000 1957.437
31.55000 1814.254
31.56000 1672.938
31.57000 1552.227
31.58000 1422.794
31.59000 1312.716
31.60000 1208.819
31.61000 1125.853
31.62000 1044.604
31.63000 966.388
31.64000 895.105
31.65000 824.095
31.66000 780.858
31.67000 726.275
31.68000 687.192
31.69000 655.333
31.70000 630.719
31.71000 606.175
31.72000 588.046
31.73000 574.104
31.74000 560.528
31.75000 546.035
31.76000 531.837
31.77000 518.325
31.78000 513.229
31.79000 510.631
31.80000 507.766
31.81000 503.003
31.82000 497.868
31.83000 493.576
31.84000 482.278
31.85000 472.187
31.86000 463.902
31.87000 461.065
31.88000 458.599
31.89000 455.765
31.90000 452.182
31.91000 448.577
31.92000 446.491
31.93000 448.509
31.94000 449.940
31.95000 450.671
31.96000 450.786
31.97000 450.716
31.98000 439.960
31.99000 422.998
32.00000 406.618
32.01000 405.148
32.02000 409.277
32.03000 413.908
32.04000 423.737
32.05000 434.938
32.06000 443.879
32.07000 438.800
32.08000 431.308
32.09000 425.194
32.10000 423.061
32.11000 421.657
32.12000 419.718
32.13000 416.337
32.14000 412.876
32.15000 407.629
32.16000 399.129
32.17000 390.559
32.18000 385.866
32.19000 407.023
32.20000 421.577
32.21000 427.411
32.22000 426.471
32.23000 425.443
32.24000 420.930
32.25000 414.611
32.26000 408.569
32.27000 406.358
32.28000 405.550
32.29000 404.640
32.30000 402.835
32.31000 400.821
32.32000 399.161
32.33000 399.429
32.34000 399.987
32.35000 400.431
32.36000 401.279
32.37000 401.991
32.38000 404.202
32.39000 410.020
32.40000 415.995
32.41000 417.102
32.42000 410.310
32.43000 403.409
32.44000 399.851
32.45000 409.023
32.46000 415.128
32.47000 412.338
32.48000 403.425
32.49000 394.731
32.50000 392.393
32.51000 392.994
32.52000 393.563
32.53000 390.670
32.54000 387.016
32.55000 384.229
32.56000 388.018
32.57000 393.170
32.58000 396.392
32.59000 390.374
32.60000 383.149
32.61000 377.562
32.62000 385.211
32.63000 392.058
32.64000 394.726
32.65000 388.418
32.66000 381.807
32.67000 376.509
32.68000 373.103
32.69000 369.714
32.70000 369.881
32.71000 373.364
32.72000 376.870
32.73000 382.029
32.74000 388.198
32.75000 393.897
32.76000 389.050
32.77000 379.850
32.78000 371.253
32.79000 367.155
32.80000 364.572
32.81000 363.285
32.82000 370.532
32.83000 379.336
32.84000 387.143
32.85000 390.724
32.86000 393.831
32.87000 396.162
32.88000 410.221
32.89000 421.762
32.90000 430.530
32.91000 433.984
32.92000 437.307
32.93000 442.478
32.94000 450.009
32.95000 457.539
32.96000 460.956
32.97000 460.996
32.98000 461.078
32.99000 463.093
33.00000 466.161
33.01000 469.336
33.02000 474.416
33.03000 480.198
33.04000 485.528
33.05000 476.651
33.06000 465.558
33.07000 455.843
33.08000 454.070
33.09000 453.566
33.10000 452.150
33.11000 447.306
33.12000 442.134
33.13000 438.377
33.14000 426.920
33.15000 417.820
33.16000 409.116
33.17000 401.088
33.18000 393.071
33.19000 386.376
33.20000 381.171
33.21000 375.987
33.22000 373.127
33.23000 371.965
33.24000 370.703
33.25000 366.112
33.26000 359.902
33.27000 354.643
33.28000 363.196
33.29000 376.291
33.30000 388.183
33.31000 378.403
33.32000 365.574
33.33000 355.244
33.34000 357.570
33.35000 361.657
33.36000 363.995
33.37000 360.481
33.38000 356.497
33.39000 353.703
33.40000 352.519
33.41000 351.670
33.42000 349.577
33.43000 345.594
33.44000 341.591
33.45000 341.570
33.46000 345.485
33.47000 349.374
33.48000 347.747
33.49000 342.645
33.50000 337.948
33.51000 343.382
33.52000 353.216
33.53000 362.242
33.54000 361.543
33.55000 357.993
33.56000 354.822
33.57000 352.581
33.58000 350.785
33.59000 349.411
33.60000 349.925
33.61000 350.665
33.62000 351.208
33.63000 351.162
33.64000 351.077
33.65000 351.019
33.66000 346.696
33.67000 343.389
33.68000 342.539
33.69000 345.004
33.70000 347.482
33.71000 346.136
33.72000 341.468
33.73000 336.854
33.74000 332.964
33.75000 329.572
33.76000 326.425
33.77000 328.099
33.78000 331.643
33.79000 335.261
33.80000 339.630
33.81000 344.195
33.82000 348.199
33.83000 348.241
33.84000 347.699
33.85000 347.336
33.86000 347.680
33.87000 348.097
33.88000 349.040
33.89000 351.385
33.90000 353.806
33.91000 355.373
33.92000 349.153
33.93000 344.489
33.94000 341.691
33.95000 341.119
33.96000 340.552
33.97000 340.145
33.98000 339.862
33.99000 339.582
34.00000 340.233
34.01000 341.321
34.02000 342.695
34.03000 348.619
34.04000 356.116
34.05000 362.445
34.06000 358.639
34.07000 352.489
34.08000 347.199
34.09000 348.443
34.10000 350.316
34.11000 349.098
34.12000 336.995
34.13000 323.944
34.14000 317.697
34.15000 327.614
34.16000 338.221
34.17000 344.785
34.18000 334.548
34.19000 327.031
34.20000 322.534
34.21000 321.204
34.22000 319.898
34.23000 321.306
34.24000 324.558
34.25000 327.734
34.26000 330.601
34.27000 333.211
34.28000 335.611
34.29000 335.279
34.30000 334.105
34.31000 332.868
34.32000 331.160
34.33000 329.356
34.34000 327.837
34.35000 325.187
34.36000 322.855
34.37000 323.827
34.38000 335.168
34.39000 347.262
34.40000 352.565
34.41000 343.460
34.42000 333.885
34.43000 328.244
34.44000 327.844
34.45000 327.589
34.46000 327.893
34.47000 328.710
34.48000 329.615
34.49000 336.413
34.50000 346.772
34.51000 356.804
34.52000 350.936
34.53000 339.251
34.54000 328.729
34.55000 330.936
34.56000 336.640
34.57000 341.248
34.58000 338.739
34.59000 334.949
34.60000 331.832
34.61000 330.496
34.62000 329.559
34.63000 329.208
34.64000 330.494
34.65000 331.877
34.66000 333.004
34.67000 333.646
34.68000 334.276
34.69000 334.628
34.70000 335.309
34.71000 335.774
34.72000 333.702
34.73000 329.575
34.74000 325.530
34.75000 325.139
34.76000 326.715
34.77000 328.227
34.78000 324.930
34.79000 320.210
34.80000 315.736
34.81000 313.540
34.82000 311.901
34.83000 310.774
34.84000 312.562
34.85000 314.808
34.86000 316.611
34.87000 314.547
34.88000 312.582
34.89000 310.837
34.90000 309.644
34.91000 308.476
34.92000 309.597
34.93000 314.578
34.94000 319.622
34.95000 322.277
34.96000 327.746
34.97000 331.428
34.98000 330.833
34.99000 327.171
35.00000 323.639
35.01000 324.253
35.02000 326.860
35.03000 329.334
35.04000 323.982
35.05000 316.693
35.06000 310.236
35.07000 310.411
35.08000 312.020
35.09000 313.683
35.10000 315.617
35.11000 317.588
35.12000 319.128
35.13000 315.781
35.14000 312.805
35.15000 311.024
35.16000 311.915
35.17000 312.904
35.18000 316.850
35.19000 325.234
35.20000 333.661
35.21000 332.664
35.22000 322.480
35.23000 312.409
35.24000 311.664
35.25000 316.855
35.26000 321.901
35.27000 323.423
35.28000 323.432
35.29000 323.441
35.30000 323.650
35.31000 323.892
35.32000 324.028
35.33000 323.425
35.34000 322.681
35.35000 320.722
35.36000 313.403
35.37000 305.450
35.38000 299.420
35.39000 311.786
35.40000 322.440
35.41000 327.644
35.42000 321.991
35.43000 316.039
35.44000 310.987
35.45000 307.133
35.46000 303.288
35.47000 305.193
35.48000 312.007
35.49000 318.744
35.50000 321.372
35.51000 321.673
35.52000 321.610
35.53000 314.551
35.54000 304.813
35.55000 295.794
35.56000 298.526
35.57000 303.703
35.58000 308.563
35.59000 311.516
35.60000 314.149
35.61000 317.998
35.62000 326.603
35.63000 335.689
35.64000 342.363
35.65000 328.034
35.66000 316.099
35.67000 309.649
35.68000 312.944
35.69000 316.428
35.70000 317.328
35.71000 315.190
35.72000 313.052
35.73000 311.204
35.74000 309.587
35.75000 308.041
35.76000 309.165
35.77000 311.638
35.78000 314.012
35.79000 314.847
35.80000 315.156
35.81000 315.438
35.82000 314.335
35.83000 313.077
35.84000 311.947
35.85000 311.504
35.86000 311.160
35.87000 311.685
35.88000 315.231
35.89000 319.034
35.90000 321.734
35.91000 314.894
35.92000 309.389
35.93000 306.322
35.94000 307.114
35.95000 307.954
35.96000 308.561
35.97000 308.926
35.98000 309.288
35.99000 307.362
36.00000 303.946
36.01000 300.676
36.02000 301.418
36.03000 303.970
36.04000 306.603
36.05000 310.259
36.06000 314.228
36.07000 317.794
36.08000 318.951
36.09000 319.538
36.10000 319.018
36.11000 313.341
36.12000 307.012
36.13000 303.802
36.14000 310.262
36.15000 317.410
36.16000 322.298
36.17000 318.252
36.18000 315.012
36.19000 312.688
36.20000 311.652
36.21000 310.622
36.22000 306.220
36.23000 298.759
36.24000 291.372
36.25000 295.547
36.26000 306.388
36.27000 316.801
36.28000 318.077
36.29000 315.672
36.30000 313.032
36.31000 307.857
36.32000 301.994
36.33000 296.818
36.34000 299.531
36.35000 303.080
36.36000 306.964
36.37000 312.226
36.38000 317.637
36.39000 320.625
36.40000 316.912
36.41000 312.809
36.42000 310.114
36.43000 308.797
36.44000 307.851
36.45000 309.666
36.46000 314.916
36.47000 320.152
36.48000 317.606
36.49000 308.840
36.50000 300.205
36.51000 297.004
36.52000 296.702
36.53000 296.495
36.54000 297.918
36.55000 299.927
36.56000 301.891
36.57000 303.442
36.58000 304.894
36.59000 306.151
36.60000 298.875
36.61000 291.558
36.62000 286.798
36.63000 291.410
36.64000 296.886
36.65000 300.076
36.66000 297.622
36.67000 294.906
36.68000 293.198
36.69000 297.106
36.70000 299.994
36.71000 302.154
36.72000 303.517
36.73000 304.863
36.74000 303.900
36.75000 301.303
36.76000 298.762
36.77000 296.091
36.78000 293.466
36.79000 290.883
36.80000 288.875
36.81000 287.050
36.82000 285.981
36.83000 290.833
36.84000 296.949
36.85000 302.137
36.86000 298.919
36.87000 295.270
36.88000 291.201
36.89000 285.763
36.90000 280.220
36.91000 276.888
36.92000 278.432
36.93000 280.151
36.94000 281.182
36.95000 291.521
36.96000 298.924
36.97000 303.418
36.98000 305.115
36.99000 306.842
37.00000 310.848
37.01000 316.287
37.02000 321.570
37.03000 323.202
37.04000 323.281
37.05000 322.876
37.06000 316.846
37.07000 309.208
37.08000 302.244
37.09000 299.861
37.10000 298.339
37.11000 297.077
37.12000 297.965
37.13000 298.905
37.14000 301.459
37.15000 308.707
37.16000 316.255
37.17000 320.724
37.18000 319.135
37.19000 317.385
37.20000 316.389
37.21000 303.463
37.22000 294.430
37.23000 292.253
37.24000 295.870
37.25000 299.423
37.26000 299.741
37.27000 298.247
37.28000 296.808
37.29000 297.463
37.30000 298.820
37.31000 299.697
37.32000 295.864
37.33000 290.834
37.34000 287.128
37.35000 291.289
37.36000 296.748
37.37000 301.166
37.38000 297.284
37.39000 293.453
37.40000 292.376
37.41000 298.452
37.42000 304.895
37.43000 306.036
37.44000 297.873
37.45000 289.536
37.46000 285.056
37.47000 290.719
37.48000 294.592
37.49000 297.270
37.50000 299.056
37.51000 300.874
37.52000 303.831
37.53000 307.357
37.54000 310.717
37.55000 306.716
37.56000 300.702
37.57000 295.719
37.58000 299.388
37.59000 305.005
37.60000 309.602
37.61000 308.875
37.62000 307.383
37.63000 306.206
37.64000 293.336
37.65000 282.231
37.66000 277.250
37.67000 286.470
37.68000 296.265
37.69000 301.054
37.70000 298.024
37.71000 294.901
37.72000 293.325
37.73000 297.948
37.74000 301.016
37.75000 301.740
37.76000 300.910
37.77000 300.198
37.78000 302.615
37.79000 306.426
37.80000 310.018
37.81000 302.579
37.82000 292.729
37.83000 284.035
37.84000 283.713
37.85000 285.057
37.86000 287.038
37.87000 291.953
37.88000 297.233
37.89000 301.278
37.90000 297.997
37.91000 295.004
37.92000 291.927
37.93000 288.679
37.94000 285.426
37.95000 285.162
37.96000 289.043
37.97000 292.950
37.98000 295.248
37.99000 296.105
38.00000 296.907
38.01000 294.363
38.02000 289.847
38.03000 285.701
38.04000 289.234
38.05000 295.824
38.06000 301.956
38.07000 304.666
38.08000 306.288
38.09000 307.942
38.10000 309.808
38.11000 311.712
38.12000 312.769
38.13000 310.381
38.14000 307.625
38.15000 305.578
38.16000 308.533
38.17000 311.051
38.18000 312.294
38.19000 311.185
38.20000 310.023
38.21000 312.538
38.22000 319.563
38.23000 326.585
38.24000 330.051
38.25000 330.708
38.26000 331.305
38.27000 329.415
38.28000 326.219
38.29000 323.330
38.30000 325.543
38.31000 329.569
38.32000 333.263
38.33000 337.341
38.34000 341.056
38.35000 344.378
38.36000 345.524
38.37000 346.337
38.38000 348.200
38.39000 353.861
38.40000 359.867
38.41000 364.180
38.42000 379.479
38.43000 391.562
38.44000 400.834
38.45000 405.481
38.46000 410.060
38.47000 417.158
38.48000 426.980
38.49000 436.758
38.50000 449.279
38.51000 463.563
38.52000 477.862
38.53000 492.616
38.54000 507.582
38.55000 522.677
38.56000 539.519
38.57000 556.916
38.58000 572.631
38.59000 593.403
38.60000 612.603
38.61000 633.424
38.62000 662.126
38.63000 691.875
38.64000 718.873
38.65000 737.012
38.66000 754.478
38.67000 766.576
38.68000 784.128
38.69000 797.481
38.70000 805.295
38.71000 805.004
38.72000 804.644
38.73000 803.265
38.74000 800.922
38.75000 798.598
38.76000 788.826
38.77000 774.693
38.78000 759.932
38.79000 730.641
38.80000 695.268
38.81000 662.030
38.82000 653.092
38.83000 651.015
38.84000 649.169
38.85000 620.566
38.86000 591.462
38.87000 564.912
38.88000 549.336
38.89000 535.017
38.90000 517.807
38.91000 492.292
38.92000 466.259
38.93000 448.921
38.94000 429.812
38.95000 415.635
38.96000 401.232
38.97000 386.536
38.98000 371.845
38.99000 360.966
39.00000 353.263
39.01000 345.661
39.02000 340.909
39.03000 337.818
39.04000 334.248
39.05000 321.935
39.06000 306.354
39.07000 292.410
39.08000 294.247
39.09000 300.043
39.10000 305.097
39.11000 301.334
39.12000 296.892
39.13000 295.034
39.14000 303.029
39.15000 311.985
39.16000 315.672
39.17000 305.842
39.18000 295.334
39.19000 288.627
39.20000 292.603
39.21000 295.633
39.22000 296.130
39.23000 293.727
39.24000 291.318
39.25000 288.240
39.26000 284.669
39.27000 281.166
39.28000 279.132
39.29000 277.869
39.30000 276.546
39.31000 274.319
39.32000 271.790
39.33000 269.841
39.34000 272.683
39.35000 276.590
39.36000 279.928
39.37000 276.621
39.38000 273.041
39.39000 269.865
39.40000 268.059
39.41000 266.366
39.42000 266.548
39.43000 271.024
39.44000 275.670
39.45000 278.500
39.46000 276.487
39.47000 275.009
39.48000 275.282
39.49000 277.312
39.50000 279.313
39.51000 278.577
39.52000 276.050
39.53000 273.589
39.54000 277.969
39.55000 285.015
39.56000 291.030
39.57000 284.338
39.58000 273.868
39.59000 264.467
39.60000 262.684
39.61000 262.397
39.62000 262.157
39.63000 262.943
39.64000 263.701
39.65000 263.403
39.66000 259.915
39.67000 256.210
39.68000 256.023
39.69000 263.032
39.70000 270.254
39.71000 274.438
39.72000 276.926
39.73000 278.663
39.74000 278.934
39.75000 277.911
39.76000 276.885
39.77000 275.653
39.78000 274.302
39.79000 272.996
39.80000 274.700
39.81000 277.420
39.82000 279.277
39.83000 272.180
39.84000 262.714
39.85000 254.494
39.86000 254.015
39.87000 254.872
39.88000 255.571
39.89000 266.346
39.90000 276.026
39.91000 281.409
39.92000 275.196
39.93000 268.340
39.94000 263.969
39.95000 264.134
39.96000 264.395
39.97000 264.538
39.98000 270.152
39.99000 274.005
40.00000 273.411
40.01000 269.357
40.02000 265.445
40.03000 267.217
40.04000 271.938
40.05000 276.453
40.06000 273.237
40.07000 267.716
40.08000 262.778
40.09000 262.999
40.10000 264.430
40.11000 265.516
40.12000 264.720
40.13000 263.641
40.14000 262.782
40.15000 262.977
40.16000 263.210
40.17000 263.573
40.18000 264.250
40.19000 264.941
40.20000 266.223
40.21000 268.467
40.22000 270.724
40.23000 271.888
40.24000 273.937
40.25000 275.313
40.26000 276.069
40.27000 276.398
40.28000 276.496
40.29000 269.847
40.30000 260.073
40.31000 250.825
40.32000 253.358
40.33000 259.078
40.34000 263.931
40.35000 262.191
40.36000 259.083
40.37000 256.426
40.38000 255.931
40.39000 255.720
40.40000 255.556
40.41000 259.114
40.42000 262.157
40.43000 262.210
40.44000 255.828
40.45000 249.229
40.46000 247.923
40.47000 254.263
40.48000 260.664
40.49000 261.032
40.50000 255.767
40.51000 250.647
40.52000 255.826
40.53000 267.316
40.54000 278.112
40.55000 273.294
40.56000 262.020
40.57000 251.483
40.58000 250.749
40.59000 252.562
40.60000 254.119
40.61000 253.992
40.62000 253.556
40.63000 253.221
40.64000 253.313
40.65000 253.453
40.66000 253.559
40.67000 256.207
40.68000 258.398
40.69000 258.453
40.70000 254.406
40.71000 250.258
40.72000 248.554
40.73000 249.978
40.74000 251.411
40.75000 252.928
40.76000 254.508
40.77000 256.015
40.78000 254.091
40.79000 250.295
40.80000 246.690
40.81000 246.509
40.82000 247.592
40.83000 248.591
40.84000 251.279
40.85000 254.062
40.86000 257.222
40.87000 262.563
40.88000 268.253
40.89000 272.278
40.90000 270.033
40.91000 267.187
40.92000 265.119
40.93000 264.956
40.94000 264.903
40.95000 264.521
40.96000 263.579
40.97000 262.627
40.98000 258.114
40.99000 249.580
41.00000 241.073
41.01000 237.376
41.02000 237.181
41.03000 237.147
41.04000 242.466
41.05000 250.394
41.06000 257.742
41.07000 256.663
41.08000 252.806
41.09000 249.304
41.10000 244.865
41.11000 240.763
41.12000 237.528
41.13000 238.694
41.14000 240.474
41.15000 243.262
41.16000 249.430
41.17000 255.870
41.18000 260.388
41.19000 264.329
41.20000 267.294
41.21000 266.811
41.22000 261.076
41.23000 255.286
41.24000 252.090
41.25000 251.466
41.26000 250.846
41.27000 247.163
41.28000 241.590
41.29000 236.232
41.30000 236.275
41.31000 238.668
41.32000 240.810
41.33000 239.930
41.34000 238.163
41.35000 236.585
41.36000 244.674
41.37000 253.353
41.38000 260.379
41.39000 260.005
41.40000 258.738
41.41000 256.150
41.42000 249.615
41.43000 242.816
41.44000 238.226
41.45000 240.317
41.46000 242.016
41.47000 243.047
41.48000 243.175
41.49000 243.298
41.50000 243.892
41.51000 244.896
41.52000 245.888
41.53000 247.278
41.54000 248.858
41.55000 250.479
41.56000 252.904
41.57000 255.640
41.58000 258.119
41.59000 257.973
41.60000 257.141
41.61000 256.411
41.62000 246.355
41.63000 236.355
41.64000 229.821
41.65000 237.051
41.66000 245.701
41.67000 251.201
41.68000 248.306
41.69000 244.956
41.70000 242.786
41.71000 247.184
41.72000 250.499
41.73000 250.953
41.74000 247.990
41.75000 245.024
41.76000 242.964
41.77000 241.600
41.78000 240.259
41.79000 238.963
41.80000 237.733
41.81000 236.748
41.82000 239.674
41.83000 243.956
41.84000 247.790
41.85000 247.732
41.86000 246.773
41.87000 245.947
41.88000 249.255
41.89000 252.576
41.90000 254.725
41.91000 252.740
41.92000 250.394
41.93000 247.961
41.94000 245.321
41.95000 242.672
41.96000 241.032
41.97000 248.498
41.98000 253.952
41.99000 252.772
42.00000 244.621
42.01000 236.561
42.02000 238.855
42.03000 248.198
42.04000 257.320
42.05000 253.641
42.06000 244.518
42.07000 235.974
42.08000 235.010
42.09000 236.391
42.10000 237.520
42.11000 236.764
42.12000 235.623
42.13000 234.661
42.14000 236.205
42.15000 237.763
42.16000 239.065
42.17000 239.563
42.18000 240.003
42.19000 239.680
42.20000 237.737
42.21000 235.741
42.22000 234.564
42.23000 240.617
42.24000 244.928
42.25000 247.855
42.26000 249.506
42.27000 251.152
42.28000 252.476
42.29000 253.605
42.30000 254.698
42.31000 251.682
42.32000 247.241
42.33000 243.103
42.34000 242.296
42.35000 242.406
42.36000 242.689
42.37000 244.098
42.38000 245.710
42.39000 247.037
42.40000 242.576
42.41000 238.382
42.42000 234.696
42.43000 232.436
42.44000 230.261
42.45000 230.882
42.46000 236.806
42.47000 242.857
42.48000 246.239
42.49000 238.190
42.50000 232.602
42.51000 231.544
42.52000 234.162
42.53000 236.735
42.54000 237.305
42.55000 236.796
42.56000 236.306
42.57000 238.179
42.58000 240.736
42.59000 243.359
42.60000 246.611
42.61000 250.015
42.62000 252.093
42.63000 246.618
42.64000 239.950
42.65000 234.599
42.66000 230.676
42.67000 227.608
42.68000 225.708
42.69000 226.733
42.70000 227.899
42.71000 228.794
42.72000 229.235
42.73000 229.668
42.74000 229.896
42.75000 237.014
42.76000 241.794
42.77000 238.521
42.78000 229.464
42.79000 220.738
42.80000 222.714
42.81000 229.838
42.82000 236.604
42.83000 235.178
42.84000 231.400
42.85000 228.377
42.86000 231.384
42.87000 235.697
42.88000 238.787
42.89000 235.759
42.90000 231.890
42.91000 228.868
42.92000 226.983
42.93000 225.551
42.94000 225.533
42.95000 228.677
42.96000 231.938
42.97000 234.241
42.98000 235.102
42.99000 235.949
43.00000 238.678
43.01000 243.244
43.02000 247.711
43.03000 244.013
43.04000 235.107
43.05000 226.534
43.06000 226.096
43.07000 229.152
43.08000 232.022
43.09000 230.489
43.10000 227.929
43.11000 225.492
43.12000 223.903
43.13000 222.477
43.14000 221.783
43.15000 224.326
43.16000 227.252
43.17000 229.472
43.18000 226.345
43.19000 223.615
43.20000 222.495
43.21000 224.591
43.22000 226.776
43.23000 230.665
43.24000 236.827
43.25000 242.995
43.26000 241.537
43.27000 233.552
43.28000 225.702
43.29000 225.033
43.30000 228.442
43.31000 231.652
43.32000 231.035
43.33000 228.950
43.34000 227.019
43.35000 230.344
43.36000 234.556
43.37000 237.634
43.38000 233.875
43.39000 228.969
43.40000 225.582
43.41000 228.143
43.42000 231.308
43.43000 233.633
43.44000 236.519
43.45000 238.773
43.46000 240.776
43.47000 242.333
43.48000 243.880
43.49000 242.669
43.50000 238.208
43.51000 233.752
43.52000 233.642
43.53000 236.804
43.54000 239.850
43.55000 238.629
43.56000 235.247
43.57000 231.878
43.58000 228.716
43.59000 225.625
43.60000 222.802
43.61000 223.405
43.62000 224.635
43.63000 225.184
43.64000 222.126
43.65000 218.540
43.66000 216.388
43.67000 219.233
43.68000 222.505
43.69000 224.829
43.70000 229.789
43.71000 233.647
43.72000 234.238
43.73000 229.652
43.74000 225.001
43.75000 222.696
43.76000 222.821
43.77000 222.945
43.78000 221.888
43.79000 220.062
43.80000 218.325
43.81000 219.079
43.82000 220.957
43.83000 222.782
43.84000 223.910
43.85000 224.825
43.86000 225.648
43.87000 224.485
43.88000 223.117
43.89000 222.484
43.90000 225.283
43.91000 228.517
43.92000 230.674
43.93000 229.486
43.94000 228.060
43.95000 227.084
43.96000 223.430
43.97000 220.632
43.98000 216.689
43.99000 211.134
44.00000 205.573
44.01000 209.770
44.02000 222.833
44.03000 235.769
44.04000 237.077
44.05000 231.553
44.06000 226.156
44.07000 223.483
44.08000 221.908
44.09000 220.630
44.10000 222.550
44.11000 225.339
44.12000 227.802
44.13000 218.964
44.14000 209.601
44.15000 203.110
44.16000 208.490
44.17000 215.162
44.18000 220.644
44.19000 222.831
44.20000 224.826
44.21000 226.137
44.22000 224.167
44.23000 222.662
44.24000 224.325
44.25000 229.934
44.26000 235.538
44.27000 235.877
44.28000 231.998
44.29000 228.178
44.30000 225.816
44.31000 224.278
44.32000 222.900
44.33000 224.247
44.34000 226.575
44.35000 228.693
44.36000 228.888
44.37000 228.618
44.38000 228.385
44.39000 226.872
44.40000 225.415
44.41000 224.153
44.42000 223.607
44.43000 223.128
44.44000 223.626
44.45000 226.539
44.46000 229.565
44.47000 231.468
44.48000 235.462
44.49000 238.374
44.50000 242.080
44.51000 246.656
44.52000 251.196
44.53000 250.434
44.54000 245.915
44.55000 241.491
44.56000 239.476
44.57000 238.641
44.58000 237.749
44.59000 236.055
44.60000 234.104
44.61000 232.402
44.62000 232.667
44.63000 233.352
44.64000 233.933
44.65000 236.561
44.66000 238.997
44.67000 242.219
44.68000 248.006
44.69000 253.992
44.70000 258.853
44.71000 261.229
44.72000 263.516
44.73000 264.888
44.74000 271.497
44.75000 276.225
44.76000 275.626
44.77000 269.896
44.78000 264.306
44.79000 269.756
44.80000 282.157
44.81000 294.203
44.82000 310.603
44.83000 327.934
44.84000 344.111
44.85000 346.874
44.86000 345.796
44.87000 346.293
44.88000 357.527
44.89000 370.785
44.90000 381.785
44.91000 389.324
44.92000 395.221
44.93000 401.719
44.94000 409.964
44.95000 418.321
44.96000 427.986
44.97000 440.226
44.98000 452.535
44.99000 459.544
45.00000 464.573
45.01000 468.080
45.02000 475.628
45.03000 486.596
45.04000 497.407
45.05000 500.190
45.06000 498.473
45.07000 496.819
45.08000 485.247
45.09000 470.855
45.10000 457.717
45.11000 456.895
45.12000 459.209
45.13000 460.277
45.14000 453.934
45.15000 446.365
45.16000 440.237
45.17000 434.726
45.18000 430.289
45.19000 423.321
45.20000 409.768
45.21000 395.875
45.22000 383.511
45.23000 373.835
45.24000 364.209
45.25000 359.031
45.26000 351.549
45.27000 346.427
45.28000 339.945
45.29000 332.444
45.30000 324.981
45.31000 318.851
45.32000 313.388
45.33000 308.180
45.34000 306.247
45.35000 305.482
45.36000 304.150
45.37000 298.054
45.38000 290.883
45.39000 283.630
45.40000 275.951
45.41000 268.210
45.42000 262.106
45.43000 254.767
45.44000 248.799
45.45000 243.219
45.46000 238.542
45.47000 233.902
45.48000 234.105
45.49000 241.887
45.50000 249.759
45.51000 253.737
45.52000 244.349
45.53000 238.131
45.54000 238.239
45.55000 242.544
45.56000 246.661
45.57000 245.728
45.58000 242.541
45.59000 239.537
45.60000 236.018
45.61000 232.654
45.62000 229.700
45.63000 229.712
45.64000 230.316
45.65000 230.179
45.66000 226.626
45.67000 222.648
45.68000 219.599
45.69000 219.042
45.70000 218.739
45.71000 220.429
45.72000 226.250
45.73000 232.199
45.74000 234.681
45.75000 232.348
45.76000 229.985
45.77000 226.133
45.78000 220.953
45.79000 215.798
45.80000 212.146
45.81000 209.381
45.82000 206.803
45.83000 208.124
45.84000 210.999
45.85000 213.675
45.86000 212.911
45.87000 211.387
45.88000 210.543
45.89000 213.996
45.90000 218.203
45.91000 221.329
45.92000 220.043
45.93000 218.285
45.94000 216.978
45.95000 217.892
45.96000 218.701
45.97000 217.258
45.98000 211.647
45.99000 205.944
46.00000 202.932
46.01000 203.228
46.02000 203.532
46.03000 201.888
46.04000 198.720
46.05000 195.705
46.06000 199.009
46.07000 205.638
46.08000 211.897
46.09000 211.969
46.10000 209.840
46.11000 207.886
46.12000 209.468
46.13000 211.630
46.14000 214.048
46.15000 217.887
46.16000 221.944
46.17000 223.934
46.18000 218.437
46.19000 212.260
46.20000 207.821
46.21000 203.092
46.22000 199.464
46.23000 199.413
46.24000 205.258
46.25000 211.191
46.26000 213.841
46.27000 212.937
46.28000 212.036
46.29000 210.646
46.30000 208.931
46.31000 207.408
46.32000 211.705
46.33000 218.735
46.34000 225.085
46.35000 222.142
46.36000 216.249
46.37000 210.925
46.38000 208.054
46.39000 205.984
46.40000 203.947
46.41000 202.075
46.42000 200.224
46.43000 199.485
46.44000 202.331
46.45000 205.450
46.46000 207.612
46.47000 202.809
46.48000 199.011
46.49000 197.862
46.50000 200.596
46.51000 203.364
46.52000 204.198
46.53000 203.195
46.54000 202.202
46.55000 203.078
46.56000 205.079
46.57000 206.900
46.58000 204.530
46.59000 200.403
46.60000 196.594
46.61000 196.419
46.62000 197.272
46.63000 198.029
46.64000 195.599
46.65000 192.977
46.66000 191.425
46.67000 194.476
46.68000 198.055
46.69000 200.382
46.70000 199.103
46.71000 197.598
46.72000 196.595
46.73000 194.206
46.74000 192.411
46.75000 195.666
46.76000 205.478
46.77000 215.306
46.78000 219.364
46.79000 218.601
46.80000 217.848
46.81000 213.612
46.82000 207.612
46.83000 201.874
46.84000 200.948
46.85000 201.825
46.86000 202.821
46.87000 204.975
46.88000 207.421
46.89000 209.554
46.90000 207.489
46.91000 205.139
46.92000 202.587
46.93000 199.261
46.94000 195.860
46.95000 194.490
46.96000 198.338
46.97000 202.450
46.98000 205.075
46.99000 194.124
47.00000 185.978
47.01000 185.110
47.02000 192.588
47.03000 200.052
47.04000 203.296
47.05000 203.422
47.06000 203.546
47.07000 203.630
47.08000 203.693
47.09000 203.213
47.10000 194.645
47.11000 183.376
47.12000 173.628
47.13000 176.469
47.14000 182.113
47.15000 186.938
47.16000 190.502
47.17000 193.355
47.18000 195.655
47.19000 196.077
47.20000 196.343
47.21000 195.191
47.22000 190.786
47.23000 186.253
47.24000 183.489
47.25000 188.283
47.26000 191.771
47.27000 192.424
47.28000 190.222
47.29000 188.037
47.30000 187.399
47.31000 187.776
47.32000 188.143
47.33000 189.269
47.34000 190.661
47.35000 191.966
47.36000 192.194
47.37000 192.102
47.38000 192.544
47.39000 196.808
47.40000 201.823
47.41000 206.018
47.42000 193.797
47.43000 181.973
47.44000 174.212
47.45000 178.754
47.46000 184.138
47.47000 187.114
47.48000 185.156
47.49000 183.051
47.50000 181.831
47.51000 188.039
47.52000 192.424
47.53000 195.292
47.54000 196.819
47.55000 198.309
47.56000 197.652
47.57000 195.744
47.58000 193.901
47.59000 191.243
47.60000 188.436
47.61000 186.138
47.62000 189.131
47.63000 193.526
47.64000 197.757
47.65000 200.973
47.66000 204.014
47.67000 206.497
47.68000 200.901
47.69000 195.627
47.70000 190.841
47.71000 187.378
47.72000 183.989
47.73000 181.978
47.74000 182.486
47.75000 183.047
47.76000 183.355
47.77000 184.641
47.78000 185.535
47.79000 188.397
47.80000 192.795
47.81000 197.076
47.82000 196.666
47.83000 193.819
47.84000 191.096
47.85000 192.343
47.86000 194.804
47.87000 196.556
47.88000 192.030
47.89000 186.027
47.90000 181.453
47.91000 184.675
47.92000 189.075
47.93000 192.577
47.94000 191.157
47.95000 189.658
47.96000 189.226
47.97000 191.365
47.98000 193.618
47.99000 193.154
48.00000 188.265
48.01000 183.314
48.02000 180.757
48.03000 186.010
48.04000 189.499
48.05000 186.679
48.06000 179.501
48.07000 172.626
48.08000 174.704
48.09000 180.933
48.10000 186.828
48.11000 188.734
48.12000 189.337
48.13000 189.380
48.14000 185.163
48.15000 180.061
48.16000 176.224
48.17000 178.475
48.18000 181.524
48.19000 183.883
48.20000 197.022
48.21000 208.091
48.22000 212.002
48.23000 200.487
48.24000 188.448
48.25000 182.146
48.26000 184.143
48.27000 186.207
48.28000 187.850
48.29000 189.100
48.30000 190.343
48.31000 191.186
48.32000 191.784
48.33000 192.382
48.34000 192.984
48.35000 193.589
48.36000 194.155
48.37000 194.683
48.38000 195.154
48.39000 194.846
48.40000 189.393
48.41000 182.997
48.42000 178.687
48.43000 183.245
48.44000 188.804
48.45000 192.978
48.46000 190.659
48.47000 188.535
48.48000 188.355
48.49000 191.915
48.50000 195.567
48.51000 195.219
48.52000 189.741
48.53000 184.251
48.54000 181.945
48.55000 182.260
48.56000 182.649
48.57000 186.454
48.58000 192.126
48.59000 197.462
48.60000 196.759
48.61000 193.823
48.62000 191.116
48.63000 190.058
48.64000 189.478
48.65000 188.749
48.66000 187.163
48.67000 185.441
48.68000 183.730
48.69000 182.069
48.70000 180.412
48.71000 179.208
48.72000 176.356
48.73000 174.100
48.74000 174.368
48.75000 178.964
48.76000 183.635
48.77000 184.623
48.78000 181.448
48.79000 178.281
48.80000 179.903
48.81000 184.973
48.82000 189.814
48.83000 186.973
48.84000 180.384
48.85000 174.478
48.86000 178.537
48.87000 185.886
48.88000 192.562
48.89000 195.015
48.90000 196.362
48.91000 197.301
48.92000 196.165
48.93000 194.738
48.94000 193.782
48.95000 194.404
48.96000 195.153
48.97000 195.679
48.98000 194.629
48.99000 193.789
49.00000 192.149
49.01000 189.289
49.02000 186.416
49.03000 184.104
49.04000 182.348
49.05000 180.603
49.06000 179.842
49.07000 179.719
49.08000 179.746
49.09000 183.578
49.10000 189.067
49.11000 193.913
49.12000 190.964
49.13000 185.723
49.14000 181.039
49.15000 175.181
49.16000 169.878
49.17000 167.325
49.18000 177.111
49.19000 188.387
49.20000 195.382
49.21000 189.570
49.22000 182.901
49.23000 178.395
49.24000 181.368
49.25000 183.741
49.26000 184.603
49.27000 183.419
49.28000 182.225
49.29000 182.495
49.30000 184.040
49.31000 185.567
49.32000 179.797
49.33000 170.063
49.34000 161.007
49.35000 165.413
49.36000 175.055
49.37000 183.683
49.38000 181.957
49.39000 177.522
49.40000 173.629
49.41000 176.574
49.42000 180.105
49.43000 182.772
49.44000 182.001
49.45000 180.875
49.46000 179.640
49.47000 178.113
49.48000 176.571
49.49000 175.571
49.50000 173.989
49.51000 172.822
49.52000 175.293
49.53000 182.117
49.54000 188.928
49.55000 190.566
49.56000 188.224
49.57000 185.922
49.58000 182.089
49.59000 177.624
49.60000 173.541
49.61000 175.561
49.62000 179.701
49.63000 183.426
49.64000 183.531
49.65000 182.797
49.66000 182.165
49.67000 186.037
49.68000 189.883
49.69000 191.872
49.70000 187.291
49.71000 182.135
49.72000 178.563
49.73000 178.767
49.74000 179.134
49.75000 179.361
49.76000 178.689
49.77000 178.197
49.78000 178.760
49.79000 180.436
49.80000 182.097
49.81000 182.139
49.82000 181.077
49.83000 180.039
49.84000 175.526
49.85000 169.683
49.86000 164.385
49.87000 166.239
49.88000 170.309
49.89000 174.552
49.90000 180.097
49.91000 185.910
49.92000 190.807
49.93000 188.043
49.94000 184.910
49.95000 181.829
49.96000 178.913
49.97000 176.008
49.98000 175.065
49.99000 178.299
50.00000 181.671
50.01000 183.660
50.02000 187.971
50.03000 191.026
50.04000 192.782
50.05000 193.336
50.06000 193.806
50.07000 188.502
50.08000 179.698
50.09000 171.169
50.10000 170.697
50.11000 173.369
50.12000 175.962
50.13000 177.689
50.14000 179.177
50.15000 180.266
50.16000 178.758
50.17000 176.781
50.18000 175.153
50.19000 181.054
50.20000 186.596
50.21000 190.755
50.22000 191.032
50.23000 191.077
50.24000 190.723
50.25000 189.612
50.26000 188.482
50.27000 187.851
50.28000 194.396
50.29000 198.933
50.30000 198.488
50.31000 193.993
50.32000 189.597
50.33000 189.640
50.34000 192.082
50.35000 194.425
50.36000 194.217
50.37000 193.151
50.38000 192.089
50.39000 191.056
50.40000 190.030
50.41000 190.585
50.42000 200.151
50.43000 211.142
50.44000 219.967
50.45000 218.916
50.46000 217.309
50.47000 218.139
50.48000 225.083
50.49000 232.320
50.50000 237.975
50.51000 240.950
50.52000 243.882
50.53000 245.429
50.54000 244.290
50.55000 243.536
50.56000 245.900
50.57000 250.508
50.58000 255.146
50.59000 260.739
50.60000 266.793
50.61000 272.543
50.62000 279.080
50.63000 285.354
50.64000 290.234
50.65000 283.959
50.66000 275.264
50.67000 268.618
50.68000 272.249
50.69000 277.295
50.70000 281.239
50.71000 295.625
50.72000 307.766
50.73000 311.353
50.74000 295.788
50.75000 279.509
50.76000 267.975
50.77000 263.589
50.78000 259.274
50.79000 258.793
50.80000 262.063
50.81000 265.281
50.82000 264.118
50.83000 260.157
50.84000 256.206
50.85000 252.486
50.86000 248.866
50.87000 245.467
50.88000 242.343
50.89000 239.568
50.90000 236.732
50.91000 233.480
50.92000 230.147
50.93000 226.479
50.94000 221.325
50.95000 215.995
50.96000 211.950
50.97000 209.741
50.98000 208.101
50.99000 207.268
51.00000 208.050
51.01000 208.876
51.02000 207.205
51.03000 202.198
51.04000 197.177
51.05000 191.244
51.06000 184.539
51.07000 177.911
51.08000 175.380
51.09000 175.178
51.10000 174.947
51.11000 174.163
51.12000 173.166
51.13000 172.242
51.14000 175.050
51.15000 178.443
51.16000 181.228
51.17000 180.339
51.18000 178.832
51.19000 177.354
51.20000 175.991
51.21000 174.640
51.22000 173.646
51.23000 177.624
51.24000 180.906
51.25000 181.995
51.26000 179.175
51.27000 176.278
51.28000 175.626
51.29000 177.625
51.30000 179.623
51.31000 176.791
51.32000 170.335
51.33000 164.032
51.34000 163.410
51.35000 165.670
51.36000 167.804
51.37000 167.982
51.38000 167.489
51.39000 167.038
51.40000 171.124
51.41000 175.673
51.42000 178.934
51.43000 175.358
51.44000 170.780
51.45000 168.024
51.46000 171.623
51.47000 175.768
51.48000 178.713
51.49000 176.559
51.50000 174.757
51.51000 172.902
51.52000 170.965
51.53000 169.028
51.54000 165.957
51.55000 161.711
51.56000 157.489
51.57000 158.339
51.58000 162.548
51.59000 166.621
51.60000 166.907
51.61000 165.480
51.62000 164.300
51.63000 166.293
51.64000 169.258
51.65000 171.923
51.66000 173.897
51.67000 175.502
51.68000 176.893
51.69000 177.284
51.70000 177.548
51.71000 176.824
51.72000 173.030
51.73000 169.016
51.74000 166.268
51.75000 165.088
51.76000 164.242
51.77000 165.222
51.78000 168.778
51.79000 172.350
51.80000 173.225
51.81000 171.643
51.82000 170.076
51.83000 167.336
51.84000 163.964
51.85000 160.909
51.86000 164.647
51.87000 171.132
51.88000 176.789
51.89000 173.508
51.90000 167.793
51.91000 162.746
51.92000 157.384
51.93000 152.706
51.94000 149.656
51.95000 153.346
51.96000 157.772
51.97000 161.345
51.98000 162.552
51.99000 163.621
52.00000 164.323
52.01000 162.842
52.02000 161.715
52.03000 161.455
52.04000 162.278
52.05000 163.105
52.06000 163.860
52.07000 164.559
52.08000 165.248
52.09000 165.672
52.10000 165.947
52.11000 166.104
52.12000 164.236
52.13000 161.636
52.14000 159.279
52.15000 159.134
52.16000 159.524
52.17000 159.862
52.18000 163.838
52.19000 167.706
52.20000 170.384
52.21000 168.689
52.22000 166.589
52.23000 164.986
52.24000 164.615
52.25000 164.301
52.26000 164.103
52.27000 162.215
52.28000 160.830
52.29000 159.890
52.30000 159.440
52.31000 158.990
52.32000 158.592
52.33000 158.229
52.34000 157.874
52.35000 156.393
52.36000 154.457
52.37000 152.850
52.38000 155.859
52.39000 160.354
52.40000 164.073
52.41000 161.673
52.42000 157.963
52.43000 154.814
52.44000 162.404
52.45000 169.992
52.46000 175.090
52.47000 172.040
52.48000 168.357
52.49000 165.605
52.50000 164.913
52.51000 164.297
52.52000 163.927
52.53000 165.119
52.54000 165.977
52.55000 166.258
52.56000 165.982
52.57000 165.672
52.58000 162.693
52.59000 158.029
52.60000 153.499
52.61000 152.508
52.62000 152.997
52.63000 153.524
52.64000 154.497
52.65000 155.597
52.66000 156.838
52.67000 159.040
52.68000 161.424
52.69000 163.403
52.70000 163.034
52.71000 162.503
52.72000 162.188
52.73000 162.506
52.74000 162.864
52.75000 163.719
52.76000 165.555
52.77000 167.417
52.78000 168.478
52.79000 158.591
52.80000 151.671
52.81000 149.917
52.82000 152.548
52.83000 155.114
52.84000 154.395
52.85000 151.830
52.86000 149.360
52.87000 152.420
52.88000 157.264
52.89000 161.708
52.90000 162.221
52.91000 161.732
52.92000 161.337
52.93000 161.512
52.94000 161.782
52.95000 162.000
52.96000 161.821
52.97000 161.643
52.98000 161.609
52.99000 161.952
53.00000 162.314
53.01000 161.682
53.02000 159.299
53.03000 156.884
53.04000 155.583
53.05000 161.385
53.06000 165.350
53.07000 167.720
53.08000 168.895
53.09000 170.067
53.10000 171.123
53.11000 172.122
53.12000 173.074
53.13000 171.951
53.14000 170.258
53.15000 168.543
53.16000 166.654
53.17000 164.726
53.18000 162.748
53.19000 160.513
53.20000 158.241
53.21000 156.448
53.22000 159.487
53.23000 162.253
53.24000 165.085
53.25000 168.075
53.26000 171.071
53.27000 171.843
53.28000 169.130
53.29000 166.374
53.30000 164.980
53.31000 161.263
53.32000 158.799
53.33000 158.676
53.34000 160.110
53.35000 161.550
53.36000 163.162
53.37000 164.851
53.38000 166.442
53.39000 168.974
53.40000 171.552
53.41000 173.471
53.42000 170.596
53.43000 166.764
53.44000 162.991
53.45000 159.490
53.46000 156.024
53.47000 153.366
53.48000 154.592
53.49000 155.775
53.50000 156.272
53.51000 155.340
53.52000 154.365
53.53000 153.795
53.54000 153.789
53.55000 153.787
53.56000 155.799
53.57000 159.616
53.58000 163.372
53.59000 163.390
53.60000 161.197
53.61000 159.215
53.62000 161.618
53.63000 165.773
53.64000 169.640
53.65000 167.260
53.66000 163.592
53.67000 159.861
53.68000 155.736
53.69000 151.542
53.70000 148.335
53.71000 149.163
53.72000 150.423
53.73000 151.361
53.74000 150.125
53.75000 149.068
53.76000 150.553
53.77000 156.751
53.78000 163.054
53.79000 164.343
53.80000 159.457
53.81000 154.564
53.82000 153.467
53.83000 155.368
53.84000 157.277
53.85000 159.541
53.86000 161.993
53.87000 164.137
53.88000 161.144
53.89000 156.319
53.90000 151.890
53.91000 152.946
53.92000 155.055
53.93000 156.966
53.94000 157.785
53.95000 158.435
53.96000 159.484
53.97000 161.980
53.98000 164.607
53.99000 166.496
54.00000 165.566
54.01000 164.755
54.02000 161.954
54.03000 155.865
54.04000 149.727
54.05000 147.574
54.06000 149.744
54.07000 151.906
54.08000 154.739
54.09000 158.007
54.10000 161.092
54.11000 158.601
54.12000 153.489
54.13000 148.854
54.14000 150.760
54.15000 154.746
54.16000 158.349
54.17000 156.191
54.18000 153.223
54.19000 151.359
54.20000 154.884
54.21000 159.129
54.22000 162.112
54.23000 161.020
54.24000 159.617
54.25000 158.645
54.26000 156.008
54.27000 153.978
54.28000 153.587
54.29000 155.601
54.30000 157.637
54.31000 158.911
54.32000 159.460
54.33000 160.005
54.34000 164.120
54.35000 170.344
54.36000 176.180
54.37000 172.954
54.38000 165.924
54.39000 159.608
54.40000 161.463
54.41000 165.633
54.42000 169.338
54.43000 164.307
54.44000 158.533
54.45000 153.990
54.46000 154.757
54.47000 156.134
54.48000 156.814
54.49000 155.482
54.50000 154.023
54.51000 153.050
54.52000 148.040
54.53000 144.253
54.54000 143.319
54.55000 146.098
54.56000 148.892
54.57000 151.806
54.58000 154.818
54.59000 157.792
54.60000 156.752
54.61000 153.573
54.62000 150.566
54.63000 150.743
54.64000 152.115
54.65000 153.591
54.66000 156.080
54.67000 158.824
54.68000 161.217
54.69000 158.771
54.70000 156.003
54.71000 153.734
54.72000 153.376
54.73000 153.205
54.74000 152.552
54.75000 150.657
54.76000 148.698
54.77000 147.447
54.78000 153.734
54.79000 158.409
54.80000 160.448
54.81000 159.461
54.82000 158.470
54.83000 157.589
54.84000 156.789
54.85000 156.003
54.86000 158.254
54.87000 161.871
54.88000 165.115
54.89000 162.784
54.90000 158.587
54.91000 154.788
54.92000 154.292
54.93000 154.532
54.94000 154.737
54.95000 158.840
54.96000 162.765
54.97000 165.024
54.98000 161.609
54.99000 157.724
55.00000 156.282
55.01000 160.454
55.02000 164.848
55.03000 167.529
55.04000 162.432
55.05000 158.725
55.06000 157.718
55.07000 159.436
55.08000 161.144
55.09000 161.909
55.10000 162.053
55.11000 162.194
55.12000 162.527
55.13000 162.924
55.14000 163.123
55.15000 160.858
55.16000 157.859
55.17000 155.494
55.18000 157.673
55.19000 160.748
55.20000 163.319
55.21000 171.147
55.22000 178.187
55.23000 181.609
55.24000 174.055
55.25000 165.748
55.26000 160.764
55.27000 162.598
55.28000 164.636
55.29000 165.819
55.30000 169.066
55.31000 171.355
55.32000 175.134
55.33000 180.231
55.34000 185.260
55.35000 186.350
55.36000 185.138
55.37000 183.968
55.38000 184.173
55.39000 184.878
55.40000 185.025
55.41000 179.377
55.42000 172.189
55.43000 166.056
55.44000 166.495
55.45000 168.073
55.46000 169.362
55.47000 171.851
55.48000 173.992
55.49000 178.310
55.50000 188.518
55.51000 199.056
55.52000 206.120
55.53000 206.825
55.54000 207.393
55.55000 207.705
55.56000 218.483
55.57000 225.905
55.58000 229.860
55.59000 231.107
55.60000 232.480
55.61000 238.896
55.62000 247.937
55.63000 256.588
55.64000 269.672
55.65000 283.313
55.66000 296.530
55.67000 305.990
55.68000 314.564
55.69000 323.674
55.70000 335.709
55.71000 348.186
55.72000 358.120
55.73000 383.147
55.74000 404.414
55.75000 422.711
55.76000 433.827
55.77000 444.625
55.78000 463.757
55.79000 496.479
55.80000 529.394
55.81000 546.408
55.82000 558.540
55.83000 566.791
55.84000 583.993
55.85000 607.391
55.86000 630.389
55.87000 641.596
55.88000 647.324
55.89000 652.746
55.90000 649.583
55.91000 644.195
55.92000 639.080
55.93000 636.055
55.94000 633.466
55.95000 632.186
55.96000 637.211
55.97000 643.065
55.98000 647.597
55.99000 624.267
56.00000 604.087
56.01000 586.579
56.02000 574.837
56.03000 563.291
56.04000 551.263
56.05000 538.535
56.06000 525.803
56.07000 514.628
56.08000 504.917
56.09000 495.093
56.10000 477.232
56.11000 454.429
56.12000 431.788
56.13000 412.832
56.14000 395.403
56.15000 379.108
56.16000 363.743
56.17000 350.028
56.18000 336.649
56.19000 325.495
56.20000 314.749
56.21000 304.724
56.22000 297.768
56.23000 291.160
56.24000 286.194
56.25000 267.244
56.26000 251.758
56.27000 240.088
56.28000 235.772
56.29000 231.640
56.30000 225.739
56.31000 217.567
56.32000 209.396
56.33000 204.231
56.34000 201.555
56.35000 198.933
56.36000 198.824
56.37000 200.092
56.38000 201.001
56.39000 195.429
56.40000 187.458
56.41000 180.105
56.42000 175.215
56.43000 171.383
56.44000 168.941
56.45000 174.553
56.46000 181.461
56.47000 185.728
56.48000 180.019
56.49000 173.348
56.50000 168.496
56.51000 170.626
56.52000 172.530
56.53000 171.865
56.54000 166.788
56.55000 161.636
56.56000 159.850
56.57000 161.879
56.58000 163.905
56.59000 163.233
56.60000 160.614
56.61000 158.061
56.62000 157.736
56.63000 158.499
56.64000 159.190
56.65000 158.814
56.66000 158.084
56.67000 157.421
56.68000 159.268
56.69000 161.388
56.70000 162.997
56.71000 162.001
56.72000 160.640
56.73000 158.000
56.74000 151.064
56.75000 143.780
56.76000 138.664
56.77000 147.692
56.78000 154.939
56.79000 159.924
56.80000 161.450
56.81000 162.940
56.82000 160.913
56.83000 155.389
56.84000 149.903
56.85000 150.276
56.86000 154.382
56.87000 158.273
56.88000 156.684
56.89000 152.705
56.90000 148.950
56.91000 147.918
56.92000 147.688
56.93000 147.482
56.94000 141.643
56.95000 135.600
56.96000 131.062
56.97000 133.290
56.98000 136.337
56.99000 139.978
57.00000 145.399
57.01000 150.940
57.02000 154.684
57.03000 155.928
57.04000 156.800
57.05000 157.270
57.06000 157.195
57.07000 157.114
57.08000 155.201
57.09000 151.688
57.10000 148.214
57.11000 148.155
57.12000 150.021
57.13000 151.667
57.14000 148.938
57.15000 144.506
57.16000 140.651
57.17000 142.703
57.18000 146.305
57.19000 149.466
57.20000 148.660
57.21000 147.385
57.22000 146.191
57.23000 145.315
57.24000 144.473
57.25000 143.680
57.26000 143.020
57.27000 142.368
57.28000 141.945
57.29000 149.265
57.30000 154.741
57.31000 154.679
57.32000 147.977
57.33000 141.288
57.34000 140.910
57.35000 145.397
57.36000 149.808
57.37000 150.038
57.38000 148.180
57.39000 146.458
57.40000 146.916
57.41000 148.132
57.42000 149.098
57.43000 147.883
57.44000 146.162
57.45000 144.679
57.46000 140.823
57.47000 137.257
57.48000 134.349
57.49000 133.771
57.50000 133.397
57.51000 134.341
57.52000 138.432
57.53000 142.660
57.54000 145.281
57.55000 141.415
57.56000 138.571
57.57000 139.076
57.58000 143.112
57.59000 147.123
57.60000 148.162
57.61000 147.170
57.62000 146.201
57.63000 146.381
57.64000 147.058
57.65000 147.719
57.66000 148.167
57.67000 148.550
57.68000 148.684
57.69000 146.944
57.70000 144.820
57.71000 143.030
57.72000 144.604
57.73000 146.282
57.74000 146.614
57.75000 142.701
57.76000 138.477
57.77000 136.720
57.78000 140.224
57.79000 143.902
57.80000 146.074
57.81000 149.699
57.82000 152.267
57.83000 153.203
57.84000 152.630
57.85000 152.058
57.86000 151.545
57.87000 151.068
57.88000 150.606
57.89000 146.503
57.90000 141.208
57.91000 136.197
57.92000 134.310
57.93000 133.286
57.94000 132.715
57.95000 135.105
57.96000 138.030
57.97000 140.439
57.98000 140.051
57.99000 139.476
58.00000 139.787
58.01000 142.591
58.02000 145.544
58.03000 146.311
58.04000 142.916
58.05000 139.420
58.06000 137.464
58.07000 140.293
58.08000 142.266
58.09000 144.412
58.10000 146.698
58.11000 148.888
58.12000 146.692
58.13000 142.124
58.14000 137.738
58.15000 137.824
58.16000 139.434
58.17000 141.226
58.18000 144.718
58.19000 148.626
58.20000 151.701
58.21000 150.014
58.22000 147.572
58.23000 145.610
58.24000 144.991
58.25000 144.594
58.26000 144.473
58.27000 145.047
58.28000 145.656
58.29000 143.689
58.30000 137.356
58.31000 130.950
58.32000 127.569
58.33000 133.453
58.34000 137.453
58.35000 141.325
58.36000 145.104
58.37000 148.779
58.38000 149.042
58.39000 147.659
58.40000 146.345
58.41000 143.106
58.42000 139.534
58.43000 136.457
58.44000 137.357
58.45000 139.121
58.46000 141.047
58.47000 143.791
58.48000 146.647
58.49000 148.880
58.50000 147.804
58.51000 146.736
58.52000 144.535
58.53000 139.792
58.54000 134.955
58.55000 130.621
58.56000 127.047
58.57000 123.480
58.58000 123.317
58.59000 126.491
58.60000 129.666
58.61000 132.980
58.62000 136.383
58.63000 139.684
58.64000 140.482
58.65000 140.200
58.66000 139.935
58.67000 139.304
58.68000 138.631
58.69000 138.057
58.70000 138.171
58.71000 138.416
58.72000 138.504
58.73000 137.892
58.74000 137.196
58.75000 136.668
58.76000 134.175
58.77000 132.114
58.78000 131.251
58.79000 132.786
58.80000 134.388
58.81000 135.187
58.82000 134.912
58.83000 134.631
58.84000 135.487
58.85000 137.318
58.86000 139.122
58.87000 139.440
58.88000 138.912
58.89000 138.345
58.90000 137.004
58.91000 135.364
58.92000 133.845
58.93000 134.994
58.94000 136.648
58.95000 138.104
58.96000 138.359
58.97000 138.411
58.98000 137.730
58.99000 134.165
59.00000 130.305
59.01000 127.466
59.02000 134.469
59.03000 140.292
59.04000 143.850
59.05000 143.363
59.06000 142.796
59.07000 142.274
59.08000 141.808
59.09000 141.342
59.10000 141.351
59.11000 141.720
59.12000 141.914
59.13000 135.571
59.14000 125.908
59.15000 116.935
59.16000 118.767
59.17000 124.312
59.18000 129.378
59.19000 128.390
59.20000 126.279
59.21000 125.075
59.22000 128.691
59.23000 133.014
59.24000 136.865
59.25000 139.066
59.26000 141.125
59.27000 142.589
59.28000 138.142
59.29000 134.568
59.30000 132.273
59.31000 132.014
59.32000 131.781
59.33000 133.261
59.34000 136.523
59.35000 139.767
59.36000 140.052
59.37000 138.365
59.38000 136.700
59.39000 135.681
59.40000 134.954
59.41000 134.046
59.42000 130.787
59.43000 126.809
59.44000 123.233
59.45000 128.556
59.46000 134.799
59.47000 139.729
59.48000 138.508
59.49000 136.503
59.50000 134.537
59.51000 132.692
59.52000 130.857
59.53000 129.600
59.54000 132.519
59.55000 134.806
59.56000 135.680
59.57000 134.556
59.58000 133.419
59.59000 133.382
59.60000 134.348
59.61000 135.305
59.62000 134.810
59.63000 133.474
59.64000 132.044
59.65000 128.609
59.66000 124.362
59.67000 120.502
59.68000 120.840
59.69000 122.323
59.70000 123.633
59.71000 127.826
59.72000 131.890
59.73000 135.337
59.74000 136.225
59.75000 136.832
59.76000 137.239
59.77000 137.089
59.78000 136.905
59.79000 136.785
59.80000 134.635
59.81000 133.018
59.82000 132.237
59.83000 132.504
59.84000 132.773
59.85000 133.026
59.86000 133.265
59.87000 133.501
59.88000 134.105
59.89000 134.881
59.90000 135.596
59.91000 135.255
59.92000 134.531
59.93000 134.209
59.94000 137.580
59.95000 141.845
59.96000 145.543
59.97000 144.143
59.98000 142.274
59.99000 140.224
60.00000 137.509
60.01000 134.732
60.02000 132.997
60.03000 133.847
60.04000 134.818
60.05000 135.429
60.06000 130.650
60.07000 127.131
60.08000 125.603
60.09000 126.271
60.10000 126.926
60.11000 125.619
60.12000 122.914
60.13000 120.267
60.14000 123.256
60.15000 128.710
60.16000 133.730
60.17000 132.671
60.18000 129.651
60.19000 127.244
60.20000 129.680
60.21000 133.155
60.22000 136.105
60.23000 135.367
60.24000 134.326
60.25000 135.062
60.26000 141.620
60.27000 148.632
60.28000 151.417
60.29000 144.835
60.30000 137.912
60.31000 133.754
60.32000 132.248
60.33000 131.196
60.34000 131.120
60.35000 131.989
60.36000 132.850
60.37000 133.120
60.38000 133.018
60.39000 132.919
60.40000 132.457
60.41000 131.870
60.42000 131.176
60.43000 129.220
60.44000 126.902
60.45000 125.300
60.46000 128.598
60.47000 132.823
60.48000 136.330
60.49000 134.519
60.50000 132.506
60.51000 131.538
60.52000 133.621
60.53000 135.900
60.54000 137.453
60.55000 137.566
60.56000 137.641
60.57000 137.684
60.58000 139.182
60.59000 140.229
60.60000 139.711
60.61000 137.863
60.62000 136.088
60.63000 138.033
60.64000 142.070
60.65000 145.959
60.66000 141.562
60.67000 134.474
60.68000 127.888
60.69000 126.253
60.70000 125.883
60.71000 126.553
60.72000 133.433
60.73000 141.343
60.74000 147.753
60.75000 147.190
60.76000 146.162
60.77000 144.578
60.78000 141.541
60.79000 138.428
60.80000 136.207
60.81000 135.559
60.82000 134.941
60.83000 134.608
60.84000 134.935
60.85000 135.163
60.86000 136.333
60.87000 138.208
60.88000 139.974
60.89000 137.770
60.90000 133.575
60.91000 129.574
60.92000 126.906
60.93000 124.851
60.94000 123.491
60.95000 128.001
60.96000 133.840
60.97000 138.711
60.98000 138.506
60.99000 137.567
61.00000 136.826
61.01000 137.676
61.02000 138.467
61.03000 139.469
61.04000 140.966
61.05000 142.484
61.06000 144.553
61.07000 147.488
61.08000 150.434
61.09000 151.926
61.10000 143.079
61.11000 137.179
61.12000 133.689
61.13000 131.801
61.14000 130.094
61.15000 133.229
61.16000 138.532
61.17000 143.533
61.18000 144.642
61.19000 144.578
61.20000 144.200
61.21000 141.526
61.22000 138.393
61.23000 135.962
61.24000 136.774
61.25000 137.994
61.26000 138.929
61.27000 140.409
61.28000 141.608
61.29000 141.482
61.30000 138.600
61.31000 135.633
61.32000 135.169
61.33000 138.197
61.34000 141.246
61.35000 139.598
61.36000 133.731
61.37000 127.970
61.38000 128.761
61.39000 133.433
61.40000 137.887
61.41000 137.776
61.42000 135.839
61.43000 134.035
61.44000 134.852
61.45000 136.228
61.46000 138.408
61.47000 145.680
61.48000 153.848
61.49000 160.360
61.50000 160.094
61.51000 159.099
61.52000 158.359
61.53000 175.384
61.54000 189.419
61.55000 201.562
61.56000 210.195
61.57000 218.748
61.58000 228.696
61.59000 240.362
61.60000 252.011
61.61000 262.808
61.62000 272.882
61.63000 282.921
61.64000 291.503
61.65000 299.316
61.66000 306.776
61.67000 308.307
61.68000 307.721
61.69000 307.182
61.70000 308.678
61.71000 310.445
61.72000 312.641
61.73000 317.212
61.74000 322.149
61.75000 324.494
61.76000 317.408
61.77000 309.461
61.78000 303.745
61.79000 272.908
61.80000 248.423
61.81000 230.883
61.82000 224.832
61.83000 218.952
61.84000 209.766
61.85000 196.985
61.86000 184.259
61.87000 176.381
61.88000 171.956
61.89000 167.518
61.90000 162.705
61.91000 157.716
61.92000 152.934
61.93000 150.992
61.94000 149.956
61.95000 149.020
61.96000 148.207
61.97000 147.514
61.98000 147.036
61.99000 147.606
62.00000 148.317
62.01000 148.888
62.02000 149.007
62.03000 149.092
62.04000 149.150
62.05000 150.378
62.06000 151.333
62.07000 150.535
62.08000 147.159
62.09000 143.760
62.10000 141.339
62.11000 139.849
62.12000 138.370
62.13000 138.721
62.14000 140.185
62.15000 141.793
62.16000 146.764
62.17000 153.149
62.18000 158.815
62.19000 156.229
62.20000 151.301
62.21000 146.921
62.22000 145.720
62.23000 145.192
62.24000 144.782
62.25000 144.882
62.26000 145.042
62.27000 144.614
62.28000 142.493
62.29000 140.265
62.30000 138.779
62.31000 140.045
62.32000 141.035
62.33000 142.656
62.34000 145.099
62.35000 147.544
62.36000 149.188
62.37000 150.162
62.38000 151.124
62.39000 148.293
62.40000 143.487
62.41000 138.946
62.42000 139.335
62.43000 141.574
62.44000 143.570
62.45000 143.193
62.46000 142.218
62.47000 141.367
62.48000 141.056
62.49000 140.867
62.50000 141.743
62.51000 146.706
62.52000 152.072
62.53000 154.046
62.54000 147.279
62.55000 140.068
62.56000 135.457
62.57000 144.686
62.58000 151.587
62.59000 152.713
62.60000 147.193
62.61000 141.702
62.62000 143.140
62.63000 149.712
62.64000 156.161
62.65000 154.341
62.66000 148.636
62.67000 143.111
62.68000 140.288
62.69000 138.371
62.70000 136.701
62.71000 137.082
62.72000 137.920
62.73000 138.638
62.74000 141.591
62.75000 144.349
62.76000 146.168
62.77000 144.786
62.78000 143.138
62.79000 142.086
62.80000 142.409
62.81000 142.786
62.82000 143.017
62.83000 145.267
62.84000 146.893
62.85000 147.494
62.86000 147.062
62.87000 146.624
62.88000 145.793
62.89000 144.702
62.90000 143.639
62.91000 147.525
62.92000 153.321
62.93000 158.463
62.94000 155.494
62.95000 150.101
62.96000 145.722
62.97000 148.614
62.98000 152.942
62.99000 156.564
63.00000 151.460
63.01000 146.326
63.02000 143.521
63.03000 147.797
63.04000 152.560
63.05000 156.301
63.06000 157.943
63.07000 159.521
63.08000 160.438
63.09000 152.604
63.10000 147.071
63.11000 145.873
63.12000 148.520
63.13000 151.110
63.14000 150.330
63.15000 147.578
63.16000 144.919
63.17000 145.586
63.18000 147.453
63.19000 149.152
63.20000 149.104
63.21000 148.592
63.22000 148.228
63.23000 148.792
63.24000 149.518
63.25000 150.110
63.26000 146.418
63.27000 143.025
63.28000 139.719
63.29000 136.651
63.30000 133.597
63.31000 135.145
63.32000 145.133
63.33000 155.303
63.34000 160.892
63.35000 160.196
63.36000 159.703
63.37000 157.950
63.38000 155.213
63.39000 152.501
63.40000 150.809
63.41000 149.648
63.42000 148.536
63.43000 147.099
63.44000 145.653
63.45000 144.674
63.46000 147.845
63.47000 151.995
63.48000 155.436
63.49000 154.992
63.50000 153.958
63.51000 153.135
63.52000 148.672
63.53000 144.809
63.54000 142.993
63.55000 146.130
63.56000 149.488
63.57000 150.467
63.58000 147.561
63.59000 144.600
63.60000 143.067
63.61000 151.026
63.62000 156.367
63.63000 158.273
63.64000 157.796
63.65000 157.174
63.66000 152.242
63.67000 145.305
63.68000 138.739
63.69000 141.075
63.70000 145.802
63.71000 149.905
63.72000 149.234
63.73000 147.565
63.74000 146.533
63.75000 148.573
63.76000 151.016
63.77000 152.909
63.78000 152.387
63.79000 151.828
63.80000 153.029
63.81000 158.033
63.82000 163.167
63.83000 167.420
63.84000 170.393
63.85000 173.355
63.86000 171.264
63.87000 164.427
63.88000 157.658
63.89000 155.847
63.90000 157.089
63.91000 158.439
63.92000 162.238
63.93000 167.053
63.94000 171.557
63.95000 164.236
63.96000 154.580
63.97000 146.601
63.98000 149.767
63.99000 154.981
64.00000 159.664
64.01000 162.078
64.02000 164.235
64.03000 165.857
64.04000 167.682
64.05000 169.119
64.06000 168.730
64.07000 164.818
64.08000 160.818
64.09000 160.280
64.10000 164.196
64.11000 168.125
64.12000 169.228
64.13000 167.999
64.14000 166.749
64.15000 164.563
64.16000 161.862
64.17000 159.094
64.18000 155.113
64.19000 150.681
64.20000 146.592
64.21000 152.832
64.22000 160.728
64.23000 167.442
64.24000 167.298
64.25000 166.049
64.26000 164.872
64.27000 163.967
64.28000 163.088
64.29000 162.449
64.30000 167.425
64.31000 171.469
64.32000 173.465
64.33000 171.937
64.34000 170.347
64.35000 170.150
64.36000 171.536
64.37000 172.918
64.38000 173.323
64.39000 173.018
64.40000 172.680
64.41000 171.240
64.42000 169.261
64.43000 167.547
64.44000 169.711
64.45000 173.159
64.46000 176.292
64.47000 177.852
64.48000 178.923
64.49000 179.557
64.50000 177.964
64.51000 176.059
64.52000 174.615
64.53000 174.728
64.54000 174.968
64.55000 175.136
64.56000 173.548
64.57000 172.293
64.58000 172.889
64.59000 176.317
64.60000 179.777
64.61000 179.471
64.62000 175.412
64.63000 171.380
64.64000 169.830
64.65000 169.890
64.66000 170.049
64.67000 172.751
64.68000 176.562
64.69000 179.928
64.70000 177.856
64.71000 174.179
64.72000 170.892
64.73000 174.597
64.74000 179.014
64.75000 182.398
64.76000 181.128
64.77000 179.293
64.78000 177.731
64.79000 176.985
64.80000 176.294
64.81000 175.827
64.82000 172.757
64.83000 170.413
64.84000 172.949
64.85000 182.114
64.86000 191.307
64.87000 192.464
64.88000 186.590
64.89000 180.782
64.90000 181.571
64.91000 186.065
64.92000 190.316
64.93000 189.729
64.94000 187.254
64.95000 185.058
64.96000 185.726
64.97000 187.146
64.98000 188.393
64.99000 193.805
65.00000 199.069
65.01000 202.953
65.02000 201.335
65.03000 199.144
65.04000 199.255
65.05000 205.533
65.06000 212.149
65.07000 216.442
65.08000 214.770
65.09000 213.456
65.10000 215.339
65.11000 221.061
65.12000 226.776
65.13000 228.994
65.14000 228.510
65.15000 228.033
65.16000 226.856
65.17000 225.368
65.18000 223.972
65.19000 224.051
65.20000 224.643
65.21000 226.034
65.22000 234.418
65.23000 244.430
65.24000 253.053
65.25000 261.658
65.26000 268.946
65.27000 276.110
65.28000 282.831
65.29000 289.512
65.30000 294.835
65.31000 296.909
65.32000 298.842
65.33000 300.041
65.34000 320.848
65.35000 336.010
65.36000 343.308
65.37000 342.294
65.38000 341.325
65.39000 345.833
65.40000 354.089
65.41000 362.153
65.42000 374.209
65.43000 387.506
65.44000 399.947
65.45000 401.085
65.46000 398.711
65.47000 397.556
65.48000 405.583
65.49000 415.501
65.50000 423.864
65.51000 432.155
65.52000 439.070
65.53000 445.036
65.54000 448.004
65.55000 450.752
65.56000 452.783
65.57000 453.284
65.58000 453.734
65.59000 454.000
65.60000 466.180
65.61000 474.849
65.62000 478.049
65.63000 476.184
65.64000 474.519
65.65000 486.596
65.66000 507.032
65.67000 526.836
65.68000 550.013
65.69000 573.264
65.70000 597.992
65.71000 639.061
65.72000 684.651
65.73000 733.152
65.74000 800.700
65.75000 871.702
65.76000 930.203
65.77000 1007.498
65.78000 1072.822
65.79000 1132.355
65.80000 1175.574
65.81000 1217.809
65.82000 1252.463
65.83000 1272.661
65.84000 1292.510
65.85000 1303.629
65.86000 1315.181
65.87000 1323.154
65.88000 1317.222
65.89000 1299.943
65.90000 1282.806
65.91000 1272.097
65.92000 1264.872
65.93000 1257.935
65.94000 1210.870
65.95000 1153.085
65.96000 1094.276
65.97000 1025.863
65.98000 955.089
65.99000 882.212
66.00000 797.297
66.01000 710.470
66.02000 640.695
66.03000 579.952
66.04000 531.410
66.05000 488.101
66.06000 457.955
66.07000 428.445
66.08000 400.454
66.09000 375.042
66.10000 349.674
66.11000 336.268
66.12000 333.297
66.13000 331.284
66.14000 329.148
66.15000 326.924
66.16000 324.702
66.17000 322.562
66.18000 320.459
66.19000 318.462
66.20000 321.898
66.21000 326.715
66.22000 331.126
66.23000 332.274
66.24000 332.712
66.25000 334.261
66.26000 341.397
66.27000 349.306
66.28000 355.492
66.29000 374.201
66.30000 389.935
66.31000 405.901
66.32000 422.392
66.33000 438.901
66.34000 453.313
66.35000 464.555
66.36000 475.764
66.37000 485.561
66.38000 493.971
66.39000 502.321
66.40000 505.545
66.41000 505.484
66.42000 505.476
66.43000 506.801
66.44000 508.702
66.45000 510.487
66.46000 499.092
66.47000 485.193
66.48000 471.665
66.49000 460.711
66.50000 450.251
66.51000 439.437
66.52000 427.045
66.53000 414.464
66.54000 404.908
66.55000 390.342
66.56000 378.633
66.57000 369.389
66.58000 365.093
66.59000 360.935
66.60000 359.072
66.61000 360.288
66.62000 361.518
66.63000 358.776
66.64000 352.617
66.65000 346.493
66.66000 342.187
66.67000 338.919
66.68000 335.772
66.69000 334.987
66.70000 335.113
66.71000 335.230
66.72000 328.690
66.73000 321.251
66.74000 315.383
66.75000 319.064
66.76000 324.355
66.77000 330.048
66.78000 337.324
66.79000 344.762
66.80000 350.237
66.81000 351.651
66.82000 352.578
66.83000 351.186
66.84000 345.647
66.85000 340.026
66.86000 337.669
66.87000 339.179
66.88000 340.691
66.89000 345.473
66.90000 352.699
66.91000 359.811
66.92000 362.614
66.93000 363.225
66.94000 363.646
66.95000 361.083
66.96000 357.492
66.97000 354.211
66.98000 360.147
66.99000 367.301
67.00000 373.647
67.01000 375.695
67.02000 377.110
67.03000 377.854
67.04000 376.247
67.05000 374.437
67.06000 373.149
67.07000 375.533
67.08000 377.466
67.09000 380.387
67.10000 384.884
67.11000 389.401
67.12000 388.128
67.13000 380.820
67.14000 373.552
67.15000 369.422
67.16000 367.437
67.17000 365.732
67.18000 371.840
67.19000 381.495
67.20000 390.568
67.21000 392.101
67.22000 391.319
67.23000 390.616
67.24000 395.070
67.25000 399.890
67.26000 404.676
67.27000 409.307
67.28000 413.918
67.29000 417.828
67.30000 419.553
67.31000 421.121
67.32000 422.196
67.33000 421.202
67.34000 420.407
67.35000 418.908
67.36000 416.412
67.37000 413.909
67.38000 411.651
67.39000 409.616
67.40000 407.601
67.41000 413.324
67.42000 423.483
67.43000 433.470
67.44000 439.721
67.45000 444.457
67.46000 448.517
67.47000 445.237
67.48000 439.952
67.49000 435.281
67.50000 440.486
67.51000 446.507
67.52000 451.061
67.53000 449.518
67.54000 447.306
67.55000 447.224
67.56000 453.068
67.57000 459.262
67.58000 463.339
67.59000 465.607
67.60000 467.247
67.61000 470.596
67.62000 476.085
67.63000 481.568
67.64000 482.125
67.65000 478.716
67.66000 475.358
67.67000 481.733
67.68000 492.980
67.69000 503.325
67.70000 498.145
67.71000 487.344
67.72000 478.740
67.73000 490.394
67.74000 506.965
67.75000 521.333
67.76000 518.406
67.77000 513.608
67.78000 511.085
67.79000 516.956
67.80000 523.609
67.81000 529.064
67.82000 531.539
67.83000 533.874
67.84000 535.346
67.85000 539.228
67.86000 542.066
67.87000 545.377
67.88000 549.211
67.89000 553.021
67.90000 553.123
67.91000 550.584
67.92000 548.097
67.93000 554.412
67.94000 564.518
67.95000 573.574
67.96000 567.850
67.97000 557.351
67.98000 549.284
67.99000 560.483
68.00000 575.820
68.01000 588.848
68.02000 585.013
68.03000 579.870
68.04000 578.770
68.05000 590.951
68.06000 604.172
68.07000 612.128
68.08000 608.400
68.09000 604.245
68.10000 601.748
68.11000 621.249
68.12000 635.263
68.13000 641.487
68.14000 640.167
68.15000 638.810
68.16000 634.433
68.17000 628.143
68.18000 622.032
68.19000 621.901
68.20000 624.200
68.21000 627.064
68.22000 636.555
68.23000 647.952
68.24000 657.552
68.25000 654.822
68.26000 649.757
68.27000 645.550
68.28000 655.102
68.29000 664.336
68.30000 672.344
68.31000 676.760
68.32000 680.943
68.33000 688.525
68.34000 702.843
68.35000 717.344
68.36000 725.620
68.37000 737.884
68.38000 746.450
68.39000 752.587
68.40000 756.657
68.41000 760.665
68.42000 761.511
68.43000 760.573
68.44000 759.670
68.45000 773.610
68.46000 792.013
68.47000 810.602
68.48000 831.038
68.49000 851.946
68.50000 869.746
68.51000 868.943
68.52000 865.047
68.53000 861.889
68.54000 885.603
68.55000 907.120
68.56000 932.456
68.57000 967.772
68.58000 1003.608
68.59000 1040.907
68.60000 1080.789
68.61000 1120.721
68.62000 1142.256
68.63000 1207.243
68.64000 1251.786
68.65000 1306.345
68.66000 1368.438
68.67000 1430.448
68.68000 1489.390
68.69000 1546.791
68.70000 1601.534
68.71000 1679.402
68.72000 1758.944
68.73000 1835.986
68.74000 1891.861
68.75000 1942.934
68.76000 1995.965
68.77000 2059.283
68.78000 2124.092
68.79000 2175.262
68.80000 2256.114
68.81000 2323.015
68.82000 2404.617
68.83000 2520.535
68.84000 2637.863
68.85000 2766.163
68.86000 2911.725
68.87000 3057.496
68.88000 3131.368
68.89000 3632.119
68.90000 3971.173
68.91000 4688.750
68.92000 5658.831
68.93000 6667.969
68.94000 8736.107
68.95000 11279.316
68.96000 13677.553
68.97000 18294.543
68.98000 23140.391
68.99000 28143.623
69.00000 34296.520
69.01000 40679.891
69.02000 46929.645
69.03000 52560.324
69.04000 58113.258
69.05000 62374.449
69.06000 66328.742
69.07000 69436.531
69.08000 71873.391
69.09000 72911.789
69.10000 73906.602
69.11000 74614.008
69.12000 74919.992
69.13000 75223.164
69.14000 75822.961
69.15000 76689.172
69.16000 77552.664
69.17000 78247.000
69.18000 78840.961
69.19000 79358.000
69.20000 78255.750
69.21000 76504.758
69.22000 74874.258
69.23000 71131.359
69.24000 67231.703
69.25000 63353.594
69.26000 59612.457
69.27000 55895.465
69.28000 52314.148
69.29000 49289.395
69.30000 46324.645
69.31000 44118.582
69.32000 42064.762
69.33000 40473.723
69.34000 39169.230
69.35000 38397.664
69.36000 37638.078
69.37000 36563.395
69.38000 35099.242
69.39000 33636.648
69.40000 31506.244
69.41000 28857.549
69.42000 26200.674
69.43000 23198.316
69.44000 20013.287
69.45000 16859.959
69.46000 14240.615
69.47000 11812.280
69.48000 9582.396
69.49000 7794.115
69.50000 6293.039
69.51000 4906.354
69.52000 4156.129
69.53000 3504.081
69.54000 2930.667
69.55000 2643.759
69.56000 2383.077
69.57000 2195.463
69.58000 2023.982
69.59000 1893.247
69.60000 1776.810
69.61000 1684.065
69.62000 1591.677
69.63000 1526.522
69.64000 1491.026
69.65000 1455.696
69.66000 1401.859
69.67000 1335.693
69.68000 1270.225
69.69000 1226.226
69.70000 1192.356
69.71000 1160.166
69.72000 1151.144
69.73000 1149.515
69.74000 1148.042
69.75000 1122.728
69.76000 1096.004
69.77000 1068.413
69.78000 1036.579
69.79000 1004.176
69.80000 976.854
69.81000 966.010
69.82000 956.430
69.83000 949.779
69.84000 913.112
69.85000 884.689
69.86000 865.041
69.87000 858.320
69.88000 851.715
69.89000 845.306
69.90000 839.085
69.91000 832.913
69.92000 825.942
69.93000 818.603
69.94000 811.091
69.95000 799.518
69.96000 786.233
69.97000 773.503
69.98000 767.138
69.99000 762.582
70.00000 758.532
