20.00000 579.765
20.01000 587.888
20.02000 597.171
20.03000 603.144
20.04000 596.214
20.05000 587.985
20.06000 581.946
20.07000 566.432
20.08000 554.060
20.09000 548.257
20.10000 554.085
20.11000 560.137
20.12000 568.284
20.13000 578.888
20.14000 589.467
20.15000 594.965
20.16000 596.622
20.17000 597.949
20.18000 587.188
20.19000 570.340
20.20000 555.044
20.21000 563.696
20.22000 580.508
20.23000 595.848
20.24000 580.982
20.25000 561.703
20.26000 546.278
20.27000 551.150
20.28000 558.973
20.29000 566.074
20.30000 570.670
20.31000 575.054
20.32000 578.162
20.33000 580.393
20.34000 582.063
20.35000 581.567
20.36000 577.659
20.37000 573.708
20.38000 570.665
20.39000 568.557
20.40000 566.460
20.41000 563.353
20.42000 559.620
20.43000 555.907
20.44000 552.768
20.45000 549.887
20.46000 547.893
20.47000 557.196
20.48000 569.932
20.49000 581.368
20.50000 574.910
20.51000 566.115
20.52000 559.092
20.53000 560.293
20.54000 562.530
20.55000 563.270
20.56000 559.385
20.57000 555.173
20.58000 552.296
20.59000 559.769
20.60000 565.602
20.61000 567.089
20.62000 562.493
20.63000 557.860
20.64000 560.796
20.65000 570.568
20.66000 580.244
20.67000 578.346
20.68000 569.752
20.69000 561.509
20.70000 560.682
20.71000 562.831
20.72000 565.023
20.73000 567.660
20.74000 570.417
20.75000 572.849
20.76000 569.463
20.77000 565.654
20.78000 562.593
20.79000 562.611
20.80000 562.961
20.81000 563.085
20.82000 562.582
20.83000 562.044
20.84000 561.691
20.85000 557.889
20.86000 555.035
20.87000 553.432
20.88000 553.378
20.89000 553.347
20.90000 559.378
20.91000 570.237
20.92000 580.931
20.93000 577.564
20.94000 567.073
20.95000 557.040
20.96000 554.750
20.97000 555.234
20.98000 555.990
20.99000 559.208
21.00000 563.017
21.01000 566.314
21.02000 561.673
21.03000 556.682
21.04000 553.353
21.05000 556.095
21.06000 559.395
21.07000 558.433
21.08000 546.986
21.09000 535.056
21.10000 527.567
21.11000 543.646
21.12000 555.526
21.13000 561.886
21.14000 562.219
21.15000 562.515
21.16000 558.160
21.17000 550.527
21.18000 543.057
21.19000 543.363
21.20000 547.187
21.21000 550.923
21.22000 553.445
21.23000 555.578
21.24000 557.545
21.25000 558.206
21.26000 558.589
21.27000 558.914
21.28000 553.882
21.29000 549.060
21.30000 545.065
21.31000 543.753
21.32000 542.649
21.33000 544.570
21.34000 553.140
21.35000 561.947
21.36000 567.217
21.37000 559.908
21.38000 554.640
21.39000 551.768
21.40000 551.190
21.41000 550.675
21.42000 555.041
21.43000 562.464
21.44000 569.672
21.45000 567.959
21.46000 562.757
21.47000 557.787
21.48000 555.493
21.49000 553.962
21.50000 552.883
21.51000 554.866
21.52000 557.422
21.53000 559.540
21.54000 557.884
21.55000 556.156
21.56000 556.743
21.57000 564.043
21.58000 571.769
21.59000 574.366
21.60000 566.901
21.61000 559.171
21.62000 554.780
21.63000 566.469
21.64000 574.648
21.65000 576.956
21.66000 574.320
21.67000 571.721
21.68000 571.038
21.69000 571.422
21.70000 571.792
21.71000 586.862
21.72000 606.203
21.73000 623.789
21.74000 624.252
21.75000 620.378
21.76000 616.865
21.77000 615.480
21.78000 614.446
21.79000 613.610
21.80000 627.600
21.81000 640.176
21.82000 653.118
21.83000 667.009
21.84000 680.948
21.85000 696.564
21.86000 715.115
21.87000 733.719
21.88000 743.700
21.89000 742.082
21.90000 741.046
21.91000 754.783
21.92000 779.514
21.93000 803.998
21.94000 819.740
21.95000 831.134
21.96000 841.990
21.97000 847.349
21.98000 850.601
21.99000 854.387
22.00000 862.642
22.01000 871.900
22.02000 879.131
22.03000 875.835
22.04000 871.031
22.05000 867.247
22.06000 889.793
22.07000 909.622
22.08000 913.100
22.09000 878.790
22.10000 842.964
22.11000 818.414
22.12000 811.418
22.13000 804.627
22.14000 801.205
22.15000 774.448
22.16000 756.605
22.17000 742.783
22.18000 731.616
22.19000 720.440
22.20000 709.064
22.21000 697.598
22.22000 686.797
22.23000 675.380
22.24000 664.765
22.25000 653.199
22.26000 634.780
22.27000 615.002
22.28000 597.765
22.29000 592.172
22.30000 588.022
22.31000 584.846
22.32000 582.647
22.33000 580.964
22.34000 579.557
22.35000 578.715
22.36000 577.891
22.37000 575.333
22.38000 570.379
22.39000 565.412
22.40000 563.410
22.41000 564.047
22.42000 564.680
22.43000 565.112
22.44000 565.425
22.45000 565.889
22.46000 569.453
22.47000 574.248
22.48000 578.708
22.49000 570.138
22.50000 559.258
22.51000 549.186
22.52000 544.194
22.53000 540.087
22.54000 537.431
22.55000 540.661
22.56000 544.517
22.57000 547.379
22.58000 546.160
22.59000 545.034
22.60000 543.152
22.61000 539.877
22.62000 536.571
22.63000 534.571
22.64000 534.166
22.65000 533.766
22.66000 538.017
22.67000 545.883
22.68000 553.652
22.69000 557.423
22.70000 559.102
22.71000 560.484
22.72000 556.957
22.73000 551.691
22.74000 546.862
22.75000 541.382
22.76000 536.361
22.77000 530.618
22.78000 520.903
22.79000 510.582
22.80000 503.517
22.81000 508.195
22.82000 513.932
22.83000 518.049
22.84000 521.128
22.85000 523.448
22.86000 525.581
22.87000 527.409
22.88000 529.234
22.89000 524.136
22.90000 511.587
22.91000 499.093
22.92000 502.776
22.93000 517.556
22.94000 531.975
22.95000 535.616
22.96000 534.220
22.97000 532.650
22.98000 528.711
22.99000 524.024
23.00000 519.791
23.01000 522.479
23.02000 526.117
23.03000 528.394
23.04000 524.082
23.05000 518.898
23.06000 515.330
23.07000 516.950
23.08000 518.962
23.09000 520.353
23.10000 519.863
23.11000 519.445
23.12000 522.364
23.13000 530.150
23.14000 537.975
23.15000 539.064
23.16000 533.797
23.17000 528.573
23.18000 529.501
23.19000 534.147
23.20000 538.509
23.21000 536.377
23.22000 531.536
23.23000 526.729
23.24000 522.313
23.25000 518.008
23.26000 514.186
23.27000 515.630
23.28000 517.725
23.29000 519.816
23.30000 521.889
23.31000 523.959
23.32000 524.738
23.33000 521.819
23.34000 518.670
23.35000 516.576
23.36000 510.103
23.37000 505.233
23.38000 501.230
23.39000 498.348
23.40000 495.473
23.41000 494.269
23.42000 494.452
23.43000 494.633
23.44000 495.467
23.45000 496.630
23.46000 497.820
23.47000 499.528
23.48000 501.428
23.49000 503.571
23.50000 508.046
23.51000 513.103
23.52000 517.509
23.53000 510.100
23.54000 502.133
23.55000 497.281
23.56000 504.266
23.57000 512.402
23.58000 517.675
23.59000 515.631
23.60000 513.222
23.61000 511.687
23.62000 519.532
23.63000 525.356
23.64000 528.127
23.65000 527.419
23.66000 526.698
23.67000 524.516
23.68000 521.260
23.69000 518.067
23.70000 511.449
23.71000 503.451
23.72000 496.171
23.73000 499.488
23.74000 506.327
23.75000 512.285
23.76000 510.996
23.77000 508.102
23.78000 505.631
23.79000 499.167
23.80000 493.248
23.81000 492.430
23.82000 508.858
23.83000 526.697
23.84000 535.379
23.85000 523.153
23.86000 510.112
23.87000 502.177
23.88000 497.944
23.89000 494.951
23.90000 493.880
23.91000 494.735
23.92000 495.556
23.93000 493.343
23.94000 489.152
23.95000 485.072
23.96000 487.804
23.97000 493.257
23.98000 498.009
23.99000 494.170
24.00000 487.786
24.01000 483.076
24.02000 490.261
24.03000 499.771
24.04000 507.716
24.05000 498.254
24.06000 488.637
24.07000 484.139
24.08000 495.058
24.09000 507.023
24.10000 513.630
24.11000 509.315
24.12000 504.680
24.13000 501.999
24.14000 499.001
24.15000 496.898
24.16000 494.996
24.17000 493.270
24.18000 491.614
24.19000 493.955
24.20000 498.613
24.21000 503.111
24.22000 501.970
24.23000 498.813
24.24000 495.511
24.25000 490.715
24.26000 485.525
24.27000 481.611
24.28000 485.585
24.29000 490.915
24.30000 495.263
24.31000 489.205
24.32000 483.362
24.33000 481.792
24.34000 491.708
24.35000 502.259
24.36000 505.932
24.37000 497.099
24.38000 488.004
24.39000 483.027
24.40000 491.426
24.41000 497.218
24.42000 502.906
24.43000 508.512
24.44000 513.789
24.45000 506.089
24.46000 491.679
24.47000 477.900
24.48000 479.968
24.49000 487.052
24.50000 493.339
24.51000 492.620
24.52000 490.262
24.53000 489.499
24.54000 497.384
24.55000 506.568
24.56000 513.868
24.57000 496.677
24.58000 481.082
24.59000 472.738
24.60000 481.802
24.61000 491.628
24.62000 499.309
24.63000 503.514
24.64000 507.671
24.65000 509.812
24.66000 504.210
24.67000 500.448
24.68000 497.997
24.69000 496.445
24.70000 494.894
24.71000 493.361
24.72000 491.837
24.73000 490.395
24.74000 496.287
24.75000 503.804
24.76000 510.258
24.77000 508.659
24.78000 505.395
24.79000 501.717
24.80000 496.062
24.81000 490.150
24.82000 485.580
24.83000 478.988
24.84000 473.640
24.85000 471.056
24.86000 474.396
24.87000 477.934
24.88000 482.848
24.89000 489.740
24.90000 496.647
24.91000 496.366
24.92000 489.399
24.93000 482.479
24.94000 478.853
24.95000 477.238
24.96000 475.829
24.97000 478.990
24.98000 484.036
24.99000 488.750
25.00000 492.401
25.01000 495.446
25.02000 497.455
25.03000 492.651
25.04000 486.607
25.05000 480.690
25.06000 475.314
25.07000 469.999
25.08000 466.012
25.09000 475.036
25.10000 482.702
25.11000 486.410
25.12000 482.546
25.13000 478.496
25.14000 478.780
25.15000 484.590
25.16000 490.412
25.17000 491.084
25.18000 487.548
25.19000 484.035
25.20000 481.603
25.21000 479.758
25.22000 477.907
25.23000 475.939
25.24000 473.928
25.25000 472.075
25.26000 471.090
25.27000 470.399
25.28000 470.192
25.29000 472.758
25.30000 475.767
25.31000 478.896
25.32000 482.475
25.33000 486.096
25.34000 488.724
25.35000 479.510
25.36000 471.983
25.37000 470.170
25.38000 478.105
25.39000 486.203
25.40000 489.430
25.41000 487.179
25.42000 484.933
25.43000 482.256
25.44000 479.295
25.45000 476.309
25.46000 472.490
25.47000 468.266
25.48000 464.692
25.49000 470.506
25.50000 479.404
25.51000 487.482
25.52000 480.140
25.53000 470.680
25.54000 464.540
25.55000 475.181
25.56000 488.153
25.57000 496.559
25.58000 489.725
25.59000 481.667
25.60000 476.021
25.61000 472.960
25.62000 470.719
25.63000 473.680
25.64000 484.534
25.65000 495.470
25.66000 495.111
25.67000 483.609
25.68000 472.187
25.69000 470.631
25.70000 475.349
25.71000 479.957
25.72000 481.818
25.73000 482.488
25.74000 482.928
25.75000 480.591
25.76000 477.440
25.77000 474.627
25.78000 468.528
25.79000 462.665
25.80000 458.187
25.81000 459.892
25.82000 462.339
25.83000 465.807
25.84000 472.311
25.85000 479.016
25.86000 483.538
25.87000 483.998
25.88000 484.254
25.89000 480.492
25.90000 471.319
25.91000 462.127
25.92000 460.881
25.93000 466.522
25.94000 472.098
25.95000 470.180
25.96000 464.118
25.97000 458.433
25.98000 460.139
25.99000 464.705
26.00000 468.778
26.01000 467.840
26.02000 465.599
26.03000 463.634
26.04000 462.546
26.05000 461.740
26.06000 462.144
26.07000 467.334
26.08000 473.015
26.09000 477.361
26.10000 478.160
26.11000 478.767
26.12000 479.160
26.13000 473.943
26.14000 470.044
26.15000 467.719
26.16000 467.264
26.17000 466.802
26.18000 463.660
26.19000 458.468
26.20000 453.364
26.21000 453.379
26.22000 455.919
26.23000 458.184
26.24000 456.090
26.25000 452.491
26.26000 449.718
26.27000 454.094
26.28000 460.121
26.29000 465.303
26.30000 468.121
26.31000 470.209
26.32000 470.486
26.33000 464.390
26.34000 457.741
26.35000 451.477
26.36000 446.123
26.37000 440.809
26.38000 437.523
26.39000 456.047
26.40000 469.563
26.41000 474.822
26.42000 471.440
26.43000 468.088
26.44000 468.280
26.45000 470.876
26.46000 473.409
26.47000 475.913
26.48000 478.294
26.49000 480.182
26.50000 475.644
26.51000 469.126
26.52000 463.316
26.53000 462.796
26.54000 463.354
26.55000 463.824
26.56000 460.386
26.57000 457.100
26.58000 454.971
26.59000 456.466
26.60000 458.223
26.61000 458.992
26.62000 457.670
26.63000 456.281
26.64000 455.463
26.65000 446.008
26.66000 439.297
26.67000 441.523
26.68000 451.950
26.69000 462.223
26.70000 462.221
26.71000 456.023
26.72000 450.021
26.73000 446.518
26.74000 444.168
26.75000 442.284
26.76000 445.495
26.77000 450.105
26.78000 453.902
26.79000 452.445
26.80000 450.044
26.81000 448.069
26.82000 440.066
26.83000 432.943
26.84000 429.863
26.85000 438.080
26.86000 446.968
26.87000 454.935
26.88000 461.164
26.89000 467.352
26.90000 470.804
26.91000 465.681
26.92000 462.120
26.93000 459.838
26.94000 458.589
26.95000 457.321
26.96000 455.233
26.97000 452.702
26.98000 450.274
26.99000 444.078
27.00000 437.007
27.01000 431.671
27.02000 442.420
27.03000 457.088
27.04000 468.242
27.05000 459.479
27.06000 447.585
27.07000 438.044
27.08000 435.351
27.09000 433.689
27.10000 432.587
27.11000 432.881
27.12000 433.240
27.13000 434.298
27.14000 436.532
27.15000 438.784
27.16000 439.969
27.17000 461.233
27.18000 475.556
27.19000 474.271
27.20000 461.815
27.21000 449.508
27.22000 441.996
27.23000 436.783
27.24000 431.833
27.25000 437.750
27.26000 446.465
27.27000 454.392
27.28000 456.045
27.29000 456.344
27.30000 456.283
27.31000 454.419
27.32000 452.309
27.33000 450.662
27.34000 442.015
27.35000 434.680
27.36000 431.626
27.37000 438.110
27.38000 444.945
27.39000 451.269
27.40000 456.825
27.41000 462.374
27.42000 465.065
27.43000 464.977
27.44000 464.829
27.45000 459.880
27.46000 451.879
27.47000 444.047
27.48000 440.322
27.49000 438.354
27.50000 436.508
27.51000 442.255
27.52000 449.491
27.53000 455.547
27.54000 453.466
27.55000 449.837
27.56000 447.530
27.57000 451.044
27.58000 455.245
27.59000 458.430
27.60000 452.970
27.61000 448.242
27.62000 446.574
27.63000 450.991
27.64000 455.575
27.65000 459.206
27.66000 461.569
27.67000 463.925
27.68000 459.194
27.69000 448.428
27.70000 437.819
27.71000 435.439
27.72000 437.715
27.73000 440.020
27.74000 442.874
27.75000 445.938
27.76000 448.775
27.77000 444.343
27.78000 438.677
27.79000 434.950
27.80000 442.876
27.81000 452.747
27.82000 459.412
27.83000 453.550
27.84000 446.424
27.85000 441.193
27.86000 437.910
27.87000 435.452
27.88000 432.733
27.89000 429.551
27.90000 426.360
27.91000 427.243
27.92000 432.910
27.93000 438.568
27.94000 439.642
27.95000 437.269
27.96000 434.961
27.97000 435.041
27.98000 436.326
27.99000 437.670
28.00000 439.928
28.01000 442.497
28.02000 444.842
28.03000 438.005
28.04000 430.085
28.05000 423.889
28.06000 426.794
28.07000 431.025
28.08000 435.628
28.09000 441.523
28.10000 447.528
28.11000 451.788
28.12000 453.779
28.13000 455.223
28.14000 453.760
28.15000 447.710
28.16000 441.603
28.17000 436.914
28.18000 433.689
28.19000 430.481
28.20000 431.509
28.21000 435.321
28.22000 439.022
28.23000 439.690
28.24000 438.991
28.25000 438.508
28.26000 440.782
28.27000 443.894
28.28000 446.690
28.29000 445.655
28.30000 444.074
28.31000 442.132
28.32000 438.508
28.33000 434.672
28.34000 431.426
28.35000 430.005
28.36000 428.713
28.37000 427.830
28.38000 434.343
28.39000 439.390
28.40000 442.922
28.41000 444.331
28.42000 445.721
28.43000 441.572
28.44000 432.411
28.45000 423.340
28.46000 418.526
28.47000 416.296
28.48000 414.379
28.49000 419.105
28.50000 426.503
28.51000 433.474
28.52000 435.870
28.53000 437.027
28.54000 438.049
28.55000 433.276
28.56000 428.273
28.57000 424.088
28.58000 423.271
28.59000 422.820
28.60000 423.343
28.61000 426.556
28.62000 429.926
28.63000 432.137
28.64000 438.722
28.65000 443.639
28.66000 444.399
28.67000 439.998
28.68000 435.597
28.69000 435.836
28.70000 439.777
28.71000 443.658
28.72000 439.946
28.73000 432.436
28.74000 425.639
28.75000 430.942
28.76000 440.590
28.77000 448.806
28.78000 443.966
28.79000 435.987
28.80000 429.078
28.81000 428.873
28.82000 429.583
28.83000 428.983
28.84000 423.593
28.85000 417.761
28.86000 415.971
28.87000 424.139
28.88000 432.768
28.89000 438.188
28.90000 435.324
28.91000 433.163
28.92000 434.448
28.93000 439.504
28.94000 444.530
28.95000 445.308
28.96000 443.084
28.97000 440.908
28.98000 436.170
28.99000 430.457
29.00000 424.869
29.01000 421.025
29.02000 417.741
29.03000 415.016
29.04000 416.671
29.05000 419.260
29.06000 421.454
29.07000 421.987
29.08000 422.245
29.09000 421.929
29.10000 419.741
29.11000 417.410
29.12000 418.113
29.13000 425.496
29.14000 433.118
29.15000 437.682
29.16000 436.157
29.17000 435.034
29.18000 434.634
29.19000 434.927
29.20000 435.177
29.21000 432.092
29.22000 426.915
29.23000 421.888
29.24000 427.388
29.25000 436.840
29.26000 445.256
29.27000 441.704
29.28000 434.736
29.29000 429.084
29.30000 432.367
29.31000 437.327
29.32000 441.440
29.33000 428.644
29.34000 416.451
29.35000 409.605
29.36000 418.284
29.37000 427.950
29.38000 430.574
29.39000 419.362
29.40000 407.784
29.41000 401.202
29.42000 422.768
29.43000 437.856
29.44000 440.109
29.45000 431.534
29.46000 423.087
29.47000 421.052
29.48000 422.600
29.49000 424.090
29.50000 423.071
29.51000 421.226
29.52000 419.316
29.53000 416.766
29.54000 414.054
29.55000 412.469
29.56000 417.562
29.57000 423.754
29.58000 428.764
29.59000 425.309
29.60000 421.815
29.61000 418.809
29.62000 417.072
29.63000 415.400
29.64000 415.483
29.65000 418.641
29.66000 421.856
29.67000 423.582
29.68000 422.797
29.69000 422.265
29.70000 423.177
29.71000 425.165
29.72000 427.061
29.73000 425.683
29.74000 422.673
29.75000 419.805
29.76000 421.473
29.77000 424.436
29.78000 426.751
29.79000 423.643
29.80000 419.314
29.81000 418.025
29.82000 432.550
29.83000 449.345
29.84000 462.579
29.85000 454.376
29.86000 446.364
29.87000 442.331
29.88000 447.509
29.89000 453.057
29.90000 456.105
29.91000 455.253
29.92000 454.355
29.93000 453.902
29.94000 453.846
29.95000 453.816
29.96000 454.549
29.97000 455.785
29.98000 456.936
29.99000 455.816
30.00000 453.685
30.01000 451.677
30.02000 451.355
30.03000 451.524
30.04000 452.100
30.05000 455.612
30.06000 459.707
30.07000 464.197
30.08000 470.495
30.09000 477.018
30.10000 482.012
30.11000 471.577
30.12000 462.494
30.13000 456.371
30.14000 456.367
30.15000 456.549
30.16000 456.868
30.17000 457.376
30.18000 457.884
30.19000 452.722
30.20000 442.509
30.21000 432.430
30.22000 430.453
30.23000 433.240
30.24000 435.732
30.25000 432.102
30.26000 426.040
30.27000 420.401
30.28000 423.264
30.29000 427.905
30.30000 432.483
30.31000 436.662
30.32000 440.771
30.33000 443.624
30.34000 441.367
30.35000 438.565
30.36000 436.486
30.37000 437.320
30.38000 438.096
30.39000 438.456
30.40000 438.050
30.41000 437.628
30.42000 434.874
30.43000 429.266
30.44000 423.661
30.45000 425.557
30.46000 433.318
30.47000 440.910
30.48000 441.536
30.49000 438.511
30.50000 435.754
30.51000 437.434
30.52000 440.688
30.53000 443.673
30.54000 444.011
30.55000 443.752
30.56000 443.888
30.57000 446.204
30.58000 448.853
30.59000 451.886
30.60000 456.306
30.61000 460.851
30.62000 464.114
30.63000 459.595
30.64000 455.871
30.65000 453.816
30.66000 454.503
30.67000 455.231
30.68000 456.724
30.69000 459.043
30.70000 461.352
30.71000 465.990
30.72000 472.185
30.73000 478.226
30.74000 479.667
30.75000 478.954
30.76000 478.395
30.77000 479.925
30.78000 482.115
30.79000 484.093
30.80000 490.124
30.81000 496.174
30.82000 500.488
30.83000 496.371
30.84000 491.137
30.85000 489.847
30.86000 501.241
30.87000 513.596
30.88000 522.148
30.89000 518.581
30.90000 515.580
30.91000 517.627
30.92000 527.045
30.93000 536.525
30.94000 542.568
30.95000 545.359
30.96000 548.127
30.97000 564.724
30.98000 589.428
30.99000 613.932
31.00000 633.799
31.01000 651.729
31.02000 670.799
31.03000 702.817
31.04000 738.485
31.05000 770.156
31.06000 801.308
31.07000 828.230
31.08000 861.708
31.09000 923.309
31.10000 988.123
31.11000 1053.951
31.12000 1122.686
31.13000 1191.602
31.14000 1237.472
31.15000 1382.121
31.16000 1491.017
31.17000 1609.690
31.18000 1741.017
31.19000 1872.418
31.20000 2015.079
31.21000 2167.109
31.22000 2317.139
31.23000 2477.160
31.24000 2638.234
31.25000 2799.238
31.26000 2958.945
31.27000 3118.167
31.28000 3275.201
31.29000 3411.180
31.30000 3541.886
31.31000 3655.813
31.32000 3757.288
31.33000 3842.289
31.34000 3913.695
31.35000 3933.342
31.36000 3947.946
31.37000 3954.203
31.38000 3939.084
31.39000 3922.895
31.40000 3912.569
31.41000 3764.431
31.42000 3654.923
31.43000 3540.228
31.44000 3419.606
31.45000 3298.834
31.46000 3152.716
31.47000 2987.948
31.48000 2826.332
31.49000 2655.254
31.50000 2485.945
31.51000 2317.647
31.52000 2164.342
31.53000 2016.029
31.54000 1868.512
31.55000 1727.556
31.56000 1588.056
31.57000 1468.895
31.58000 1333.221
31.59000 1216.957
31.60000 1110.843
31.61000 1039.102
31.62000 970.182
31.63000 905.636
31.64000 851.095
31.65000 796.945
31.66000 763.975
31.67000 708.751
31.68000 669.123
31.69000 638.803
31.70000 617.818
31.71000 596.919
31.72000 583.896
31.73000 576.016
31.74000 568.342
31.75000 552.698
31.76000 534.448
31.77000 517.346
31.78000 514.349
31.79000 515.539
31.80000 515.180
31.81000 503.799
31.82000 490.258
31.83000 478.943
31.84000 474.404
31.85000 471.324
31.86000 467.909
31.87000 463.480
31.88000 458.982
31.89000 456.832
31.90000 459.476
31.91000 462.261
31.92000 463.873
31.93000 445.779
31.94000 433.019
31.95000 428.813
31.96000 432.139
31.97000 435.443
31.98000 437.554
31.99000 438.972
32.00000 440.341
32.01000 438.991
32.02000 436.715
32.03000 434.369
32.04000 431.306
32.05000 428.054
32.06000 425.330
32.07000 425.888
32.08000 427.011
32.09000 427.927
32.10000 432.350
32.11000 436.268
32.12000 437.096
32.13000 429.604
32.14000 421.651
32.15000 418.543
32.16000 424.259
32.17000 430.161
32.18000 433.394
32.19000 418.056
32.20000 407.522
32.21000 407.566
32.22000 415.828
32.23000 423.856
32.24000 422.558
32.25000 416.431
32.26000 410.571
32.27000 410.115
32.28000 411.454
32.29000 411.945
32.30000 404.976
32.31000 396.258
32.32000 389.939
32.33000 396.657
32.34000 405.336
32.35000 412.239
32.36000 402.912
32.37000 394.238
32.38000 390.657
32.39000 399.327
32.40000 408.534
32.41000 412.596
32.42000 408.308
32.43000 403.904
32.44000 401.634
32.45000 393.904
32.46000 388.725
32.47000 387.001
32.48000 387.654
32.49000 388.208
32.50000 385.867
32.51000 382.186
32.52000 378.705
32.53000 383.257
32.54000 389.749
32.55000 395.036
32.56000 391.186
32.57000 385.442
32.58000 379.994
32.59000 375.958
32.60000 372.107
32.61000 369.129
32.62000 386.752
32.63000 401.947
32.64000 409.112
32.65000 399.031
32.66000 388.368
32.67000 382.354
32.68000 383.041
32.69000 383.782
32.70000 386.661
32.71000 391.532
32.72000 396.267
32.73000 391.518
32.74000 380.965
32.75000 370.832
32.76000 370.109
32.77000 373.270
32.78000 376.224
32.79000 376.483
32.80000 376.038
32.81000 375.454
32.82000 373.960
32.83000 372.299
32.84000 372.227
32.85000 378.882
32.86000 386.292
32.87000 391.852
32.88000 401.230
32.89000 408.737
32.90000 417.784
32.91000 429.782
32.92000 441.853
32.93000 451.445
32.94000 457.870
32.95000 464.275
32.96000 475.532
32.97000 490.719
32.98000 505.480
32.99000 500.434
33.00000 484.592
33.01000 469.762
33.02000 472.944
33.03000 482.767
33.04000 491.821
33.05000 490.413
33.06000 486.836
33.07000 481.264
33.08000 464.196
33.09000 445.291
33.10000 430.257
33.11000 429.774
33.12000 430.684
33.13000 431.345
33.14000 427.069
33.15000 423.596
33.16000 416.216
33.17000 402.161
33.18000 387.993
33.19000 379.687
33.20000 377.984
33.21000 376.292
33.22000 372.173
33.23000 366.340
33.24000 360.760
33.25000 363.561
33.26000 370.439
33.27000 376.880
33.28000 377.000
33.29000 375.041
33.30000 373.263
33.31000 357.475
33.32000 340.821
33.33000 328.610
33.34000 338.895
33.35000 352.311
33.36000 361.897
33.37000 358.674
33.38000 354.420
33.39000 351.437
33.40000 352.350
33.41000 353.152
33.42000 352.940
33.43000 351.185
33.44000 349.415
33.45000 348.711
33.46000 349.063
33.47000 349.413
33.48000 349.389
33.49000 349.128
33.50000 348.751
33.51000 345.442
33.52000 340.861
33.53000 336.896
33.54000 340.350
33.55000 345.978
33.56000 351.005
33.57000 348.092
33.58000 344.217
33.59000 340.303
33.60000 336.210
33.61000 332.097
33.62000 332.224
33.63000 344.992
33.64000 358.603
33.65000 367.787
33.66000 351.211
33.67000 338.329
33.68000 331.366
33.69000 332.386
33.70000 333.454
33.71000 338.753
33.72000 347.724
33.73000 356.593
33.74000 360.273
33.75000 360.959
33.76000 361.344
33.77000 355.808
33.78000 347.977
33.79000 341.085
33.80000 343.741
33.81000 348.886
33.82000 353.400
33.83000 353.522
33.84000 352.987
33.85000 352.696
33.86000 353.371
33.87000 354.145
33.88000 353.834
33.89000 350.634
33.90000 347.278
33.91000 345.106
33.92000 340.116
33.93000 336.424
33.94000 336.257
33.95000 340.290
33.96000 344.327
33.97000 347.517
33.98000 350.056
33.99000 352.552
34.00000 351.207
34.01000 348.007
34.02000 344.785
34.03000 341.223
34.04000 337.542
34.05000 334.514
34.06000 337.132
34.07000 341.057
34.08000 344.433
34.09000 342.978
34.10000 341.139
34.11000 338.727
34.12000 334.291
34.13000 329.680
34.14000 327.048
34.15000 329.119
34.16000 331.391
34.17000 332.797
34.18000 338.687
34.19000 342.964
34.20000 344.561
34.21000 343.346
34.22000 342.139
34.23000 341.788
34.24000 342.017
34.25000 342.241
34.26000 340.981
34.27000 339.128
34.28000 337.301
34.29000 335.804
34.30000 334.410
34.31000 333.074
34.32000 332.166
34.33000 331.345
34.34000 330.654
34.35000 329.159
34.36000 327.825
34.37000 327.157
34.38000 328.578
34.39000 330.151
34.40000 332.041
34.41000 334.605
34.42000 337.191
34.43000 338.715
34.44000 335.416
34.45000 333.064
34.46000 333.364
34.47000 336.102
34.48000 338.791
34.49000 338.226
34.50000 335.696
34.51000 333.244
34.52000 329.134
34.53000 324.606
34.54000 320.970
34.55000 327.105
34.56000 335.925
34.57000 343.779
34.58000 345.361
34.59000 345.814
34.60000 346.187
34.61000 338.294
34.62000 331.055
34.63000 325.910
34.64000 326.629
34.65000 327.698
34.66000 327.871
34.67000 326.351
34.68000 324.790
34.69000 323.919
34.70000 327.327
34.71000 329.691
34.72000 330.268
34.73000 329.397
34.74000 328.464
34.75000 324.783
34.76000 319.624
34.77000 314.672
34.78000 321.315
34.79000 331.471
34.80000 339.966
34.81000 333.035
34.82000 322.340
34.83000 313.733
34.84000 316.988
34.85000 322.113
34.86000 326.225
34.87000 321.132
34.88000 316.306
34.89000 313.125
34.90000 314.057
34.91000 315.184
34.92000 317.911
34.93000 323.336
34.94000 328.805
34.95000 331.685
34.96000 330.893
34.97000 330.344
34.98000 328.198
34.99000 324.908
35.00000 321.777
35.01000 323.755
35.02000 328.189
35.03000 332.398
35.04000 328.648
35.05000 322.798
35.06000 317.425
35.07000 315.857
35.08000 315.110
35.09000 315.466
35.10000 321.328
35.11000 327.944
35.12000 333.111
35.13000 332.601
35.14000 331.837
35.15000 329.466
35.16000 323.510
35.17000 317.420
35.18000 313.160
35.19000 311.645
35.20000 310.157
35.21000 307.199
35.22000 302.810
35.23000 298.526
35.24000 302.956
35.25000 312.932
35.26000 322.574
35.27000 324.052
35.28000 322.027
35.29000 320.128
35.30000 320.359
35.31000 321.132
35.32000 321.519
35.33000 319.236
35.34000 316.445
35.35000 314.450
35.36000 315.968
35.37000 317.901
35.38000 319.367
35.39000 316.523
35.40000 314.068
35.41000 312.314
35.42000 311.956
35.43000 311.635
35.44000 313.276
35.45000 317.526
35.46000 321.786
35.47000 318.572
35.48000 308.977
35.49000 299.611
35.50000 302.372
35.51000 312.006
35.52000 321.082
35.53000 319.451
35.54000 313.720
35.55000 308.411
35.56000 308.565
35.57000 309.968
35.58000 311.908
35.59000 317.087
35.60000 322.808
35.61000 326.051
35.62000 319.599
35.63000 312.167
35.64000 306.707
35.65000 308.146
35.66000 309.539
35.67000 312.174
35.68000 317.015
35.69000 321.899
35.70000 323.332
35.71000 320.708
35.72000 318.084
35.73000 317.141
35.74000 317.468
35.75000 317.787
35.76000 317.820
35.77000 317.709
35.78000 317.515
35.79000 316.026
35.80000 314.095
35.81000 312.332
35.82000 312.298
35.83000 312.618
35.84000 313.515
35.85000 317.462
35.86000 321.854
35.87000 324.663
35.88000 321.967
35.89000 318.801
35.90000 316.553
35.91000 321.092
35.92000 324.759
35.93000 326.832
35.94000 326.383
35.95000 325.902
35.96000 324.905
35.97000 323.374
35.98000 321.852
35.99000 317.955
36.00000 312.535
36.01000 307.342
36.02000 308.371
36.03000 312.206
36.04000 315.461
36.05000 311.298
36.06000 304.873
36.07000 299.101
36.08000 302.391
36.09000 306.871
36.10000 310.565
36.11000 310.597
36.12000 310.166
36.13000 308.832
36.14000 304.698
36.15000 300.365
36.16000 297.403
36.17000 301.038
36.18000 303.916
36.19000 304.780
36.20000 302.816
36.21000 300.832
36.22000 298.161
36.23000 294.867
36.24000 291.606
36.25000 291.524
36.26000 293.301
36.27000 295.071
36.28000 296.703
36.29000 298.278
36.30000 300.149
36.31000 305.204
36.32000 311.123
36.33000 316.348
36.34000 314.684
36.35000 312.193
36.36000 309.531
36.37000 306.162
36.38000 302.716
36.39000 300.244
36.40000 300.465
36.41000 300.842
36.42000 301.089
36.43000 306.501
36.44000 310.570
36.45000 311.747
36.46000 309.326
36.47000 306.887
36.48000 301.717
36.49000 294.365
36.50000 287.122
36.51000 286.466
36.52000 289.227
36.53000 291.971
36.54000 294.436
36.55000 296.800
36.56000 299.409
36.57000 304.257
36.58000 309.643
36.59000 314.308
36.60000 319.011
36.61000 323.017
36.62000 324.994
36.63000 319.536
36.64000 313.391
36.65000 307.578
36.66000 302.586
36.67000 297.631
36.68000 294.517
36.69000 301.185
36.70000 306.116
36.71000 308.859
36.72000 309.205
36.73000 309.525
36.74000 306.391
36.75000 300.812
36.76000 295.352
36.77000 294.183
36.78000 295.014
36.79000 295.906
36.80000 297.638
36.81000 299.639
36.82000 301.169
36.83000 298.999
36.84000 296.040
36.85000 293.529
36.86000 293.073
36.87000 292.923
36.88000 293.666
36.89000 297.322
36.90000 301.203
36.91000 303.447
36.92000 302.082
36.93000 300.587
36.94000 299.691
36.95000 306.715
36.96000 311.755
36.97000 312.372
36.98000 308.738
36.99000 305.169
37.00000 306.666
37.01000 311.347
37.02000 315.894
37.03000 312.717
37.04000 306.594
37.05000 300.914
37.06000 300.370
37.07000 301.294
37.08000 302.845
37.09000 308.660
37.10000 315.277
37.11000 320.766
37.12000 316.665
37.13000 312.354
37.14000 308.990
37.15000 308.376
37.16000 307.939
37.17000 308.874
37.18000 312.512
37.19000 316.222
37.20000 318.333
37.21000 310.879
37.22000 305.662
37.23000 305.114
37.24000 308.511
37.25000 311.796
37.26000 309.394
37.27000 303.809
37.28000 298.432
37.29000 301.822
37.30000 308.116
37.31000 313.893
37.32000 314.594
37.33000 314.005
37.34000 312.841
37.35000 308.261
37.36000 303.117
37.37000 298.954
37.38000 300.207
37.39000 301.665
37.40000 302.186
37.41000 300.276
37.42000 298.241
37.43000 298.378
37.44000 302.328
37.45000 306.349
37.46000 308.509
37.47000 298.871
37.48000 292.316
37.49000 293.476
37.50000 300.399
37.51000 307.202
37.52000 309.732
37.53000 310.129
37.54000 310.508
37.55000 305.159
37.56000 298.407
37.57000 293.220
37.58000 301.165
37.59000 312.068
37.60000 320.680
37.61000 317.351
37.62000 312.303
37.63000 308.325
37.64000 294.589
37.65000 282.920
37.66000 275.532
37.67000 278.070
37.68000 281.009
37.69000 285.467
37.70000 292.298
37.71000 299.156
37.72000 302.618
37.73000 293.314
37.74000 287.153
37.75000 287.175
37.76000 291.292
37.77000 295.411
37.78000 299.563
37.79000 303.729
37.80000 307.655
37.81000 306.071
37.82000 303.103
37.83000 299.929
37.84000 295.270
37.85000 290.316
37.86000 287.034
37.87000 291.446
37.88000 296.815
37.89000 300.928
37.90000 303.199
37.91000 304.892
37.92000 304.369
37.93000 299.263
37.94000 294.016
37.95000 292.500
37.96000 296.160
37.97000 299.851
37.98000 301.414
37.99000 301.073
38.00000 300.701
38.01000 298.447
38.02000 295.085
38.03000 291.911
38.04000 292.642
38.05000 294.926
38.06000 297.052
38.07000 300.757
38.08000 304.486
38.09000 306.439
38.10000 297.194
38.11000 285.990
38.12000 277.667
38.13000 281.084
38.14000 285.754
38.15000 289.222
38.16000 296.961
38.17000 303.165
38.18000 307.854
38.19000 309.741
38.20000 311.567
38.21000 312.741
38.22000 313.115
38.23000 313.486
38.24000 311.253
38.25000 306.986
38.26000 302.903
38.27000 306.417
38.28000 313.921
38.29000 321.223
38.30000 325.170
38.31000 327.926
38.32000 330.455
38.33000 331.347
38.34000 331.795
38.35000 333.286
38.36000 340.535
38.37000 348.666
38.38000 355.807
38.39000 359.368
38.40000 362.605
38.41000 364.930
38.42000 380.634
38.43000 393.110
38.44000 401.536
38.45000 403.298
38.46000 404.962
38.47000 418.217
38.48000 443.999
38.49000 469.669
38.50000 485.429
38.51000 494.172
38.52000 502.953
38.53000 512.861
38.54000 523.298
38.55000 534.236
38.56000 552.015
38.57000 571.963
38.58000 589.983
38.59000 609.996
38.60000 627.963
38.61000 647.831
38.62000 676.948
38.63000 707.293
38.64000 730.969
38.65000 733.160
38.66000 733.721
38.67000 734.110
38.68000 754.262
38.69000 769.947
38.70000 774.916
38.71000 764.209
38.72000 753.365
38.73000 740.670
38.74000 726.220
38.75000 711.890
38.76000 699.210
38.77000 687.765
38.78000 676.292
38.79000 664.146
38.80000 651.719
38.81000 639.129
38.82000 624.675
38.83000 609.695
38.84000 596.390
38.85000 570.765
38.86000 546.565
38.87000 524.081
38.88000 508.974
38.89000 494.712
38.90000 477.860
38.91000 453.569
38.92000 428.813
38.93000 412.326
38.94000 394.297
38.95000 380.925
38.96000 370.586
38.97000 364.178
38.98000 357.789
38.99000 352.739
39.00000 348.805
39.01000 344.922
39.02000 338.543
39.03000 330.991
39.04000 323.369
39.05000 314.439
39.06000 305.021
39.07000 296.328
39.08000 294.629
39.09000 294.684
39.10000 294.732
39.11000 291.576
39.12000 288.432
39.13000 285.884
39.14000 285.607
39.15000 285.552
39.16000 285.039
39.17000 283.350
39.18000 281.603
39.19000 280.487
39.20000 287.665
39.21000 292.993
39.22000 296.883
39.23000 299.128
39.24000 301.348
39.25000 299.571
39.26000 294.847
39.27000 290.212
39.28000 288.106
39.29000 287.277
39.30000 286.155
39.31000 280.673
39.32000 273.737
39.33000 267.774
39.34000 269.839
39.35000 273.689
39.36000 276.978
39.37000 278.526
39.38000 279.623
39.39000 281.318
39.40000 285.042
39.41000 288.933
39.42000 289.322
39.43000 281.687
39.44000 273.737
39.45000 268.893
39.46000 270.246
39.47000 271.263
39.48000 271.575
39.49000 271.178
39.50000 270.806
39.51000 272.695
39.52000 276.062
39.53000 279.341
39.54000 279.346
39.55000 277.976
39.56000 276.659
39.57000 275.986
39.58000 275.505
39.59000 275.236
39.60000 276.481
39.61000 278.023
39.62000 279.313
39.63000 278.821
39.64000 278.231
39.65000 277.342
39.66000 275.552
39.67000 273.699
39.68000 270.166
39.69000 263.194
39.70000 256.121
39.71000 252.023
39.72000 264.784
39.73000 273.797
39.74000 274.745
39.75000 268.580
39.76000 262.452
39.77000 258.476
39.78000 255.751
39.79000 253.120
39.80000 257.705
39.81000 264.699
39.82000 270.800
39.83000 267.655
39.84000 262.065
39.85000 257.825
39.86000 261.975
39.87000 267.573
39.88000 272.143
39.89000 274.115
39.90000 275.506
39.91000 276.024
39.92000 274.186
39.93000 272.218
39.94000 271.509
39.95000 273.096
39.96000 274.732
39.97000 275.629
39.98000 267.873
39.99000 262.545
40.00000 262.385
40.01000 266.249
40.02000 270.015
40.03000 269.914
40.04000 267.805
40.05000 265.789
40.06000 265.093
40.07000 264.877
40.08000 264.442
40.09000 262.073
40.10000 259.251
40.11000 258.299
40.12000 267.529
40.13000 278.294
40.14000 286.858
40.15000 284.259
40.16000 281.364
40.17000 278.078
40.18000 273.847
40.19000 269.575
40.20000 266.071
40.21000 263.815
40.22000 261.575
40.23000 260.420
40.24000 265.831
40.25000 269.472
40.26000 272.344
40.27000 274.686
40.28000 276.685
40.29000 268.629
40.30000 255.919
40.31000 243.894
40.32000 243.468
40.33000 246.415
40.34000 249.344
40.35000 252.134
40.36000 254.895
40.37000 257.349
40.38000 258.336
40.39000 259.131
40.40000 259.746
40.41000 256.300
40.42000 253.325
40.43000 251.987
40.44000 254.170
40.45000 256.473
40.46000 259.090
40.47000 262.164
40.48000 265.240
40.49000 268.103
40.50000 270.765
40.51000 273.323
40.52000 268.599
40.53000 259.411
40.54000 250.777
40.55000 254.625
40.56000 263.634
40.57000 272.054
40.58000 264.840
40.59000 254.338
40.60000 245.558
40.61000 248.150
40.62000 252.820
40.63000 257.504
40.64000 262.239
40.65000 266.980
40.66000 270.539
40.67000 263.437
40.68000 257.378
40.69000 254.433
40.70000 257.464
40.71000 260.644
40.72000 260.971
40.73000 257.649
40.74000 254.317
40.75000 250.819
40.76000 247.196
40.77000 243.648
40.78000 243.603
40.79000 245.471
40.80000 247.340
40.81000 249.206
40.82000 251.071
40.83000 252.791
40.84000 251.934
40.85000 250.594
40.86000 250.361
40.87000 256.515
40.88000 263.693
40.89000 268.864
40.90000 266.476
40.91000 263.364
40.92000 261.102
40.93000 259.969
40.94000 259.140
40.95000 257.399
40.96000 254.096
40.97000 250.767
40.98000 249.810
40.99000 251.530
41.00000 253.247
41.01000 255.893
41.02000 259.185
41.03000 262.336
41.04000 260.735
41.05000 256.822
41.06000 253.044
41.07000 251.257
41.08000 250.126
41.09000 249.098
41.10000 247.902
41.11000 246.812
41.12000 246.195
41.13000 247.975
41.14000 250.090
41.15000 252.717
41.16000 257.058
41.17000 261.538
41.18000 264.680
41.19000 256.795
41.20000 250.508
41.21000 246.332
41.22000 245.370
41.23000 244.442
41.24000 244.304
41.25000 244.949
41.26000 245.590
41.27000 242.899
41.28000 238.131
41.29000 233.576
41.30000 234.380
41.31000 237.513
41.32000 240.670
41.33000 244.116
41.34000 247.646
41.35000 250.801
41.36000 253.588
41.37000 255.954
41.38000 257.029
41.39000 252.317
41.40000 246.906
41.41000 243.505
41.42000 246.100
41.43000 249.097
41.44000 251.120
41.45000 249.611
41.46000 248.412
41.47000 249.153
41.48000 252.514
41.49000 255.886
41.50000 257.056
41.51000 256.309
41.52000 255.570
41.53000 254.361
41.54000 252.915
41.55000 251.488
41.56000 250.409
41.57000 249.466
41.58000 248.675
41.59000 249.442
41.60000 250.615
41.61000 251.645
41.62000 253.672
41.63000 255.559
41.64000 255.274
41.65000 246.371
41.66000 236.579
41.67000 231.988
41.68000 241.259
41.69000 251.282
41.70000 257.774
41.71000 257.765
41.72000 257.661
41.73000 253.223
41.74000 243.608
41.75000 234.010
41.76000 230.762
41.77000 232.391
41.78000 233.993
41.79000 235.776
41.80000 237.589
41.81000 239.504
41.82000 243.029
41.83000 247.111
41.84000 250.634
41.85000 249.299
41.86000 246.839
41.87000 244.722
41.88000 247.198
41.89000 249.871
41.90000 250.887
41.91000 246.052
41.92000 240.707
41.93000 237.918
41.94000 241.213
41.95000 244.768
41.96000 246.970
41.97000 243.977
41.98000 241.775
41.99000 240.078
42.00000 238.909
42.01000 237.783
42.02000 241.428
42.03000 248.320
42.04000 255.050
42.05000 255.226
42.06000 252.526
42.07000 249.412
42.08000 240.871
42.09000 230.653
42.10000 222.223
42.11000 227.188
42.12000 234.897
42.13000 241.391
42.14000 244.644
42.15000 247.010
42.16000 248.116
42.17000 245.259
42.18000 242.114
42.19000 239.044
42.20000 236.136
42.21000 233.232
42.22000 231.521
42.23000 225.792
42.24000 221.729
42.25000 221.773
42.26000 225.600
42.27000 229.368
42.28000 229.198
42.29000 226.643
42.30000 224.169
42.31000 224.116
42.32000 225.002
42.33000 226.405
42.34000 233.488
42.35000 242.134
42.36000 248.576
42.37000 240.678
42.38000 230.194
42.39000 221.565
42.40000 229.162
42.41000 236.886
42.42000 243.907
42.43000 248.957
42.44000 253.888
42.45000 253.752
42.46000 244.002
42.47000 234.023
42.48000 228.446
42.49000 229.310
42.50000 229.926
42.51000 231.673
42.52000 234.338
42.53000 236.960
42.54000 237.691
42.55000 237.402
42.56000 237.125
42.57000 235.676
42.58000 233.922
42.59000 232.469
42.60000 233.826
42.61000 235.869
42.62000 237.942
42.63000 240.177
42.64000 242.437
42.65000 244.251
42.66000 244.851
42.67000 245.244
42.68000 244.522
42.69000 241.012
42.70000 237.368
42.71000 235.297
42.72000 235.884
42.73000 236.515
42.74000 236.847
42.75000 243.866
42.76000 248.594
42.77000 247.616
42.78000 242.539
42.79000 237.618
42.80000 237.741
42.81000 240.290
42.82000 242.712
42.83000 242.950
42.84000 242.515
42.85000 241.657
42.86000 237.423
42.87000 232.459
42.88000 227.787
42.89000 224.571
42.90000 221.557
42.91000 219.201
42.92000 224.498
42.93000 229.206
42.94000 232.327
42.95000 231.899
42.96000 231.339
42.97000 231.414
42.98000 232.445
42.99000 233.486
43.00000 234.904
43.01000 236.693
43.02000 238.497
43.03000 241.598
43.04000 245.525
43.05000 249.216
43.06000 247.120
43.07000 242.538
43.08000 238.237
43.09000 236.740
43.10000 236.115
43.11000 235.046
43.12000 230.899
43.13000 226.164
43.14000 223.874
43.15000 232.390
43.16000 242.187
43.17000 249.619
43.18000 241.552
43.19000 234.418
43.20000 231.046
43.21000 235.180
43.22000 239.521
43.23000 242.442
43.24000 243.467
43.25000 244.482
43.26000 240.122
43.27000 231.166
43.28000 222.331
43.29000 219.869
43.30000 221.025
43.31000 222.244
43.32000 224.694
43.33000 227.615
43.34000 230.321
43.35000 231.132
43.36000 231.422
43.37000 230.971
43.38000 226.053
43.39000 220.386
43.40000 217.848
43.41000 227.575
43.42000 238.546
43.43000 246.609
43.44000 238.732
43.45000 231.989
43.46000 228.031
43.47000 229.033
43.48000 230.131
43.49000 230.636
43.50000 230.443
43.51000 230.249
43.52000 228.036
43.53000 224.318
43.54000 220.726
43.55000 221.814
43.56000 225.270
43.57000 228.414
43.58000 226.696
43.59000 223.315
43.60000 220.227
43.61000 215.906
43.62000 211.822
43.63000 209.403
43.64000 215.809
43.65000 223.507
43.66000 229.593
43.67000 230.066
43.68000 230.058
43.69000 230.052
43.70000 232.777
43.71000 234.937
43.72000 235.089
43.73000 232.061
43.74000 228.992
43.75000 225.453
43.76000 221.428
43.77000 217.425
43.78000 218.450
43.79000 222.798
43.80000 227.036
43.81000 228.250
43.82000 228.098
43.83000 228.032
43.84000 229.055
43.85000 230.412
43.86000 231.631
43.87000 234.564
43.88000 237.435
43.89000 239.453
43.90000 237.489
43.91000 235.020
43.92000 231.831
43.93000 226.403
43.94000 220.815
43.95000 216.992
43.96000 222.231
43.97000 226.368
43.98000 231.696
43.99000 238.703
44.00000 245.716
44.01000 244.714
44.02000 236.429
44.03000 228.225
44.04000 225.808
44.05000 226.829
44.06000 228.028
44.07000 233.024
44.08000 239.552
44.09000 245.218
44.10000 241.592
44.11000 235.440
44.12000 230.008
44.13000 231.417
44.14000 233.683
44.15000 235.830
44.16000 237.482
44.17000 239.080
44.18000 238.388
44.19000 231.352
44.20000 223.946
44.21000 219.080
44.22000 225.148
44.23000 229.800
44.24000 233.991
44.25000 237.610
44.26000 241.202
44.27000 236.983
44.28000 226.508
44.29000 216.189
44.30000 217.790
44.31000 225.502
44.32000 232.771
44.33000 232.477
44.34000 229.457
44.35000 226.765
44.36000 227.072
44.37000 228.103
44.38000 228.996
44.39000 228.326
44.40000 227.548
44.41000 227.534
44.42000 230.322
44.43000 233.369
44.44000 234.255
44.45000 229.796
44.46000 225.089
44.47000 222.128
44.48000 231.669
44.49000 238.711
44.50000 240.975
44.51000 237.992
44.52000 235.014
44.53000 233.006
44.54000 231.686
44.55000 230.394
44.56000 230.997
44.57000 232.442
44.58000 234.009
44.59000 237.268
44.60000 241.072
44.61000 244.483
44.62000 244.806
44.63000 244.468
44.64000 244.182
44.65000 246.426
44.66000 248.596
44.67000 251.693
44.68000 257.820
44.69000 264.182
44.70000 266.968
44.71000 261.857
44.72000 256.461
44.73000 253.225
44.74000 273.555
44.75000 288.153
44.76000 298.185
44.77000 303.821
44.78000 309.445
44.79000 314.123
44.80000 318.205
44.81000 322.171
44.82000 333.539
44.83000 347.320
44.84000 360.304
44.85000 364.015
44.86000 365.070
44.87000 368.128
44.88000 384.828
44.89000 404.098
44.90000 420.087
44.91000 431.018
44.92000 439.564
44.93000 450.802
44.94000 469.881
44.95000 489.461
44.96000 502.042
44.97000 500.824
44.98000 499.237
44.99000 498.333
45.00000 506.367
45.01000 511.989
45.02000 513.767
45.03000 512.290
45.04000 510.951
45.05000 516.641
45.06000 526.271
45.07000 535.543
45.08000 526.504
45.09000 511.504
45.10000 497.335
45.11000 491.345
45.12000 487.435
45.13000 481.685
45.14000 464.982
45.15000 446.469
45.16000 431.479
45.17000 423.339
45.18000 417.267
45.19000 409.848
45.20000 398.927
45.21000 387.824
45.22000 375.262
45.23000 360.134
45.24000 344.958
45.25000 336.796
45.26000 327.717
45.27000 321.521
45.28000 316.921
45.29000 313.515
45.30000 310.085
45.31000 305.784
45.32000 301.047
45.33000 296.531
45.34000 288.894
45.35000 280.832
45.36000 273.319
45.37000 270.411
45.38000 268.543
45.39000 266.954
45.40000 266.821
45.41000 266.897
45.42000 266.958
45.43000 262.432
45.44000 258.494
45.45000 253.923
45.46000 247.884
45.47000 241.785
45.48000 238.651
45.49000 240.156
45.50000 241.717
45.51000 242.506
45.52000 237.482
45.53000 234.116
45.54000 230.238
45.55000 226.020
45.56000 222.042
45.57000 224.473
45.58000 229.766
45.59000 234.754
45.60000 233.872
45.61000 231.443
45.62000 229.184
45.63000 228.151
45.64000 227.363
45.65000 226.554
45.66000 225.647
45.67000 224.729
45.68000 224.025
45.69000 225.117
45.70000 226.079
45.71000 227.264
45.72000 228.913
45.73000 230.577
45.74000 230.454
45.75000 227.848
45.76000 225.227
45.77000 220.775
45.78000 214.688
45.79000 208.710
45.80000 209.389
45.81000 213.997
45.82000 218.456
45.83000 219.813
45.84000 219.932
45.85000 220.044
45.86000 213.858
45.87000 206.742
45.88000 201.699
45.89000 209.758
45.90000 220.114
45.91000 227.897
45.92000 225.186
45.93000 221.351
45.94000 218.501
45.95000 218.713
45.96000 219.014
45.97000 218.884
45.98000 217.956
45.99000 217.010
46.00000 217.726
46.01000 220.483
46.02000 223.241
46.03000 224.917
46.04000 225.734
46.05000 226.449
46.06000 222.885
46.07000 217.071
46.08000 211.490
46.09000 209.810
46.10000 209.518
46.11000 209.249
46.12000 209.108
46.13000 209.009
46.14000 208.478
46.15000 205.556
46.16000 202.267
46.17000 200.958
46.18000 206.830
46.19000 213.354
46.20000 218.042
46.21000 212.794
46.22000 208.433
46.23000 206.300
46.24000 207.837
46.25000 209.428
46.26000 209.956
46.27000 209.332
46.28000 208.710
46.29000 202.621
46.30000 192.811
46.31000 183.315
46.32000 183.362
46.33000 187.889
46.34000 192.378
46.35000 196.343
46.36000 200.141
46.37000 203.574
46.38000 202.203
46.39000 200.107
46.40000 198.911
46.41000 202.096
46.42000 205.864
46.43000 208.672
46.44000 208.381
46.45000 207.854
46.46000 207.489
46.47000 208.497
46.48000 209.292
46.49000 208.068
46.50000 203.884
46.51000 199.675
46.52000 198.923
46.53000 201.453
46.54000 203.961
46.55000 205.887
46.56000 207.422
46.57000 208.818
46.58000 206.974
46.59000 203.771
46.60000 200.976
46.61000 202.826
46.62000 205.991
46.63000 208.802
46.64000 205.688
46.65000 202.033
46.66000 199.366
46.67000 200.949
46.68000 203.021
46.69000 203.544
46.70000 199.614
46.71000 195.404
46.72000 192.599
46.73000 199.870
46.74000 205.445
46.75000 209.268
46.76000 210.816
46.77000 212.346
46.78000 209.650
46.79000 203.425
46.80000 197.280
46.81000 193.881
46.82000 192.054
46.83000 190.323
46.84000 190.385
46.85000 191.117
46.86000 191.828
46.87000 192.328
46.88000 192.774
46.89000 193.164
46.90000 197.279
46.91000 201.317
46.92000 204.397
46.93000 203.819
46.94000 202.883
46.95000 202.826
46.96000 205.024
46.97000 207.337
46.98000 208.814
46.99000 202.843
47.00000 198.401
47.01000 197.607
47.02000 200.995
47.03000 204.364
47.04000 203.273
47.05000 198.890
47.06000 194.590
47.07000 192.451
47.08000 191.417
47.09000 190.828
47.10000 196.853
47.11000 205.087
47.12000 211.907
47.13000 207.025
47.14000 199.537
47.15000 193.136
47.16000 195.086
47.17000 197.727
47.18000 198.898
47.19000 195.068
47.20000 190.826
47.21000 188.998
47.22000 192.707
47.23000 196.634
47.24000 199.028
47.25000 197.555
47.26000 196.470
47.27000 194.447
47.28000 191.478
47.29000 188.513
47.30000 185.908
47.31000 183.540
47.32000 181.233
47.33000 182.033
47.34000 184.101
47.35000 186.058
47.36000 186.632
47.37000 186.795
47.38000 187.068
47.39000 188.118
47.40000 189.322
47.41000 190.329
47.42000 193.158
47.43000 195.694
47.44000 198.329
47.45000 201.266
47.46000 204.224
47.47000 204.299
47.48000 198.468
47.49000 192.461
47.50000 188.978
47.51000 186.344
47.52000 184.502
47.53000 186.119
47.54000 190.792
47.55000 195.348
47.56000 193.093
47.57000 186.868
47.58000 180.856
47.59000 180.578
47.60000 182.445
47.61000 184.178
47.62000 184.528
47.63000 184.510
47.64000 185.172
47.65000 190.068
47.66000 195.695
47.67000 200.291
47.68000 197.140
47.69000 193.895
47.70000 190.945
47.71000 188.790
47.72000 186.680
47.73000 186.151
47.74000 188.512
47.75000 190.934
47.76000 192.263
47.77000 194.272
47.78000 195.647
47.79000 194.877
47.80000 192.435
47.81000 190.025
47.82000 188.871
47.83000 188.369
47.84000 187.890
47.85000 185.396
47.86000 182.414
47.87000 179.828
47.88000 180.746
47.89000 182.489
47.90000 183.729
47.91000 182.226
47.92000 180.308
47.93000 178.782
47.94000 180.017
47.95000 181.212
47.96000 181.912
47.97000 181.423
47.98000 180.880
47.99000 182.043
48.00000 185.983
48.01000 189.961
48.02000 192.016
48.03000 187.660
48.04000 184.759
48.05000 186.203
48.06000 190.650
48.07000 194.865
48.08000 192.279
48.09000 186.538
48.10000 181.106
48.11000 181.840
48.12000 184.293
48.13000 185.674
48.14000 178.897
48.15000 170.422
48.16000 165.181
48.17000 175.484
48.18000 187.824
48.19000 197.376
48.20000 192.892
48.21000 188.502
48.22000 185.976
48.23000 187.469
48.24000 189.098
48.25000 191.255
48.26000 194.176
48.27000 197.103
48.28000 198.157
48.29000 197.459
48.30000 196.736
48.31000 194.252
48.32000 190.686
48.33000 187.234
48.34000 186.359
48.35000 186.552
48.36000 186.731
48.37000 183.631
48.38000 179.985
48.39000 176.917
48.40000 177.674
48.41000 179.132
48.42000 181.809
48.43000 189.668
48.44000 198.112
48.45000 204.453
48.46000 192.023
48.47000 181.410
48.48000 174.054
48.49000 172.962
48.50000 172.027
48.51000 175.834
48.52000 185.717
48.53000 195.612
48.54000 195.485
48.55000 187.130
48.56000 179.005
48.57000 181.695
48.58000 190.301
48.59000 198.411
48.60000 197.623
48.61000 193.545
48.62000 189.784
48.63000 187.171
48.64000 185.087
48.65000 183.487
48.66000 184.695
48.67000 186.354
48.68000 188.239
48.69000 190.979
48.70000 193.801
48.71000 195.853
48.72000 191.299
48.73000 187.546
48.74000 183.442
48.75000 178.736
48.76000 174.020
48.77000 175.269
48.78000 183.264
48.79000 191.238
48.80000 194.744
48.81000 194.991
48.82000 195.129
48.83000 191.600
48.84000 186.281
48.85000 181.360
48.86000 182.252
48.87000 185.061
48.88000 187.613
48.89000 182.765
48.90000 177.045
48.91000 173.022
48.92000 177.630
48.93000 183.444
48.94000 188.051
48.95000 188.607
48.96000 188.835
48.97000 188.995
48.98000 189.573
48.99000 190.023
49.00000 190.437
49.01000 190.794
49.02000 191.150
49.03000 191.665
49.04000 192.338
49.05000 193.006
49.06000 190.607
49.07000 186.292
49.08000 182.160
49.09000 182.649
49.10000 185.149
49.11000 187.176
49.12000 183.463
49.13000 178.061
49.14000 173.234
49.15000 175.051
49.16000 177.758
49.17000 180.502
49.18000 183.412
49.19000 186.343
49.20000 187.049
49.21000 181.104
49.22000 174.713
49.23000 170.396
49.24000 172.259
49.25000 173.779
49.26000 176.349
49.27000 180.339
49.28000 184.334
49.29000 185.658
49.30000 184.655
49.31000 183.662
49.32000 181.888
49.33000 179.715
49.34000 177.647
49.35000 177.652
49.36000 178.463
49.37000 179.307
49.38000 180.498
49.39000 181.780
49.40000 182.904
49.41000 183.295
49.42000 183.522
49.43000 183.626
49.44000 183.239
49.45000 182.800
49.46000 183.563
49.47000 187.534
49.48000 191.679
49.49000 194.366
49.50000 187.294
49.51000 181.971
49.52000 179.397
49.53000 180.113
49.54000 180.830
49.55000 180.132
49.56000 178.347
49.57000 176.591
49.58000 179.774
49.59000 185.304
49.60000 190.445
49.61000 189.384
49.62000 186.170
49.63000 183.258
49.64000 182.971
49.65000 183.293
49.66000 183.570
49.67000 183.617
49.68000 183.627
49.69000 183.910
49.70000 185.154
49.71000 186.482
49.72000 185.374
49.73000 178.458
49.74000 171.292
49.75000 166.852
49.76000 183.026
49.77000 194.855
49.78000 195.226
49.79000 183.533
49.80000 171.942
49.81000 172.267
49.82000 180.719
49.83000 188.973
49.84000 189.902
49.85000 187.580
49.86000 185.328
49.87000 183.994
49.88000 182.945
49.89000 181.701
49.90000 179.004
49.91000 176.008
49.92000 173.483
49.93000 177.139
49.94000 180.857
49.95000 182.808
49.96000 179.198
49.97000 175.181
49.98000 173.552
49.99000 177.007
50.00000 180.628
50.01000 182.765
50.02000 177.685
50.03000 174.060
50.04000 173.535
50.05000 175.873
50.06000 178.226
50.07000 181.614
50.08000 185.631
50.09000 189.522
50.10000 188.738
50.11000 186.186
50.12000 183.651
50.13000 181.310
50.14000 179.022
50.15000 177.724
50.16000 182.879
50.17000 189.199
50.18000 194.403
50.19000 193.126
50.20000 191.485
50.21000 190.185
50.22000 189.845
50.23000 189.563
50.24000 189.400
50.25000 189.463
50.26000 189.531
50.27000 189.570
50.28000 190.472
50.29000 191.103
50.30000 193.389
50.31000 197.021
50.32000 200.620
50.33000 202.695
50.34000 203.948
50.35000 205.151
50.36000 201.219
50.37000 195.788
50.38000 191.313
50.39000 195.758
50.40000 202.388
50.41000 208.212
50.42000 209.437
50.43000 209.935
50.44000 210.335
50.45000 220.829
50.46000 230.104
50.47000 236.718
50.48000 236.661
50.49000 236.283
50.50000 238.602
50.51000 245.485
50.52000 252.442
50.53000 256.112
50.54000 256.126
50.55000 256.144
50.56000 257.641
50.57000 260.202
50.58000 262.937
50.59000 271.282
50.60000 282.332
50.61000 292.829
50.62000 295.951
50.63000 296.613
50.64000 296.651
50.65000 291.681
50.66000 285.624
50.67000 281.232
50.68000 285.186
50.69000 290.288
50.70000 294.275
50.71000 297.884
50.72000 300.739
50.73000 298.340
50.74000 284.176
50.75000 269.572
50.76000 261.729
50.77000 264.068
50.78000 266.508
50.79000 266.122
50.80000 262.971
50.81000 259.893
50.82000 262.951
50.83000 269.928
50.84000 276.316
50.85000 268.210
50.86000 253.866
50.87000 240.400
50.88000 230.909
50.89000 223.309
50.90000 216.282
50.91000 213.238
50.92000 210.955
50.93000 209.750
50.94000 213.319
50.95000 217.455
50.96000 220.594
50.97000 213.214
50.98000 206.873
50.99000 202.059
51.00000 200.296
51.01000 198.618
51.02000 197.537
51.03000 197.252
51.04000 196.971
51.05000 194.436
51.06000 189.974
51.07000 185.599
51.08000 185.902
51.09000 188.864
51.10000 191.642
51.11000 190.843
51.12000 188.670
51.13000 186.656
51.14000 184.805
51.15000 183.177
51.16000 180.934
51.17000 174.967
51.18000 168.374
51.19000 163.878
51.20000 167.613
51.21000 172.185
51.22000 175.546
51.23000 182.364
51.24000 187.781
51.25000 190.204
51.26000 187.291
51.27000 184.273
51.28000 181.007
51.29000 177.448
51.30000 173.898
51.31000 173.864
51.32000 176.482
51.33000 179.069
51.34000 180.505
51.35000 181.356
51.36000 181.879
51.37000 177.278
51.38000 170.919
51.39000 165.111
51.40000 161.400
51.41000 158.532
51.42000 156.721
51.43000 160.519
51.44000 165.139
51.45000 169.055
51.46000 170.515
51.47000 171.763
51.48000 172.650
51.49000 164.613
51.50000 158.211
51.51000 157.077
51.52000 164.305
51.53000 171.639
51.54000 173.616
51.55000 170.032
51.56000 166.468
51.57000 166.044
51.58000 167.714
51.59000 169.211
51.60000 165.928
51.61000 160.482
51.62000 155.780
51.63000 160.656
51.64000 168.462
51.65000 175.478
51.66000 170.402
51.67000 163.816
51.68000 158.398
51.69000 158.449
51.70000 159.195
51.71000 161.832
51.72000 170.344
51.73000 179.278
51.74000 185.393
51.75000 174.481
51.76000 165.905
51.77000 164.199
51.78000 172.182
51.79000 180.229
51.80000 178.859
51.81000 168.919
51.82000 159.074
51.83000 158.844
51.84000 164.256
51.85000 169.622
51.86000 173.972
51.87000 177.911
51.88000 180.862
51.89000 173.126
51.90000 162.480
51.91000 153.077
51.92000 159.774
51.93000 168.032
51.94000 174.567
51.95000 173.969
51.96000 172.592
51.97000 171.855
51.98000 172.894
51.99000 174.036
52.00000 174.788
52.01000 173.689
52.02000 172.849
52.03000 171.857
52.04000 170.676
52.05000 169.493
52.06000 168.199
52.07000 166.813
52.08000 165.449
52.09000 164.857
52.10000 164.684
52.11000 164.518
52.12000 164.481
52.13000 164.490
52.14000 164.455
52.15000 164.012
52.16000 163.471
52.17000 163.002
52.18000 160.741
52.19000 158.579
52.20000 157.459
52.21000 160.172
52.22000 163.240
52.23000 166.558
52.24000 170.491
52.25000 174.453
52.26000 176.946
52.27000 171.508
52.28000 167.485
52.29000 167.781
52.30000 172.830
52.31000 177.861
52.32000 180.028
52.33000 180.162
52.34000 180.292
52.35000 178.562
52.36000 176.050
52.37000 173.258
52.38000 166.541
52.39000 158.559
52.40000 151.628
52.41000 152.978
52.42000 156.101
52.43000 158.751
52.44000 162.578
52.45000 165.922
52.46000 166.925
52.47000 160.266
52.48000 153.012
52.49000 150.065
52.50000 156.649
52.51000 163.577
52.52000 167.735
52.53000 165.614
52.54000 164.064
52.55000 164.800
52.56000 167.740
52.57000 170.610
52.58000 167.956
52.59000 161.816
52.60000 155.851
52.61000 153.219
52.62000 152.065
52.63000 151.415
52.64000 156.647
52.65000 163.566
52.66000 169.965
52.67000 172.806
52.68000 174.976
52.69000 176.777
52.70000 169.605
52.71000 162.810
52.72000 158.511
52.73000 161.502
52.74000 164.960
52.75000 165.896
52.76000 161.853
52.77000 157.675
52.78000 155.295
52.79000 159.841
52.80000 163.034
52.81000 166.560
52.82000 170.370
52.83000 174.045
52.84000 170.798
52.85000 163.664
52.86000 156.794
52.87000 156.621
52.88000 158.847
52.89000 161.023
52.90000 162.709
52.91000 164.271
52.92000 164.775
52.93000 158.972
52.94000 152.124
52.95000 146.578
52.96000 151.163
52.97000 155.721
52.98000 158.278
52.99000 155.621
53.00000 152.694
53.01000 151.349
53.02000 152.790
53.03000 154.283
53.04000 155.088
53.05000 156.951
53.06000 158.228
53.07000 160.065
53.08000 162.322
53.09000 164.466
53.10000 162.522
53.11000 158.532
53.12000 154.728
53.13000 155.441
53.14000 157.521
53.15000 159.765
53.16000 163.384
53.17000 167.314
53.18000 170.217
53.19000 167.745
53.20000 164.497
53.21000 161.934
53.22000 164.394
53.23000 166.706
53.24000 169.053
53.25000 171.479
53.26000 173.908
53.27000 173.031
53.28000 166.973
53.29000 160.852
53.30000 157.756
53.31000 168.755
53.32000 176.042
53.33000 175.854
53.34000 170.697
53.35000 165.560
53.36000 160.932
53.37000 156.533
53.38000 152.387
53.39000 159.910
53.40000 170.028
53.41000 178.830
53.42000 178.066
53.43000 175.390
53.44000 172.315
53.45000 167.394
53.46000 162.242
53.47000 158.292
53.48000 159.942
53.49000 161.555
53.50000 162.559
53.51000 162.300
53.52000 162.001
53.53000 160.483
53.54000 157.270
53.55000 154.046
53.56000 153.130
53.57000 154.284
53.58000 155.415
53.59000 155.117
53.60000 153.975
53.61000 152.976
53.62000 154.951
53.63000 158.115
53.64000 161.060
53.65000 160.308
53.66000 158.730
53.67000 157.900
53.68000 161.809
53.69000 166.549
53.70000 170.629
53.71000 172.009
53.72000 173.099
53.73000 173.910
53.74000 166.511
53.75000 160.392
53.76000 156.489
53.77000 156.692
53.78000 156.986
53.79000 159.829
53.80000 165.808
53.81000 171.785
53.82000 168.580
53.83000 158.155
53.84000 148.081
53.85000 152.647
53.86000 164.927
53.87000 176.246
53.88000 171.468
53.89000 160.951
53.90000 151.297
53.91000 156.903
53.92000 165.150
53.93000 171.547
53.94000 167.692
53.95000 162.263
53.96000 157.552
53.97000 155.452
53.98000 153.589
53.99000 152.251
54.00000 151.575
54.01000 151.081
54.02000 151.684
54.03000 154.100
54.04000 156.543
54.05000 158.923
54.06000 161.235
54.07000 163.537
54.08000 163.755
54.09000 162.523
54.10000 161.181
54.11000 156.444
54.12000 150.111
54.13000 144.550
54.14000 149.582
54.15000 157.983
54.16000 165.575
54.17000 164.690
54.18000 162.336
54.19000 160.495
54.20000 161.160
54.21000 162.160
54.22000 162.711
54.23000 161.812
54.24000 160.803
54.25000 160.103
54.26000 156.577
54.27000 153.847
54.28000 152.129
54.29000 151.895
54.30000 151.675
54.31000 153.835
54.32000 158.258
54.33000 162.645
54.34000 161.770
54.35000 157.692
54.36000 153.760
54.37000 153.234
54.38000 154.139
54.39000 155.268
54.40000 158.970
54.41000 163.400
54.42000 167.337
54.43000 165.724
54.44000 163.427
54.45000 160.797
54.46000 156.723
54.47000 152.483
54.48000 150.395
54.49000 154.511
54.50000 159.017
54.51000 162.021
54.52000 163.400
54.53000 164.389
54.54000 164.093
54.55000 162.125
54.56000 160.154
54.57000 160.595
54.58000 163.056
54.59000 165.485
54.60000 162.324
54.61000 156.228
54.62000 150.475
54.63000 151.021
54.64000 153.930
54.65000 156.698
54.66000 158.103
54.67000 159.165
54.68000 160.091
54.69000 156.529
54.70000 152.857
54.71000 151.209
54.72000 157.310
54.73000 164.171
54.74000 168.567
54.75000 166.616
54.76000 164.344
54.77000 162.892
54.78000 163.633
54.79000 164.200
54.80000 162.794
54.81000 159.122
54.82000 155.460
54.83000 154.057
54.84000 154.326
54.85000 154.590
54.86000 155.262
54.87000 156.104
54.88000 156.838
54.89000 155.963
54.90000 154.549
54.91000 153.876
54.92000 159.358
54.93000 166.212
54.94000 172.073
54.95000 171.840
54.96000 170.913
54.97000 169.906
54.98000 168.629
54.99000 167.330
55.00000 166.212
55.01000 165.509
55.02000 164.823
55.03000 164.404
55.04000 162.590
55.05000 161.282
55.06000 160.360
55.07000 159.827
55.08000 159.307
55.09000 159.922
55.10000 161.281
55.11000 162.606
55.12000 165.693
55.13000 169.379
55.14000 172.786
55.15000 172.740
55.16000 171.663
55.17000 170.632
55.18000 169.930
55.19000 169.292
55.20000 168.759
55.21000 167.177
55.22000 165.755
55.23000 164.709
55.24000 164.802
55.25000 164.973
55.26000 166.435
55.27000 170.545
55.28000 174.735
55.29000 177.166
55.30000 177.539
55.31000 177.793
55.32000 178.187
55.33000 178.708
55.34000 179.253
55.35000 181.293
55.36000 184.204
55.37000 187.017
55.38000 183.344
55.39000 177.468
55.40000 172.539
55.41000 177.468
55.42000 185.013
55.43000 191.808
55.44000 193.926
55.45000 195.235
55.46000 196.304
55.47000 193.682
55.48000 191.217
55.49000 190.718
55.50000 195.541
55.51000 200.661
55.52000 206.583
55.53000 213.969
55.54000 221.388
55.55000 225.461
55.56000 230.295
55.57000 233.629
55.58000 238.696
55.59000 245.117
55.60000 251.562
55.61000 258.993
55.62000 266.937
55.63000 274.537
55.64000 284.855
55.65000 295.356
55.66000 306.423
55.67000 322.514
55.68000 339.788
55.69000 356.975
55.70000 373.688
55.71000 390.328
55.72000 403.577
55.73000 434.686
55.74000 461.056
55.75000 484.740
55.76000 501.928
55.77000 518.828
55.78000 533.374
55.79000 544.080
55.80000 554.732
55.81000 560.239
55.82000 584.190
55.83000 600.346
55.84000 617.170
55.85000 634.457
55.86000 651.469
55.87000 660.356
55.88000 665.468
55.89000 670.307
55.90000 675.429
55.91000 680.221
55.92000 683.531
55.93000 675.517
55.94000 665.143
55.95000 654.491
55.96000 642.495
55.97000 630.323
55.98000 620.898
55.99000 610.153
56.00000 601.543
56.01000 589.949
56.02000 571.913
56.03000 553.658
56.04000 539.649
56.05000 531.794
56.06000 523.992
56.07000 505.323
56.08000 476.475
56.09000 447.777
56.10000 429.815
56.11000 418.456
56.12000 407.033
56.13000 394.165
56.14000 380.697
56.15000 368.106
56.16000 352.377
56.17000 337.299
56.18000 322.859
56.19000 312.640
56.20000 303.197
56.21000 293.540
56.22000 282.975
56.23000 272.308
56.24000 264.292
56.25000 255.606
56.26000 248.783
56.27000 240.234
56.28000 228.359
56.29000 216.400
56.30000 208.396
56.31000 205.471
56.32000 202.568
56.33000 199.095
56.34000 195.162
56.35000 191.199
56.36000 185.750
56.37000 179.489
56.38000 173.593
56.39000 174.265
56.40000 177.371
56.41000 180.236
56.42000 182.329
56.43000 184.032
56.44000 184.974
56.45000 181.511
56.46000 177.340
56.47000 173.391
56.48000 170.286
56.49000 167.261
56.50000 165.062
56.51000 161.298
56.52000 158.343
56.53000 156.999
56.54000 158.421
56.55000 159.891
56.56000 159.312
56.57000 156.412
56.58000 153.520
56.59000 151.365
56.60000 149.762
56.61000 148.279
56.62000 150.819
56.63000 155.326
56.64000 159.593
56.65000 160.353
56.66000 159.954
56.67000 159.590
56.68000 160.937
56.69000 162.460
56.70000 164.185
56.71000 166.941
56.72000 169.841
56.73000 171.447
56.74000 168.700
56.75000 165.601
56.76000 163.424
56.77000 155.042
56.78000 148.514
56.79000 146.638
56.80000 151.871
56.81000 157.179
56.82000 157.901
56.83000 154.062
56.84000 150.249
56.85000 151.103
56.86000 154.923
56.87000 158.555
56.88000 157.432
56.89000 154.234
56.90000 151.109
56.91000 148.873
56.92000 146.898
56.93000 145.133
56.94000 147.879
56.95000 151.036
56.96000 152.911
56.97000 149.024
56.98000 144.438
56.99000 141.770
57.00000 144.844
57.01000 148.303
57.02000 150.642
57.03000 150.953
57.04000 151.141
57.05000 149.923
57.06000 146.797
57.07000 143.662
57.08000 142.058
57.09000 141.789
57.10000 141.523
57.11000 140.389
57.12000 138.793
57.13000 137.475
57.14000 141.665
57.15000 148.002
57.16000 153.352
57.17000 148.597
57.18000 141.194
57.19000 134.694
57.20000 135.119
57.21000 136.501
57.22000 138.705
57.23000 144.188
57.24000 150.011
57.25000 152.947
57.26000 148.163
57.27000 142.959
57.28000 139.583
57.29000 135.063
57.30000 131.736
57.31000 132.928
57.32000 139.536
57.33000 146.135
57.34000 147.510
57.35000 144.859
57.36000 142.253
57.37000 144.458
57.38000 148.984
57.39000 153.298
57.40000 154.218
57.41000 153.958
57.42000 153.608
57.43000 152.471
57.44000 151.152
57.45000 150.015
57.46000 150.522
57.47000 151.158
57.48000 151.378
57.49000 150.124
57.50000 148.741
57.51000 146.790
57.52000 143.482
57.53000 140.115
57.54000 138.028
57.55000 142.403
57.56000 145.612
57.57000 147.173
57.58000 146.994
57.59000 146.810
57.60000 146.033
57.61000 144.850
57.62000 143.695
57.63000 138.357
57.64000 131.411
57.65000 125.238
57.66000 129.250
57.67000 136.422
57.68000 143.700
57.69000 151.776
57.70000 160.015
57.71000 166.960
57.72000 159.129
57.73000 150.995
57.74000 144.348
57.75000 142.390
57.76000 140.776
57.77000 141.338
57.78000 146.542
57.79000 151.899
57.80000 155.063
57.81000 155.344
57.82000 155.527
57.83000 155.677
57.84000 155.797
57.85000 155.892
57.86000 154.256
57.87000 151.568
57.88000 148.965
57.89000 150.273
57.90000 153.029
57.91000 155.088
57.92000 149.481
57.93000 141.756
57.94000 135.684
57.95000 140.412
57.96000 147.095
57.97000 152.599
57.98000 147.602
57.99000 142.529
58.00000 139.479
58.01000 142.118
58.02000 145.100
58.03000 146.106
58.04000 143.354
58.05000 140.511
58.06000 138.920
58.07000 150.720
58.08000 158.914
58.09000 161.503
58.10000 159.527
58.11000 157.496
58.12000 152.990
58.13000 147.144
58.14000 141.532
58.15000 140.089
58.16000 140.166
58.17000 140.175
58.18000 139.555
58.19000 138.780
58.20000 138.217
58.21000 138.861
58.22000 139.696
58.23000 140.366
58.24000 139.326
58.25000 138.351
58.26000 138.351
58.27000 140.797
58.28000 143.360
58.29000 144.188
58.30000 142.071
58.31000 139.906
58.32000 138.764
58.33000 141.241
58.34000 142.915
58.35000 142.979
58.36000 141.884
58.37000 140.830
58.38000 141.167
58.39000 142.174
58.40000 143.131
58.41000 144.803
58.42000 146.563
58.43000 147.852
58.44000 145.362
58.45000 142.051
58.46000 139.011
58.47000 137.333
58.48000 135.842
58.49000 134.677
58.50000 134.126
58.51000 133.726
58.52000 134.036
58.53000 135.941
58.54000 137.905
58.55000 139.769
58.56000 141.483
58.57000 143.196
58.58000 142.859
58.59000 140.513
58.60000 138.169
58.61000 135.941
58.62000 133.787
58.63000 131.788
58.64000 133.610
58.65000 137.079
58.66000 140.337
58.67000 141.364
58.68000 141.708
58.69000 142.280
58.70000 144.433
58.71000 146.890
58.72000 148.462
58.73000 146.106
58.74000 143.282
58.75000 141.138
58.76000 142.189
58.77000 143.180
58.78000 142.787
58.79000 139.621
58.80000 136.377
58.81000 135.836
58.82000 138.913
58.83000 142.006
58.84000 144.196
58.85000 145.606
58.86000 146.959
58.87000 145.287
58.88000 141.892
58.89000 138.629
58.90000 137.929
58.91000 138.217
58.92000 138.483
58.93000 137.056
58.94000 135.376
58.95000 134.092
58.96000 135.203
58.97000 136.717
58.98000 137.739
58.99000 136.823
59.00000 135.709
59.01000 134.890
59.02000 136.370
59.03000 137.610
59.04000 137.692
59.05000 135.707
59.06000 133.681
59.07000 132.930
59.08000 133.686
59.09000 134.442
59.10000 133.958
59.11000 132.540
59.12000 131.165
59.13000 131.449
59.14000 132.574
59.15000 133.823
59.16000 136.997
59.17000 140.832
59.18000 144.335
59.19000 141.541
59.20000 137.778
59.21000 134.626
59.22000 134.729
59.23000 135.310
59.24000 135.766
59.25000 135.781
59.26000 135.759
59.27000 135.742
59.28000 139.061
59.29000 141.695
59.30000 145.084
59.31000 149.675
59.32000 154.282
59.33000 152.120
59.34000 142.918
59.35000 133.766
59.36000 127.363
59.37000 122.872
59.38000 118.752
59.39000 124.941
59.40000 135.803
59.41000 145.871
59.42000 145.676
59.43000 142.336
59.44000 139.333
59.45000 138.816
59.46000 138.804
59.47000 138.648
59.48000 137.816
59.49000 136.898
59.50000 136.128
59.51000 135.818
59.52000 135.540
59.53000 135.351
59.54000 136.104
59.55000 136.691
59.56000 137.173
59.57000 137.505
59.58000 137.835
59.59000 135.400
59.60000 130.443
59.61000 125.534
59.62000 128.141
59.63000 135.109
59.64000 141.760
59.65000 141.573
59.66000 138.618
59.67000 135.616
59.68000 132.109
59.69000 128.465
59.70000 125.245
59.71000 128.291
59.72000 131.888
59.73000 134.539
59.74000 133.264
59.75000 131.559
59.76000 130.316
59.77000 130.357
59.78000 130.472
59.79000 130.548
59.80000 133.305
59.81000 135.381
59.82000 137.506
59.83000 139.691
59.84000 141.869
59.85000 141.344
59.86000 138.647
59.87000 135.989
59.88000 136.922
59.89000 139.689
59.90000 142.308
59.91000 142.371
59.92000 141.510
59.93000 140.383
59.94000 136.809
59.95000 132.643
59.96000 129.030
59.97000 133.433
59.98000 138.247
59.99000 142.008
60.00000 141.886
60.01000 141.403
60.02000 139.280
60.03000 133.087
60.04000 126.702
60.05000 122.681
60.06000 130.085
60.07000 135.573
60.08000 139.434
60.09000 141.504
60.10000 143.550
60.11000 142.372
60.12000 138.900
60.13000 135.502
60.14000 134.198
60.15000 133.904
60.16000 133.653
60.17000 133.982
60.18000 134.500
60.19000 134.869
60.20000 134.075
60.21000 133.031
60.22000 132.144
60.23000 134.983
60.24000 137.788
60.25000 139.686
60.26000 138.604
60.27000 137.290
60.28000 135.531
60.29000 132.785
60.30000 130.004
60.31000 128.334
60.32000 125.260
60.33000 123.066
60.34000 123.499
60.35000 126.472
60.36000 129.413
60.37000 129.697
60.38000 128.303
60.39000 126.948
60.40000 131.642
60.41000 138.550
60.42000 144.867
60.43000 144.281
60.44000 141.713
60.45000 138.885
60.46000 134.279
60.47000 129.338
60.48000 125.235
60.49000 129.594
60.50000 134.017
60.51000 138.348
60.52000 142.408
60.53000 146.452
60.54000 147.206
60.55000 141.453
60.56000 135.524
60.57000 132.144
60.58000 135.413
60.59000 137.713
60.60000 139.280
60.61000 140.224
60.62000 141.092
60.63000 138.059
60.64000 132.832
60.65000 127.798
60.66000 128.371
60.67000 130.911
60.68000 133.120
60.69000 132.068
60.70000 130.183
60.71000 129.522
60.72000 136.173
60.73000 144.036
60.74000 150.408
60.75000 148.544
60.76000 146.354
60.77000 144.277
60.78000 142.492
60.79000 140.722
60.80000 138.975
60.81000 137.270
60.82000 135.566
60.83000 134.647
60.84000 127.974
60.85000 123.429
60.86000 123.537
60.87000 127.140
60.88000 130.637
60.89000 130.305
60.90000 128.051
60.91000 125.902
60.92000 129.797
60.93000 135.313
60.94000 140.072
60.95000 138.446
60.96000 135.374
60.97000 132.908
60.98000 133.622
60.99000 134.796
61.00000 135.722
61.01000 138.910
61.02000 141.621
61.03000 143.003
61.04000 141.289
61.05000 139.448
61.06000 138.888
61.07000 140.338
61.08000 141.813
61.09000 142.560
61.10000 148.537
61.11000 152.482
61.12000 150.591
61.13000 144.814
61.14000 139.257
61.15000 139.650
61.16000 142.706
61.17000 145.587
61.18000 144.239
61.19000 141.832
61.20000 139.495
61.21000 137.671
61.22000 135.950
61.23000 135.050
61.24000 137.945
61.25000 141.316
61.26000 143.901
61.27000 136.862
61.28000 130.765
61.29000 127.294
61.30000 129.287
61.31000 131.448
61.32000 133.101
61.33000 134.045
61.34000 134.984
61.35000 135.835
61.36000 136.606
61.37000 137.352
61.38000 136.562
61.39000 134.862
61.40000 133.328
61.41000 135.256
61.42000 138.569
61.43000 141.653
61.44000 143.696
61.45000 145.289
61.46000 147.183
61.47000 150.985
61.48000 155.123
61.49000 159.735
61.50000 166.287
61.51000 173.048
61.52000 178.076
61.53000 183.976
61.54000 188.604
61.55000 197.784
61.56000 215.416
61.57000 233.237
61.58000 247.879
61.59000 258.599
61.60000 269.289
61.61000 280.035
61.62000 290.776
61.63000 301.490
61.64000 311.108
61.65000 320.147
61.66000 328.788
61.67000 330.760
61.68000 330.351
61.69000 329.975
61.70000 338.797
61.71000 348.628
61.72000 355.683
61.73000 347.322
61.74000 336.587
61.75000 325.328
61.76000 312.160
61.77000 298.817
61.78000 289.219
61.79000 269.954
61.80000 254.867
61.81000 239.337
61.82000 223.074
61.83000 206.800
61.84000 195.404
61.85000 189.309
61.86000 183.243
61.87000 175.194
61.88000 165.850
61.89000 156.662
61.90000 152.235
61.91000 150.052
61.92000 148.129
61.93000 149.785
61.94000 152.581
61.95000 155.109
61.96000 151.796
61.97000 147.793
61.98000 144.341
61.99000 143.581
62.00000 143.181
62.01000 143.140
62.02000 144.261
62.03000 145.472
62.04000 146.312
62.05000 145.079
62.06000 144.095
62.07000 141.828
62.08000 137.674
62.09000 133.505
62.10000 134.395
62.11000 140.108
62.12000 145.774
62.13000 145.471
62.14000 141.515
62.15000 137.744
62.16000 138.311
62.17000 140.703
62.18000 142.920
62.19000 143.132
62.20000 142.774
62.21000 142.457
62.22000 144.897
62.23000 147.460
62.24000 148.898
62.25000 145.477
62.26000 141.496
62.27000 138.957
62.28000 140.585
62.29000 142.476
62.30000 143.738
62.31000 144.754
62.32000 145.502
62.33000 145.652
62.34000 145.024
62.35000 144.397
62.36000 146.797
62.37000 151.734
62.38000 156.608
62.39000 155.683
62.40000 151.646
62.41000 147.738
62.42000 146.233
62.43000 145.630
62.44000 145.030
62.45000 144.458
62.46000 143.893
62.47000 143.400
62.48000 144.305
62.49000 145.275
62.50000 146.791
62.51000 150.398
62.52000 154.212
62.53000 156.053
62.54000 152.811
62.55000 149.310
62.56000 147.072
62.57000 145.582
62.58000 144.508
62.59000 144.147
62.60000 144.607
62.61000 145.070
62.62000 145.799
62.63000 146.725
62.64000 147.633
62.65000 148.035
62.66000 148.180
62.67000 148.394
62.68000 149.641
62.69000 151.235
62.70000 152.303
62.71000 149.001
62.72000 144.722
62.73000 141.063
62.74000 143.752
62.75000 146.783
62.76000 150.246
62.77000 155.182
62.78000 160.241
62.79000 161.189
62.80000 152.672
62.81000 143.778
62.82000 138.347
62.83000 140.153
62.84000 141.504
62.85000 144.194
62.86000 148.237
62.87000 152.244
62.88000 152.725
62.89000 150.887
62.90000 149.097
62.91000 145.915
62.92000 142.291
62.93000 139.311
62.94000 144.311
62.95000 151.695
62.96000 158.226
62.97000 158.629
62.98000 157.822
62.99000 157.146
63.00000 155.654
63.01000 154.330
63.02000 153.140
63.03000 152.354
63.04000 151.596
63.05000 150.254
63.06000 147.713
63.07000 145.136
63.08000 143.639
63.09000 150.422
63.10000 155.216
63.11000 155.497
63.12000 151.777
63.13000 148.129
63.14000 148.764
63.15000 151.904
63.16000 154.937
63.17000 154.996
63.18000 153.945
63.19000 153.194
63.20000 155.584
63.21000 158.810
63.22000 160.346
63.23000 151.324
63.24000 140.471
63.25000 131.601
63.26000 139.072
63.27000 146.603
63.28000 151.492
63.29000 149.214
63.30000 146.535
63.31000 144.654
63.32000 144.236
63.33000 143.850
63.34000 143.637
63.35000 141.106
63.36000 139.376
63.37000 142.300
63.38000 148.864
63.39000 155.262
63.40000 154.935
63.41000 151.101
63.42000 147.433
63.43000 144.570
63.44000 142.169
63.45000 139.847
63.46000 138.235
63.47000 136.790
63.48000 136.044
63.49000 139.124
63.50000 142.783
63.51000 145.698
63.52000 148.891
63.53000 151.486
63.54000 151.633
63.55000 145.849
63.56000 139.802
63.57000 137.175
63.58000 140.136
63.59000 143.176
63.60000 144.749
63.61000 157.510
63.62000 166.069
63.63000 168.564
63.64000 166.855
63.65000 165.147
63.66000 163.489
63.67000 161.855
63.68000 160.308
63.69000 159.486
63.70000 158.939
63.71000 158.155
63.72000 155.548
63.73000 152.561
63.74000 150.433
63.75000 152.447
63.76000 155.006
63.77000 156.988
63.78000 150.848
63.79000 145.489
63.80000 142.266
63.81000 143.667
63.82000 145.226
63.83000 147.267
63.84000 150.007
63.85000 152.753
63.86000 154.755
63.87000 156.057
63.88000 157.340
63.89000 157.243
63.90000 156.296
63.91000 155.305
63.92000 153.346
63.93000 150.985
63.94000 148.776
63.95000 149.299
63.96000 150.468
63.97000 152.019
63.98000 156.106
63.99000 160.661
64.00000 164.377
64.01000 164.518
64.02000 164.253
64.03000 164.054
64.04000 160.493
64.05000 157.546
64.06000 155.359
64.07000 154.638
64.08000 153.954
64.09000 156.015
64.10000 161.606
64.11000 167.205
64.12000 169.452
64.13000 168.927
64.14000 168.361
64.15000 165.784
64.16000 162.104
64.17000 158.620
64.18000 158.676
64.19000 160.045
64.20000 161.308
64.21000 161.980
64.22000 162.451
64.23000 162.842
64.24000 162.774
64.25000 162.632
64.26000 162.532
64.27000 162.591
64.28000 162.665
64.29000 162.718
64.30000 159.729
64.31000 157.312
64.32000 156.685
64.33000 159.137
64.34000 161.643
64.35000 165.333
64.36000 170.367
64.37000 175.385
64.38000 177.193
64.39000 176.657
64.40000 176.024
64.41000 172.123
64.42000 166.622
64.43000 161.485
64.44000 161.699
64.45000 163.684
64.46000 165.489
64.47000 165.590
64.48000 165.348
64.49000 165.541
64.50000 167.952
64.51000 170.675
64.52000 172.617
64.53000 171.927
64.54000 171.024
64.55000 170.389
64.56000 170.017
64.57000 169.744
64.58000 170.560
64.59000 173.046
64.60000 175.550
64.61000 177.637
64.62000 179.307
64.63000 180.966
64.64000 180.648
64.65000 179.070
64.66000 177.558
64.67000 177.687
64.68000 178.534
64.69000 179.130
64.70000 176.673
64.71000 173.316
64.72000 170.313
64.73000 174.481
64.74000 179.332
64.75000 183.441
64.76000 184.212
64.77000 184.578
64.78000 184.842
64.79000 184.797
64.80000 184.732
64.81000 184.688
64.82000 182.437
64.83000 180.713
64.84000 182.713
64.85000 189.772
64.86000 196.853
64.87000 197.230
64.88000 191.743
64.89000 186.317
64.90000 182.335
64.91000 179.262
64.92000 176.302
64.93000 175.607
64.94000 175.797
64.95000 176.627
64.96000 184.018
64.97000 193.131
64.98000 201.135
64.99000 204.713
65.00000 207.138
65.01000 208.881
65.02000 207.899
65.03000 206.635
65.04000 206.027
65.05000 207.176
65.06000 208.422
65.07000 209.231
65.08000 212.679
65.09000 215.245
65.10000 217.157
65.11000 218.286
65.12000 219.419
65.13000 221.982
65.14000 225.649
65.15000 229.256
65.16000 232.679
65.17000 235.900
65.18000 239.038
65.19000 240.863
65.20000 242.229
65.21000 243.989
65.22000 249.187
65.23000 255.185
65.24000 260.351
65.25000 263.058
65.26000 265.040
65.27000 269.562
65.28000 283.094
65.29000 297.418
65.30000 309.282
65.31000 315.261
65.32000 320.984
65.33000 324.536
65.34000 327.372
65.35000 329.405
65.36000 338.630
65.37000 355.454
65.38000 372.179
65.39000 377.083
65.40000 373.898
65.41000 370.788
65.42000 380.902
65.43000 396.404
65.44000 410.996
65.45000 413.583
65.46000 412.438
65.47000 412.311
65.48000 419.845
65.49000 428.957
65.50000 436.639
65.51000 450.905
65.52000 463.530
65.53000 472.029
65.54000 467.495
65.55000 462.003
65.56000 461.751
65.57000 472.691
65.58000 484.003
65.59000 490.686
65.60000 495.511
65.61000 498.910
65.62000 502.709
65.63000 506.879
65.64000 511.085
65.65000 517.700
65.66000 525.782
65.67000 533.613
65.68000 566.424
65.69000 607.189
65.70000 648.578
65.71000 696.877
65.72000 747.086
65.73000 800.083
65.74000 871.317
65.75000 945.859
65.76000 1007.277
65.77000 1073.274
65.78000 1127.998
65.79000 1174.095
65.80000 1195.884
65.81000 1216.208
65.82000 1243.161
65.83000 1282.749
65.84000 1322.643
65.85000 1344.993
65.86000 1343.834
65.87000 1342.945
65.88000 1330.028
65.89000 1307.298
65.90000 1284.622
65.91000 1264.435
65.92000 1245.598
65.93000 1227.511
65.94000 1181.004
65.95000 1127.755
65.96000 1071.553
65.97000 987.643
65.98000 896.923
65.99000 808.923
66.00000 736.492
66.01000 666.535
66.02000 610.316
66.03000 559.532
66.04000 518.785
66.05000 480.344
66.06000 447.702
66.07000 415.340
66.08000 388.449
66.09000 370.853
66.10000 353.410
66.11000 344.194
66.12000 330.686
66.13000 321.506
66.14000 311.724
66.15000 301.507
66.16000 291.690
66.17000 294.958
66.18000 304.555
66.19000 313.674
66.20000 315.015
66.21000 313.904
66.22000 313.389
66.23000 317.662
66.24000 322.978
66.25000 330.010
66.26000 345.685
66.27000 362.554
66.28000 375.748
66.29000 391.030
66.30000 403.363
66.31000 414.046
66.32000 421.023
66.33000 427.861
66.34000 436.097
66.35000 446.447
66.36000 456.819
66.37000 471.779
66.38000 491.245
66.39000 510.540
66.40000 515.218
66.41000 510.527
66.42000 506.004
66.43000 505.625
66.44000 507.036
66.45000 508.361
66.46000 505.026
66.47000 500.744
66.48000 496.362
66.49000 491.276
66.50000 486.056
66.51000 478.558
66.52000 460.936
66.53000 442.105
66.54000 427.801
66.55000 411.040
66.56000 397.737
66.57000 385.109
66.58000 373.837
66.59000 362.604
66.60000 355.510
66.61000 353.969
66.62000 352.457
66.63000 349.414
66.64000 345.057
66.65000 340.744
66.66000 338.791
66.67000 338.186
66.68000 337.596
66.69000 337.311
66.70000 337.144
66.71000 336.988
66.72000 331.761
66.73000 325.872
66.74000 321.190
66.75000 323.840
66.76000 327.727
66.77000 331.364
66.78000 334.022
66.79000 336.579
66.80000 338.461
66.81000 331.932
66.82000 326.532
66.83000 325.656
66.84000 332.873
66.85000 340.250
66.86000 346.201
66.87000 350.463
66.88000 354.710
66.89000 355.196
66.90000 352.829
66.91000 350.518
66.92000 350.278
66.93000 351.092
66.94000 352.128
66.95000 356.641
66.96000 362.352
66.97000 367.569
66.98000 369.214
66.99000 369.945
67.00000 370.284
67.01000 368.531
67.02000 366.471
67.03000 365.520
67.04000 368.454
67.05000 371.724
67.06000 374.050
67.07000 380.955
67.08000 386.361
67.09000 388.420
67.10000 385.147
67.11000 381.805
67.12000 379.185
67.13000 377.318
67.14000 375.460
67.15000 379.414
67.16000 387.195
67.17000 394.783
67.18000 396.983
67.19000 396.736
67.20000 396.726
67.21000 399.795
67.22000 403.808
67.23000 407.417
67.24000 403.267
67.25000 398.250
67.26000 395.512
67.27000 403.471
67.28000 412.795
67.29000 419.593
67.30000 418.507
67.31000 416.854
67.32000 415.722
67.33000 418.518
67.34000 420.707
67.35000 420.926
67.36000 418.356
67.37000 415.769
67.38000 417.962
67.39000 424.524
67.40000 431.024
67.41000 430.175
67.42000 425.018
67.43000 420.287
67.44000 424.745
67.45000 432.930
67.46000 440.955
67.47000 447.249
67.48000 453.070
67.49000 458.214
67.50000 457.581
67.51000 456.141
67.52000 457.587
67.53000 471.020
67.54000 485.768
67.55000 496.906
67.56000 497.995
67.57000 498.491
67.58000 498.818
67.59000 499.104
67.60000 499.314
67.61000 498.451
67.62000 496.244
67.63000 494.034
67.64000 491.954
67.65000 489.980
67.66000 488.035
67.67000 489.375
67.68000 492.383
67.69000 495.484
67.70000 500.207
67.71000 505.516
67.72000 510.559
67.73000 513.138
67.74000 515.120
67.75000 516.839
67.76000 514.223
67.77000 511.418
67.78000 510.139
67.79000 514.486
67.80000 519.357
67.81000 523.853
67.82000 527.416
67.83000 530.935
67.84000 533.153
67.85000 544.335
67.86000 552.532
67.87000 555.468
67.88000 552.594
67.89000 549.710
67.90000 546.035
67.91000 541.795
67.92000 537.644
67.93000 546.285
67.94000 560.457
67.95000 573.763
67.96000 574.866
67.97000 572.026
67.98000 570.055
67.99000 574.964
68.00000 581.350
68.01000 586.775
68.02000 580.928
68.03000 574.733
68.04000 573.012
68.05000 585.987
68.06000 600.110
68.07000 610.102
68.08000 610.923
68.09000 611.409
68.10000 611.702
68.11000 618.904
68.12000 624.072
68.13000 622.589
68.14000 614.666
68.15000 606.903
68.16000 611.973
68.17000 625.166
68.18000 637.986
68.19000 646.127
68.20000 651.968
68.21000 657.495
68.22000 659.344
68.23000 660.136
68.24000 662.097
68.25000 672.081
68.26000 683.585
68.27000 693.139
68.28000 696.830
68.29000 699.312
68.30000 701.169
68.31000 701.198
68.32000 701.108
68.33000 702.713
68.34000 707.674
68.35000 712.727
68.36000 715.611
68.37000 745.067
68.38000 765.684
68.39000 773.237
68.40000 769.667
68.41000 766.180
68.42000 767.033
68.43000 770.331
68.44000 773.507
68.45000 787.756
68.46000 805.099
68.47000 822.503
68.48000 840.509
68.49000 858.670
68.50000 876.592
68.51000 893.088
68.52000 909.347
68.53000 922.526
68.54000 931.884
68.55000 939.196
68.56000 954.013
68.57000 988.451
68.58000 1023.912
68.59000 1064.873
68.60000 1115.549
68.61000 1166.410
68.62000 1193.840
68.63000 1267.672
68.64000 1318.281
68.65000 1381.868
68.66000 1455.216
68.67000 1528.147
68.68000 1585.900
68.69000 1636.026
68.70000 1683.831
68.71000 1744.317
68.72000 1804.436
68.73000 1866.492
68.74000 1944.944
68.75000 2027.115
68.76000 2106.476
68.77000 2171.076
68.78000 2233.536
68.79000 2282.850
68.80000 2381.809
68.81000 2464.598
68.82000 2558.530
68.83000 2678.471
68.84000 2799.480
68.85000 2955.437
68.86000 3166.365
68.87000 3377.962
68.88000 3485.192
68.89000 4240.231
68.90000 4750.417
68.91000 5724.687
68.92000 7008.534
68.93000 8340.137
68.94000 10966.551
68.95000 14173.821
68.96000 17198.264
68.97000 22519.068
68.98000 28031.246
68.99000 33632.750
69.00000 39886.766
69.01000 46271.594
69.02000 52458.113
69.03000 57725.828
69.04000 62878.152
69.05000 66831.930
69.06000 70091.563
69.07000 72628.828
69.08000 74550.992
69.09000 75191.047
69.10000 75791.156
69.11000 76336.523
69.12000 76805.445
69.13000 77273.680
69.14000 77971.664
69.15000 78875.781
69.16000 79771.914
69.17000 80171.398
69.18000 80276.234
69.19000 80305.531
69.20000 78744.852
69.21000 76547.172
69.22000 74500.703
69.23000 70295.914
69.24000 65967.398
69.25000 61719.953
69.26000 57987.734
69.27000 54346.367
69.28000 50882.242
69.29000 48145.238
69.30000 45486.621
69.31000 43508.352
69.32000 41726.316
69.33000 40348.691
69.34000 39127.320
69.35000 38196.543
69.36000 37272.301
69.37000 36027.379
69.38000 34386.082
69.39000 32746.643
69.40000 30381.328
69.41000 27452.893
69.42000 24520.689
69.43000 21429.414
69.44000 18254.029
69.45000 15118.156
69.46000 12647.762
69.47000 10415.413
69.48000 8365.499
69.49000 6791.701
69.50000 5489.351
69.51000 4291.713
69.52000 3676.682
69.53000 3151.519
69.54000 2687.695
69.55000 2447.361
69.56000 2227.484
69.57000 2069.237
69.58000 1931.547
69.59000 1826.842
69.60000 1738.224
69.61000 1676.262
69.62000 1614.702
69.63000 1555.325
69.64000 1498.326
69.65000 1441.575
69.66000 1392.307
69.67000 1348.757
69.68000 1305.400
69.69000 1267.971
69.70000 1233.339
69.71000 1198.821
69.72000 1165.875
69.73000 1133.430
69.74000 1104.092
69.75000 1075.280
69.76000 1050.025
69.77000 1025.463
69.78000 1004.306
69.79000 983.604
69.80000 966.512
69.81000 961.128
69.82000 956.643
69.83000 953.529
69.84000 925.892
69.85000 904.418
69.86000 887.924
69.87000 878.768
69.88000 869.677
69.89000 858.363
69.90000 844.926
69.91000 831.596
69.92000 827.506
69.93000 829.160
69.94000 830.086
69.95000 813.942
69.96000 790.606
69.97000 768.857
69.98000 765.362
69.99000 767.057
70.00000 768.564
