20.00000 571.137
20.01000 571.193
20.02000 571.258
20.03000 571.703
20.04000 573.629
20.05000 575.704
20.06000 577.227
20.07000 577.890
20.08000 578.367
20.09000 578.085
20.10000 576.458
20.11000 574.806
20.12000 570.175
20.13000 562.053
20.14000 553.948
20.15000 555.152
20.16000 563.319
20.17000 571.417
20.18000 577.017
20.19000 581.359
20.20000 584.952
20.21000 577.005
20.22000 565.126
20.23000 554.287
20.24000 553.828
20.25000 555.515
20.26000 556.783
20.27000 555.844
20.28000 554.585
20.29000 553.800
20.30000 554.664
20.31000 555.668
20.32000 556.380
20.33000 570.148
20.34000 581.028
20.35000 585.719
20.36000 580.651
20.37000 575.464
20.38000 575.324
20.39000 580.381
20.40000 585.410
20.41000 585.372
20.42000 581.993
20.43000 578.515
20.44000 572.386
20.45000 565.063
20.46000 558.454
20.47000 560.925
20.48000 566.155
20.49000 570.852
20.50000 572.494
20.51000 573.394
20.52000 573.737
20.53000 571.489
20.54000 568.915
20.55000 566.818
20.56000 566.192
20.57000 565.670
20.58000 565.313
20.59000 559.529
20.60000 555.075
20.61000 555.776
20.62000 563.694
20.63000 571.661
20.64000 580.637
20.65000 590.526
20.66000 600.317
20.67000 596.444
20.68000 584.702
20.69000 573.219
20.70000 567.236
20.71000 563.460
20.72000 559.536
20.73000 554.023
20.74000 548.080
20.75000 542.836
20.76000 545.637
20.77000 549.280
20.78000 552.898
20.79000 556.415
20.80000 559.920
20.81000 561.608
20.82000 558.290
20.83000 554.682
20.84000 552.316
20.85000 550.237
20.86000 548.713
20.87000 548.465
20.88000 549.797
20.89000 551.150
20.90000 557.484
20.91000 567.785
20.92000 577.930
20.93000 572.638
20.94000 559.573
20.95000 547.335
20.96000 549.084
20.97000 555.849
20.98000 561.572
20.99000 557.829
21.00000 551.814
21.01000 546.607
21.02000 547.803
21.03000 549.661
21.04000 552.627
21.05000 559.637
21.06000 567.018
21.07000 572.034
21.08000 571.233
21.09000 570.164
21.10000 569.493
21.11000 569.152
21.12000 568.909
21.13000 568.275
21.14000 567.213
21.15000 566.152
21.16000 565.188
21.17000 564.293
21.18000 563.417
21.19000 558.662
21.20000 552.337
21.21000 546.505
21.22000 547.491
21.23000 550.657
21.24000 554.230
21.25000 560.983
21.26000 568.412
21.27000 574.710
21.28000 572.767
21.29000 570.209
21.30000 566.512
21.31000 559.107
21.32000 551.416
21.33000 546.613
21.34000 548.157
21.35000 549.927
21.36000 550.986
21.37000 542.890
21.38000 537.086
21.39000 536.904
21.40000 542.104
21.41000 547.265
21.42000 549.340
21.43000 549.483
21.44000 549.622
21.45000 548.816
21.46000 547.673
21.47000 547.143
21.48000 553.692
21.49000 562.259
21.50000 570.142
21.51000 573.387
21.52000 575.764
21.53000 577.735
21.54000 569.982
21.55000 562.648
21.56000 560.298
21.57000 572.396
21.58000 585.410
21.59000 593.865
21.60000 593.379
21.61000 592.657
21.62000 592.247
21.63000 583.364
21.64000 577.169
21.65000 580.737
21.66000 592.524
21.67000 604.105
21.68000 605.396
21.69000 600.947
21.70000 596.665
21.71000 605.417
21.72000 618.240
21.73000 630.545
21.74000 637.789
21.75000 643.750
21.76000 649.519
21.77000 654.152
21.78000 658.598
21.79000 662.194
21.80000 685.077
21.81000 705.247
21.82000 722.448
21.83000 731.965
21.84000 741.088
21.85000 755.632
21.86000 779.656
21.87000 803.853
21.88000 816.834
21.89000 827.231
21.90000 834.370
21.91000 849.725
21.92000 871.194
21.93000 892.445
21.94000 905.991
21.95000 915.703
21.96000 924.956
21.97000 939.734
21.98000 955.153
21.99000 968.753
22.00000 967.159
22.01000 962.155
22.02000 956.399
22.03000 946.742
22.04000 936.526
22.05000 928.480
22.06000 930.093
22.07000 932.032
22.08000 930.069
22.09000 919.088
22.10000 907.745
22.11000 889.525
22.12000 860.598
22.13000 831.546
22.14000 816.909
22.15000 785.283
22.16000 764.214
22.17000 749.863
22.18000 739.946
22.19000 729.724
22.20000 711.404
22.21000 689.489
22.22000 668.845
22.23000 650.503
22.24000 634.350
22.25000 619.244
22.26000 611.697
22.27000 605.648
22.28000 599.991
22.29000 596.130
22.30000 592.493
22.31000 589.708
22.32000 585.556
22.33000 582.205
22.34000 575.363
22.35000 561.321
22.36000 547.060
22.37000 543.730
22.38000 555.503
22.39000 567.367
22.40000 569.811
22.41000 563.870
22.42000 557.944
22.43000 552.843
22.44000 548.226
22.45000 543.671
22.46000 540.391
22.47000 537.616
22.48000 535.035
22.49000 544.306
22.50000 555.537
22.51000 564.885
22.52000 562.414
22.53000 557.883
22.54000 554.577
22.55000 556.241
22.56000 558.434
22.57000 560.061
22.58000 548.124
22.59000 538.256
22.60000 531.396
22.61000 530.077
22.62000 528.878
22.63000 530.369
22.64000 535.149
22.65000 539.926
22.66000 537.376
22.67000 529.107
22.68000 521.137
22.69000 525.372
22.70000 535.994
22.71000 546.057
22.72000 546.870
22.73000 544.408
22.74000 542.150
22.75000 533.786
22.76000 525.044
22.77000 518.541
22.78000 524.361
22.79000 532.059
22.80000 538.743
22.81000 541.774
22.82000 544.475
22.83000 546.414
22.84000 537.122
22.85000 529.632
22.86000 526.170
22.87000 529.314
22.88000 532.554
22.89000 535.187
22.90000 537.167
22.91000 539.138
22.92000 535.834
22.93000 528.935
22.94000 522.255
22.95000 522.149
22.96000 525.113
22.97000 528.216
22.98000 533.192
22.99000 538.760
23.00000 543.787
23.01000 531.606
23.02000 517.729
23.03000 506.855
23.04000 510.528
23.05000 516.126
23.06000 518.411
23.07000 510.057
23.08000 500.900
23.09000 494.564
23.10000 499.151
23.11000 502.886
23.12000 505.490
23.13000 506.447
23.14000 507.391
23.15000 512.586
23.16000 521.793
23.17000 530.923
23.18000 525.125
23.19000 510.370
23.20000 496.510
23.21000 503.195
23.22000 518.451
23.23000 531.913
23.24000 525.049
23.25000 512.467
23.26000 501.297
23.27000 505.806
23.28000 512.225
23.29000 518.436
23.30000 523.759
23.31000 528.980
23.32000 534.770
23.33000 542.183
23.34000 549.697
23.35000 554.696
23.36000 536.711
23.37000 522.974
23.38000 511.882
23.39000 504.206
23.40000 496.562
23.41000 497.489
23.42000 505.536
23.43000 513.477
23.44000 522.865
23.45000 532.774
23.46000 541.771
23.47000 534.169
23.48000 520.384
23.49000 507.688
23.50000 505.442
23.51000 505.809
23.52000 506.129
23.53000 503.988
23.54000 501.818
23.55000 501.276
23.56000 506.924
23.57000 513.174
23.58000 519.419
23.59000 525.651
23.60000 531.883
23.61000 535.855
23.62000 530.485
23.63000 526.461
23.64000 519.320
23.65000 508.625
23.66000 497.985
23.67000 497.539
23.68000 504.579
23.69000 511.483
23.70000 518.432
23.71000 525.147
23.72000 531.226
23.73000 527.902
23.74000 521.452
23.75000 515.314
23.76000 511.743
23.77000 508.741
23.78000 506.177
23.79000 505.661
23.80000 505.470
23.81000 506.362
23.82000 510.911
23.83000 515.760
23.84000 520.093
23.85000 523.247
23.86000 526.356
23.87000 528.247
23.88000 526.440
23.89000 525.120
23.90000 517.985
23.91000 505.030
23.92000 492.228
23.93000 493.398
23.94000 503.675
23.95000 513.681
23.96000 516.511
23.97000 516.207
23.98000 516.141
23.99000 518.997
24.00000 522.718
24.01000 524.914
24.02000 516.267
24.03000 505.500
24.04000 496.506
24.05000 500.889
24.06000 505.881
24.07000 510.448
24.08000 513.734
24.09000 516.932
24.10000 516.871
24.11000 510.164
24.12000 503.261
24.13000 499.268
24.14000 491.107
24.15000 485.372
24.16000 483.954
24.17000 486.329
24.18000 488.708
24.19000 491.324
24.20000 494.079
24.21000 496.738
24.22000 493.514
24.23000 488.306
24.24000 483.545
24.25000 483.411
24.26000 484.496
24.27000 486.548
24.28000 494.589
24.29000 503.658
24.30000 511.056
24.31000 507.795
24.32000 504.217
24.33000 502.369
24.34000 505.170
24.35000 508.227
24.36000 510.881
24.37000 512.804
24.38000 514.711
24.39000 515.755
24.40000 493.036
24.41000 477.445
24.42000 477.594
24.43000 489.948
24.44000 502.114
24.45000 506.819
24.46000 507.666
24.47000 508.477
24.48000 503.898
24.49000 497.882
24.50000 492.371
24.51000 491.304
24.52000 491.276
24.53000 491.468
24.54000 492.856
24.55000 494.424
24.56000 495.670
24.57000 502.971
24.58000 509.284
24.59000 510.731
24.60000 500.494
24.61000 489.746
24.62000 483.795
24.63000 485.614
24.64000 487.539
24.65000 488.531
24.66000 485.224
24.67000 483.010
24.68000 482.321
24.69000 482.681
24.70000 483.069
24.71000 484.295
24.72000 485.907
24.73000 487.432
24.74000 492.806
24.75000 498.848
24.76000 503.851
24.77000 500.984
24.78000 496.488
24.79000 493.100
24.80000 495.011
24.81000 497.611
24.82000 499.621
24.83000 489.947
24.84000 481.587
24.85000 479.274
24.86000 489.925
24.87000 501.011
24.88000 503.896
24.89000 494.976
24.90000 485.965
24.91000 483.832
24.92000 488.099
24.93000 492.278
24.94000 490.279
24.95000 484.508
24.96000 479.012
24.97000 479.662
24.98000 482.845
24.99000 485.818
25.00000 483.051
25.01000 479.094
25.02000 476.607
25.03000 483.794
25.04000 492.742
25.05000 499.685
25.06000 498.151
25.07000 495.667
25.08000 493.805
25.09000 490.505
25.10000 487.860
25.11000 487.837
25.12000 492.831
25.13000 497.948
25.14000 500.189
25.15000 498.763
25.16000 497.325
25.17000 492.835
25.18000 485.868
25.19000 478.998
25.20000 476.635
25.21000 476.725
25.22000 476.749
25.23000 475.606
25.24000 474.035
25.25000 472.586
25.26000 482.738
25.27000 494.390
25.28000 503.677
25.29000 499.374
25.30000 492.901
25.31000 487.795
25.32000 487.818
25.33000 488.330
25.34000 488.702
25.35000 482.058
25.36000 476.687
25.37000 473.132
25.38000 472.673
25.39000 472.266
25.40000 472.439
25.41000 473.265
25.42000 474.088
25.43000 476.851
25.44000 480.983
25.45000 484.975
25.46000 484.287
25.47000 481.327
25.48000 478.692
25.49000 480.749
25.50000 484.347
25.51000 487.613
25.52000 490.051
25.53000 492.045
25.54000 492.866
25.55000 487.763
25.56000 481.836
25.57000 477.305
25.58000 477.432
25.59000 477.932
25.60000 478.282
25.61000 478.990
25.62000 479.536
25.63000 479.373
25.64000 478.133
25.65000 476.882
25.66000 476.452
25.67000 476.833
25.68000 477.212
25.69000 476.989
25.70000 476.389
25.71000 475.908
25.72000 478.390
25.73000 482.157
25.74000 485.679
25.75000 486.247
25.76000 485.950
25.77000 485.685
25.78000 486.722
25.79000 487.843
25.80000 486.087
25.81000 471.493
25.82000 455.357
25.83000 446.988
25.84000 461.734
25.85000 478.015
25.86000 488.994
25.87000 487.666
25.88000 486.417
25.89000 484.804
25.90000 482.701
25.91000 480.599
25.92000 481.361
25.93000 484.607
25.94000 487.815
25.95000 487.565
25.96000 485.388
25.97000 483.296
25.98000 482.887
25.99000 483.129
26.00000 482.779
26.01000 476.438
26.02000 468.538
26.03000 461.608
26.04000 463.314
26.05000 466.034
26.06000 468.126
26.07000 467.732
26.08000 467.083
26.09000 468.423
26.10000 475.047
26.11000 481.957
26.12000 486.426
26.13000 487.485
26.14000 488.209
26.15000 489.101
26.16000 490.193
26.17000 491.265
26.18000 487.862
26.19000 481.033
26.20000 474.321
26.21000 470.634
26.22000 468.564
26.23000 466.839
26.24000 470.573
26.25000 476.194
26.26000 480.837
26.27000 477.026
26.28000 471.264
26.29000 466.309
26.30000 471.897
26.31000 477.947
26.32000 481.558
26.33000 476.597
26.34000 470.890
26.35000 466.056
26.36000 463.292
26.37000 460.616
26.38000 458.962
26.39000 454.700
26.40000 451.612
26.41000 451.559
26.42000 454.682
26.43000 457.813
26.44000 461.687
26.45000 466.068
26.46000 470.344
26.47000 468.733
26.48000 464.625
26.49000 460.541
26.50000 456.757
26.51000 453.066
26.52000 448.999
26.53000 442.124
26.54000 434.676
26.55000 428.407
26.56000 438.667
26.57000 448.994
26.58000 459.076
26.59000 468.393
26.60000 477.655
26.61000 478.224
26.62000 460.381
26.63000 441.939
26.64000 431.083
26.65000 446.511
26.66000 457.530
26.67000 462.427
26.68000 461.706
26.69000 460.907
26.70000 454.969
26.71000 445.931
26.72000 437.178
26.73000 446.388
26.74000 462.015
26.75000 475.871
26.76000 470.398
26.77000 459.624
26.78000 450.112
26.79000 448.779
26.80000 448.915
26.81000 449.027
26.82000 456.614
26.83000 463.527
26.84000 466.654
26.85000 459.201
26.86000 451.121
26.87000 447.720
26.88000 453.165
26.89000 458.819
26.90000 461.973
26.91000 467.633
26.92000 471.547
26.93000 472.292
26.94000 470.473
26.95000 468.569
26.96000 462.855
26.97000 455.095
26.98000 447.649
26.99000 447.423
27.00000 449.665
27.01000 451.922
27.02000 454.319
27.03000 456.749
27.04000 458.540
27.05000 456.702
27.06000 454.293
27.07000 452.362
27.08000 446.459
27.09000 441.378
27.10000 440.504
27.11000 450.125
27.12000 460.245
27.13000 467.273
27.14000 469.094
27.15000 470.832
27.16000 471.745
27.17000 469.468
27.18000 467.916
27.19000 465.352
27.20000 462.064
27.21000 459.007
27.22000 463.346
27.23000 471.231
27.24000 478.717
27.25000 482.258
27.26000 484.347
27.27000 485.312
27.28000 477.343
27.29000 467.447
27.30000 457.641
27.31000 448.283
27.32000 438.987
27.33000 431.730
27.34000 452.293
27.35000 470.436
27.36000 479.190
27.37000 467.023
27.38000 454.086
27.39000 448.988
27.40000 455.637
27.41000 462.400
27.42000 463.215
27.43000 458.244
27.44000 453.246
27.45000 446.059
27.46000 437.480
27.47000 429.332
27.48000 431.642
27.49000 438.430
27.50000 444.798
27.51000 450.604
27.52000 455.746
27.53000 460.485
27.54000 462.442
27.55000 463.870
27.56000 463.420
27.57000 454.696
27.58000 444.995
27.59000 437.643
27.60000 450.779
27.61000 462.140
27.62000 466.713
27.63000 457.787
27.64000 448.491
27.65000 444.324
27.66000 446.975
27.67000 449.657
27.68000 446.738
27.69000 439.047
27.70000 431.555
27.71000 434.500
27.72000 443.350
27.73000 451.972
27.74000 456.218
27.75000 458.791
27.76000 461.174
27.77000 453.469
27.78000 444.210
27.79000 437.141
27.80000 443.246
27.81000 451.551
27.82000 457.078
27.83000 451.756
27.84000 445.339
27.85000 440.628
27.86000 443.794
27.87000 446.562
27.88000 448.754
27.89000 449.927
27.90000 451.081
27.91000 452.056
27.92000 452.822
27.93000 453.586
27.94000 451.040
27.95000 446.029
27.96000 441.149
27.97000 441.054
27.98000 443.374
27.99000 445.185
28.00000 439.131
28.01000 430.392
28.02000 422.417
28.03000 427.751
28.04000 435.173
28.05000 441.344
28.06000 440.916
28.07000 439.526
28.08000 438.564
28.09000 439.090
28.10000 439.742
28.11000 440.205
28.12000 440.267
28.13000 440.301
28.14000 439.589
28.15000 437.697
28.16000 435.791
28.17000 435.351
28.18000 436.425
28.19000 437.493
28.20000 441.208
28.21000 446.624
28.22000 452.023
28.23000 456.957
28.24000 461.682
28.25000 465.785
28.26000 461.948
28.27000 455.695
28.28000 450.079
28.29000 446.527
28.30000 443.784
28.31000 441.637
28.32000 442.265
28.33000 443.245
28.34000 444.018
28.35000 444.155
28.36000 444.246
28.37000 444.309
28.38000 441.324
28.39000 439.019
28.40000 442.016
28.41000 452.447
28.42000 462.924
28.43000 462.663
28.44000 452.684
28.45000 442.803
28.46000 440.155
28.47000 441.781
28.48000 443.386
28.49000 444.535
28.50000 445.501
28.51000 446.142
28.52000 443.288
28.53000 439.487
28.54000 436.133
28.55000 437.249
28.56000 438.896
28.57000 440.685
28.58000 443.059
28.59000 445.496
28.60000 445.558
28.61000 439.066
28.62000 432.193
28.63000 427.683
28.64000 434.050
28.65000 438.916
28.66000 440.996
28.67000 439.616
28.68000 438.219
28.69000 434.319
28.70000 428.421
28.71000 422.611
28.72000 424.068
28.73000 429.223
28.74000 434.037
28.75000 433.086
28.76000 430.065
28.77000 427.440
28.78000 428.428
28.79000 430.285
28.80000 431.893
28.81000 431.066
28.82000 430.042
28.83000 427.252
28.84000 418.001
28.85000 408.156
28.86000 405.032
28.87000 418.475
28.88000 432.684
28.89000 441.609
28.90000 432.073
28.91000 424.975
28.92000 425.655
28.93000 434.841
28.94000 443.994
28.95000 447.943
28.96000 448.215
28.97000 448.481
28.98000 445.020
28.99000 440.004
29.00000 435.038
29.01000 430.763
29.02000 426.710
29.03000 423.133
29.04000 423.290
29.05000 424.242
29.06000 425.049
29.07000 429.218
29.08000 433.092
29.09000 435.566
29.10000 433.477
29.11000 431.035
29.12000 429.836
29.13000 431.370
29.14000 433.002
29.15000 433.979
29.16000 433.000
29.17000 432.291
29.18000 428.472
29.19000 421.671
29.20000 414.971
29.21000 416.155
29.22000 422.285
29.23000 428.239
29.24000 430.847
29.25000 431.979
29.26000 432.376
29.27000 424.269
29.28000 413.735
29.29000 405.604
29.30000 413.792
29.31000 425.041
29.32000 434.368
29.33000 433.844
29.34000 432.466
29.35000 431.385
29.36000 431.165
29.37000 430.999
29.38000 431.485
29.39000 433.250
29.40000 435.050
29.41000 436.073
29.42000 444.516
29.43000 450.412
29.44000 451.527
29.45000 448.609
29.46000 445.686
29.47000 442.461
29.48000 439.068
29.49000 435.803
29.50000 432.364
29.51000 429.076
29.52000 426.309
29.53000 428.635
29.54000 432.255
29.55000 435.089
29.56000 433.276
29.57000 430.697
29.58000 428.610
29.59000 432.888
29.60000 436.883
29.61000 438.181
29.62000 432.491
29.63000 426.441
29.64000 424.754
29.65000 430.707
29.66000 436.802
29.67000 440.074
29.68000 430.370
29.69000 423.751
29.70000 420.985
29.71000 421.091
29.72000 421.262
29.73000 423.764
29.74000 427.428
29.75000 430.919
29.76000 439.464
29.77000 448.964
29.78000 457.612
29.79000 459.128
29.80000 459.041
29.81000 459.329
29.82000 461.568
29.83000 464.088
29.84000 466.073
29.85000 459.485
29.86000 453.630
29.87000 449.665
29.88000 450.078
29.89000 450.668
29.90000 451.891
29.91000 454.104
29.92000 456.328
29.93000 457.449
29.94000 471.975
29.95000 481.611
29.96000 483.769
29.97000 480.981
29.98000 478.125
29.99000 473.429
30.00000 467.915
30.01000 462.720
30.02000 462.707
30.03000 464.120
30.04000 465.792
30.05000 469.330
30.06000 473.239
30.07000 475.526
30.08000 470.366
30.09000 464.280
30.10000 459.621
30.11000 460.750
30.12000 461.959
30.13000 462.780
30.14000 462.802
30.15000 462.799
30.16000 461.273
30.17000 457.638
30.18000 453.990
30.19000 452.612
30.20000 453.257
30.21000 453.888
30.22000 453.613
30.23000 452.806
30.24000 451.843
30.25000 447.650
30.26000 442.173
30.27000 437.078
30.28000 436.555
30.29000 437.188
30.30000 437.995
30.31000 439.896
30.32000 441.989
30.33000 441.413
30.34000 429.987
30.35000 417.405
30.36000 408.064
30.37000 422.222
30.38000 434.258
30.39000 443.671
30.40000 448.250
30.41000 452.722
30.42000 454.506
30.43000 452.998
30.44000 451.485
30.45000 446.329
30.46000 438.345
30.47000 430.583
30.48000 431.931
30.49000 438.056
30.50000 443.696
30.51000 441.274
30.52000 435.993
30.53000 431.148
30.54000 438.612
30.55000 447.869
30.56000 456.393
30.57000 460.874
30.58000 464.738
30.59000 465.189
30.60000 453.314
30.61000 440.325
30.62000 431.001
30.63000 431.619
30.64000 432.434
30.65000 435.952
30.66000 443.909
30.67000 451.930
30.68000 451.960
30.69000 443.369
30.70000 434.814
30.71000 439.861
30.72000 454.233
30.73000 468.342
30.74000 474.494
30.75000 476.922
30.76000 479.601
30.77000 485.686
30.78000 492.849
30.79000 499.318
30.80000 500.820
30.81000 501.223
30.82000 501.871
30.83000 503.701
30.84000 505.688
30.85000 507.102
30.86000 506.670
30.87000 506.099
30.88000 505.703
30.89000 529.083
30.90000 547.295
30.91000 560.542
30.92000 566.538
30.93000 572.472
30.94000 581.447
30.95000 593.296
30.96000 605.047
30.97000 625.732
30.98000 651.474
30.99000 677.092
31.00000 699.861
31.01000 721.440
31.02000 744.958
31.03000 790.498
31.04000 842.245
31.05000 888.194
31.06000 942.881
31.07000 991.693
31.08000 1047.716
31.09000 1134.681
31.10000 1225.182
31.11000 1319.178
31.12000 1423.201
31.13000 1527.848
31.14000 1597.500
31.15000 1781.529
31.16000 1919.859
31.17000 2067.878
31.18000 2228.437
31.19000 2389.042
31.20000 2547.394
31.21000 2703.871
31.22000 2858.288
31.23000 3024.497
31.24000 3192.558
31.25000 3359.658
31.26000 3509.218
31.27000 3652.233
31.28000 3789.530
31.29000 3871.843
31.30000 3940.385
31.31000 4000.129
31.32000 4023.846
31.33000 4039.121
31.34000 4050.566
31.35000 4047.432
31.36000 4042.878
31.37000 4010.277
31.38000 3905.858
31.39000 3797.843
31.40000 3728.952
31.41000 3553.316
31.42000 3424.210
31.43000 3283.863
31.44000 3130.676
31.45000 2977.361
31.46000 2804.097
31.47000 2616.156
31.48000 2431.809
31.49000 2260.689
31.50000 2102.100
31.51000 1943.939
31.52000 1792.143
31.53000 1642.466
31.54000 1496.559
31.55000 1381.692
31.56000 1273.714
31.57000 1181.479
31.58000 1091.993
31.59000 1016.935
31.60000 945.681
31.61000 887.315
31.62000 830.006
31.63000 780.703
31.64000 749.709
31.65000 719.432
31.66000 700.997
31.67000 667.771
31.68000 643.918
31.69000 621.624
31.70000 600.896
31.71000 580.235
31.72000 565.848
31.73000 555.557
31.74000 545.536
31.75000 534.327
31.76000 523.145
31.77000 512.134
31.78000 503.211
31.79000 494.908
31.80000 487.084
31.81000 482.679
31.82000 478.943
31.83000 475.821
31.84000 473.879
31.85000 472.386
31.86000 470.990
31.87000 469.888
31.88000 468.806
31.89000 465.664
31.90000 458.316
31.91000 450.845
31.92000 446.520
31.93000 438.755
31.94000 433.300
31.95000 431.076
31.96000 431.695
31.97000 432.244
31.98000 428.715
31.99000 422.816
32.00000 417.120
32.01000 418.103
32.02000 421.498
32.03000 424.487
32.04000 423.274
32.05000 420.952
32.06000 418.891
32.07000 418.443
32.08000 418.274
32.09000 418.136
32.10000 424.041
32.11000 429.388
32.12000 431.879
32.13000 426.674
32.14000 421.044
32.15000 416.511
32.16000 413.975
32.17000 411.482
32.18000 410.116
32.19000 404.497
32.20000 400.643
32.21000 400.957
32.22000 404.507
32.23000 408.024
32.24000 410.173
32.25000 411.614
32.26000 412.992
32.27000 415.529
32.28000 418.268
32.29000 420.526
32.30000 418.551
32.31000 415.583
32.32000 412.884
32.33000 411.645
32.34000 410.626
32.35000 409.815
32.36000 411.237
32.37000 412.543
32.38000 411.462
32.39000 404.640
32.40000 397.567
32.41000 395.824
32.42000 402.730
32.43000 409.755
32.44000 413.376
32.45000 392.948
32.46000 379.297
32.47000 379.052
32.48000 388.037
32.49000 396.855
32.50000 400.829
32.51000 402.562
32.52000 404.203
32.53000 400.003
32.54000 394.464
32.55000 389.816
32.56000 391.923
32.57000 395.430
32.58000 398.159
32.59000 397.161
32.60000 395.676
32.61000 394.528
32.62000 393.636
32.63000 392.943
32.64000 390.701
32.65000 385.128
32.66000 379.444
32.67000 377.478
32.68000 380.875
32.69000 384.314
32.70000 385.381
32.71000 384.238
32.72000 383.132
32.73000 384.676
32.74000 387.842
32.75000 390.899
32.76000 391.506
32.77000 391.102
32.78000 390.724
32.79000 392.598
32.80000 394.868
32.81000 396.908
32.82000 397.431
32.83000 397.678
32.84000 398.584
32.85000 402.282
32.86000 406.293
32.87000 409.303
32.88000 417.244
32.89000 423.681
32.90000 431.022
32.91000 440.093
32.92000 449.206
32.93000 457.157
32.94000 463.622
32.95000 470.073
32.96000 473.191
32.97000 473.570
32.98000 473.990
32.99000 476.333
33.00000 479.722
33.01000 483.177
33.02000 487.780
33.03000 492.808
33.04000 497.442
33.05000 487.803
33.06000 476.013
33.07000 466.321
33.08000 468.711
33.09000 473.033
33.10000 474.667
33.11000 466.194
33.12000 456.754
33.13000 449.898
33.14000 433.062
33.15000 419.741
33.16000 409.811
33.17000 405.674
33.18000 401.636
33.19000 395.099
33.20000 385.747
33.21000 376.427
33.22000 370.113
33.23000 366.019
33.24000 361.945
33.25000 358.524
33.26000 355.420
33.27000 352.880
33.28000 358.529
33.29000 366.872
33.30000 374.448
33.31000 371.090
33.32000 366.010
33.33000 361.820
33.34000 362.139
33.35000 363.085
33.36000 362.994
33.37000 359.430
33.38000 355.586
33.39000 352.892
33.40000 356.319
33.41000 359.088
33.42000 363.249
33.43000 369.528
33.44000 375.828
33.45000 373.365
33.46000 362.236
33.47000 351.185
33.48000 348.989
33.49000 352.446
33.50000 355.661
33.51000 352.779
33.52000 347.249
33.53000 342.090
33.54000 341.399
33.55000 342.018
33.56000 342.571
33.57000 342.165
33.58000 341.650
33.59000 343.453
33.60000 355.624
33.61000 369.042
33.62000 376.326
33.63000 365.324
33.64000 353.103
33.65000 344.857
33.66000 341.043
33.67000 338.299
33.68000 337.142
33.69000 338.125
33.70000 339.126
33.71000 344.437
33.72000 353.491
33.73000 362.442
33.74000 359.674
33.75000 350.411
33.76000 341.476
33.77000 339.006
33.78000 339.043
33.79000 339.330
33.80000 342.153
33.81000 345.637
33.82000 348.694
33.83000 349.510
33.84000 349.884
33.85000 349.642
33.86000 346.958
33.87000 344.021
33.88000 341.642
33.89000 340.747
33.90000 339.932
33.91000 339.405
33.92000 343.891
33.93000 347.247
33.94000 345.872
33.95000 338.856
33.96000 331.859
33.97000 331.723
33.98000 336.848
33.99000 341.885
34.00000 337.366
34.01000 328.270
34.02000 319.639
34.03000 318.373
34.04000 319.655
34.05000 321.050
34.06000 323.418
34.07000 326.011
34.08000 328.242
34.09000 333.784
34.10000 338.891
34.11000 341.242
34.12000 333.884
34.13000 325.680
34.14000 322.426
34.15000 330.931
34.16000 339.938
34.17000 345.511
34.18000 345.929
34.19000 346.181
34.20000 343.513
34.21000 337.783
34.22000 332.106
34.23000 332.418
34.24000 336.800
34.25000 341.078
34.26000 339.235
34.27000 334.798
34.28000 330.874
34.29000 333.649
34.30000 338.492
34.31000 343.461
34.32000 349.378
34.33000 355.488
34.34000 360.632
34.35000 347.596
34.36000 334.770
34.37000 325.487
34.38000 327.323
34.39000 329.967
34.40000 330.927
34.41000 328.316
34.42000 325.589
34.43000 323.983
34.44000 336.323
34.45000 345.101
34.46000 345.125
34.47000 337.101
34.48000 329.190
34.49000 328.877
34.50000 333.153
34.51000 337.294
34.52000 337.666
34.53000 336.562
34.54000 335.452
34.55000 334.262
34.56000 333.052
34.57000 332.389
34.58000 335.283
34.59000 338.817
34.60000 341.725
34.61000 337.213
34.62000 332.831
34.63000 331.766
34.64000 339.991
34.65000 348.768
34.66000 353.504
34.67000 350.586
34.68000 347.485
34.69000 345.754
34.70000 331.619
34.71000 321.828
34.72000 320.439
34.73000 325.856
34.74000 331.214
34.75000 333.976
34.76000 335.339
34.77000 336.648
34.78000 335.381
34.79000 333.320
34.80000 331.434
34.81000 331.162
34.82000 331.285
34.83000 331.633
34.84000 333.259
34.85000 335.086
34.86000 336.553
34.87000 339.922
34.88000 342.795
34.89000 342.941
34.90000 336.270
34.91000 329.274
34.92000 324.794
34.93000 324.559
34.94000 324.393
34.95000 324.306
34.96000 317.690
34.97000 313.243
34.98000 315.339
34.99000 322.127
35.00000 328.730
35.01000 329.360
35.02000 327.122
35.03000 324.997
35.04000 322.743
35.05000 320.623
35.06000 319.084
35.07000 322.171
35.08000 326.258
35.09000 329.661
35.10000 329.644
35.11000 329.159
35.12000 328.780
35.13000 333.713
35.14000 337.983
35.15000 338.181
35.16000 329.295
35.17000 320.072
35.18000 314.682
35.19000 315.042
35.20000 315.460
35.21000 317.675
35.22000 321.642
35.23000 325.528
35.24000 322.744
35.25000 315.714
35.26000 309.149
35.27000 313.948
35.28000 323.620
35.29000 332.697
35.30000 327.564
35.31000 319.136
35.32000 312.675
35.33000 319.793
35.34000 329.500
35.35000 336.354
35.36000 330.620
35.37000 323.396
35.38000 317.919
35.39000 316.468
35.40000 315.534
35.41000 314.684
35.42000 314.000
35.43000 313.321
35.44000 312.121
35.45000 310.229
35.46000 308.334
35.47000 309.841
35.48000 314.253
35.49000 318.575
35.50000 318.161
35.51000 315.063
35.52000 312.404
35.53000 318.192
35.54000 327.215
35.55000 335.572
35.56000 329.660
35.57000 321.040
35.58000 313.465
35.59000 312.185
35.60000 311.958
35.61000 313.033
35.62000 319.201
35.63000 325.884
35.64000 330.793
35.65000 328.308
35.66000 326.084
35.67000 325.313
35.68000 327.123
35.69000 328.983
35.70000 328.913
35.71000 326.573
35.72000 324.237
35.73000 321.834
35.74000 319.397
35.75000 317.056
35.76000 318.223
35.77000 321.163
35.78000 323.688
35.79000 319.779
35.80000 313.669
35.81000 308.092
35.82000 307.891
35.83000 308.802
35.84000 309.138
35.85000 306.429
35.86000 303.277
35.87000 301.937
35.88000 306.905
35.89000 312.411
35.90000 316.320
35.91000 312.767
35.92000 309.829
35.93000 306.722
35.94000 303.348
35.95000 299.972
35.96000 299.446
35.97000 301.867
35.98000 304.276
35.99000 304.832
36.00000 304.156
36.01000 303.536
36.02000 304.454
36.03000 306.066
36.04000 307.370
36.05000 304.725
36.06000 300.878
36.07000 297.421
36.08000 306.023
36.09000 315.679
36.10000 323.350
36.11000 321.766
36.12000 319.011
36.13000 315.711
36.14000 310.724
36.15000 305.616
36.16000 302.124
36.17000 305.725
36.18000 308.588
36.19000 307.866
36.20000 302.107
36.21000 296.318
36.22000 297.866
36.23000 306.068
36.24000 314.190
36.25000 310.940
36.26000 301.115
36.27000 291.971
36.28000 297.311
36.29000 308.485
36.30000 318.160
36.31000 311.714
36.32000 300.894
36.33000 291.342
36.34000 298.688
36.35000 307.614
36.36000 314.782
36.37000 314.693
36.38000 313.816
36.39000 310.123
36.40000 298.642
36.41000 286.708
36.42000 278.871
36.43000 300.269
36.44000 316.506
36.45000 321.814
36.46000 313.531
36.47000 305.223
36.48000 301.953
36.49000 302.710
36.50000 303.456
36.51000 306.202
36.52000 309.899
36.53000 313.328
36.54000 312.220
36.55000 309.479
36.56000 307.403
36.57000 311.390
36.58000 316.839
36.59000 321.558
36.60000 320.710
36.61000 319.254
36.62000 318.672
36.63000 321.297
36.64000 324.218
36.65000 325.470
36.66000 322.602
36.67000 319.542
36.68000 317.619
36.69000 311.818
36.70000 307.580
36.71000 304.262
36.72000 301.951
36.73000 299.665
36.74000 300.875
36.75000 304.557
36.76000 308.161
36.77000 310.326
36.78000 311.748
36.79000 313.392
36.80000 318.134
36.81000 323.870
36.82000 328.762
36.83000 327.031
36.84000 323.887
36.85000 321.221
36.86000 315.493
36.87000 310.345
36.88000 306.795
36.89000 308.459
36.90000 310.527
36.91000 311.611
36.92000 310.526
36.93000 309.363
36.94000 308.666
36.95000 306.910
36.96000 305.655
36.97000 305.907
36.98000 307.607
36.99000 309.296
37.00000 310.239
37.01000 310.712
37.02000 311.172
37.03000 309.036
37.04000 305.964
37.05000 303.131
37.06000 303.076
37.07000 303.816
37.08000 304.908
37.09000 308.395
37.10000 312.333
37.11000 315.599
37.12000 308.528
37.13000 301.692
37.14000 297.660
37.15000 301.784
37.16000 306.428
37.17000 310.274
37.18000 312.552
37.19000 314.787
37.20000 316.059
37.21000 308.782
37.22000 303.689
37.23000 301.185
37.24000 300.871
37.25000 300.655
37.26000 305.480
37.27000 313.125
37.28000 320.485
37.29000 321.034
37.30000 319.131
37.31000 316.850
37.32000 310.858
37.33000 303.923
37.34000 298.145
37.35000 299.240
37.36000 301.468
37.37000 303.272
37.38000 302.252
37.39000 301.194
37.40000 300.199
37.41000 299.367
37.42000 298.544
37.43000 299.280
37.44000 302.754
37.45000 306.279
37.46000 308.173
37.47000 304.223
37.48000 301.526
37.49000 300.278
37.50000 300.113
37.51000 299.915
37.52000 298.581
37.53000 296.680
37.54000 294.868
37.55000 294.354
37.56000 294.283
37.57000 294.464
37.58000 296.752
37.59000 299.515
37.60000 300.643
37.61000 293.252
37.62000 284.636
37.63000 277.844
37.64000 284.323
37.65000 290.409
37.66000 295.710
37.67000 299.189
37.68000 302.594
37.69000 304.256
37.70000 303.194
37.71000 302.100
37.72000 301.548
37.73000 298.290
37.74000 296.100
37.75000 292.814
37.76000 288.803
37.77000 284.957
37.78000 285.516
37.79000 288.039
37.80000 290.416
37.81000 294.165
37.82000 297.975
37.83000 301.725
37.84000 305.034
37.85000 308.256
37.86000 308.947
37.87000 297.992
37.88000 285.588
37.89000 276.087
37.90000 296.462
37.91000 314.193
37.92000 322.644
37.93000 311.878
37.94000 300.525
37.95000 294.883
37.96000 297.163
37.97000 299.494
37.98000 301.041
37.99000 301.886
38.00000 302.717
38.01000 302.606
38.02000 301.940
38.03000 301.195
38.04000 298.806
38.05000 295.763
38.06000 292.932
38.07000 296.359
38.08000 300.971
38.09000 304.460
38.10000 300.876
38.11000 296.054
38.12000 292.790
38.13000 295.874
38.14000 299.637
38.15000 302.431
38.16000 305.013
38.17000 307.011
38.18000 308.680
38.19000 309.742
38.20000 310.791
38.21000 313.274
38.22000 317.516
38.23000 321.755
38.24000 326.482
38.25000 331.569
38.26000 336.482
38.27000 334.175
38.28000 328.075
38.29000 322.447
38.30000 324.657
38.31000 329.651
38.32000 334.232
38.33000 338.290
38.34000 341.797
38.35000 346.445
38.36000 357.399
38.37000 369.318
38.38000 378.712
38.39000 378.971
38.40000 378.402
38.41000 377.994
38.42000 382.731
38.43000 386.533
38.44000 391.805
38.45000 399.495
38.46000 407.220
38.47000 418.396
38.48000 433.300
38.49000 448.138
38.50000 459.641
38.51000 468.715
38.52000 477.883
38.53000 489.863
38.54000 503.161
38.55000 516.599
38.56000 531.950
38.57000 547.907
38.58000 562.323
38.59000 564.697
38.60000 564.557
38.61000 566.831
38.62000 580.836
38.63000 596.401
38.64000 608.805
38.65000 611.025
38.66000 612.473
38.67000 613.476
38.68000 609.085
38.69000 605.638
38.70000 599.674
38.71000 590.025
38.72000 580.346
38.73000 574.848
38.74000 573.312
38.75000 571.789
38.76000 559.994
38.77000 542.154
38.78000 524.536
38.79000 512.054
38.80000 501.720
38.81000 490.642
38.82000 471.076
38.83000 449.115
38.84000 429.609
38.85000 418.384
38.86000 409.982
38.87000 402.050
38.88000 396.142
38.89000 390.466
38.90000 382.868
38.91000 369.752
38.92000 356.291
38.93000 347.326
38.94000 337.508
38.95000 330.226
38.96000 324.231
38.97000 319.906
38.98000 315.592
38.99000 312.751
39.00000 311.141
39.01000 309.551
39.02000 305.825
39.03000 301.049
39.04000 296.453
39.05000 295.160
39.06000 295.102
39.07000 295.382
39.08000 298.920
39.09000 303.275
39.10000 307.072
39.11000 304.562
39.12000 301.539
39.13000 297.893
39.14000 291.872
39.15000 285.618
39.16000 282.070
39.17000 285.462
39.18000 289.202
39.19000 291.589
39.20000 287.942
39.21000 285.211
39.22000 285.522
39.23000 289.314
39.24000 293.099
39.25000 294.657
39.26000 294.576
39.27000 294.496
39.28000 292.562
39.29000 289.817
39.30000 287.361
39.31000 289.201
39.32000 292.474
39.33000 295.015
39.34000 291.514
39.35000 286.670
39.36000 282.531
39.37000 285.010
39.38000 287.890
39.39000 289.538
39.40000 287.011
39.41000 284.141
39.42000 281.968
39.43000 281.395
39.44000 280.885
39.45000 280.574
39.46000 276.493
39.47000 273.547
39.48000 272.142
39.49000 272.288
39.50000 272.430
39.51000 272.325
39.52000 272.058
39.53000 271.797
39.54000 271.576
39.55000 271.381
39.56000 271.286
39.57000 272.419
39.58000 273.916
39.59000 275.219
39.60000 275.128
39.61000 274.763
39.62000 274.459
39.63000 272.586
39.64000 270.870
39.65000 269.163
39.66000 267.477
39.67000 265.793
39.68000 266.125
39.69000 270.579
39.70000 275.156
39.71000 277.807
39.72000 274.311
39.73000 271.833
39.74000 268.981
39.75000 265.798
39.76000 262.632
39.77000 260.446
39.78000 258.829
39.79000 257.268
39.80000 257.891
39.81000 259.288
39.82000 260.828
39.83000 263.856
39.84000 267.278
39.85000 270.617
39.86000 273.431
39.87000 276.156
39.88000 278.380
39.89000 279.631
39.90000 280.571
39.91000 279.482
39.92000 272.919
39.93000 266.053
39.94000 263.246
39.95000 267.846
39.96000 272.603
39.97000 275.210
39.98000 272.756
39.99000 271.053
40.00000 267.306
40.01000 261.967
40.02000 256.843
40.03000 260.242
40.04000 268.063
40.05000 275.543
40.06000 273.195
40.07000 267.797
40.08000 262.972
40.09000 263.202
40.10000 264.618
40.11000 265.978
40.12000 267.031
40.13000 268.038
40.14000 268.838
40.15000 266.473
40.16000 264.340
40.17000 265.098
40.18000 272.822
40.19000 280.852
40.20000 282.992
40.21000 275.557
40.22000 267.990
40.23000 264.085
40.24000 273.146
40.25000 279.206
40.26000 279.471
40.27000 275.741
40.28000 271.976
40.29000 267.182
40.30000 261.910
40.31000 256.922
40.32000 257.957
40.33000 260.641
40.34000 263.011
40.35000 262.988
40.36000 262.469
40.37000 262.565
40.38000 265.614
40.39000 269.049
40.40000 271.706
40.41000 266.260
40.42000 261.460
40.43000 257.170
40.44000 253.977
40.45000 250.821
40.46000 250.100
40.47000 252.896
40.48000 255.719
40.49000 256.276
40.50000 254.718
40.51000 253.204
40.52000 254.820
40.53000 258.356
40.54000 261.614
40.55000 258.646
40.56000 253.102
40.57000 247.921
40.58000 245.405
40.59000 243.795
40.60000 242.756
40.61000 245.483
40.62000 248.899
40.63000 251.642
40.64000 251.532
40.65000 251.101
40.66000 250.778
40.67000 251.923
40.68000 252.888
40.69000 254.389
40.70000 256.921
40.71000 259.479
40.72000 259.740
40.73000 257.063
40.74000 254.379
40.75000 251.333
40.76000 248.000
40.77000 244.736
40.78000 244.672
40.79000 246.355
40.80000 248.078
40.81000 250.515
40.82000 253.215
40.83000 255.704
40.84000 253.589
40.85000 250.674
40.86000 248.152
40.87000 247.907
40.88000 248.027
40.89000 248.746
40.90000 251.722
40.91000 254.915
40.92000 257.235
40.93000 252.612
40.94000 248.795
40.95000 246.625
40.96000 247.276
40.97000 247.975
40.98000 249.990
40.99000 253.490
41.00000 256.979
41.01000 258.804
41.02000 259.413
41.03000 260.098
41.04000 263.355
41.05000 267.864
41.06000 271.862
41.07000 268.421
41.08000 262.530
41.09000 257.179
41.10000 258.405
41.11000 260.763
41.12000 262.092
41.13000 258.200
41.14000 253.579
41.15000 251.033
41.16000 255.436
41.17000 260.399
41.18000 263.881
41.19000 259.163
41.20000 255.356
41.21000 252.895
41.22000 252.485
41.23000 252.096
41.24000 254.424
41.25000 259.441
41.26000 264.425
41.27000 261.161
41.28000 252.705
41.29000 244.411
41.30000 240.215
41.31000 237.802
41.32000 235.685
41.33000 237.159
41.34000 239.687
41.35000 241.946
41.36000 248.219
41.37000 254.361
41.38000 259.113
41.39000 257.632
41.40000 255.400
41.41000 254.297
41.42000 256.565
41.43000 259.057
41.44000 260.740
41.45000 254.972
41.46000 250.519
41.47000 248.341
41.48000 249.236
41.49000 250.148
41.50000 250.745
41.51000 251.066
41.52000 251.385
41.53000 252.990
41.54000 255.279
41.55000 257.356
41.56000 255.263
41.57000 251.549
41.58000 247.510
41.59000 240.164
41.60000 231.955
41.61000 224.751
41.62000 229.475
41.63000 235.276
41.64000 241.632
41.65000 250.194
41.66000 258.984
41.67000 264.202
41.68000 259.901
41.69000 255.084
41.70000 251.964
41.71000 245.023
41.72000 239.887
41.73000 236.061
41.74000 233.799
41.75000 231.561
41.76000 234.354
41.77000 241.011
41.78000 247.555
41.79000 251.229
41.80000 253.360
41.81000 255.051
41.82000 249.763
41.83000 242.054
41.84000 235.095
41.85000 234.657
41.86000 235.730
41.87000 236.653
41.88000 236.716
41.89000 236.662
41.90000 238.100
41.91000 244.803
41.92000 251.967
41.93000 255.142
41.94000 248.825
41.95000 242.100
41.96000 237.937
41.97000 236.676
41.98000 235.797
41.99000 240.532
42.00000 251.166
42.01000 261.746
42.02000 266.259
42.03000 266.640
42.04000 267.012
42.05000 257.658
42.06000 244.452
42.07000 232.392
42.08000 235.366
42.09000 242.987
42.10000 249.634
42.11000 248.991
42.12000 246.853
42.13000 245.053
42.14000 248.390
42.15000 251.727
42.16000 254.157
42.17000 253.732
42.18000 253.100
42.19000 252.225
42.20000 250.832
42.21000 249.422
42.22000 248.591
42.23000 244.014
42.24000 240.764
42.25000 239.498
42.26000 240.060
42.27000 240.634
42.28000 241.991
42.29000 243.822
42.30000 245.596
42.31000 244.054
42.32000 241.314
42.33000 238.479
42.34000 234.602
42.35000 230.439
42.36000 227.056
42.37000 228.755
42.38000 231.369
42.39000 233.521
42.40000 235.904
42.41000 237.884
42.42000 239.010
42.43000 237.741
42.44000 236.329
42.45000 235.880
42.46000 237.256
42.47000 238.676
42.48000 239.470
42.49000 233.442
42.50000 229.268
42.51000 231.525
42.52000 238.999
42.53000 246.295
42.54000 245.615
42.55000 240.634
42.56000 235.853
42.57000 235.768
42.58000 237.289
42.59000 238.491
42.60000 236.707
42.61000 234.193
42.62000 232.397
42.63000 234.685
42.64000 237.617
42.65000 239.970
42.66000 235.435
42.67000 231.236
42.68000 228.384
42.69000 228.906
42.70000 229.589
42.71000 230.594
42.72000 232.143
42.73000 233.700
42.74000 234.521
42.75000 233.413
42.76000 232.652
42.77000 230.640
42.78000 227.729
42.79000 224.987
42.80000 227.718
42.81000 233.082
42.82000 238.177
42.83000 244.599
42.84000 250.929
42.85000 256.239
42.86000 253.411
42.87000 248.820
42.88000 244.736
42.89000 243.191
42.90000 241.994
42.91000 241.060
42.92000 240.136
42.93000 239.400
42.94000 238.359
42.95000 236.638
42.96000 234.890
42.97000 235.117
42.98000 238.313
42.99000 241.538
43.00000 243.844
43.01000 245.252
43.02000 246.610
43.03000 243.836
43.04000 238.426
43.05000 233.142
43.06000 230.945
43.07000 230.074
43.08000 229.256
43.09000 228.758
43.10000 228.388
43.11000 228.193
43.12000 229.206
43.13000 230.449
43.14000 231.406
43.15000 231.101
43.16000 230.646
43.17000 230.300
43.18000 225.405
43.19000 221.326
43.20000 219.728
43.21000 223.083
43.22000 226.575
43.23000 229.745
43.24000 232.487
43.25000 235.224
43.26000 234.519
43.27000 230.867
43.28000 227.275
43.29000 226.855
43.30000 228.236
43.31000 229.663
43.32000 231.991
43.33000 234.665
43.34000 237.142
43.35000 236.913
43.36000 236.079
43.37000 235.348
43.38000 235.229
43.39000 235.214
43.40000 235.574
43.41000 237.407
43.42000 239.389
43.43000 240.846
43.44000 232.614
43.45000 225.852
43.46000 223.772
43.47000 230.026
43.48000 236.443
43.49000 239.155
43.50000 237.504
43.51000 235.850
43.52000 231.750
43.53000 225.834
43.54000 220.128
43.55000 222.198
43.56000 228.203
43.57000 233.973
43.58000 236.071
43.59000 236.912
43.60000 237.680
43.61000 236.160
43.62000 234.348
43.63000 232.837
43.64000 232.927
43.65000 233.251
43.66000 233.109
43.67000 231.345
43.68000 229.443
43.69000 228.091
43.70000 234.299
43.71000 239.264
43.72000 241.548
43.73000 239.585
43.74000 237.569
43.75000 234.755
43.76000 231.114
43.77000 227.493
43.78000 227.798
43.79000 230.702
43.80000 233.523
43.81000 234.056
43.82000 233.556
43.83000 232.960
43.84000 231.130
43.85000 228.923
43.86000 226.940
43.87000 228.725
43.88000 230.955
43.89000 233.081
43.90000 234.728
43.91000 236.314
43.92000 236.753
43.93000 233.633
43.94000 230.259
43.95000 227.950
43.96000 229.150
43.97000 230.131
43.98000 228.859
43.99000 224.416
44.00000 219.954
44.01000 221.698
44.02000 229.080
44.03000 236.391
44.04000 239.248
44.05000 239.440
44.06000 239.542
44.07000 237.719
44.08000 235.118
44.09000 232.850
44.10000 234.163
44.11000 236.449
44.12000 238.467
44.13000 233.612
44.14000 228.365
44.15000 224.227
44.16000 224.671
44.17000 225.614
44.18000 226.810
44.19000 228.706
44.20000 230.643
44.21000 231.916
44.22000 230.530
44.23000 229.464
44.24000 228.267
44.25000 226.905
44.26000 225.554
44.27000 228.075
44.28000 233.696
44.29000 239.233
44.30000 239.136
44.31000 236.131
44.32000 233.414
44.33000 235.600
44.34000 239.554
44.35000 242.674
44.36000 238.156
44.37000 231.796
44.38000 226.285
44.39000 230.948
44.40000 236.264
44.41000 240.588
44.42000 241.277
44.43000 241.629
44.44000 241.360
44.45000 239.556
44.46000 237.681
44.47000 236.502
44.48000 238.434
44.49000 239.866
44.50000 246.293
44.51000 258.203
44.52000 270.026
44.53000 269.270
44.54000 259.596
44.55000 250.127
44.56000 253.396
44.57000 262.349
44.58000 270.662
44.59000 270.043
44.60000 266.554
44.61000 263.833
44.62000 267.154
44.63000 271.766
44.64000 275.680
44.65000 280.532
44.66000 284.707
44.67000 289.527
44.68000 296.453
44.69000 303.543
44.70000 311.779
44.71000 322.548
44.72000 333.409
44.73000 339.922
44.74000 344.199
44.75000 347.223
44.76000 358.019
44.77000 376.297
44.78000 394.519
44.79000 408.386
44.80000 419.511
44.81000 430.318
44.82000 446.060
44.83000 463.000
44.84000 479.858
44.85000 495.746
44.86000 511.357
44.87000 525.106
44.88000 526.167
44.89000 524.837
44.90000 523.734
44.91000 546.078
44.92000 566.804
44.93000 581.514
44.94000 578.698
44.95000 574.761
44.96000 574.131
44.97000 580.022
44.98000 586.088
44.99000 589.541
45.00000 595.385
45.01000 599.449
45.02000 594.087
45.03000 580.744
45.04000 567.531
45.05000 560.959
45.06000 558.112
45.07000 555.369
45.08000 534.642
45.09000 508.785
45.10000 484.839
45.11000 479.675
45.12000 479.293
45.13000 477.734
45.14000 469.176
45.15000 459.462
45.16000 451.596
45.17000 439.597
45.18000 429.493
45.19000 417.723
45.20000 401.622
45.21000 385.298
45.22000 371.981
45.23000 363.953
45.24000 356.024
45.25000 351.758
45.26000 335.591
45.27000 324.557
45.28000 318.529
45.29000 316.246
45.30000 313.832
45.31000 306.707
45.32000 297.227
45.33000 288.191
45.34000 287.445
45.35000 289.355
45.36000 290.552
45.37000 285.760
45.38000 279.617
45.39000 274.831
45.40000 277.135
45.41000 280.461
45.42000 283.083
45.43000 276.148
45.44000 269.942
45.45000 263.151
45.46000 255.003
45.47000 246.799
45.48000 239.888
45.49000 234.999
45.50000 230.133
45.51000 227.674
45.52000 238.464
45.53000 245.638
45.54000 248.254
45.55000 247.847
45.56000 247.330
45.57000 243.873
45.58000 239.105
45.59000 234.610
45.60000 231.830
45.61000 229.757
45.62000 228.426
45.63000 232.479
45.64000 237.606
45.65000 240.752
45.66000 234.773
45.67000 227.656
45.68000 222.202
45.69000 227.500
45.70000 232.277
45.71000 233.209
45.72000 226.168
45.73000 218.882
45.74000 215.614
45.75000 217.926
45.76000 220.274
45.77000 222.904
45.78000 225.785
45.79000 228.561
45.80000 224.998
45.81000 217.694
45.82000 210.782
45.83000 212.060
45.84000 216.603
45.85000 220.831
45.86000 223.174
45.87000 224.834
45.88000 225.785
45.89000 222.258
45.90000 217.947
45.91000 214.988
45.92000 217.550
45.93000 220.703
45.94000 223.046
45.95000 218.766
45.96000 215.146
45.97000 213.374
45.98000 215.023
45.99000 216.748
46.00000 217.606
46.01000 217.397
46.02000 217.185
46.03000 216.750
46.04000 216.140
46.05000 215.559
46.06000 216.183
46.07000 217.441
46.08000 218.414
46.09000 214.638
46.10000 209.171
46.11000 204.155
46.12000 201.653
46.13000 199.956
46.14000 198.988
46.15000 202.055
46.16000 205.741
46.17000 209.151
46.18000 211.562
46.19000 213.882
46.20000 215.550
46.21000 216.405
46.22000 217.030
46.23000 217.468
46.24000 217.594
46.25000 217.716
46.26000 215.455
46.27000 210.614
46.28000 205.793
46.29000 203.541
46.30000 203.092
46.31000 202.710
46.32000 204.401
46.33000 207.064
46.34000 209.551
46.35000 209.624
46.36000 208.930
46.37000 208.304
46.38000 213.153
46.39000 218.432
46.40000 221.985
46.41000 217.128
46.42000 211.150
46.43000 206.239
46.44000 204.770
46.45000 203.563
46.46000 202.727
46.47000 202.693
46.48000 202.689
46.49000 202.687
46.50000 202.685
46.51000 202.684
46.52000 202.372
46.53000 201.766
46.54000 201.165
46.55000 199.239
46.56000 196.538
46.57000 194.265
46.58000 201.912
46.59000 213.717
46.60000 224.481
46.61000 223.352
46.62000 218.859
46.63000 214.868
46.64000 213.751
46.65000 213.246
46.66000 212.101
46.67000 208.204
46.68000 203.991
46.69000 200.609
46.70000 199.618
46.71000 198.777
46.72000 198.217
46.73000 197.562
46.74000 197.076
46.75000 199.900
46.76000 207.024
46.77000 214.157
46.78000 216.452
46.79000 214.708
46.80000 212.986
46.81000 207.385
46.82000 199.843
46.83000 192.846
46.84000 195.877
46.85000 202.661
46.86000 208.607
46.87000 206.455
46.88000 202.268
46.89000 198.616
46.90000 197.264
46.91000 196.428
46.92000 196.197
46.93000 198.278
46.94000 200.586
46.95000 202.909
46.96000 205.269
46.97000 207.632
46.98000 209.140
46.99000 198.905
47.00000 191.304
47.01000 189.156
47.02000 193.260
47.03000 197.378
47.04000 202.638
47.05000 208.742
47.06000 214.731
47.07000 210.820
47.08000 202.340
47.09000 194.505
47.10000 196.299
47.11000 201.311
47.12000 205.386
47.13000 201.709
47.14000 196.305
47.15000 191.687
47.16000 192.627
47.17000 194.085
47.18000 195.581
47.19000 197.208
47.20000 198.847
47.21000 199.745
47.22000 198.944
47.23000 198.075
47.24000 197.546
47.25000 195.699
47.26000 194.368
47.27000 194.022
47.28000 194.667
47.29000 195.331
47.30000 197.758
47.31000 201.338
47.32000 204.826
47.33000 203.763
47.34000 200.836
47.35000 198.293
47.36000 200.485
47.37000 204.087
47.38000 206.766
47.39000 202.851
47.40000 197.638
47.41000 193.279
47.42000 193.996
47.43000 195.109
47.44000 196.105
47.45000 196.750
47.46000 197.371
47.47000 197.606
47.48000 197.049
47.49000 196.469
47.50000 196.133
47.51000 200.666
47.52000 203.861
47.53000 201.542
47.54000 194.350
47.55000 187.292
47.56000 188.039
47.57000 193.334
47.58000 198.450
47.59000 195.511
47.60000 189.752
47.61000 185.072
47.62000 191.609
47.63000 201.117
47.64000 208.796
47.65000 205.087
47.66000 199.409
47.67000 194.772
47.68000 193.086
47.69000 191.960
47.70000 191.434
47.71000 192.532
47.72000 193.720
47.73000 194.199
47.74000 193.380
47.75000 192.533
47.76000 192.068
47.77000 195.238
47.78000 197.408
47.79000 194.981
47.80000 188.972
47.81000 183.101
47.82000 182.820
47.83000 185.444
47.84000 187.953
47.85000 190.366
47.86000 192.581
47.87000 194.286
47.88000 191.481
47.89000 187.615
47.90000 184.692
47.91000 186.920
47.92000 189.926
47.93000 192.318
47.94000 192.156
47.95000 191.843
47.96000 192.527
47.97000 195.620
47.98000 198.820
47.99000 199.205
48.00000 195.005
48.01000 190.741
48.02000 188.539
48.03000 188.780
48.04000 188.961
48.05000 191.509
48.06000 195.692
48.07000 199.663
48.08000 197.421
48.09000 192.298
48.10000 187.450
48.11000 188.033
48.12000 190.134
48.13000 192.276
48.14000 194.732
48.15000 197.253
48.16000 199.038
48.17000 197.284
48.18000 195.065
48.19000 193.348
48.20000 190.926
48.21000 188.961
48.22000 187.696
48.23000 187.936
48.24000 188.228
48.25000 188.498
48.26000 188.734
48.27000 188.970
48.28000 187.362
48.29000 184.029
48.30000 180.759
48.31000 182.033
48.32000 186.095
48.33000 189.999
48.34000 190.326
48.35000 189.171
48.36000 188.092
48.37000 189.565
48.38000 191.550
48.39000 193.177
48.40000 192.442
48.41000 191.275
48.42000 189.697
48.43000 186.370
48.44000 182.846
48.45000 180.200
48.46000 182.247
48.47000 184.072
48.48000 186.601
48.49000 190.487
48.50000 194.407
48.51000 194.540
48.52000 189.820
48.53000 185.088
48.54000 184.649
48.55000 187.737
48.56000 190.762
48.57000 190.790
48.58000 189.179
48.59000 187.634
48.60000 187.260
48.61000 187.320
48.62000 187.375
48.63000 195.544
48.64000 204.663
48.65000 211.049
48.66000 201.630
48.67000 189.674
48.68000 179.854
48.69000 178.091
48.70000 177.102
48.71000 176.383
48.72000 182.420
48.73000 187.320
48.74000 187.388
48.75000 179.170
48.76000 170.811
48.77000 169.408
48.78000 175.871
48.79000 182.320
48.80000 183.715
48.81000 181.447
48.82000 179.320
48.83000 181.953
48.84000 186.909
48.85000 191.554
48.86000 191.670
48.87000 190.291
48.88000 189.038
48.89000 184.711
48.90000 180.292
48.91000 177.169
48.92000 180.635
48.93000 185.022
48.94000 188.190
48.95000 187.267
48.96000 186.013
48.97000 185.132
48.98000 182.842
48.99000 181.068
49.00000 180.135
49.01000 180.485
49.02000 180.850
49.03000 180.835
49.04000 180.444
49.05000 180.056
49.06000 180.573
49.07000 181.659
49.08000 182.772
49.09000 184.564
49.10000 186.651
49.11000 188.600
49.12000 188.862
49.13000 188.628
49.14000 188.418
49.15000 193.419
49.16000 198.656
49.17000 202.141
49.18000 197.762
49.19000 192.432
49.20000 188.208
49.21000 187.294
49.22000 186.601
49.23000 186.133
49.24000 187.923
49.25000 189.304
49.26000 188.212
49.27000 183.772
49.28000 179.318
49.29000 178.545
49.30000 180.982
49.31000 183.390
49.32000 184.457
49.33000 184.743
49.34000 185.042
49.35000 185.594
49.36000 186.244
49.37000 186.892
49.38000 187.524
49.39000 188.152
49.40000 188.704
49.41000 187.801
49.42000 186.813
49.43000 185.770
49.44000 184.513
49.45000 183.233
49.46000 181.200
49.47000 177.156
49.48000 173.002
49.49000 170.310
49.50000 181.096
49.51000 189.192
49.52000 192.118
49.53000 188.856
49.54000 185.593
49.55000 185.033
49.56000 186.553
49.57000 188.047
49.58000 189.339
49.59000 190.489
49.60000 191.218
49.61000 185.252
49.62000 176.961
49.63000 170.104
49.64000 175.737
49.65000 184.268
49.66000 191.610
49.67000 187.847
49.68000 183.259
49.69000 179.891
49.70000 180.834
49.71000 182.154
49.72000 182.569
49.73000 180.824
49.74000 178.987
49.75000 177.849
49.76000 188.488
49.77000 196.253
49.78000 196.885
49.79000 190.007
49.80000 183.179
49.81000 182.115
49.82000 184.983
49.83000 187.783
49.84000 186.930
49.85000 184.512
49.86000 182.242
49.87000 181.931
49.88000 182.227
49.89000 182.553
49.90000 183.110
49.91000 183.715
49.92000 184.224
49.93000 184.510
49.94000 184.725
49.95000 184.677
49.96000 183.801
49.97000 182.864
49.98000 184.040
49.99000 189.716
50.00000 195.539
50.01000 198.975
50.02000 193.813
50.03000 190.122
50.04000 187.888
50.05000 186.999
50.06000 186.107
50.07000 185.035
50.08000 183.853
50.09000 182.709
50.10000 186.062
50.11000 190.977
50.12000 195.505
50.13000 195.778
50.14000 194.878
50.15000 193.990
50.16000 193.180
50.17000 192.384
50.18000 191.729
50.19000 188.553
50.20000 185.711
50.21000 184.051
50.22000 185.709
50.23000 187.565
50.24000 190.314
50.25000 194.756
50.26000 199.239
50.27000 201.747
50.28000 201.689
50.29000 201.650
50.30000 204.589
50.31000 209.949
50.32000 215.245
50.33000 217.625
50.34000 218.430
50.35000 219.203
50.36000 220.173
50.37000 221.148
50.38000 222.203
50.39000 224.015
50.40000 226.012
50.41000 227.625
50.42000 227.046
50.43000 226.120
50.44000 225.377
50.45000 237.353
50.46000 248.029
50.47000 257.095
50.48000 262.119
50.49000 266.950
50.50000 271.330
50.51000 274.944
50.52000 278.546
50.53000 280.446
50.54000 286.633
50.55000 290.852
50.56000 297.854
50.57000 306.859
50.58000 315.525
50.59000 313.192
50.60000 305.558
50.61000 298.307
50.62000 297.260
50.63000 298.162
50.64000 299.082
50.65000 300.153
50.66000 301.258
50.67000 301.734
50.68000 299.067
50.69000 295.966
50.70000 293.543
50.71000 288.283
50.72000 283.907
50.73000 280.287
50.74000 278.362
50.75000 276.500
50.76000 273.794
50.77000 269.815
50.78000 265.824
50.79000 262.772
50.80000 260.639
50.81000 258.473
50.82000 253.426
50.83000 246.540
50.84000 239.695
50.85000 233.867
50.86000 228.477
50.87000 223.417
50.88000 221.933
50.89000 221.527
50.90000 221.593
50.91000 224.933
50.92000 228.900
50.93000 230.656
50.94000 222.623
50.95000 213.426
50.96000 206.447
50.97000 203.454
50.98000 201.308
50.99000 197.647
51.00000 190.955
51.01000 184.179
51.02000 182.178
51.03000 186.554
51.04000 190.960
51.05000 195.244
51.06000 199.413
51.07000 203.446
51.08000 200.222
51.09000 192.871
51.10000 185.682
51.11000 181.601
51.12000 178.715
51.13000 176.042
51.14000 178.996
51.15000 182.963
51.16000 186.152
51.17000 184.633
51.18000 182.323
51.19000 180.270
51.20000 179.225
51.21000 178.282
51.22000 177.589
51.23000 177.686
51.24000 177.794
51.25000 177.818
51.26000 177.691
51.27000 177.561
51.28000 177.449
51.29000 177.358
51.30000 177.267
51.31000 174.968
51.32000 171.017
51.33000 167.085
51.34000 163.825
51.35000 160.906
51.36000 158.111
51.37000 157.248
51.38000 157.047
51.39000 156.863
51.40000 162.404
51.41000 168.487
51.42000 173.778
51.43000 174.860
51.44000 175.326
51.45000 175.727
51.46000 175.905
51.47000 176.063
51.48000 176.175
51.49000 169.778
51.50000 164.701
51.51000 162.435
51.52000 164.630
51.53000 166.882
51.54000 166.765
51.55000 164.188
51.56000 161.625
51.57000 164.368
51.58000 170.603
51.59000 176.595
51.60000 175.890
51.61000 172.153
51.62000 168.663
51.63000 168.359
51.64000 169.030
51.65000 169.633
51.66000 166.974
51.67000 164.068
51.68000 163.093
51.69000 171.149
51.70000 180.353
51.71000 186.181
51.72000 181.511
51.73000 176.089
51.74000 172.378
51.75000 170.575
51.76000 169.271
51.77000 166.508
51.78000 161.688
51.79000 156.854
51.80000 154.007
51.81000 152.970
51.82000 151.942
51.83000 154.459
51.84000 159.001
51.85000 163.383
51.86000 164.358
51.87000 163.955
51.88000 163.691
51.89000 164.918
51.90000 166.552
51.91000 167.995
51.92000 169.272
51.93000 170.348
51.94000 170.887
51.95000 169.205
51.96000 167.279
51.97000 166.186
51.98000 167.400
51.99000 168.749
52.00000 169.636
52.01000 165.898
52.02000 163.068
52.03000 160.113
52.04000 157.001
52.05000 153.905
52.06000 156.414
52.07000 163.420
52.08000 170.323
52.09000 173.739
52.10000 175.250
52.11000 176.446
52.12000 172.266
52.13000 166.146
52.14000 160.904
52.15000 163.734
52.16000 168.514
52.17000 172.657
52.18000 167.443
52.19000 161.764
52.20000 157.662
52.21000 159.358
52.22000 161.593
52.23000 162.544
52.24000 160.318
52.25000 157.943
52.26000 156.449
52.27000 164.549
52.28000 170.518
52.29000 172.975
52.30000 171.571
52.31000 170.172
52.32000 169.938
52.33000 170.533
52.34000 171.114
52.35000 172.065
52.36000 173.146
52.37000 173.864
52.38000 169.483
52.39000 163.459
52.40000 158.397
52.41000 160.907
52.42000 165.039
52.43000 168.546
52.44000 164.883
52.45000 160.996
52.46000 158.343
52.47000 159.732
52.48000 161.435
52.49000 165.049
52.50000 172.887
52.51000 180.878
52.52000 185.675
52.53000 182.768
52.54000 180.651
52.55000 177.331
52.56000 172.850
52.57000 168.399
52.58000 166.259
52.59000 165.578
52.60000 164.916
52.61000 167.290
52.62000 170.773
52.63000 173.601
52.64000 168.810
52.65000 161.833
52.66000 155.840
52.67000 156.565
52.68000 158.559
52.69000 160.214
52.70000 167.720
52.71000 174.490
52.72000 177.879
52.73000 171.397
52.74000 164.282
52.75000 159.056
52.76000 157.561
52.77000 156.166
52.78000 155.371
52.79000 157.972
52.80000 159.796
52.81000 161.378
52.82000 162.754
52.83000 164.123
52.84000 165.087
52.85000 165.825
52.86000 166.535
52.87000 167.186
52.88000 167.777
52.89000 167.931
52.90000 163.779
52.91000 158.530
52.92000 154.156
52.93000 154.996
52.94000 156.700
52.95000 158.080
52.96000 162.897
52.97000 167.099
52.98000 170.221
52.99000 170.528
53.00000 170.688
53.01000 170.123
53.02000 168.282
53.03000 166.416
53.04000 165.412
53.05000 158.816
53.06000 154.328
53.07000 154.944
53.08000 159.385
53.09000 163.687
53.10000 162.956
53.11000 159.703
53.12000 156.602
53.13000 155.466
53.14000 155.029
53.15000 154.881
53.16000 157.165
53.17000 160.000
53.18000 162.179
53.19000 160.929
53.20000 159.184
53.21000 157.807
53.22000 154.716
53.23000 152.121
53.24000 151.276
53.25000 154.503
53.26000 157.897
53.27000 160.884
53.28000 163.236
53.29000 165.580
53.30000 166.766
53.31000 166.163
53.32000 165.758
53.33000 165.157
53.34000 164.427
53.35000 163.841
53.36000 167.123
53.37000 172.134
53.38000 176.857
53.39000 173.843
53.40000 168.942
53.41000 164.389
53.42000 162.360
53.43000 160.835
53.44000 159.294
53.45000 157.678
53.46000 156.053
53.47000 154.807
53.48000 161.414
53.49000 167.068
53.50000 170.372
53.51000 168.796
53.52000 167.068
53.53000 164.112
53.54000 159.445
53.55000 154.768
53.56000 153.618
53.57000 155.631
53.58000 157.681
53.59000 161.984
53.60000 167.619
53.61000 172.786
53.62000 168.173
53.63000 159.655
53.64000 151.725
53.65000 151.516
53.66000 153.202
53.67000 155.042
53.68000 157.849
53.69000 160.827
53.70000 163.216
53.71000 163.195
53.72000 162.915
53.73000 162.707
53.74000 165.226
53.75000 167.306
53.76000 168.549
53.77000 168.240
53.78000 167.897
53.79000 165.781
53.80000 161.481
53.81000 157.183
53.82000 155.915
53.83000 157.039
53.84000 158.150
53.85000 158.675
53.86000 158.892
53.87000 159.001
53.88000 157.322
53.89000 155.005
53.90000 152.879
53.91000 153.100
53.92000 153.796
53.93000 155.218
53.94000 160.664
53.95000 166.729
53.96000 170.103
53.97000 163.710
53.98000 156.429
53.99000 151.193
54.00000 150.186
54.01000 149.563
54.02000 151.531
54.03000 157.780
54.04000 164.093
54.05000 165.889
54.06000 162.786
54.07000 159.695
54.08000 157.509
54.09000 155.973
54.10000 154.425
54.11000 152.501
54.12000 150.399
54.13000 148.990
54.14000 157.088
54.15000 168.209
54.16000 178.260
54.17000 174.565
54.18000 168.762
54.19000 163.350
54.20000 159.845
54.21000 156.596
54.22000 154.354
54.23000 155.369
54.24000 156.632
54.25000 157.508
54.26000 153.562
54.27000 150.463
54.28000 149.797
54.29000 152.704
54.30000 155.642
54.31000 157.312
54.32000 157.775
54.33000 158.235
54.34000 158.458
54.35000 158.531
54.36000 158.619
54.37000 159.039
54.38000 159.597
54.39000 160.091
54.40000 159.846
54.41000 159.390
54.42000 158.986
54.43000 158.153
54.44000 157.361
54.45000 157.515
54.46000 161.751
54.47000 166.457
54.48000 168.674
54.49000 163.715
54.50000 158.306
54.51000 154.699
54.52000 159.884
54.53000 163.893
54.54000 166.167
54.55000 166.182
54.56000 166.184
54.57000 164.080
54.58000 160.213
54.59000 156.396
54.60000 158.274
54.61000 163.176
54.62000 167.810
54.63000 167.519
54.64000 165.380
54.65000 163.196
54.66000 160.575
54.67000 157.844
54.68000 155.462
54.69000 156.165
54.70000 157.197
54.71000 158.706
54.72000 162.043
54.73000 165.560
54.74000 166.359
54.75000 160.167
54.76000 153.620
54.77000 149.437
54.78000 155.425
54.79000 159.917
54.80000 161.451
54.81000 159.587
54.82000 157.730
54.83000 158.052
54.84000 159.985
54.85000 161.882
54.86000 162.852
54.87000 163.344
54.88000 163.769
54.89000 163.197
54.90000 162.291
54.91000 161.779
54.92000 164.532
54.93000 168.012
54.94000 170.988
54.95000 167.155
54.96000 163.107
54.97000 160.812
54.98000 164.487
54.99000 168.656
55.00000 171.176
55.01000 169.908
55.02000 168.489
55.03000 167.623
55.04000 166.498
55.05000 165.691
55.06000 164.788
55.07000 163.786
55.08000 162.797
55.09000 162.999
55.10000 163.982
55.11000 164.940
55.12000 165.386
55.13000 165.596
55.14000 165.837
55.15000 166.468
55.16000 167.216
55.17000 167.644
55.18000 165.773
55.19000 163.450
55.20000 161.507
55.21000 163.632
55.22000 165.814
55.23000 167.765
55.24000 169.017
55.25000 170.221
55.26000 170.812
55.27000 170.143
55.28000 169.436
55.29000 169.026
55.30000 177.479
55.31000 183.446
55.32000 186.012
55.33000 185.567
55.34000 185.144
55.35000 186.043
55.36000 187.715
55.37000 189.329
55.38000 189.364
55.39000 188.810
55.40000 188.914
55.41000 195.888
55.42000 204.685
55.43000 212.271
55.44000 212.304
55.45000 211.030
55.46000 209.989
55.47000 214.265
55.48000 218.224
55.49000 223.933
55.50000 234.382
55.51000 245.096
55.52000 253.905
55.53000 259.225
55.54000 264.471
55.55000 267.352
55.56000 279.193
55.57000 287.355
55.58000 294.823
55.59000 301.750
55.60000 308.874
55.61000 323.914
55.62000 343.076
55.63000 361.409
55.64000 379.430
55.65000 396.112
55.66000 412.836
55.67000 429.924
55.68000 447.098
55.69000 462.735
55.70000 469.973
55.71000 475.938
55.72000 480.688
55.73000 507.933
55.74000 531.521
55.75000 552.994
55.76000 569.350
55.77000 585.479
55.78000 601.104
55.79000 615.905
55.80000 630.695
55.81000 638.340
55.82000 629.938
55.83000 624.341
55.84000 627.227
55.85000 635.986
55.86000 644.439
55.87000 643.864
55.88000 639.096
55.89000 634.583
55.90000 624.806
55.91000 614.293
55.92000 603.825
55.93000 593.704
55.94000 583.654
55.95000 573.399
55.96000 562.156
55.97000 550.782
55.98000 541.976
55.99000 524.672
56.00000 510.429
56.01000 495.378
56.02000 478.585
56.03000 461.732
56.04000 445.331
56.05000 429.583
56.06000 413.844
56.07000 397.621
56.08000 380.952
56.09000 364.280
56.10000 347.343
56.11000 330.244
56.12000 313.520
56.13000 305.298
56.14000 300.603
56.15000 296.213
56.16000 283.162
56.17000 269.114
56.18000 255.881
56.19000 248.060
56.20000 241.232
56.21000 234.706
56.22000 229.463
56.23000 224.365
56.24000 220.535
56.25000 209.639
56.26000 200.781
56.27000 195.017
56.28000 195.213
56.29000 195.559
56.30000 195.205
56.31000 193.955
56.32000 192.703
56.33000 191.212
56.34000 189.531
56.35000 187.826
56.36000 184.990
56.37000 181.535
56.38000 178.110
56.39000 175.214
56.40000 172.515
56.41000 170.025
56.42000 165.985
56.43000 162.020
56.44000 159.795
56.45000 167.652
56.46000 177.131
56.47000 183.769
56.48000 179.677
56.49000 174.551
56.50000 170.822
56.51000 168.519
56.52000 166.801
56.53000 164.886
56.54000 162.634
56.55000 160.375
56.56000 158.746
56.57000 157.830
56.58000 156.917
56.59000 158.898
56.60000 162.956
56.61000 166.715
56.62000 160.380
56.63000 149.112
56.64000 138.884
56.65000 143.875
56.66000 153.898
56.67000 163.005
56.68000 164.297
56.69000 163.919
56.70000 163.270
56.71000 161.245
56.72000 159.029
56.73000 157.934
56.74000 160.613
56.75000 163.599
56.76000 165.695
56.77000 163.810
56.78000 162.266
56.79000 159.744
56.80000 155.728
56.81000 151.695
56.82000 153.847
56.83000 162.151
56.84000 170.398
56.85000 168.616
56.86000 160.462
56.87000 152.473
56.88000 148.680
56.89000 146.719
56.90000 145.029
56.91000 146.630
56.92000 149.201
56.93000 151.499
56.94000 149.445
56.95000 146.919
56.96000 144.688
56.97000 143.786
56.98000 143.045
56.99000 142.261
57.00000 141.352
57.01000 140.435
57.02000 139.815
57.03000 146.103
57.04000 150.935
57.05000 154.679
57.06000 156.945
57.07000 159.199
57.08000 157.269
57.09000 151.686
57.10000 146.165
57.11000 148.338
57.12000 154.793
57.13000 160.898
57.14000 160.059
57.15000 156.513
57.16000 153.510
57.17000 156.062
57.18000 160.070
57.19000 163.589
57.20000 160.683
57.21000 157.244
57.22000 154.590
57.23000 155.065
57.24000 155.864
57.25000 155.240
57.26000 150.811
57.27000 146.174
57.28000 143.167
57.29000 153.599
57.30000 161.438
57.31000 162.279
57.32000 154.729
57.33000 147.179
57.34000 143.784
57.35000 143.593
57.36000 143.404
57.37000 148.488
57.38000 156.028
57.39000 163.075
57.40000 162.255
57.41000 158.697
57.42000 155.304
57.43000 153.354
57.44000 151.740
57.45000 150.350
57.46000 148.673
57.47000 147.216
57.48000 145.674
57.49000 143.829
57.50000 141.958
57.51000 141.176
57.52000 142.992
57.53000 144.920
57.54000 146.116
57.55000 149.262
57.56000 151.544
57.57000 150.468
57.58000 145.848
57.59000 141.245
57.60000 138.670
57.61000 137.482
57.62000 136.321
57.63000 136.883
57.64000 138.178
57.65000 139.547
57.66000 141.899
57.67000 144.556
57.68000 146.751
57.69000 145.472
57.70000 143.479
57.71000 141.799
57.72000 146.017
57.73000 150.175
57.74000 152.205
57.75000 147.525
57.76000 142.354
57.77000 138.081
57.78000 135.723
57.79000 133.428
57.80000 132.073
57.81000 140.400
57.82000 146.333
57.83000 149.657
57.84000 150.567
57.85000 151.455
57.86000 150.860
57.87000 149.365
57.88000 147.915
57.89000 143.624
57.90000 138.461
57.91000 133.583
57.92000 131.855
57.93000 130.996
57.94000 131.211
57.95000 138.430
57.96000 146.917
57.97000 153.907
57.98000 144.344
57.99000 134.963
58.00000 128.975
58.01000 132.534
58.02000 136.666
58.03000 138.688
58.04000 136.695
58.05000 134.605
58.06000 133.435
58.07000 143.905
58.08000 151.166
58.09000 150.422
58.10000 143.158
58.11000 136.015
58.12000 134.396
58.13000 135.767
58.14000 137.083
58.15000 138.736
58.16000 140.396
58.17000 142.099
58.18000 144.194
58.19000 146.385
58.20000 148.813
58.21000 152.595
58.22000 156.590
58.23000 159.800
58.24000 156.470
58.25000 153.269
58.26000 149.289
58.27000 143.354
58.28000 137.324
58.29000 134.195
58.30000 135.984
58.31000 137.855
58.32000 138.842
58.33000 142.795
58.34000 145.469
58.35000 146.486
58.36000 146.309
58.37000 146.087
58.38000 144.449
58.39000 142.127
58.40000 139.920
58.41000 140.687
58.42000 142.293
58.43000 143.455
58.44000 141.050
58.45000 137.872
58.46000 135.607
58.47000 137.937
58.48000 140.901
58.49000 143.218
58.50000 139.739
58.51000 136.594
58.52000 136.024
58.53000 141.230
58.54000 146.652
58.55000 148.673
58.56000 145.565
58.57000 142.404
58.58000 141.228
58.59000 141.996
58.60000 142.722
58.61000 139.900
58.62000 134.808
58.63000 130.006
58.64000 132.342
58.65000 137.754
58.66000 142.836
58.67000 141.215
58.68000 137.957
58.69000 135.192
58.70000 135.852
58.71000 137.168
58.72000 137.943
58.73000 136.322
58.74000 134.415
58.75000 132.967
58.76000 135.420
58.77000 137.549
58.78000 139.217
58.79000 139.961
58.80000 140.679
58.81000 139.510
58.82000 135.815
58.83000 132.110
58.84000 135.104
58.85000 143.850
58.86000 152.407
58.87000 150.759
58.88000 143.300
58.89000 136.111
58.90000 134.178
58.91000 134.268
58.92000 134.351
58.93000 135.209
58.94000 136.160
58.95000 136.909
58.96000 136.424
58.97000 135.731
58.98000 134.689
58.99000 132.271
59.00000 129.713
59.01000 127.832
59.02000 130.160
59.03000 132.135
59.04000 135.220
59.05000 140.286
59.06000 145.391
59.07000 148.210
59.08000 148.326
59.09000 148.437
59.10000 147.648
59.11000 146.183
59.12000 144.761
59.13000 144.968
59.14000 146.002
59.15000 146.954
59.16000 146.637
59.17000 145.882
59.18000 145.193
59.19000 142.311
59.20000 139.305
59.21000 136.515
59.22000 134.871
59.23000 133.395
59.24000 131.982
59.25000 130.790
59.26000 129.616
59.27000 128.782
59.28000 134.505
59.29000 139.072
59.30000 142.163
59.31000 142.909
59.32000 143.625
59.33000 141.716
59.34000 137.077
59.35000 132.464
59.36000 132.928
59.37000 136.769
59.38000 140.428
59.39000 139.035
59.40000 135.351
59.41000 131.653
59.42000 127.777
59.43000 123.845
59.44000 120.311
59.45000 126.004
59.46000 132.628
59.47000 138.136
59.48000 138.413
59.49000 138.024
59.50000 138.203
59.51000 140.152
59.52000 142.227
59.53000 143.649
59.54000 139.390
59.55000 136.064
59.56000 134.898
59.57000 136.781
59.58000 138.686
59.59000 140.569
59.60000 142.431
59.61000 144.276
59.62000 142.162
59.63000 137.765
59.64000 133.512
59.65000 132.331
59.66000 132.394
59.67000 132.845
59.68000 137.486
59.69000 143.271
59.70000 148.382
59.71000 146.142
59.72000 143.075
59.73000 140.532
59.74000 140.162
59.75000 140.029
59.76000 139.327
59.77000 137.043
59.78000 134.665
59.79000 133.101
59.80000 127.951
59.81000 124.096
59.82000 125.802
59.83000 134.460
59.84000 143.120
59.85000 144.916
59.86000 141.195
59.87000 137.530
59.88000 137.648
59.89000 139.724
59.90000 141.721
59.91000 142.353
59.92000 142.490
59.93000 142.293
59.94000 139.012
59.95000 134.984
59.96000 131.492
59.97000 130.970
59.98000 130.921
59.99000 131.525
60.00000 134.535
60.01000 137.770
60.02000 140.953
60.03000 144.007
60.04000 147.056
60.05000 148.976
60.06000 145.492
60.07000 142.910
60.08000 142.722
60.09000 145.174
60.10000 147.612
60.11000 147.922
60.12000 146.719
60.13000 145.541
60.14000 143.248
60.15000 140.534
60.16000 137.972
60.17000 137.525
60.18000 137.762
60.19000 137.757
60.20000 135.849
60.21000 133.532
60.22000 131.565
60.23000 134.017
60.24000 136.579
60.25000 137.608
60.26000 133.612
60.27000 129.223
60.28000 126.411
60.29000 127.089
60.30000 127.895
60.31000 128.379
60.32000 126.136
60.33000 124.523
60.34000 125.024
60.35000 127.568
60.36000 130.079
60.37000 129.955
60.38000 128.166
60.39000 126.429
60.40000 128.169
60.41000 131.230
60.42000 133.907
60.43000 132.090
60.44000 128.981
60.45000 126.482
60.46000 128.155
60.47000 130.617
60.48000 132.661
60.49000 132.387
60.50000 131.935
60.51000 131.790
60.52000 132.539
60.53000 133.345
60.54000 133.438
60.55000 132.121
60.56000 130.765
60.57000 129.992
60.58000 133.337
60.59000 135.684
60.60000 138.536
60.61000 141.818
60.62000 145.009
60.63000 143.503
60.64000 139.356
60.65000 135.362
60.66000 131.146
60.67000 127.108
60.68000 124.171
60.69000 132.099
60.70000 142.803
60.71000 151.210
60.72000 145.898
60.73000 138.309
60.74000 132.160
60.75000 132.575
60.76000 133.449
60.77000 135.104
60.78000 138.798
60.79000 142.598
60.80000 144.583
60.81000 143.369
60.82000 142.093
60.83000 141.406
60.84000 132.933
60.85000 127.159
60.86000 126.806
60.87000 130.524
60.88000 134.266
60.89000 138.891
60.90000 143.959
60.91000 148.792
60.92000 145.111
60.93000 139.017
60.94000 133.436
60.95000 132.193
60.96000 131.933
60.97000 132.505
60.98000 137.441
60.99000 143.009
61.00000 147.404
61.01000 140.606
61.02000 134.393
61.03000 131.196
61.04000 135.028
61.05000 139.147
61.06000 141.908
61.07000 142.536
61.08000 143.139
61.09000 143.444
61.10000 131.983
61.11000 124.369
61.12000 122.625
61.13000 124.791
61.14000 126.988
61.15000 130.048
61.16000 133.493
61.17000 136.741
61.18000 138.051
61.19000 138.713
61.20000 139.285
61.21000 139.205
61.22000 138.994
61.23000 139.055
61.24000 140.374
61.25000 141.850
61.26000 142.983
61.27000 144.755
61.28000 146.191
61.29000 146.441
61.30000 144.225
61.31000 141.931
61.32000 140.395
61.33000 139.913
61.34000 139.438
61.35000 137.687
61.36000 134.791
61.37000 131.941
61.38000 131.928
61.39000 133.595
61.40000 135.335
61.41000 138.600
61.42000 142.475
61.43000 146.083
61.44000 145.744
61.45000 144.477
61.46000 143.879
61.47000 147.528
61.48000 151.923
61.49000 156.133
61.50000 159.587
61.51000 162.959
61.52000 165.466
61.53000 180.438
61.54000 192.639
61.55000 206.282
61.56000 222.605
61.57000 238.988
61.58000 252.985
61.59000 264.039
61.60000 275.065
61.61000 287.614
61.62000 301.304
61.63000 314.853
61.64000 322.429
61.65000 326.853
61.66000 331.152
61.67000 333.368
61.68000 334.840
61.69000 336.191
61.70000 335.304
61.71000 334.036
61.72000 332.063
61.73000 326.173
61.74000 319.680
61.75000 313.873
61.76000 310.560
61.77000 307.475
61.78000 305.255
61.79000 281.288
61.80000 262.179
61.81000 244.141
61.82000 227.873
61.83000 211.632
61.84000 198.105
61.85000 187.528
61.86000 177.000
61.87000 168.223
61.88000 160.755
61.89000 153.381
61.90000 148.870
61.91000 145.708
61.92000 142.854
61.93000 144.242
61.94000 146.981
61.95000 149.458
61.96000 146.148
61.97000 142.158
61.98000 138.802
61.99000 138.543
62.00000 138.699
62.01000 138.904
62.02000 139.266
62.03000 139.640
62.04000 139.899
62.05000 142.960
62.06000 145.339
62.07000 145.907
62.08000 143.812
62.09000 141.693
62.10000 142.300
62.11000 145.507
62.12000 148.687
62.13000 149.921
62.14000 149.941
62.15000 149.892
62.16000 148.228
62.17000 145.885
62.18000 143.749
62.19000 143.988
62.20000 144.900
62.21000 145.712
62.22000 150.360
62.23000 155.014
62.24000 158.839
62.25000 159.080
62.26000 158.908
62.27000 157.848
62.28000 154.224
62.29000 150.439
62.30000 147.914
62.31000 146.996
62.32000 146.346
62.33000 144.582
62.34000 141.364
62.35000 138.150
62.36000 140.753
62.37000 148.231
62.38000 155.613
62.39000 154.708
62.40000 149.345
62.41000 144.169
62.42000 142.451
62.43000 142.032
62.44000 142.191
62.45000 147.964
62.46000 155.153
62.47000 161.426
62.48000 154.356
62.49000 146.441
62.50000 140.391
62.51000 141.487
62.52000 143.286
62.53000 144.447
62.54000 143.964
62.55000 143.397
62.56000 143.035
62.57000 142.805
62.58000 142.639
62.59000 142.570
62.60000 142.613
62.61000 142.656
62.62000 142.740
62.63000 142.855
62.64000 142.968
62.65000 145.801
62.66000 149.832
62.67000 153.530
62.68000 152.233
62.69000 149.263
62.70000 146.711
62.71000 147.643
62.72000 149.354
62.73000 150.817
62.74000 146.935
62.75000 143.020
62.76000 139.982
62.77000 139.935
62.78000 140.136
62.79000 141.193
62.80000 144.221
62.81000 147.327
62.82000 149.224
62.83000 145.041
62.84000 142.000
62.85000 140.099
62.86000 139.349
62.87000 138.607
62.88000 138.617
62.89000 139.121
62.90000 139.612
62.91000 140.753
62.92000 142.115
62.93000 143.779
62.94000 149.198
62.95000 155.739
62.96000 160.660
62.97000 153.954
62.98000 144.953
62.99000 137.421
63.00000 141.969
63.01000 146.987
63.02000 149.838
63.03000 146.106
63.04000 141.921
63.05000 140.036
63.06000 142.881
63.07000 145.867
63.08000 147.601
63.09000 147.067
63.10000 146.682
63.11000 146.150
63.12000 145.489
63.13000 144.849
63.14000 145.443
63.15000 146.760
63.16000 148.031
63.17000 145.345
63.18000 141.337
63.19000 138.048
63.20000 142.273
63.21000 148.496
63.22000 153.394
63.23000 150.012
63.24000 145.193
63.25000 141.255
63.26000 145.864
63.27000 150.377
63.28000 153.434
63.29000 152.544
63.30000 151.432
63.31000 151.626
63.32000 154.214
63.33000 156.853
63.34000 158.304
63.35000 158.686
63.36000 158.942
63.37000 157.791
63.38000 155.540
63.39000 153.211
63.40000 147.729
63.41000 140.603
63.42000 133.784
63.43000 136.718
63.44000 142.655
63.45000 148.563
63.46000 154.207
63.47000 159.788
63.48000 163.824
63.49000 159.399
63.50000 153.691
63.51000 149.145
63.52000 150.336
63.53000 151.712
63.54000 152.811
63.55000 153.242
63.56000 153.644
63.57000 153.485
63.58000 152.409
63.59000 151.321
63.60000 150.758
63.61000 155.464
63.62000 158.616
63.63000 159.057
63.64000 157.619
63.65000 156.248
63.66000 156.887
63.67000 158.461
63.68000 159.951
63.69000 158.469
63.70000 156.245
63.71000 154.231
63.72000 153.832
63.73000 153.769
63.74000 152.920
63.75000 148.274
63.76000 143.129
63.77000 139.143
63.78000 148.887
63.79000 157.442
63.80000 163.440
63.81000 163.907
63.82000 164.185
63.83000 161.645
63.84000 155.012
63.85000 148.347
63.86000 145.991
63.87000 147.685
63.88000 149.402
63.89000 152.853
63.90000 157.372
63.91000 161.605
63.92000 159.350
63.93000 154.397
63.94000 149.766
63.95000 154.459
63.96000 161.093
63.97000 166.579
63.98000 164.437
63.99000 160.894
64.00000 157.029
64.01000 151.794
64.02000 146.405
64.03000 142.353
64.04000 146.286
64.05000 149.747
64.06000 153.222
64.07000 156.725
64.08000 160.229
64.09000 164.039
64.10000 168.241
64.11000 172.440
64.12000 171.228
64.13000 165.559
64.14000 160.004
64.15000 159.840
64.16000 162.635
64.17000 165.288
64.18000 165.377
64.19000 164.513
64.20000 163.717
64.21000 163.680
64.22000 163.816
64.23000 164.243
64.24000 166.359
64.25000 168.747
64.26000 171.128
64.27000 173.478
64.28000 175.826
64.29000 177.535
64.30000 179.847
64.31000 181.649
64.32000 179.794
64.33000 171.646
64.34000 163.390
64.35000 160.617
64.36000 164.068
64.37000 167.513
64.38000 171.118
64.39000 174.807
64.40000 178.488
64.41000 181.851
64.42000 185.059
64.43000 187.808
64.44000 183.810
64.45000 177.578
64.46000 171.914
64.47000 166.027
64.48000 160.781
64.49000 157.057
64.50000 161.101
64.51000 166.236
64.52000 171.305
64.53000 176.153
64.54000 180.983
64.55000 184.377
64.56000 184.090
64.57000 183.765
64.58000 183.099
64.59000 181.910
64.60000 180.716
64.61000 179.112
64.62000 177.100
64.63000 175.102
64.64000 175.665
64.65000 177.857
64.66000 179.953
64.67000 179.610
64.68000 178.201
64.69000 177.147
64.70000 180.419
64.71000 184.967
64.72000 189.035
64.73000 186.017
64.74000 182.183
64.75000 179.557
64.76000 182.367
64.77000 185.837
64.78000 187.896
64.79000 185.724
64.80000 183.265
64.81000 181.603
64.82000 187.889
64.83000 192.743
64.84000 192.929
64.85000 186.775
64.86000 180.594
64.87000 183.247
64.88000 193.629
64.89000 203.895
64.90000 204.883
64.91000 200.612
64.92000 196.668
64.93000 199.230
64.94000 204.332
64.95000 208.873
64.96000 207.667
64.97000 204.952
64.98000 202.568
64.99000 202.214
65.00000 202.208
65.01000 203.302
65.02000 208.784
65.03000 214.723
65.04000 219.606
65.05000 221.660
65.06000 223.559
65.07000 224.791
65.08000 226.953
65.09000 228.550
65.10000 229.046
65.11000 228.219
65.12000 227.407
65.13000 230.625
65.14000 236.957
65.15000 243.184
65.16000 257.491
65.17000 275.358
65.18000 292.329
65.19000 294.932
65.20000 292.528
65.21000 291.401
65.22000 301.434
65.23000 314.067
65.24000 324.947
65.25000 326.282
65.26000 326.204
65.27000 328.155
65.28000 337.302
65.29000 347.082
65.30000 358.496
65.31000 373.817
65.32000 389.308
65.33000 398.920
65.34000 397.171
65.35000 395.803
65.36000 397.569
65.37000 402.649
65.38000 407.774
65.39000 418.078
65.40000 431.926
65.41000 445.452
65.42000 445.281
65.43000 439.091
65.44000 433.894
65.45000 441.809
65.46000 453.798
65.47000 464.213
65.48000 462.765
65.49000 458.872
65.50000 455.590
65.51000 454.652
65.52000 454.123
65.53000 450.960
65.54000 439.481
65.55000 427.391
65.56000 422.054
65.57000 431.142
65.58000 440.708
65.59000 446.361
65.60000 461.873
65.61000 472.884
65.62000 476.336
65.63000 472.786
65.64000 469.437
65.65000 479.798
65.66000 498.500
65.67000 516.623
65.68000 541.437
65.69000 567.525
65.70000 595.150
65.71000 639.766
65.72000 689.084
65.73000 742.162
65.74000 819.846
65.75000 901.994
65.76000 969.678
65.77000 1038.346
65.78000 1094.938
65.79000 1149.670
65.80000 1199.163
65.81000 1248.341
65.82000 1284.485
65.83000 1295.784
65.84000 1306.481
65.85000 1312.474
65.86000 1349.858
65.87000 1375.791
65.88000 1380.743
65.89000 1368.574
65.90000 1356.283
65.91000 1338.409
65.92000 1317.509
65.93000 1297.442
65.94000 1237.822
65.95000 1168.492
65.96000 1098.354
65.97000 1020.648
65.98000 941.082
65.99000 862.428
66.00000 788.992
66.01000 716.385
66.02000 658.037
66.03000 588.396
66.04000 531.076
66.05000 482.427
66.06000 455.587
66.07000 429.801
66.08000 408.587
66.09000 395.141
66.10000 381.824
66.11000 374.787
66.12000 349.641
66.13000 332.612
66.14000 325.035
66.15000 324.281
66.16000 323.576
66.17000 324.504
66.18000 326.222
66.19000 327.853
66.20000 324.245
66.21000 319.327
66.22000 315.266
66.23000 318.087
66.24000 322.407
66.25000 328.289
66.26000 342.035
66.27000 356.869
66.28000 368.471
66.29000 384.973
66.30000 398.459
66.31000 412.100
66.32000 426.089
66.33000 440.091
66.34000 453.862
66.35000 467.286
66.36000 480.705
66.37000 493.270
66.38000 504.995
66.39000 516.602
66.40000 518.200
66.41000 513.381
66.42000 508.794
66.43000 509.921
66.44000 513.516
66.45000 516.892
66.46000 509.612
66.47000 500.140
66.48000 491.469
66.49000 488.378
66.50000 486.359
66.51000 482.104
66.52000 467.911
66.53000 452.532
66.54000 440.849
66.55000 421.414
66.56000 405.734
66.57000 393.731
66.58000 389.102
66.59000 384.681
66.60000 378.186
66.61000 368.911
66.62000 359.629
66.63000 351.693
66.64000 344.932
66.65000 338.182
66.66000 331.976
66.67000 326.080
66.68000 320.705
66.69000 325.457
66.70000 334.113
66.71000 342.137
66.72000 344.361
66.73000 345.008
66.74000 345.699
66.75000 346.645
66.76000 347.635
66.77000 347.630
66.78000 343.706
66.79000 339.382
66.80000 336.200
66.81000 343.816
66.82000 350.156
66.83000 353.875
66.84000 352.907
66.85000 351.846
66.86000 350.583
66.87000 349.079
66.88000 347.579
66.89000 346.814
66.90000 346.611
66.91000 346.564
66.92000 352.408
66.93000 361.249
66.94000 369.528
66.95000 368.979
66.96000 365.391
66.97000 362.113
66.98000 363.271
66.99000 365.204
67.00000 367.652
67.01000 372.839
67.02000 378.430
67.03000 383.593
67.04000 387.259
67.05000 390.795
67.06000 393.310
67.07000 392.985
67.08000 392.646
67.09000 392.718
67.10000 393.444
67.11000 394.179
67.12000 392.243
67.13000 387.525
67.14000 382.831
67.15000 383.261
67.16000 387.102
67.17000 390.816
67.18000 390.992
67.19000 389.561
67.20000 388.595
67.21000 393.661
67.22000 400.578
67.23000 406.798
67.24000 408.619
67.25000 409.431
67.26000 410.334
67.27000 411.667
67.28000 413.055
67.29000 414.886
67.30000 418.100
67.31000 421.414
67.32000 423.685
67.33000 432.426
67.34000 439.130
67.35000 444.401
67.36000 447.645
67.37000 450.875
67.38000 454.107
67.39000 457.343
67.40000 460.547
67.41000 454.649
67.42000 443.513
67.43000 432.889
67.44000 433.297
67.45000 438.179
67.46000 443.443
67.47000 452.851
67.48000 463.390
67.49000 472.704
67.50000 468.418
67.51000 462.615
67.52000 458.794
67.53000 463.212
67.54000 468.533
67.55000 471.749
67.56000 469.104
67.57000 466.114
67.58000 464.146
67.59000 463.633
67.60000 463.280
67.61000 466.099
67.62000 472.894
67.63000 479.697
67.64000 485.342
67.65000 490.055
67.66000 494.698
67.67000 495.141
67.68000 493.389
67.69000 491.928
67.70000 495.476
67.71000 500.839
67.72000 505.750
67.73000 506.502
67.74000 506.246
67.75000 506.023
67.76000 513.731
67.77000 521.350
67.78000 527.919
67.79000 530.610
67.80000 532.941
67.81000 534.031
67.82000 532.041
67.83000 529.906
67.84000 528.560
67.85000 537.162
67.86000 543.502
67.87000 546.549
67.88000 545.959
67.89000 545.362
67.90000 543.936
67.91000 541.922
67.92000 539.949
67.93000 545.418
67.94000 554.088
67.95000 562.472
67.96000 566.815
67.97000 569.853
67.98000 573.117
67.99000 578.169
68.00000 583.605
68.01000 588.222
68.02000 596.140
68.03000 603.162
68.04000 607.441
68.05000 602.709
68.06000 597.272
68.07000 597.462
68.08000 610.139
68.09000 623.272
68.10000 631.166
68.11000 627.199
68.12000 624.299
68.13000 631.732
68.14000 649.172
68.15000 666.448
68.16000 670.599
68.17000 666.444
68.18000 662.407
68.19000 668.622
68.20000 678.683
68.21000 687.246
68.22000 678.253
68.23000 664.208
68.24000 652.228
68.25000 654.418
68.26000 659.293
68.27000 663.342
68.28000 685.392
68.29000 705.375
68.30000 722.044
68.31000 729.010
68.32000 735.349
68.33000 739.455
68.34000 739.136
68.35000 738.696
68.36000 738.446
68.37000 754.518
68.38000 765.788
68.39000 778.272
68.40000 791.792
68.41000 805.118
68.42000 808.379
68.43000 805.968
68.44000 803.646
68.45000 812.710
68.46000 825.296
68.47000 837.389
68.48000 844.592
68.49000 850.545
68.50000 857.393
68.51000 869.603
68.52000 882.704
68.53000 893.324
68.54000 918.344
68.55000 939.906
68.56000 968.029
68.57000 1013.303
68.58000 1059.471
68.59000 1099.808
68.60000 1129.841
68.61000 1159.678
68.62000 1175.769
68.63000 1268.395
68.64000 1331.827
68.65000 1395.438
68.66000 1459.186
68.67000 1523.251
68.68000 1598.880
68.69000 1680.321
68.70000 1757.990
68.71000 1819.481
68.72000 1871.431
68.73000 1926.362
68.74000 2006.528
68.75000 2092.419
68.76000 2172.544
68.77000 2222.378
68.78000 2267.819
68.79000 2303.697
68.80000 2417.554
68.81000 2514.226
68.82000 2616.329
68.83000 2731.112
68.84000 2846.415
68.85000 3001.634
68.86000 3219.640
68.87000 3438.410
68.88000 3549.275
68.89000 4282.534
68.90000 4778.181
68.91000 5742.772
68.92000 7020.182
68.93000 8343.797
68.94000 10920.199
68.95000 14058.604
68.96000 17018.109
68.97000 22208.441
68.98000 27582.893
68.99000 33081.184
69.00000 39484.094
69.01000 46068.355
69.02000 52492.137
69.03000 58172.406
69.04000 63759.297
69.05000 68046.547
69.06000 72091.648
69.07000 75274.813
69.08000 77659.172
69.09000 78378.531
69.10000 79046.008
69.11000 79658.344
69.12000 80193.672
69.13000 80728.297
69.14000 81404.195
69.15000 82206.617
69.16000 83004.273
69.17000 83505.906
69.18000 83831.898
69.19000 84072.563
69.20000 82517.117
69.21000 80242.094
69.22000 78123.602
69.23000 74252.219
69.24000 70324.078
69.25000 66397.227
69.26000 62478.609
69.27000 58561.441
69.28000 54820.625
69.29000 51803.230
69.30000 48863.824
69.31000 46676.625
69.32000 44656.648
69.33000 43092.609
69.34000 41681.051
69.35000 40553.078
69.36000 39431.477
69.37000 38087.805
69.38000 36469.633
69.39000 34853.609
69.40000 32535.465
69.41000 29672.762
69.42000 26803.174
69.43000 23642.773
69.44000 20328.607
69.45000 17052.406
69.46000 14415.684
69.47000 12007.706
69.48000 9796.515
69.49000 8026.681
69.50000 6542.009
69.51000 5165.250
69.52000 4388.913
69.53000 3705.192
69.54000 3096.808
69.55000 2762.920
69.56000 2454.159
69.57000 2231.941
69.58000 2052.367
69.59000 1916.368
69.60000 1803.392
69.61000 1728.571
69.62000 1654.325
69.63000 1586.391
69.64000 1525.330
69.65000 1464.538
69.66000 1413.732
69.67000 1370.404
69.68000 1327.150
69.69000 1286.161
69.70000 1246.240
69.71000 1207.489
69.72000 1184.880
69.73000 1167.422
69.74000 1151.635
69.75000 1126.090
69.76000 1101.789
69.77000 1078.281
69.78000 1058.658
69.79000 1039.555
69.80000 1019.621
69.81000 996.990
69.82000 974.152
69.83000 958.298
69.84000 940.732
69.85000 927.454
69.86000 911.241
69.87000 890.705
69.88000 870.132
69.89000 859.837
69.90000 859.357
69.91000 858.880
69.92000 850.642
69.93000 837.783
69.94000 824.780
69.95000 808.392
69.96000 790.578
69.97000 774.012
69.98000 771.797
69.99000 773.661
70.00000 775.319
