20.00000 567.209
20.01000 571.745
20.02000 576.929
20.03000 578.935
20.04000 568.551
20.05000 556.919
20.06000 548.384
20.07000 560.332
20.08000 570.395
20.09000 576.938
20.10000 577.249
20.11000 577.441
20.12000 573.973
20.13000 566.216
20.14000 558.474
20.15000 555.527
20.16000 556.190
20.17000 557.000
20.18000 563.212
20.19000 572.145
20.20000 580.458
20.21000 579.191
20.22000 574.662
20.23000 570.529
20.24000 553.648
20.25000 536.103
20.26000 522.910
20.27000 532.634
20.28000 545.690
20.29000 557.920
20.30000 567.284
20.31000 576.404
20.32000 582.871
20.33000 567.202
20.34000 554.592
20.35000 550.942
20.36000 561.415
20.37000 572.061
20.38000 569.593
20.39000 553.616
20.40000 537.730
20.41000 534.848
20.42000 540.582
20.43000 546.200
20.44000 548.670
20.45000 549.725
20.46000 550.917
20.47000 553.850
20.48000 557.311
20.49000 560.420
20.50000 553.817
20.51000 546.333
20.52000 541.992
20.53000 552.248
20.54000 564.342
20.55000 572.151
20.56000 566.729
20.57000 560.370
20.58000 556.027
20.59000 551.597
20.60000 548.281
20.61000 547.568
20.62000 550.501
20.63000 553.457
20.64000 555.959
20.65000 558.049
20.66000 560.119
20.67000 557.285
20.68000 551.657
20.69000 546.544
20.70000 552.322
20.71000 562.474
20.72000 571.516
20.73000 568.692
20.74000 562.660
20.75000 557.338
20.76000 553.833
20.77000 551.086
20.78000 548.038
20.79000 543.750
20.80000 539.327
20.81000 538.093
20.82000 545.648
20.83000 553.710
20.84000 558.998
20.85000 556.876
20.86000 555.191
20.87000 555.277
20.88000 557.556
20.89000 559.830
20.90000 558.357
20.91000 553.902
20.92000 549.514
20.93000 546.750
20.94000 544.904
20.95000 543.365
20.96000 547.034
20.97000 552.569
20.98000 557.703
20.99000 559.195
21.00000 559.812
21.01000 560.347
21.02000 568.131
21.03000 575.705
21.04000 578.974
21.05000 566.527
21.06000 552.637
21.07000 544.610
21.08000 551.012
21.09000 558.078
21.10000 562.514
21.11000 562.988
21.12000 563.287
21.13000 562.146
21.14000 559.432
21.15000 556.715
21.16000 553.557
21.17000 550.088
21.18000 546.693
21.19000 550.037
21.20000 556.306
21.21000 561.749
21.22000 555.760
21.23000 546.113
21.24000 537.858
21.25000 540.468
21.26000 545.387
21.27000 549.557
21.28000 552.811
21.29000 555.435
21.30000 556.926
21.31000 554.733
21.32000 552.257
21.33000 551.155
21.34000 553.076
21.35000 555.104
21.36000 556.317
21.37000 543.046
21.38000 533.534
21.39000 533.602
21.40000 542.842
21.41000 552.017
21.42000 556.247
21.43000 557.379
21.44000 558.479
21.45000 561.169
21.46000 564.359
21.47000 566.756
21.48000 559.983
21.49000 550.597
21.50000 542.031
21.51000 539.015
21.52000 537.038
21.53000 535.400
21.54000 537.785
21.55000 540.140
21.56000 541.020
21.57000 537.624
21.58000 533.957
21.59000 532.241
21.60000 534.351
21.61000 536.562
21.62000 537.818
21.63000 548.852
21.64000 556.565
21.65000 563.714
21.66000 570.386
21.67000 576.792
21.68000 569.875
21.69000 555.527
21.70000 541.717
21.71000 537.669
21.72000 537.324
21.73000 537.673
21.74000 544.806
21.75000 553.656
21.76000 560.921
21.77000 558.816
21.78000 555.171
21.79000 552.223
21.80000 554.960
21.81000 557.644
21.82000 559.587
21.83000 559.611
21.84000 559.537
21.85000 559.284
21.86000 558.718
21.87000 558.147
21.88000 557.841
21.89000 569.552
21.90000 577.559
21.91000 585.760
21.92000 594.105
21.93000 602.230
21.94000 602.555
21.95000 599.001
21.96000 595.614
21.97000 599.977
21.98000 606.439
21.99000 614.056
22.00000 631.329
22.01000 650.770
22.02000 666.793
22.03000 665.064
22.04000 660.792
22.05000 657.427
22.06000 665.209
22.07000 672.190
22.08000 676.225
22.09000 673.450
22.10000 670.402
22.11000 667.312
22.12000 664.156
22.13000 661.000
22.14000 659.410
22.15000 651.987
22.16000 646.987
22.17000 638.150
22.18000 626.780
22.19000 615.893
22.20000 617.775
22.21000 625.328
22.22000 632.443
22.23000 625.979
22.24000 616.335
22.25000 606.794
22.26000 597.994
22.27000 589.342
22.28000 581.571
22.29000 577.843
22.30000 574.616
22.31000 572.146
22.32000 559.796
22.33000 549.509
22.34000 543.055
22.35000 544.509
22.36000 546.202
22.37000 548.062
22.38000 550.150
22.39000 552.239
22.40000 560.157
22.41000 573.253
22.42000 586.094
22.43000 583.630
22.44000 572.178
22.45000 560.876
22.46000 552.641
22.47000 545.622
22.48000 539.095
22.49000 533.310
22.50000 528.264
22.51000 524.834
22.52000 531.545
22.53000 540.025
22.54000 547.349
22.55000 549.984
22.56000 552.120
22.57000 553.705
22.58000 550.889
22.59000 548.508
22.60000 546.587
22.61000 545.511
22.62000 544.454
22.63000 541.766
22.64000 537.086
22.65000 532.410
22.66000 527.650
22.67000 522.848
22.68000 518.156
22.69000 517.987
22.70000 520.186
22.71000 522.373
22.72000 524.358
22.73000 526.270
22.74000 528.024
22.75000 521.958
22.76000 514.901
22.77000 509.865
22.78000 515.948
22.79000 523.725
22.80000 529.258
22.81000 526.695
22.82000 523.403
22.83000 521.040
22.84000 523.514
22.85000 525.571
22.86000 523.837
22.87000 515.884
22.88000 507.841
22.89000 507.255
22.90000 514.695
22.91000 522.104
22.92000 525.844
22.93000 527.018
22.94000 527.928
22.95000 520.913
22.96000 510.196
22.97000 500.783
22.98000 509.057
22.99000 522.917
23.00000 535.433
23.01000 526.304
23.02000 514.291
23.03000 504.577
23.04000 505.998
23.05000 508.891
23.06000 513.015
23.07000 521.085
23.08000 529.454
23.09000 535.244
23.10000 520.987
23.11000 509.742
23.12000 503.610
23.13000 504.935
23.14000 506.322
23.15000 506.091
23.16000 504.332
23.17000 502.588
23.18000 497.069
23.19000 489.359
23.20000 482.419
23.21000 493.151
23.22000 511.255
23.23000 527.836
23.24000 527.156
23.25000 521.621
23.26000 516.707
23.27000 513.537
23.28000 511.068
23.29000 509.341
23.30000 510.791
23.31000 512.603
23.32000 513.755
23.33000 513.016
23.34000 512.160
23.35000 511.590
23.36000 507.473
23.37000 504.360
23.38000 504.063
23.39000 507.401
23.40000 510.747
23.41000 510.523
23.42000 507.336
23.43000 504.190
23.44000 506.952
23.45000 512.805
23.46000 518.442
23.47000 520.139
23.48000 520.368
23.49000 520.685
23.50000 521.845
23.51000 523.216
23.52000 524.410
23.53000 519.588
23.54000 514.634
23.55000 509.901
23.56000 506.005
23.57000 502.190
23.58000 500.324
23.59000 503.442
23.60000 506.809
23.61000 508.954
23.62000 503.207
23.63000 498.927
23.64000 497.516
23.65000 499.375
23.66000 501.237
23.67000 503.129
23.68000 505.044
23.69000 506.922
23.70000 510.973
23.71000 515.904
23.72000 520.599
23.73000 521.801
23.74000 521.843
23.75000 521.126
23.76000 514.182
23.77000 505.857
23.78000 498.749
23.79000 499.323
23.80000 500.720
23.81000 503.072
23.82000 508.651
23.83000 514.494
23.84000 517.226
23.85000 512.853
23.86000 508.203
23.87000 505.374
23.88000 518.246
23.89000 527.563
23.90000 534.337
23.91000 538.565
23.92000 542.728
23.93000 540.784
23.94000 534.862
23.95000 529.095
23.96000 526.444
23.97000 525.221
23.98000 523.994
23.99000 522.710
24.00000 521.408
24.01000 519.621
24.02000 514.385
24.03000 508.475
24.04000 503.538
24.05000 508.504
24.06000 513.629
24.07000 520.098
24.08000 530.618
24.09000 541.413
24.10000 548.382
24.11000 547.553
24.12000 546.495
24.13000 545.883
24.14000 521.729
24.15000 504.716
24.16000 502.942
24.17000 514.558
24.18000 525.998
24.19000 527.323
24.20000 522.783
24.21000 518.400
24.22000 518.674
24.23000 520.651
24.24000 522.200
24.25000 519.330
24.26000 515.294
24.27000 511.164
24.28000 506.449
24.29000 501.632
24.30000 497.704
24.31000 499.155
24.32000 500.802
24.33000 502.135
24.34000 502.628
24.35000 503.074
24.36000 502.540
24.37000 500.222
24.38000 497.867
24.39000 496.578
24.40000 491.053
24.41000 487.254
24.42000 484.722
24.43000 483.174
24.44000 481.758
24.45000 485.564
24.46000 492.071
24.47000 498.292
24.48000 498.607
24.49000 496.978
24.50000 495.682
24.51000 497.311
24.52000 499.625
24.53000 502.541
24.54000 508.725
24.55000 515.399
24.56000 520.705
24.57000 505.443
24.58000 491.683
24.59000 482.351
24.60000 483.653
24.61000 485.419
24.62000 485.322
24.63000 482.209
24.64000 479.055
24.65000 477.431
24.66000 483.339
24.67000 487.321
24.68000 491.657
24.69000 496.236
24.70000 500.383
24.71000 491.992
24.72000 477.815
24.73000 464.407
24.74000 462.510
24.75000 464.068
24.76000 466.185
24.77000 472.537
24.78000 479.766
24.79000 485.968
24.80000 487.262
24.81000 487.917
24.82000 488.424
24.83000 479.440
24.84000 471.756
24.85000 467.642
24.86000 471.181
24.87000 474.978
24.88000 476.150
24.89000 473.546
24.90000 470.913
24.91000 471.751
24.92000 475.818
24.93000 479.859
24.94000 482.091
24.95000 483.219
24.96000 484.324
24.97000 484.894
24.98000 485.245
24.99000 485.572
25.00000 487.894
25.01000 490.503
25.02000 492.356
25.03000 489.240
25.04000 485.218
25.05000 481.442
25.06000 478.702
25.07000 476.079
25.08000 474.111
25.09000 482.770
25.10000 490.037
25.11000 493.369
25.12000 489.170
25.13000 484.787
25.14000 483.832
25.15000 487.247
25.16000 490.673
25.17000 485.858
25.18000 474.329
25.19000 462.948
25.20000 458.343
25.21000 457.425
25.22000 456.728
25.23000 459.944
25.24000 464.599
25.25000 468.890
25.26000 474.516
25.27000 479.848
25.28000 483.537
25.29000 477.787
25.30000 470.531
25.31000 465.444
25.32000 468.496
25.33000 472.325
25.34000 475.104
25.35000 466.572
25.36000 459.590
25.37000 458.334
25.38000 466.849
25.39000 475.527
25.40000 482.217
25.41000 486.670
25.42000 491.105
25.43000 490.146
25.44000 485.319
25.45000 480.689
25.46000 482.582
25.47000 487.641
25.48000 491.704
25.49000 481.335
25.50000 466.229
25.51000 452.514
25.52000 453.634
25.53000 457.487
25.54000 460.706
25.55000 460.720
25.56000 460.289
25.57000 459.507
25.58000 457.548
25.59000 455.496
25.60000 454.058
25.61000 456.653
25.62000 458.732
25.63000 462.225
25.64000 467.866
25.65000 473.529
25.66000 474.757
25.67000 471.609
25.68000 468.482
25.69000 468.066
25.70000 469.373
25.71000 470.664
25.72000 471.580
25.73000 472.332
25.74000 472.433
25.75000 464.696
25.76000 454.667
25.77000 445.710
25.78000 457.006
25.79000 470.244
25.80000 479.519
25.81000 471.099
25.82000 460.555
25.83000 453.750
25.84000 458.070
25.85000 463.129
25.86000 466.540
25.87000 458.542
25.88000 452.350
25.89000 450.336
25.90000 453.946
25.91000 457.589
25.92000 464.123
25.93000 473.162
25.94000 482.097
25.95000 483.173
25.96000 479.829
25.97000 476.358
25.98000 470.373
25.99000 463.415
26.00000 457.154
26.01000 457.954
26.02000 460.593
26.03000 462.907
26.04000 457.371
26.05000 451.475
26.06000 448.158
26.07000 455.042
26.08000 462.973
26.09000 466.187
26.10000 456.873
26.11000 446.884
26.12000 440.422
26.13000 456.446
26.14000 468.495
26.15000 471.907
26.16000 465.039
26.17000 458.172
26.18000 455.741
26.19000 456.706
26.20000 457.653
26.21000 459.087
26.22000 460.712
26.23000 462.063
26.24000 459.079
26.25000 454.597
26.26000 450.661
26.27000 451.443
26.28000 453.313
26.29000 454.922
26.30000 456.362
26.31000 457.560
26.32000 457.695
26.33000 454.092
26.34000 450.164
26.35000 448.554
26.36000 452.442
26.37000 456.564
26.38000 459.112
26.39000 456.033
26.40000 453.767
26.41000 451.986
26.42000 450.713
26.43000 449.454
26.44000 449.840
26.45000 451.342
26.46000 452.808
26.47000 452.770
26.48000 452.079
26.49000 451.963
26.50000 459.358
26.51000 469.067
26.52000 476.347
26.53000 465.514
26.54000 450.985
26.55000 438.754
26.56000 443.481
26.57000 449.238
26.58000 452.970
26.59000 450.361
26.60000 447.292
26.61000 448.092
26.62000 457.086
26.63000 466.347
26.64000 471.799
26.65000 470.526
26.66000 469.592
26.67000 468.605
26.68000 467.567
26.69000 466.465
26.70000 461.010
26.71000 452.931
26.72000 445.108
26.73000 444.213
26.74000 446.035
26.75000 447.863
26.76000 449.755
26.77000 451.665
26.78000 453.941
26.79000 458.593
26.80000 463.672
26.81000 467.849
26.82000 465.170
26.83000 462.347
26.84000 460.657
26.85000 462.132
26.86000 463.796
26.87000 461.565
26.88000 451.973
26.89000 442.207
26.90000 436.759
26.91000 432.542
26.92000 429.643
26.93000 432.433
26.94000 439.823
26.95000 447.147
26.96000 451.503
26.97000 454.265
26.98000 456.915
26.99000 447.546
27.00000 434.708
27.01000 423.771
27.02000 430.448
27.03000 441.418
27.04000 451.254
27.05000 454.667
27.06000 457.070
27.07000 458.997
27.08000 446.001
27.09000 434.346
27.10000 427.560
27.11000 432.923
27.12000 438.862
27.13000 441.340
27.14000 437.985
27.15000 434.537
27.16000 432.723
27.17000 437.395
27.18000 440.539
27.19000 439.509
27.20000 435.493
27.21000 431.558
27.22000 430.236
27.23000 430.167
27.24000 430.101
27.25000 433.607
27.26000 437.914
27.27000 442.049
27.28000 444.821
27.29000 447.298
27.30000 448.413
27.31000 442.733
27.32000 436.124
27.33000 430.965
27.34000 438.980
27.35000 446.200
27.36000 449.407
27.37000 443.676
27.38000 437.616
27.39000 434.465
27.40000 435.672
27.41000 436.922
27.42000 433.573
27.43000 425.751
27.44000 418.048
27.45000 420.062
27.46000 428.251
27.47000 436.227
27.48000 439.015
27.49000 439.581
27.50000 440.113
27.51000 440.831
27.52000 441.535
27.53000 442.456
27.54000 444.878
27.55000 447.584
27.56000 449.530
27.57000 448.120
27.58000 446.314
27.59000 444.945
27.60000 434.079
27.61000 425.061
27.62000 421.551
27.63000 428.992
27.64000 436.734
27.65000 442.726
27.66000 446.393
27.67000 450.045
27.68000 453.004
27.69000 455.365
27.70000 457.789
27.71000 463.517
27.72000 471.114
27.73000 477.952
27.74000 470.252
27.75000 456.994
27.76000 444.717
27.77000 444.466
27.78000 447.019
27.79000 448.769
27.80000 445.688
27.81000 441.800
27.82000 438.901
27.83000 439.863
27.84000 441.214
27.85000 442.206
27.86000 443.031
27.87000 443.662
27.88000 443.921
27.89000 443.520
27.90000 443.105
27.91000 442.084
27.92000 440.350
27.93000 438.620
27.94000 434.292
27.95000 428.044
27.96000 422.153
27.97000 429.397
27.98000 443.266
27.99000 456.241
28.00000 455.375
28.01000 449.785
28.02000 444.683
28.03000 440.954
28.04000 437.922
28.05000 434.804
28.06000 431.222
28.07000 427.574
28.08000 426.418
28.09000 433.920
28.10000 442.160
28.11000 448.005
28.12000 442.136
28.13000 437.303
28.14000 435.244
28.15000 437.567
28.16000 439.944
28.17000 442.770
28.18000 446.059
28.19000 449.330
28.20000 445.878
28.21000 438.029
28.22000 430.459
28.23000 430.528
28.24000 434.037
28.25000 437.560
28.26000 441.271
28.27000 445.039
28.28000 448.423
28.29000 438.925
28.30000 428.345
28.31000 419.738
28.32000 420.309
28.33000 422.039
28.34000 425.689
28.35000 435.281
28.36000 445.294
28.37000 452.137
28.38000 440.644
28.39000 431.614
28.40000 428.778
28.41000 434.632
28.42000 440.539
28.43000 437.299
28.44000 425.781
28.45000 414.375
28.46000 417.393
28.47000 428.758
28.48000 439.378
28.49000 434.176
28.50000 422.611
28.51000 411.971
28.52000 411.241
28.53000 413.196
28.54000 414.921
28.55000 417.638
28.56000 420.133
28.57000 422.244
28.58000 422.775
28.59000 423.134
28.60000 420.335
28.61000 408.817
28.62000 396.795
28.63000 388.904
28.64000 402.013
28.65000 412.008
28.66000 415.313
28.67000 410.314
28.68000 405.311
28.69000 406.930
28.70000 413.833
28.71000 420.631
28.72000 423.839
28.73000 425.101
28.74000 426.562
28.75000 431.405
28.76000 437.463
28.77000 442.515
28.78000 438.399
28.79000 432.078
28.80000 426.605
28.81000 419.188
28.82000 412.624
28.83000 408.781
28.84000 414.894
28.85000 421.923
28.86000 425.417
28.87000 420.196
28.88000 414.573
28.89000 411.040
28.90000 415.750
28.91000 419.246
28.92000 418.958
28.93000 414.531
28.94000 410.102
28.95000 405.677
28.96000 401.255
28.97000 396.927
28.98000 398.753
28.99000 403.303
29.00000 407.689
29.01000 409.787
29.02000 411.152
29.03000 411.835
29.04000 407.170
29.05000 401.367
29.06000 396.446
29.07000 408.627
29.08000 420.769
29.09000 428.926
29.10000 424.106
29.11000 418.284
29.12000 413.956
29.13000 412.915
29.14000 411.991
29.15000 411.438
29.16000 411.505
29.17000 411.556
29.18000 412.564
29.19000 414.490
29.20000 416.421
29.21000 418.778
29.22000 421.402
29.23000 423.951
29.24000 421.234
29.25000 416.539
29.26000 412.091
29.27000 410.492
29.28000 409.706
29.29000 409.005
29.30000 408.877
29.31000 408.856
29.32000 408.839
29.33000 410.709
29.34000 412.436
29.35000 414.166
29.36000 415.907
29.37000 417.648
29.38000 416.932
29.39000 411.387
29.40000 405.714
29.41000 402.489
29.42000 413.674
29.43000 421.504
29.44000 425.688
29.45000 426.795
29.46000 427.748
29.47000 420.965
29.48000 409.859
29.49000 399.169
29.50000 402.839
29.51000 411.372
29.52000 419.083
29.53000 418.746
29.54000 416.368
29.55000 415.050
29.56000 420.014
29.57000 426.011
29.58000 430.864
29.59000 429.157
29.60000 427.239
29.61000 425.150
29.62000 422.618
29.63000 420.062
29.64000 416.005
29.65000 409.318
29.66000 402.583
29.67000 398.966
29.68000 409.262
29.69000 416.288
29.70000 420.036
29.71000 421.340
29.72000 422.615
29.73000 422.855
29.74000 422.580
29.75000 422.317
29.76000 420.491
29.77000 418.310
29.78000 416.292
29.79000 415.644
29.80000 415.303
29.81000 415.255
29.82000 416.730
29.83000 418.423
29.84000 419.757
29.85000 415.009
29.86000 410.794
29.87000 409.657
29.88000 415.642
29.89000 421.914
29.90000 425.604
29.91000 425.267
29.92000 424.883
29.93000 424.689
29.94000 435.790
29.95000 443.164
29.96000 445.716
29.97000 445.081
29.98000 444.295
29.99000 439.492
30.00000 432.902
30.01000 426.693
30.02000 428.269
30.03000 431.854
30.04000 435.871
30.05000 443.016
30.06000 450.781
30.07000 454.991
30.08000 442.881
30.09000 428.742
30.10000 417.917
30.11000 422.843
30.12000 427.595
30.13000 430.258
30.14000 428.602
30.15000 426.815
30.16000 424.235
30.17000 420.557
30.18000 416.873
30.19000 416.628
30.20000 419.448
30.21000 422.243
30.22000 423.521
30.23000 423.907
30.24000 424.263
30.25000 424.019
30.26000 423.536
30.27000 423.087
30.28000 427.676
30.29000 433.039
30.30000 436.851
30.31000 430.905
30.32000 423.254
30.33000 418.162
30.34000 423.475
30.35000 429.896
30.36000 434.662
30.37000 432.638
30.38000 430.767
30.39000 429.527
30.40000 429.455
30.41000 429.408
30.42000 432.190
30.43000 438.438
30.44000 444.683
30.45000 440.056
30.46000 426.935
30.47000 414.062
30.48000 411.364
30.49000 414.001
30.50000 416.405
30.51000 414.957
30.52000 412.142
30.53000 409.560
30.54000 413.505
30.55000 418.402
30.56000 422.950
30.57000 425.575
30.58000 427.908
30.59000 429.536
30.60000 428.622
30.61000 427.478
30.62000 426.656
30.63000 423.530
30.64000 421.059
30.65000 420.357
30.66000 422.561
30.67000 424.806
30.68000 424.815
30.69000 422.410
30.70000 420.015
30.71000 423.319
30.72000 430.519
30.73000 437.551
30.74000 439.555
30.75000 439.207
30.76000 439.138
30.77000 442.876
30.78000 447.817
30.79000 452.280
30.80000 458.200
30.81000 463.673
30.82000 469.079
30.83000 474.163
30.84000 479.204
30.85000 481.739
30.86000 476.215
30.87000 470.081
30.88000 465.835
30.89000 463.599
30.90000 461.970
30.91000 463.677
30.92000 470.256
30.93000 476.877
30.94000 479.035
30.95000 476.975
30.96000 474.932
30.97000 485.647
30.98000 503.927
30.99000 521.610
31.00000 525.535
31.01000 523.710
31.02000 523.122
31.03000 536.583
31.04000 554.002
31.05000 569.470
31.06000 584.284
31.07000 597.022
31.08000 613.742
31.09000 647.553
31.10000 683.317
31.11000 719.819
31.12000 758.442
31.13000 797.197
31.14000 822.992
31.15000 889.333
31.16000 939.187
31.17000 1003.141
31.18000 1085.344
31.19000 1167.650
31.20000 1264.119
31.21000 1372.373
31.22000 1479.202
31.23000 1574.387
31.24000 1660.755
31.25000 1748.835
31.26000 1868.136
31.27000 1999.087
31.28000 2128.413
31.29000 2242.106
31.30000 2351.884
31.31000 2447.571
31.32000 2548.576
31.33000 2635.642
31.34000 2716.316
31.35000 2772.660
31.36000 2826.634
31.37000 2889.241
31.38000 2973.959
31.39000 3059.785
31.40000 3114.523
31.41000 3074.207
31.42000 3043.665
31.43000 2995.892
31.44000 2928.438
31.45000 2860.886
31.46000 2780.061
31.47000 2689.468
31.48000 2600.607
31.49000 2528.427
31.50000 2466.797
31.51000 2401.529
31.52000 2282.352
31.53000 2145.223
31.54000 2008.259
31.55000 1872.653
31.56000 1737.348
31.57000 1621.772
31.58000 1511.298
31.59000 1418.839
31.60000 1326.946
31.61000 1236.973
31.62000 1147.157
31.63000 1064.298
31.64000 997.351
31.65000 931.028
31.66000 890.645
31.67000 810.147
31.68000 752.322
31.69000 708.450
31.70000 678.572
31.71000 648.701
31.72000 619.580
31.73000 590.949
31.74000 563.067
31.75000 538.727
31.76000 517.012
31.77000 496.492
31.78000 490.654
31.79000 489.173
31.80000 487.033
31.81000 480.203
31.82000 472.454
31.83000 465.978
31.84000 457.170
31.85000 449.621
31.86000 442.238
31.87000 435.357
31.88000 428.510
31.89000 421.854
31.90000 415.587
31.91000 409.332
31.92000 405.711
31.93000 412.375
31.94000 417.085
31.95000 417.522
31.96000 414.196
31.97000 411.010
31.98000 415.925
31.99000 425.545
32.00000 434.834
32.01000 426.889
32.02000 413.030
32.03000 400.509
32.04000 401.825
32.05000 406.794
32.06000 410.525
32.07000 406.575
32.08000 401.302
32.09000 397.000
32.10000 402.730
32.11000 408.276
32.12000 413.052
32.13000 415.754
32.14000 418.341
32.15000 415.719
32.16000 403.606
32.17000 391.294
32.18000 384.551
32.19000 397.660
32.20000 406.681
32.21000 409.600
32.22000 407.777
32.23000 405.944
32.24000 403.645
32.25000 401.106
32.26000 398.677
32.27000 402.332
32.28000 407.718
32.29000 411.929
32.30000 405.776
32.31000 397.196
32.32000 391.089
32.33000 398.426
32.34000 407.785
32.35000 415.228
32.36000 407.810
32.37000 400.770
32.38000 395.007
32.39000 392.318
32.40000 389.763
32.41000 387.572
32.42000 385.972
32.43000 384.380
32.44000 383.559
32.45000 385.550
32.46000 386.869
32.47000 385.523
32.48000 382.342
32.49000 379.240
32.50000 378.460
32.51000 378.753
32.52000 379.030
32.53000 374.985
32.54000 370.025
32.55000 366.402
32.56000 372.922
32.57000 381.544
32.58000 387.280
32.59000 379.196
32.60000 369.307
32.61000 361.660
32.62000 370.613
32.63000 378.693
32.64000 383.364
32.65000 380.709
32.66000 377.808
32.67000 373.003
32.68000 365.450
32.69000 357.877
32.70000 357.918
32.71000 365.056
32.72000 372.180
32.73000 378.328
32.74000 383.880
32.75000 388.973
32.76000 383.772
32.77000 374.322
32.78000 365.492
32.79000 367.130
32.80000 371.260
32.81000 374.925
32.82000 375.532
32.83000 375.581
32.84000 375.576
32.85000 375.342
32.86000 375.082
32.87000 374.887
32.88000 378.055
32.89000 380.689
32.90000 378.853
32.91000 368.450
32.92000 357.835
32.93000 356.198
32.94000 366.026
32.95000 375.882
32.96000 377.862
32.97000 373.391
32.98000 369.012
32.99000 368.928
33.00000 371.185
33.01000 373.430
33.02000 375.451
33.03000 377.390
33.04000 379.177
33.05000 383.623
33.06000 388.192
33.07000 390.906
33.08000 382.935
33.09000 373.256
33.10000 366.127
33.11000 368.585
33.12000 371.961
33.13000 374.413
33.14000 373.538
33.15000 372.739
33.16000 369.511
33.17000 362.128
33.18000 354.676
33.19000 349.857
33.20000 348.006
33.21000 346.165
33.22000 347.851
33.23000 352.063
33.24000 356.209
33.25000 358.165
33.26000 359.055
33.27000 359.851
33.28000 359.286
33.29000 358.274
33.30000 357.355
33.31000 351.491
33.32000 345.356
33.33000 341.107
33.34000 346.414
33.35000 353.052
33.36000 357.675
33.37000 355.566
33.38000 352.914
33.39000 351.056
33.40000 345.841
33.41000 341.799
33.42000 340.820
33.43000 344.498
33.44000 348.225
33.45000 349.478
33.46000 348.285
33.47000 347.101
33.48000 348.451
33.49000 351.387
33.50000 354.182
33.51000 353.407
33.52000 351.083
33.53000 348.586
33.54000 344.008
33.55000 338.819
33.56000 334.185
33.57000 337.122
33.58000 340.955
33.59000 344.970
33.60000 349.796
33.61000 354.721
33.62000 357.585
33.63000 354.305
33.64000 350.617
33.65000 348.129
33.66000 351.824
33.67000 354.705
33.68000 354.063
33.69000 348.669
33.70000 343.253
33.71000 340.753
33.72000 340.785
33.73000 340.817
33.74000 341.815
33.75000 343.329
33.76000 344.645
33.77000 342.039
33.78000 337.913
33.79000 334.336
33.80000 336.332
33.81000 339.780
33.82000 342.805
33.83000 347.483
33.84000 351.742
33.85000 353.259
33.86000 343.915
33.87000 333.452
33.88000 327.775
33.89000 334.833
33.90000 342.578
33.91000 347.591
33.92000 352.085
33.93000 355.364
33.94000 355.392
33.95000 351.545
33.96000 347.703
33.97000 347.066
33.98000 348.884
33.99000 350.672
34.00000 343.076
34.01000 331.093
34.02000 320.138
34.03000 325.496
34.04000 336.501
34.05000 346.340
34.06000 346.063
34.07000 343.447
34.08000 341.196
34.09000 341.353
34.10000 341.788
34.11000 342.142
34.12000 342.213
34.13000 342.259
34.14000 343.548
34.15000 347.790
34.16000 352.157
34.17000 354.860
34.18000 352.435
34.19000 350.643
34.20000 348.400
34.21000 345.682
34.22000 343.010
34.23000 345.397
34.24000 351.223
34.25000 356.910
34.26000 355.414
34.27000 350.845
34.28000 347.050
34.29000 353.374
34.30000 362.821
34.31000 370.055
34.32000 360.754
34.33000 348.071
34.34000 337.392
34.35000 340.907
34.36000 345.361
34.37000 350.150
34.38000 355.987
34.39000 361.901
34.40000 364.245
34.41000 359.016
34.42000 353.539
34.43000 350.313
34.44000 351.750
34.45000 352.789
34.46000 352.024
34.47000 349.603
34.48000 347.280
34.49000 351.541
34.50000 359.781
34.51000 367.762
34.52000 364.805
34.53000 357.788
34.54000 352.014
34.55000 359.828
34.56000 371.377
34.57000 379.687
34.58000 366.973
34.59000 350.475
34.60000 336.901
34.61000 337.957
34.62000 340.154
34.63000 343.208
34.64000 348.660
34.65000 354.254
34.66000 357.871
34.67000 357.747
34.68000 357.534
34.69000 357.415
34.70000 349.243
34.71000 343.576
34.72000 341.277
34.73000 341.706
34.74000 342.178
34.75000 344.545
34.76000 347.933
34.77000 351.184
34.78000 348.440
34.79000 343.833
34.80000 339.504
34.81000 337.743
34.82000 336.608
34.83000 335.021
34.84000 330.863
34.85000 326.300
34.86000 322.638
34.87000 326.120
34.88000 329.483
34.89000 332.165
34.90000 333.147
34.91000 334.048
34.92000 332.197
34.93000 325.704
34.94000 319.137
34.95000 315.678
34.96000 334.366
34.97000 346.961
34.98000 345.696
34.99000 334.496
35.00000 323.584
35.01000 321.956
35.02000 324.788
35.03000 327.476
35.04000 329.835
35.05000 331.914
35.06000 333.173
35.07000 327.893
35.08000 321.200
35.09000 316.236
35.10000 319.905
35.11000 324.758
35.12000 328.547
35.13000 323.421
35.14000 318.771
35.15000 316.520
35.16000 319.621
35.17000 322.920
35.18000 324.883
35.19000 324.840
35.20000 324.778
35.21000 325.864
35.22000 328.068
35.23000 330.255
35.24000 331.021
35.25000 330.884
35.26000 330.771
35.27000 331.242
35.28000 331.964
35.29000 332.641
35.30000 323.790
35.31000 313.209
35.32000 303.534
35.33000 300.114
35.34000 297.886
35.35000 297.424
35.36000 304.750
35.37000 312.998
35.38000 319.252
35.39000 314.449
35.40000 310.110
35.41000 309.879
35.42000 317.830
35.43000 326.006
35.44000 329.165
35.45000 325.645
35.46000 322.095
35.47000 321.431
35.48000 323.236
35.49000 324.976
35.50000 323.291
35.51000 319.665
35.52000 315.893
35.53000 309.319
35.54000 301.672
35.55000 294.589
35.56000 297.048
35.57000 301.469
35.58000 305.368
35.59000 306.122
35.60000 306.350
35.61000 307.117
35.62000 309.996
35.63000 313.087
35.64000 315.358
35.65000 305.741
35.66000 297.821
35.67000 293.625
35.68000 296.045
35.69000 298.594
35.70000 304.513
35.71000 314.397
35.72000 324.261
35.73000 323.615
35.74000 315.073
35.75000 306.682
35.76000 303.848
35.77000 303.823
35.78000 303.908
35.79000 305.709
35.80000 308.098
35.81000 310.278
35.82000 311.686
35.83000 312.777
35.84000 312.794
35.85000 307.127
35.86000 300.631
35.87000 296.649
35.88000 301.417
35.89000 306.932
35.90000 310.846
35.91000 304.973
35.92000 300.195
35.93000 297.136
35.94000 296.796
35.95000 296.490
35.96000 298.558
35.97000 303.081
35.98000 307.579
35.99000 311.480
36.00000 314.935
36.01000 318.192
36.02000 316.005
36.03000 311.362
36.04000 306.885
36.05000 304.526
36.06000 302.813
36.07000 301.274
36.08000 301.978
36.09000 302.991
36.10000 303.742
36.11000 303.279
36.12000 302.663
36.13000 302.850
36.14000 305.528
36.15000 308.383
36.16000 310.335
36.17000 302.527
36.18000 296.453
36.19000 295.604
36.20000 302.096
36.21000 308.635
36.22000 308.563
36.23000 302.494
36.24000 296.485
36.25000 297.159
36.26000 301.724
36.27000 306.279
36.28000 310.660
36.29000 314.971
36.30000 318.428
36.31000 312.714
36.32000 304.512
36.33000 297.272
36.34000 298.107
36.35000 300.064
36.36000 302.507
36.37000 306.956
36.38000 311.622
36.39000 313.764
36.40000 308.927
36.41000 303.683
36.42000 300.240
36.43000 304.260
36.44000 307.344
36.45000 309.129
36.46000 309.300
36.47000 309.462
36.48000 307.840
36.49000 304.795
36.50000 301.795
36.51000 303.099
36.52000 306.585
36.53000 309.754
36.54000 307.530
36.55000 303.367
36.56000 299.861
36.57000 302.355
36.58000 306.294
36.59000 309.707
36.60000 310.946
36.61000 311.713
36.62000 311.136
36.63000 305.631
36.64000 299.671
36.65000 296.991
36.66000 302.407
36.67000 308.199
36.68000 311.839
36.69000 310.442
36.70000 309.376
36.71000 309.119
36.72000 309.751
36.73000 310.346
36.74000 305.850
36.75000 297.750
36.76000 289.823
36.77000 290.964
36.78000 296.189
36.79000 301.191
36.80000 303.066
36.81000 303.938
36.82000 304.108
36.83000 298.773
36.84000 292.264
36.85000 286.743
36.86000 292.508
36.87000 298.619
36.88000 303.726
36.89000 305.556
36.90000 307.133
36.91000 307.480
36.92000 305.118
36.93000 302.658
36.94000 301.184
36.95000 294.851
36.96000 290.322
36.97000 289.341
36.98000 291.769
36.99000 294.211
37.00000 297.680
37.01000 301.796
37.02000 305.793
37.03000 302.531
37.04000 296.513
37.05000 291.158
37.06000 293.492
37.07000 298.025
37.08000 302.018
37.09000 302.343
37.10000 301.977
37.11000 301.674
37.12000 299.191
37.13000 296.930
37.14000 296.027
37.15000 299.074
37.16000 302.372
37.17000 304.593
37.18000 304.696
37.19000 304.742
37.20000 304.769
37.21000 301.476
37.22000 299.170
37.23000 295.875
37.24000 291.745
37.25000 287.628
37.26000 284.135
37.27000 280.991
37.28000 277.965
37.29000 282.711
37.30000 289.926
37.31000 296.610
37.32000 298.084
37.33000 298.233
37.34000 298.305
37.35000 297.915
37.36000 297.450
37.37000 297.073
37.38000 297.755
37.39000 298.397
37.40000 297.619
37.41000 293.156
37.42000 288.503
37.43000 284.090
37.44000 280.098
37.45000 276.113
37.46000 273.972
37.47000 281.875
37.48000 287.267
37.49000 289.460
37.50000 289.266
37.51000 289.108
37.52000 290.275
37.53000 292.103
37.54000 293.845
37.55000 295.333
37.56000 296.634
37.57000 297.306
37.58000 292.708
37.59000 286.922
37.60000 282.825
37.61000 287.527
37.62000 293.495
37.63000 298.199
37.64000 301.444
37.65000 303.948
37.66000 306.172
37.67000 307.747
37.68000 309.295
37.69000 308.564
37.70000 304.270
37.71000 299.934
37.72000 297.746
37.73000 301.512
37.74000 303.986
37.75000 301.927
37.76000 296.867
37.77000 291.864
37.78000 288.387
37.79000 285.590
37.80000 282.954
37.81000 286.082
37.82000 290.534
37.83000 293.884
37.84000 289.251
37.85000 283.030
37.86000 278.784
37.87000 283.623
37.88000 289.593
37.89000 294.166
37.90000 292.895
37.91000 291.570
37.92000 290.882
37.93000 291.512
37.94000 292.182
37.95000 293.679
37.96000 296.322
37.97000 298.971
37.98000 299.651
37.99000 298.571
38.00000 297.505
38.01000 297.279
38.02000 297.547
38.03000 297.887
38.04000 299.704
38.05000 302.110
38.06000 304.348
38.07000 302.206
38.08000 299.211
38.09000 296.766
38.10000 297.789
38.11000 299.418
38.12000 300.894
38.13000 301.739
38.14000 302.518
38.15000 303.096
38.16000 306.070
38.17000 308.487
38.18000 307.892
38.19000 301.734
38.20000 295.454
38.21000 294.913
38.22000 301.413
38.23000 307.919
38.24000 311.163
38.25000 311.831
38.26000 312.461
38.27000 311.548
38.28000 309.823
38.29000 308.344
38.30000 310.953
38.31000 315.015
38.32000 318.742
38.33000 318.480
38.34000 317.401
38.35000 317.132
38.36000 321.336
38.37000 326.225
38.38000 331.207
38.39000 336.526
38.40000 341.875
38.41000 345.717
38.42000 365.122
38.43000 380.505
38.44000 388.206
38.45000 383.264
38.46000 378.137
38.47000 387.387
38.48000 412.176
38.49000 436.859
38.50000 453.401
38.51000 464.140
38.52000 475.124
38.53000 493.513
38.54000 515.373
38.55000 538.190
38.56000 574.072
38.57000 614.093
38.58000 650.248
38.59000 672.993
38.60000 690.511
38.61000 710.077
38.62000 739.602
38.63000 770.450
38.64000 803.465
38.65000 843.462
38.66000 883.988
38.67000 912.060
38.68000 943.630
38.69000 967.481
38.70000 990.700
38.71000 1012.995
38.72000 1035.280
38.73000 1050.044
38.74000 1057.680
38.75000 1065.254
38.76000 1068.529
38.77000 1069.125
38.78000 1069.087
38.79000 1054.371
38.80000 1033.513
38.81000 1011.816
38.82000 980.572
38.83000 946.633
38.84000 916.489
38.85000 887.534
38.86000 862.619
38.87000 835.020
38.88000 795.885
38.89000 755.429
38.90000 714.851
38.91000 673.920
38.92000 632.967
38.93000 605.693
38.94000 582.715
38.95000 565.790
38.96000 543.224
38.97000 513.343
38.98000 483.448
38.99000 461.189
39.00000 445.295
39.01000 429.610
39.02000 413.203
39.03000 396.848
39.04000 380.598
39.05000 366.284
39.06000 352.693
39.07000 339.431
39.08000 329.341
39.09000 320.047
39.10000 311.943
39.11000 307.808
39.12000 304.824
39.13000 302.302
39.14000 301.537
39.15000 300.945
39.16000 300.208
39.17000 299.100
39.18000 297.974
39.19000 297.255
39.20000 292.341
39.21000 288.712
39.22000 287.459
39.23000 288.926
39.24000 290.397
39.25000 291.967
39.26000 293.611
39.27000 295.224
39.28000 293.950
39.29000 291.350
39.30000 288.859
39.31000 287.989
39.32000 287.659
39.33000 286.478
39.34000 278.261
39.35000 268.481
39.36000 260.125
39.37000 262.557
39.38000 265.894
39.39000 268.527
39.40000 268.768
39.41000 268.813
39.42000 270.811
39.43000 277.283
39.44000 283.931
39.45000 287.982
39.46000 282.101
39.47000 277.820
39.48000 274.232
39.49000 271.339
39.50000 268.477
39.51000 268.355
39.52000 270.027
39.53000 271.655
39.54000 268.380
39.55000 263.201
39.56000 258.891
39.57000 265.289
39.58000 274.871
39.59000 282.983
39.60000 280.604
39.61000 276.166
39.62000 272.456
39.63000 273.400
39.64000 274.658
39.65000 274.790
39.66000 271.523
39.67000 268.023
39.68000 267.377
39.69000 272.568
39.70000 277.933
39.71000 281.040
39.72000 271.133
39.73000 264.137
39.74000 264.361
39.75000 270.954
39.76000 277.351
39.77000 272.406
39.78000 260.861
39.79000 249.711
39.80000 253.155
39.81000 261.806
39.82000 269.571
39.83000 268.135
39.84000 264.266
39.85000 261.383
39.86000 264.629
39.87000 268.932
39.88000 272.444
39.89000 275.465
39.90000 277.893
39.91000 277.135
39.92000 267.779
39.93000 257.945
39.94000 252.940
39.95000 256.744
39.96000 260.735
39.97000 262.923
39.98000 267.150
39.99000 270.050
40.00000 270.239
40.01000 268.317
40.02000 266.408
40.03000 265.016
40.04000 263.892
40.05000 262.817
40.06000 267.842
40.07000 274.514
40.08000 280.168
40.09000 276.830
40.10000 271.380
40.11000 266.424
40.12000 264.158
40.13000 262.298
40.14000 260.817
40.15000 256.002
40.16000 251.882
40.17000 249.461
40.18000 251.132
40.19000 252.984
40.20000 255.431
40.21000 258.846
40.22000 262.273
40.23000 264.042
40.24000 261.560
40.25000 259.905
40.26000 260.451
40.27000 262.514
40.28000 264.461
40.29000 263.034
40.30000 260.045
40.31000 257.218
40.32000 253.913
40.33000 250.738
40.34000 248.420
40.35000 252.618
40.36000 258.169
40.37000 262.220
40.38000 259.076
40.39000 254.990
40.40000 251.829
40.41000 259.946
40.42000 267.054
40.43000 269.573
40.44000 262.216
40.45000 254.526
40.46000 249.848
40.47000 249.521
40.48000 249.229
40.49000 250.369
40.50000 252.847
40.51000 255.295
40.52000 255.635
40.53000 254.681
40.54000 253.630
40.55000 250.373
40.56000 246.205
40.57000 242.309
40.58000 244.016
40.59000 246.982
40.60000 249.988
40.61000 253.256
40.62000 256.571
40.63000 259.164
40.64000 258.694
40.65000 257.879
40.66000 257.267
40.67000 257.079
40.68000 256.952
40.69000 256.882
40.70000 256.921
40.71000 256.963
40.72000 255.495
40.73000 252.094
40.74000 248.691
40.75000 246.821
40.76000 246.213
40.77000 245.632
40.78000 246.241
40.79000 247.500
40.80000 248.899
40.81000 252.798
40.82000 257.619
40.83000 262.065
40.84000 259.709
40.85000 256.091
40.86000 253.715
40.87000 258.499
40.88000 264.430
40.89000 268.145
40.90000 263.513
40.91000 258.080
40.92000 254.132
40.93000 250.340
40.94000 247.430
40.95000 244.780
40.96000 242.578
40.97000 240.382
40.98000 240.369
40.99000 242.819
41.00000 245.263
41.01000 247.545
41.02000 249.691
41.03000 251.874
41.04000 255.280
41.05000 259.281
41.06000 262.950
41.07000 261.785
41.08000 259.027
41.09000 256.522
41.10000 252.271
41.11000 248.178
41.12000 244.443
41.13000 242.527
41.14000 240.866
41.15000 241.919
41.16000 252.071
41.17000 262.957
41.18000 270.593
41.19000 263.693
41.20000 258.050
41.21000 253.557
41.22000 250.815
41.23000 248.092
41.24000 247.210
41.25000 248.152
41.26000 249.087
41.27000 247.825
41.28000 245.184
41.29000 242.761
41.30000 245.820
41.31000 251.263
41.32000 256.358
41.33000 257.255
41.34000 256.918
41.35000 256.618
41.36000 255.826
41.37000 255.053
41.38000 254.168
41.39000 252.783
41.40000 251.338
41.41000 249.544
41.42000 246.706
41.43000 243.798
41.44000 241.835
41.45000 236.998
41.46000 233.336
41.47000 232.558
41.48000 235.678
41.49000 238.817
41.50000 239.556
41.51000 238.209
41.52000 236.878
41.53000 239.694
41.54000 244.771
41.55000 249.434
41.56000 245.922
41.57000 239.236
41.58000 233.304
41.59000 235.058
41.60000 238.820
41.61000 242.120
41.62000 242.334
41.63000 242.067
41.64000 242.293
41.65000 244.477
41.66000 246.864
41.67000 248.186
41.68000 246.672
41.69000 245.004
41.70000 243.923
41.71000 244.036
41.72000 244.137
41.73000 242.708
41.74000 239.453
41.75000 236.205
41.76000 235.513
41.77000 236.784
41.78000 238.033
41.79000 241.041
41.80000 244.821
41.81000 248.418
41.82000 249.093
41.83000 248.757
41.84000 248.101
41.85000 244.673
41.86000 240.603
41.87000 237.101
41.88000 237.763
41.89000 238.848
41.90000 240.911
41.91000 246.428
41.92000 252.246
41.93000 254.363
41.94000 247.673
41.95000 240.604
41.96000 236.228
41.97000 238.376
41.98000 239.983
41.99000 238.393
42.00000 233.444
42.01000 228.499
42.02000 224.009
42.03000 219.830
42.04000 215.749
42.05000 220.526
42.06000 228.973
42.07000 237.024
42.08000 239.884
42.09000 241.140
42.10000 241.869
42.11000 238.651
42.12000 234.626
42.13000 231.235
42.14000 233.865
42.15000 236.707
42.16000 240.646
42.17000 248.029
42.18000 255.662
42.19000 258.263
42.20000 250.168
42.21000 241.723
42.22000 236.743
42.23000 240.880
42.24000 243.849
42.25000 244.526
42.26000 243.094
42.27000 241.632
42.28000 238.209
42.29000 233.598
42.30000 229.132
42.31000 231.027
42.32000 235.278
42.33000 239.000
42.34000 236.922
42.35000 233.248
42.36000 229.805
42.37000 227.875
42.38000 226.217
42.39000 224.852
42.40000 226.418
42.41000 227.973
42.42000 230.296
42.43000 234.771
42.44000 239.375
42.45000 242.454
42.46000 242.642
42.47000 242.761
42.48000 242.828
42.49000 239.354
42.50000 236.942
42.51000 235.101
42.52000 233.725
42.53000 232.333
42.54000 230.287
42.55000 227.888
42.56000 225.586
42.57000 231.171
42.58000 239.082
42.59000 245.766
42.60000 241.014
42.61000 233.467
42.62000 227.466
42.63000 230.261
42.64000 234.445
42.65000 237.803
42.66000 231.991
42.67000 226.583
42.68000 223.801
42.69000 227.593
42.70000 231.699
42.71000 234.389
42.72000 234.686
42.73000 234.944
42.74000 235.081
42.75000 237.670
42.76000 239.422
42.77000 240.171
42.78000 240.200
42.79000 240.296
42.80000 242.535
42.81000 245.805
42.82000 248.911
42.83000 242.297
42.84000 233.269
42.85000 225.191
42.86000 224.697
42.87000 225.846
42.88000 226.728
42.89000 226.278
42.90000 225.645
42.91000 225.150
42.92000 228.465
42.93000 231.349
42.94000 233.317
42.95000 233.232
42.96000 233.071
42.97000 233.569
42.98000 235.055
42.99000 236.552
43.00000 234.775
43.01000 229.803
43.02000 224.918
43.03000 227.332
43.04000 234.399
43.05000 241.052
43.06000 237.532
43.07000 229.642
43.08000 222.237
43.09000 217.662
43.10000 214.239
43.11000 212.209
43.12000 219.813
43.13000 229.258
43.14000 237.262
43.15000 238.898
43.16000 239.779
43.17000 240.447
43.18000 232.809
43.19000 226.382
43.20000 224.038
43.21000 229.842
43.22000 235.873
43.23000 239.918
43.24000 241.316
43.25000 242.700
43.26000 240.401
43.27000 234.953
43.28000 229.587
43.29000 228.540
43.30000 229.946
43.31000 231.158
43.32000 228.651
43.33000 224.717
43.34000 221.072
43.35000 221.448
43.36000 222.718
43.37000 224.186
43.38000 226.842
43.39000 229.699
43.40000 232.241
43.41000 233.553
43.42000 234.741
43.43000 235.613
43.44000 228.143
43.45000 222.025
43.46000 220.294
43.47000 226.368
43.48000 232.595
43.49000 232.762
43.50000 225.789
43.51000 218.822
43.52000 218.937
43.53000 224.385
43.54000 229.669
43.55000 228.893
43.56000 225.049
43.57000 221.290
43.58000 218.876
43.59000 216.923
43.60000 215.139
43.61000 214.250
43.62000 213.642
43.63000 213.465
43.64000 215.568
43.65000 218.005
43.66000 221.194
43.67000 227.002
43.68000 233.035
43.69000 237.319
43.70000 230.822
43.71000 225.535
43.72000 222.431
43.73000 222.785
43.74000 223.183
43.75000 220.752
43.76000 215.391
43.77000 210.059
43.78000 210.935
43.79000 215.917
43.80000 220.752
43.81000 221.514
43.82000 220.436
43.83000 219.284
43.84000 217.190
43.85000 214.808
43.86000 212.668
43.87000 211.915
43.88000 211.502
43.89000 213.234
43.90000 224.981
43.91000 237.998
43.92000 245.912
43.93000 237.986
43.94000 228.930
43.95000 222.735
43.96000 226.125
43.97000 228.892
43.98000 230.619
43.99000 230.884
44.00000 231.139
44.01000 230.580
44.02000 229.282
44.03000 227.997
44.04000 226.818
44.05000 225.727
44.06000 224.774
44.07000 226.781
44.08000 229.982
44.09000 232.461
44.10000 227.159
44.11000 219.743
44.12000 213.194
44.13000 215.515
44.14000 218.880
44.15000 221.743
44.16000 222.534
44.17000 223.099
44.18000 223.503
44.19000 223.460
44.20000 223.392
44.21000 223.347
44.22000 226.190
44.23000 228.331
44.24000 227.499
44.25000 222.963
44.26000 218.426
44.27000 217.550
44.28000 219.605
44.29000 221.630
44.30000 225.478
44.31000 230.154
44.32000 234.600
44.33000 235.116
44.34000 234.215
44.35000 233.275
44.36000 231.972
44.37000 230.580
44.38000 229.375
44.39000 227.048
44.40000 224.919
44.41000 222.570
44.42000 219.411
44.43000 216.177
44.44000 215.047
44.45000 219.118
44.46000 223.431
44.47000 226.143
44.48000 227.519
44.49000 228.498
44.50000 227.693
44.51000 224.928
44.52000 222.197
44.53000 224.304
44.54000 229.843
44.55000 235.264
44.56000 228.957
44.57000 217.549
44.58000 206.976
44.59000 208.079
44.60000 212.935
44.61000 218.003
44.62000 224.748
44.63000 231.851
44.64000 237.879
44.65000 244.487
44.66000 250.094
44.67000 253.867
44.68000 251.643
44.69000 248.954
44.70000 245.221
44.71000 239.182
44.72000 233.061
44.73000 229.390
44.74000 245.603
44.75000 257.251
44.76000 257.951
44.77000 248.109
44.78000 238.404
44.79000 239.517
44.80000 247.441
44.81000 255.139
44.82000 257.720
44.83000 258.108
44.84000 258.597
44.85000 260.252
44.86000 262.240
44.87000 263.760
44.88000 262.087
44.89000 259.812
44.90000 257.924
44.91000 261.599
44.92000 265.172
44.93000 267.621
44.94000 266.796
44.95000 265.760
44.96000 269.285
44.97000 281.800
44.98000 294.555
44.99000 301.817
45.00000 297.466
45.01000 294.406
45.02000 297.405
45.03000 305.536
45.04000 313.580
45.05000 317.258
45.06000 318.488
45.07000 319.673
45.08000 324.025
45.09000 329.236
45.10000 333.796
45.11000 331.948
45.12000 328.468
45.13000 325.654
45.14000 326.803
45.15000 328.607
45.16000 330.067
45.17000 325.026
45.18000 320.394
45.19000 316.314
45.20000 313.670
45.21000 311.100
45.22000 309.080
45.23000 308.029
45.24000 306.996
45.25000 306.440
45.26000 299.843
45.27000 295.348
45.28000 294.618
45.29000 296.704
45.30000 298.567
45.31000 292.374
45.32000 282.153
45.33000 272.411
45.34000 266.792
45.35000 262.876
45.36000 258.905
45.37000 254.476
45.38000 249.943
45.39000 245.886
45.40000 244.310
45.41000 243.091
45.42000 242.130
45.43000 239.221
45.44000 236.756
45.45000 234.532
45.46000 232.866
45.47000 231.223
45.48000 231.070
45.49000 233.250
45.50000 235.457
45.51000 236.572
45.52000 240.468
45.53000 243.041
45.54000 242.294
45.55000 239.344
45.56000 236.344
45.57000 232.006
45.58000 227.070
45.59000 222.418
45.60000 218.609
45.61000 215.354
45.62000 212.732
45.63000 214.704
45.64000 217.593
45.65000 220.076
45.66000 220.688
45.67000 221.066
45.68000 221.356
45.69000 227.987
45.70000 233.573
45.71000 233.006
45.72000 219.677
45.73000 205.957
45.74000 198.821
45.75000 200.836
45.76000 202.909
45.77000 204.751
45.78000 206.384
45.79000 207.999
45.80000 208.506
45.81000 208.359
45.82000 208.153
45.83000 206.716
45.84000 204.788
45.85000 202.995
45.86000 201.468
45.87000 200.153
45.88000 198.963
45.89000 198.560
45.90000 198.296
45.91000 197.539
45.92000 194.778
45.93000 191.802
45.94000 189.590
45.95000 193.466
45.96000 196.749
45.97000 200.726
45.98000 205.986
45.99000 211.275
46.00000 213.458
46.01000 211.824
46.02000 210.183
46.03000 212.151
46.04000 216.947
46.05000 221.614
46.06000 220.890
46.07000 217.330
46.08000 213.856
46.09000 211.804
46.10000 210.258
46.11000 208.840
46.12000 209.653
46.13000 210.851
46.14000 211.895
46.15000 212.083
46.16000 212.140
46.17000 212.208
46.18000 212.315
46.19000 212.426
46.20000 212.506
46.21000 209.438
46.22000 206.981
46.23000 203.318
46.24000 197.664
46.25000 191.982
46.26000 189.277
46.27000 189.795
46.28000 190.312
46.29000 195.363
46.30000 203.498
46.31000 211.301
46.32000 209.034
46.33000 202.039
46.34000 195.798
46.35000 199.860
46.36000 207.194
46.37000 213.821
46.38000 211.712
46.39000 208.238
46.40000 205.250
46.41000 204.628
46.42000 204.322
46.43000 203.817
46.44000 202.673
46.45000 201.480
46.46000 200.653
46.47000 199.281
46.48000 198.234
46.49000 198.667
46.50000 201.268
46.51000 203.887
46.52000 202.618
46.53000 197.656
46.54000 192.736
46.55000 191.910
46.56000 193.600
46.57000 195.309
46.58000 197.493
46.59000 199.876
46.60000 202.047
46.61000 201.794
46.62000 200.855
46.63000 200.021
46.64000 199.039
46.65000 198.164
46.66000 197.281
46.67000 196.366
46.68000 195.448
46.69000 194.930
46.70000 195.563
46.71000 196.269
46.72000 196.739
46.73000 199.599
46.74000 201.762
46.75000 201.892
46.76000 199.382
46.77000 196.862
46.78000 195.211
46.79000 194.284
46.80000 193.369
46.81000 193.481
46.82000 194.142
46.83000 194.927
46.84000 198.000
46.85000 201.928
46.86000 205.228
46.87000 202.460
46.88000 198.168
46.89000 194.424
46.90000 192.713
46.91000 191.534
46.92000 192.330
46.93000 200.672
46.94000 209.752
46.95000 214.513
46.96000 208.178
46.97000 201.285
46.98000 196.882
46.99000 194.362
47.00000 192.552
47.01000 193.214
47.02000 196.708
47.03000 200.196
47.04000 202.049
47.05000 202.694
47.06000 203.328
47.07000 201.456
47.08000 198.460
47.09000 195.715
47.10000 196.726
47.11000 198.992
47.12000 200.872
47.13000 199.563
47.14000 197.544
47.15000 195.818
47.16000 194.984
47.17000 194.388
47.18000 193.647
47.19000 192.414
47.20000 191.140
47.21000 191.815
47.22000 196.962
47.23000 202.286
47.24000 205.532
47.25000 199.031
47.26000 194.305
47.27000 191.619
47.28000 190.986
47.29000 190.384
47.30000 192.715
47.31000 196.967
47.32000 201.108
47.33000 201.096
47.34000 199.339
47.35000 197.725
47.36000 197.875
47.37000 198.551
47.38000 199.016
47.39000 197.967
47.40000 196.620
47.41000 195.494
47.42000 195.288
47.43000 195.211
47.44000 194.678
47.45000 192.766
47.46000 190.759
47.47000 190.167
47.48000 192.471
47.49000 194.861
47.50000 196.246
47.51000 194.328
47.52000 192.967
47.53000 190.528
47.54000 187.137
47.55000 183.780
47.56000 182.400
47.57000 182.175
47.58000 181.957
47.59000 187.933
47.60000 195.865
47.61000 203.020
47.62000 202.110
47.63000 199.062
47.64000 196.079
47.65000 193.502
47.66000 190.995
47.67000 188.948
47.68000 188.250
47.69000 187.796
47.70000 188.790
47.71000 193.700
47.72000 198.827
47.73000 201.864
47.74000 201.081
47.75000 200.216
47.76000 199.742
47.77000 197.143
47.78000 195.351
47.79000 193.353
47.80000 191.195
47.81000 189.105
47.82000 189.714
47.83000 191.725
47.84000 193.649
47.85000 192.242
47.86000 189.840
47.87000 187.193
47.88000 182.374
47.89000 177.044
47.90000 173.171
47.91000 177.247
47.92000 182.524
47.93000 186.724
47.94000 190.761
47.95000 194.003
47.96000 193.927
47.97000 185.841
47.98000 177.401
47.99000 175.000
48.00000 182.432
48.01000 190.002
48.02000 193.911
48.03000 189.121
48.04000 185.937
48.05000 188.457
48.06000 194.916
48.07000 201.045
48.08000 197.462
48.09000 189.374
48.10000 181.720
48.11000 186.041
48.12000 193.467
48.13000 199.533
48.14000 195.227
48.15000 188.765
48.16000 183.044
48.17000 180.886
48.18000 179.194
48.19000 177.885
48.20000 177.675
48.21000 177.574
48.22000 178.968
48.23000 183.587
48.24000 188.315
48.25000 189.698
48.26000 186.243
48.27000 182.748
48.28000 182.562
48.29000 185.471
48.30000 188.378
48.31000 191.152
48.32000 193.845
48.33000 196.288
48.34000 193.062
48.35000 187.488
48.36000 182.278
48.37000 181.442
48.38000 181.791
48.39000 182.400
48.40000 184.725
48.41000 187.365
48.42000 188.624
48.43000 184.018
48.44000 178.749
48.45000 174.792
48.46000 178.040
48.47000 180.924
48.48000 181.484
48.49000 177.573
48.50000 173.552
48.51000 172.033
48.52000 173.721
48.53000 175.419
48.54000 177.654
48.55000 180.321
48.56000 182.924
48.57000 182.461
48.58000 180.322
48.59000 178.391
48.60000 180.187
48.61000 183.362
48.62000 186.289
48.63000 187.241
48.64000 187.654
48.65000 188.151
48.66000 189.136
48.67000 190.199
48.68000 191.040
48.69000 191.046
48.70000 190.972
48.71000 190.917
48.72000 184.066
48.73000 178.538
48.74000 176.364
48.75000 179.942
48.76000 183.618
48.77000 186.525
48.78000 188.562
48.79000 190.591
48.80000 189.049
48.81000 184.940
48.82000 180.852
48.83000 177.470
48.84000 174.434
48.85000 171.761
48.86000 174.410
48.87000 178.815
48.88000 182.817
48.89000 183.921
48.90000 184.335
48.91000 184.772
48.92000 185.334
48.93000 185.914
48.94000 186.889
48.95000 189.194
48.96000 191.606
48.97000 193.299
48.98000 190.200
48.99000 187.716
49.00000 183.854
49.01000 177.893
49.02000 171.909
49.03000 169.388
49.04000 170.304
49.05000 171.214
49.06000 174.482
49.07000 179.200
49.08000 183.642
49.09000 181.068
49.10000 175.439
49.11000 170.519
49.12000 174.200
49.13000 180.411
49.14000 185.961
49.15000 185.661
49.16000 184.410
49.17000 183.175
49.18000 182.011
49.19000 180.855
49.20000 179.925
49.21000 179.670
49.22000 179.460
49.23000 179.318
49.24000 176.315
49.25000 174.018
49.26000 174.461
49.27000 178.611
49.28000 182.778
49.29000 182.993
49.30000 179.764
49.31000 176.572
49.32000 174.681
49.33000 173.566
49.34000 172.457
49.35000 171.462
49.36000 170.511
49.37000 169.982
49.38000 173.774
49.39000 178.695
49.40000 183.015
49.41000 185.835
49.42000 188.038
49.43000 189.825
49.44000 189.955
49.45000 189.914
49.46000 188.507
49.47000 183.451
49.48000 178.198
49.49000 174.793
49.50000 175.441
49.51000 175.976
49.52000 177.230
49.53000 179.343
49.54000 181.452
49.55000 182.195
49.56000 181.888
49.57000 181.586
49.58000 181.240
49.59000 180.884
49.60000 180.377
49.61000 177.461
49.62000 173.708
49.63000 170.405
49.64000 171.013
49.65000 172.528
49.66000 173.833
49.67000 175.736
49.68000 177.424
49.69000 178.537
49.70000 177.620
49.71000 176.526
49.72000 177.266
49.73000 182.379
49.74000 187.680
49.75000 190.964
49.76000 179.596
49.77000 171.279
49.78000 168.861
49.79000 172.653
49.80000 176.391
49.81000 173.881
49.82000 167.110
49.83000 160.497
49.84000 163.121
49.85000 169.681
49.86000 175.714
49.87000 174.821
49.88000 171.783
49.89000 169.745
49.90000 175.207
49.91000 182.207
49.92000 188.106
49.93000 179.219
49.94000 170.209
49.95000 163.926
49.96000 166.233
49.97000 169.166
49.98000 171.714
49.99000 173.441
50.00000 175.140
50.01000 176.143
50.02000 174.097
50.03000 172.636
50.04000 171.787
50.05000 171.503
50.06000 171.245
50.07000 172.769
50.08000 175.373
50.09000 177.895
50.10000 182.401
50.11000 187.433
50.12000 192.085
50.13000 192.565
50.14000 191.894
50.15000 191.334
50.16000 191.495
50.17000 191.786
50.18000 192.026
50.19000 185.946
50.20000 180.370
50.21000 176.152
50.22000 175.750
50.23000 175.576
50.24000 177.032
50.25000 181.584
50.26000 186.211
50.27000 188.799
50.28000 185.719
50.29000 183.571
50.30000 180.517
50.31000 176.727
50.32000 173.023
50.33000 173.229
50.34000 175.547
50.35000 177.772
50.36000 174.496
50.37000 169.553
50.38000 165.557
50.39000 170.398
50.40000 177.403
50.41000 183.545
50.42000 184.767
50.43000 185.210
50.44000 185.566
50.45000 192.578
50.46000 198.769
50.47000 203.176
50.48000 203.113
50.49000 202.835
50.50000 204.234
50.51000 208.473
50.52000 212.758
50.53000 215.019
50.54000 205.813
50.55000 199.627
50.56000 204.019
50.57000 216.020
50.58000 227.918
50.59000 236.447
50.60000 243.353
50.61000 249.913
50.62000 245.095
50.63000 237.219
50.64000 230.494
50.65000 232.986
50.66000 237.476
50.67000 241.826
50.68000 245.471
50.69000 249.018
50.70000 251.790
50.71000 252.458
50.72000 252.857
50.73000 252.037
50.74000 248.487
50.75000 244.836
50.76000 242.844
50.77000 243.352
50.78000 243.885
50.79000 246.543
50.80000 251.280
50.81000 255.928
50.82000 253.097
50.83000 245.491
50.84000 237.980
50.85000 232.829
50.86000 228.693
50.87000 224.811
50.88000 228.640
50.89000 234.173
50.90000 238.479
50.91000 234.274
50.92000 228.441
50.93000 222.913
50.94000 218.739
50.95000 214.726
50.96000 211.681
50.97000 211.341
50.98000 211.214
50.99000 210.487
51.00000 208.558
51.01000 206.597
51.02000 204.842
51.03000 203.364
51.04000 201.889
51.05000 199.099
51.06000 195.185
51.07000 191.245
51.08000 185.865
51.09000 179.668
51.10000 173.922
51.11000 176.921
51.12000 183.280
51.13000 189.172
51.14000 184.148
51.15000 177.090
51.16000 171.150
51.17000 171.971
51.18000 173.927
51.19000 175.810
51.20000 177.404
51.21000 178.969
51.22000 180.120
51.23000 175.319
51.24000 171.361
51.25000 166.247
51.26000 159.072
51.27000 151.857
51.28000 151.919
51.29000 160.570
51.30000 169.213
51.31000 170.106
51.32000 165.147
51.33000 160.397
51.34000 163.447
51.35000 170.451
51.36000 176.938
51.37000 175.342
51.38000 170.973
51.39000 166.983
51.40000 164.796
51.41000 163.221
51.42000 162.763
51.43000 168.228
51.44000 174.562
51.45000 178.720
51.46000 175.281
51.47000 171.189
51.48000 168.282
51.49000 175.501
51.50000 181.319
51.51000 181.467
51.52000 172.614
51.53000 163.647
51.54000 159.917
51.55000 161.624
51.56000 163.321
51.57000 162.915
51.58000 161.116
51.59000 159.375
51.60000 159.250
51.61000 159.855
51.62000 160.538
51.63000 162.234
51.64000 164.240
51.65000 166.043
51.66000 166.599
51.67000 166.864
51.68000 167.449
51.69000 169.526
51.70000 171.793
51.71000 172.996
51.72000 170.889
51.73000 168.546
51.74000 166.942
51.75000 169.073
51.76000 170.758
51.77000 170.889
51.78000 168.829
51.79000 166.753
51.80000 163.819
51.81000 160.104
51.82000 156.424
51.83000 156.254
51.84000 158.145
51.85000 159.978
51.86000 160.582
51.87000 160.690
51.88000 161.133
51.89000 165.205
51.90000 170.265
51.91000 174.734
51.92000 175.179
51.93000 174.944
51.94000 173.802
51.95000 168.904
51.96000 163.596
51.97000 160.430
51.98000 163.206
51.99000 166.331
52.00000 168.385
52.01000 160.430
52.02000 154.404
52.03000 151.633
52.04000 152.925
52.05000 154.226
52.06000 154.468
52.07000 153.860
52.08000 153.262
52.09000 153.435
52.10000 154.004
52.11000 154.700
52.12000 157.588
52.13000 161.267
52.14000 164.739
52.15000 166.305
52.16000 167.411
52.17000 168.369
52.18000 160.694
52.19000 153.016
52.20000 147.663
52.21000 150.864
52.22000 154.858
52.23000 157.727
52.24000 157.809
52.25000 157.760
52.26000 157.730
52.27000 161.064
52.28000 163.515
52.29000 163.041
52.30000 159.350
52.31000 155.674
52.32000 154.363
52.33000 154.733
52.34000 155.095
52.35000 157.739
52.36000 161.323
52.37000 164.599
52.38000 163.567
52.39000 161.149
52.40000 159.021
52.41000 159.183
52.42000 159.835
52.43000 160.388
52.44000 162.121
52.45000 163.710
52.46000 165.209
52.47000 166.414
52.48000 167.597
52.49000 168.702
52.50000 169.634
52.51000 170.560
52.52000 171.115
52.53000 168.468
52.54000 166.565
52.55000 160.834
52.56000 151.408
52.57000 142.129
52.58000 144.540
52.59000 154.323
52.60000 163.828
52.61000 165.790
52.62000 164.609
52.63000 163.598
52.64000 164.570
52.65000 166.110
52.66000 167.689
52.67000 169.529
52.68000 171.419
52.69000 172.987
52.70000 168.133
52.71000 163.501
52.72000 159.741
52.73000 158.532
52.74000 157.487
52.75000 157.780
52.76000 160.717
52.77000 163.724
52.78000 165.438
52.79000 158.980
52.80000 154.458
52.81000 154.498
52.82000 158.407
52.83000 162.289
52.84000 164.846
52.85000 166.657
52.86000 168.402
52.87000 168.996
52.88000 169.144
52.89000 169.341
52.90000 170.021
52.91000 170.823
52.92000 171.416
52.93000 170.764
52.94000 169.904
52.95000 169.208
52.96000 161.257
52.97000 154.192
52.98000 150.634
52.99000 156.215
53.00000 162.270
53.01000 165.068
53.02000 162.134
53.03000 159.091
53.04000 157.453
53.05000 154.560
53.06000 152.578
53.07000 150.116
53.08000 147.293
53.09000 144.633
53.10000 147.830
53.11000 153.960
53.12000 159.805
53.13000 161.718
53.14000 162.256
53.15000 162.533
53.16000 160.608
53.17000 158.185
53.18000 156.190
53.19000 156.437
53.20000 157.009
53.21000 157.460
53.22000 155.273
53.23000 153.340
53.24000 152.469
53.25000 154.067
53.26000 155.766
53.27000 158.922
53.28000 164.363
53.29000 169.832
53.30000 172.597
53.31000 164.810
53.32000 159.661
53.33000 160.789
53.34000 166.089
53.35000 171.155
53.36000 169.948
53.37000 165.937
53.38000 162.155
53.39000 160.718
53.40000 160.052
53.41000 159.582
53.42000 160.545
53.43000 161.795
53.44000 162.426
53.45000 160.196
53.46000 157.609
53.47000 155.626
53.48000 161.138
53.49000 165.908
53.50000 167.089
53.51000 160.818
53.52000 154.316
53.53000 151.836
53.54000 154.955
53.55000 158.110
53.56000 157.625
53.57000 153.875
53.58000 150.139
53.59000 147.174
53.60000 144.666
53.61000 142.513
53.62000 147.791
53.63000 156.036
53.64000 163.710
53.65000 162.270
53.66000 158.754
53.67000 155.690
53.68000 155.484
53.69000 155.781
53.70000 156.455
53.71000 158.671
53.72000 161.051
53.73000 162.821
53.74000 160.731
53.75000 158.934
53.76000 156.884
53.77000 154.368
53.78000 151.841
53.79000 152.762
53.80000 157.928
53.81000 163.097
53.82000 162.886
53.83000 158.437
53.84000 154.057
53.85000 152.527
53.86000 152.500
53.87000 152.549
53.88000 153.878
53.89000 155.663
53.90000 157.301
53.91000 152.193
53.92000 146.202
53.93000 142.057
53.94000 148.145
53.95000 155.804
53.96000 162.078
53.97000 163.321
53.98000 164.106
53.99000 164.671
54.00000 160.941
54.01000 157.936
54.02000 156.894
54.03000 159.093
54.04000 161.341
54.05000 161.653
54.06000 159.866
54.07000 158.086
54.08000 160.757
54.09000 166.487
54.10000 171.969
54.11000 169.886
54.12000 164.244
54.13000 158.842
54.14000 156.721
54.15000 155.644
54.16000 154.670
54.17000 153.172
54.18000 151.757
54.19000 150.686
54.20000 151.293
54.21000 152.124
54.22000 153.842
54.23000 158.428
54.24000 163.234
54.25000 166.566
54.26000 161.952
54.27000 158.268
54.28000 156.034
54.29000 155.930
54.30000 155.844
54.31000 155.120
54.32000 153.791
54.33000 152.473
54.34000 152.058
54.35000 152.204
54.36000 152.180
54.37000 148.201
54.38000 142.561
54.39000 137.742
54.40000 142.309
54.41000 149.534
54.42000 155.955
54.43000 152.024
54.44000 146.944
54.45000 143.645
54.46000 148.036
54.47000 153.312
54.48000 157.257
54.49000 157.366
54.50000 157.235
54.51000 157.148
54.52000 158.545
54.53000 159.608
54.54000 160.485
54.55000 161.118
54.56000 161.748
54.57000 160.790
54.58000 158.504
54.59000 156.247
54.60000 157.399
54.61000 160.361
54.62000 163.119
54.63000 162.138
54.64000 159.754
54.65000 157.687
54.66000 158.688
54.67000 160.462
54.68000 162.009
54.69000 160.745
54.70000 159.272
54.71000 158.803
54.72000 162.176
54.73000 165.926
54.74000 167.822
54.75000 164.948
54.76000 161.831
54.77000 159.840
54.78000 152.772
54.79000 147.562
54.80000 147.877
54.81000 154.538
54.82000 161.179
54.83000 162.605
54.84000 160.174
54.85000 157.788
54.86000 156.165
54.87000 154.962
54.88000 153.851
54.89000 154.103
54.90000 154.811
54.91000 156.012
54.92000 161.303
54.93000 167.506
54.94000 172.810
54.95000 165.482
54.96000 157.791
54.97000 153.249
54.98000 159.429
54.99000 166.495
55.00000 169.432
55.01000 162.878
55.02000 155.948
55.03000 151.719
55.04000 161.507
55.05000 168.619
55.06000 170.134
55.07000 166.002
55.08000 161.902
55.09000 160.728
55.10000 161.474
55.11000 162.202
55.12000 162.117
55.13000 161.694
55.14000 161.172
55.15000 159.421
55.16000 157.303
55.17000 155.506
55.18000 156.002
55.19000 156.951
55.20000 157.744
55.21000 156.515
55.22000 155.287
55.23000 155.833
55.24000 161.765
55.25000 168.066
55.26000 170.702
55.27000 165.814
55.28000 160.702
55.29000 157.736
55.30000 166.985
55.31000 173.525
55.32000 177.744
55.33000 179.908
55.34000 181.995
55.35000 179.534
55.36000 174.417
55.37000 169.475
55.38000 165.541
55.39000 162.208
55.40000 159.344
55.41000 161.368
55.42000 164.690
55.43000 168.194
55.44000 172.831
55.45000 177.664
55.46000 181.612
55.47000 183.152
55.48000 184.205
55.49000 185.326
55.50000 186.629
55.51000 187.943
55.52000 190.400
55.53000 194.951
55.54000 199.547
55.55000 202.071
55.56000 203.785
55.57000 204.969
55.58000 207.454
55.59000 210.955
55.60000 214.496
55.61000 219.644
55.62000 225.630
55.63000 231.356
55.64000 235.885
55.65000 239.710
55.66000 244.144
55.67000 253.989
55.68000 265.108
55.69000 276.621
55.70000 290.286
55.71000 304.277
55.72000 315.415
55.73000 328.623
55.74000 339.421
55.75000 351.340
55.76000 365.966
55.77000 380.713
55.78000 396.864
55.79000 415.304
55.80000 433.777
55.81000 443.326
55.82000 469.628
55.83000 487.338
55.84000 502.160
55.85000 514.983
55.86000 528.074
55.87000 549.105
55.88000 573.826
55.89000 597.221
55.90000 602.248
55.91000 601.565
55.92000 601.700
55.93000 608.086
55.94000 615.774
55.95000 621.003
55.96000 614.399
55.97000 606.239
55.98000 599.921
55.99000 610.594
56.00000 620.078
56.01000 625.397
56.02000 621.729
56.03000 617.753
56.04000 610.816
56.05000 599.587
56.06000 588.323
56.07000 570.986
56.08000 547.962
56.09000 525.035
56.10000 509.058
56.11000 497.354
56.12000 485.620
56.13000 473.183
56.14000 460.454
56.15000 448.553
56.16000 427.205
56.17000 405.423
56.18000 385.616
56.19000 378.906
56.20000 374.599
56.21000 367.481
56.22000 348.389
56.23000 327.942
56.24000 312.579
56.25000 310.609
56.26000 309.712
56.27000 303.366
56.28000 286.520
56.29000 269.412
56.30000 257.029
56.31000 250.713
56.32000 244.428
56.33000 235.650
56.34000 224.851
56.35000 214.208
56.36000 210.984
56.37000 211.824
56.38000 212.295
56.39000 206.151
56.40000 197.556
56.41000 189.628
56.42000 189.947
56.43000 192.070
56.44000 193.252
56.45000 188.986
56.46000 183.845
56.47000 179.793
56.48000 179.859
56.49000 180.321
56.50000 180.657
56.51000 182.811
56.52000 184.537
56.53000 182.230
56.54000 172.996
56.55000 163.642
56.56000 158.474
56.57000 158.049
56.58000 157.629
56.59000 153.859
56.60000 147.694
56.61000 141.871
56.62000 147.553
56.63000 158.856
56.64000 169.430
56.65000 169.333
56.66000 165.708
56.67000 162.414
56.68000 158.163
56.69000 154.219
56.70000 151.063
56.71000 151.921
56.72000 153.341
56.73000 155.687
56.74000 161.148
56.75000 166.862
56.76000 170.875
56.77000 160.053
56.78000 151.426
56.79000 146.733
56.80000 148.050
56.81000 149.432
56.82000 151.169
56.83000 153.260
56.84000 155.337
56.85000 155.912
56.86000 155.521
56.87000 154.990
56.88000 150.902
56.89000 145.264
56.90000 139.966
56.91000 138.821
56.92000 138.899
56.93000 138.969
56.94000 138.917
56.95000 138.851
56.96000 139.314
56.97000 142.148
56.98000 145.270
56.99000 147.603
57.00000 147.569
57.01000 147.376
57.02000 147.245
57.03000 147.154
57.04000 147.087
57.05000 148.602
57.06000 152.263
57.07000 155.931
57.08000 155.393
57.09000 151.182
57.10000 147.018
57.11000 147.734
57.12000 151.182
57.13000 154.469
57.14000 154.557
57.15000 153.398
57.16000 152.267
57.17000 151.413
57.18000 150.631
57.19000 149.945
57.20000 148.213
57.21000 146.572
57.22000 145.269
57.23000 145.318
57.24000 145.506
57.25000 144.877
57.26000 142.061
57.27000 139.126
57.28000 137.222
57.29000 145.418
57.30000 151.570
57.31000 154.841
57.32000 154.659
57.33000 154.470
57.34000 154.053
57.35000 153.460
57.36000 152.878
57.37000 149.567
57.38000 145.008
57.39000 140.650
57.40000 139.500
57.41000 139.466
57.42000 139.857
57.43000 143.951
57.44000 148.907
57.45000 153.174
57.46000 152.609
57.47000 151.519
57.48000 150.316
57.49000 148.709
57.50000 147.067
57.51000 147.121
57.52000 151.226
57.53000 155.506
57.54000 158.160
57.55000 152.195
57.56000 147.820
57.57000 145.803
57.58000 146.272
57.59000 146.719
57.60000 144.537
57.61000 140.559
57.62000 136.673
57.63000 141.576
57.64000 150.128
57.65000 157.913
57.66000 155.583
57.67000 150.115
57.68000 145.545
57.69000 147.729
57.70000 151.301
57.71000 154.312
57.72000 149.816
57.73000 145.252
57.74000 141.324
57.75000 139.405
57.76000 137.633
57.77000 137.706
57.78000 141.716
57.79000 145.856
57.80000 148.300
57.81000 142.508
57.82000 138.374
57.83000 136.732
57.84000 137.394
57.85000 138.070
57.86000 139.671
57.87000 141.835
57.88000 143.931
57.89000 145.181
57.90000 146.037
57.91000 146.775
57.92000 146.220
57.93000 145.307
57.94000 144.153
57.95000 141.427
57.96000 138.417
57.97000 135.937
57.98000 139.381
57.99000 142.756
58.00000 143.991
58.01000 139.207
58.02000 134.062
58.03000 130.318
58.04000 129.241
58.05000 128.228
58.06000 127.661
58.07000 138.326
58.08000 145.728
58.09000 147.284
58.10000 144.078
58.11000 140.957
58.12000 141.677
58.13000 144.474
58.14000 147.160
58.15000 147.270
58.16000 146.492
58.17000 145.722
58.18000 145.039
58.19000 144.377
58.20000 143.795
58.21000 143.672
58.22000 143.621
58.23000 143.580
58.24000 140.090
58.25000 136.998
58.26000 136.602
58.27000 142.980
58.28000 149.684
58.29000 152.925
58.30000 150.293
58.31000 147.563
58.32000 146.122
58.33000 147.007
58.34000 147.604
58.35000 147.280
58.36000 146.294
58.37000 145.264
58.38000 142.807
58.39000 139.660
58.40000 136.670
58.41000 137.489
58.42000 139.394
58.43000 141.433
58.44000 144.550
58.45000 147.901
58.46000 149.798
58.47000 144.386
58.48000 137.967
58.49000 132.948
58.50000 132.876
58.51000 133.134
58.52000 134.347
58.53000 137.706
58.54000 141.144
58.55000 144.373
58.56000 147.286
58.57000 150.195
58.58000 148.652
58.59000 142.745
58.60000 136.906
58.61000 136.733
58.62000 140.186
58.63000 143.518
58.64000 143.860
58.65000 142.914
58.66000 142.025
58.67000 144.693
58.68000 148.070
58.69000 150.362
58.70000 145.118
58.71000 138.430
58.72000 133.538
58.73000 136.617
58.74000 140.645
58.75000 143.704
58.76000 142.399
58.77000 141.147
58.78000 140.059
58.79000 139.299
58.80000 138.548
58.81000 139.974
58.82000 144.314
58.83000 148.666
58.84000 148.113
58.85000 143.344
58.86000 138.651
58.87000 138.075
58.88000 139.843
58.89000 141.465
58.90000 140.268
58.91000 137.985
58.92000 135.869
58.93000 138.544
58.94000 142.067
58.95000 145.477
58.96000 148.198
58.97000 150.803
58.98000 152.118
58.99000 148.360
59.00000 144.084
59.01000 140.939
59.02000 134.586
59.03000 129.538
59.04000 127.446
59.05000 130.631
59.06000 133.919
59.07000 136.956
59.08000 139.694
59.09000 142.424
59.10000 142.298
59.11000 140.012
59.12000 137.793
59.13000 138.037
59.14000 139.531
59.15000 140.823
59.16000 138.935
59.17000 135.955
59.18000 133.232
59.19000 133.663
59.20000 134.689
59.21000 135.394
59.22000 134.390
59.23000 133.135
59.24000 131.657
59.25000 129.398
59.26000 127.072
59.27000 125.418
59.28000 123.905
59.29000 122.758
59.30000 122.453
59.31000 123.487
59.32000 124.539
59.33000 125.697
59.34000 126.967
59.35000 128.229
59.36000 128.236
59.37000 127.408
59.38000 126.605
59.39000 126.488
59.40000 126.681
59.41000 126.990
59.42000 128.788
59.43000 131.043
59.44000 133.070
59.45000 134.716
59.46000 136.090
59.47000 137.028
59.48000 135.924
59.49000 134.560
59.50000 134.013
59.51000 136.012
59.52000 138.193
59.53000 139.688
59.54000 135.576
59.55000 132.363
59.56000 132.366
59.57000 136.912
59.58000 141.488
59.59000 143.235
59.60000 142.402
59.61000 141.577
59.62000 139.861
59.63000 137.656
59.64000 135.478
59.65000 133.867
59.66000 132.484
59.67000 131.274
59.68000 131.923
59.69000 133.080
59.70000 134.102
59.71000 132.973
59.72000 131.667
59.73000 130.775
59.74000 131.598
59.75000 132.609
59.76000 133.980
59.77000 136.354
59.78000 138.787
59.79000 140.388
59.80000 140.787
59.81000 141.060
59.82000 139.773
59.83000 136.534
59.84000 133.295
59.85000 132.246
59.86000 132.956
59.87000 133.657
59.88000 130.856
59.89000 126.324
59.90000 122.271
59.91000 126.468
59.92000 133.648
59.93000 139.907
59.94000 137.699
59.95000 133.442
59.96000 129.750
59.97000 128.334
59.98000 127.430
59.99000 126.975
60.00000 128.175
60.01000 129.528
60.02000 129.330
60.03000 125.281
60.04000 121.053
60.05000 118.389
60.06000 123.326
60.07000 126.986
60.08000 128.200
60.09000 126.718
60.10000 125.269
60.11000 128.783
60.12000 135.827
60.13000 142.723
60.14000 140.332
60.15000 133.780
60.16000 127.731
60.17000 128.742
60.18000 132.030
60.19000 135.092
60.20000 136.368
60.21000 137.261
60.22000 138.019
60.23000 138.452
60.24000 138.777
60.25000 138.774
60.26000 137.690
60.27000 136.521
60.28000 135.594
60.29000 135.199
60.30000 134.825
60.31000 134.599
60.32000 130.733
60.33000 127.961
60.34000 127.981
60.35000 130.698
60.36000 133.368
60.37000 132.183
60.38000 128.563
60.39000 125.046
60.40000 125.317
60.41000 127.106
60.42000 128.994
60.43000 132.048
60.44000 135.436
60.45000 138.273
60.46000 137.342
60.47000 135.697
60.48000 134.332
60.49000 135.854
60.50000 137.392
60.51000 137.301
60.52000 132.445
60.53000 127.283
60.54000 125.924
60.55000 132.089
60.56000 138.456
60.57000 142.088
60.58000 136.159
60.59000 132.000
60.60000 131.894
60.61000 135.233
60.62000 138.495
60.63000 137.817
60.64000 134.922
60.65000 132.134
60.66000 133.485
60.67000 136.231
60.68000 138.400
60.69000 134.868
60.70000 129.879
60.71000 125.792
60.72000 127.090
60.73000 129.281
60.74000 131.056
60.75000 135.222
60.76000 138.810
60.77000 141.049
60.78000 139.767
60.79000 138.303
60.80000 138.456
60.81000 141.463
60.82000 144.523
60.83000 146.173
60.84000 142.174
60.85000 139.443
60.86000 138.443
60.87000 138.744
60.88000 138.983
60.89000 136.943
60.90000 133.761
60.91000 130.727
60.92000 132.372
60.93000 135.372
60.94000 137.715
60.95000 134.515
60.96000 130.059
60.97000 126.587
60.98000 128.278
60.99000 130.716
61.00000 132.640
61.01000 133.399
61.02000 133.929
61.03000 133.701
61.04000 131.704
61.05000 129.636
61.06000 128.898
61.07000 130.250
61.08000 131.627
61.09000 132.324
61.10000 134.579
61.11000 136.074
61.12000 136.051
61.13000 135.017
61.14000 133.928
61.15000 131.382
61.16000 128.183
61.17000 125.166
61.18000 126.958
61.19000 129.933
61.20000 132.971
61.21000 136.481
61.22000 140.085
61.23000 142.902
61.24000 142.080
61.25000 140.801
61.26000 139.820
61.27000 140.633
61.28000 141.375
61.29000 142.049
61.30000 142.583
61.31000 143.113
61.32000 142.347
61.33000 139.776
61.34000 137.193
61.35000 137.826
61.36000 141.347
61.37000 144.800
61.38000 143.998
61.39000 140.677
61.40000 137.372
61.41000 134.391
61.42000 131.540
61.43000 128.886
61.44000 133.111
61.45000 138.606
61.46000 143.249
61.47000 142.494
61.48000 140.789
61.49000 139.990
61.50000 142.899
61.51000 146.207
61.52000 148.667
61.53000 153.356
61.54000 157.103
61.55000 163.635
61.56000 175.338
61.57000 187.157
61.58000 197.551
61.59000 206.185
61.60000 214.799
61.61000 220.477
61.62000 223.810
61.63000 227.135
61.64000 230.115
61.65000 232.912
61.66000 235.488
61.67000 234.337
61.68000 231.856
61.69000 229.578
61.70000 237.443
61.71000 246.622
61.72000 254.802
61.73000 257.434
61.74000 259.212
61.75000 258.258
61.76000 247.369
61.77000 235.573
61.78000 227.087
61.79000 216.794
61.80000 208.851
61.81000 199.785
61.82000 188.860
61.83000 177.908
61.84000 171.184
61.85000 169.055
61.86000 166.938
61.87000 161.910
61.88000 154.912
61.89000 148.053
61.90000 145.427
61.91000 144.797
61.92000 144.302
61.93000 145.691
61.94000 147.679
61.95000 149.476
61.96000 148.774
61.97000 147.691
61.98000 146.879
61.99000 147.392
62.00000 148.082
62.01000 148.507
62.02000 148.072
62.03000 147.571
62.04000 147.224
62.05000 143.726
62.06000 141.009
62.07000 138.740
62.08000 137.132
62.09000 135.530
62.10000 134.587
62.11000 134.272
62.12000 133.960
62.13000 137.006
62.14000 142.055
62.15000 147.045
62.16000 150.651
62.17000 153.675
62.18000 156.033
62.19000 150.745
62.20000 143.288
62.21000 136.659
62.22000 136.962
62.23000 138.347
62.24000 140.493
62.25000 145.930
62.26000 151.746
62.27000 154.589
62.28000 148.848
62.29000 142.565
62.30000 138.374
62.31000 139.300
62.32000 140.085
62.33000 140.348
62.34000 139.931
62.35000 139.512
62.36000 139.278
62.37000 139.199
62.38000 139.121
62.39000 141.715
62.40000 145.684
62.41000 149.538
62.42000 151.257
62.43000 152.174
62.44000 152.745
62.45000 149.953
62.46000 146.314
62.47000 143.138
62.48000 145.480
62.49000 148.256
62.50000 150.357
62.51000 149.872
62.52000 149.134
62.53000 146.963
62.54000 141.101
62.55000 135.052
62.56000 131.184
62.57000 139.727
62.58000 146.110
62.59000 147.590
62.60000 143.427
62.61000 139.274
62.62000 138.145
62.63000 139.257
62.64000 140.349
62.65000 138.646
62.66000 135.670
62.67000 133.014
62.68000 135.160
62.69000 138.916
62.70000 142.078
62.71000 140.298
62.72000 137.415
62.73000 134.948
62.74000 138.032
62.75000 141.298
62.76000 143.415
62.77000 141.610
62.78000 139.480
62.79000 138.682
62.80000 140.952
62.81000 143.345
62.82000 144.806
62.83000 142.160
62.84000 140.234
62.85000 139.783
62.86000 140.823
62.87000 141.870
62.88000 143.669
62.89000 145.961
62.90000 148.195
62.91000 145.789
62.92000 141.537
62.93000 137.830
62.94000 140.876
62.95000 145.942
62.96000 150.665
62.97000 152.927
62.98000 154.704
62.99000 156.190
63.00000 153.182
63.01000 150.222
63.02000 147.274
63.03000 144.366
63.04000 141.460
63.05000 140.280
63.06000 142.651
63.07000 145.128
63.08000 146.567
63.09000 146.503
63.10000 146.451
63.11000 145.528
63.12000 143.832
63.13000 142.238
63.14000 146.626
63.15000 154.512
63.16000 162.132
63.17000 160.058
63.18000 154.492
63.19000 149.274
63.20000 147.682
63.21000 147.054
63.22000 146.288
63.23000 144.666
63.24000 142.894
63.25000 141.446
63.26000 142.409
63.27000 143.406
63.28000 144.396
63.29000 145.369
63.30000 146.341
63.31000 146.085
63.32000 143.577
63.33000 141.021
63.34000 139.616
63.35000 141.977
63.36000 143.600
63.37000 143.056
63.38000 140.816
63.39000 138.643
63.40000 139.171
63.41000 141.107
63.42000 142.959
63.43000 145.474
63.44000 148.033
63.45000 150.348
63.46000 150.487
63.47000 150.112
63.48000 149.946
63.49000 150.928
63.50000 152.083
63.51000 153.003
63.52000 149.150
63.53000 145.698
63.54000 142.820
63.55000 141.331
63.56000 139.904
63.57000 140.409
63.58000 144.069
63.59000 147.774
63.60000 149.691
63.61000 145.057
63.62000 141.950
63.63000 141.275
63.64000 142.286
63.65000 143.368
63.66000 146.587
63.67000 150.801
63.68000 154.789
63.69000 151.201
63.70000 145.709
63.71000 140.649
63.72000 138.908
63.73000 137.859
63.74000 137.015
63.75000 137.155
63.76000 137.426
63.77000 137.635
63.78000 146.127
63.79000 153.365
63.80000 157.301
63.81000 154.099
63.82000 150.652
63.83000 149.164
63.84000 150.520
63.85000 151.900
63.86000 155.254
63.87000 160.462
63.88000 165.566
63.89000 163.246
63.90000 156.352
63.91000 149.614
63.92000 146.405
63.93000 144.664
63.94000 143.036
63.95000 145.487
63.96000 148.750
63.97000 151.384
63.98000 149.840
63.99000 147.526
64.00000 145.192
64.01000 142.769
64.02000 140.336
64.03000 138.507
64.04000 148.240
64.05000 156.409
64.06000 160.755
64.07000 157.728
64.08000 154.514
64.09000 151.584
64.10000 149.019
64.11000 146.457
64.12000 146.873
64.13000 149.742
64.14000 152.654
64.15000 157.620
64.16000 163.713
64.17000 169.473
64.18000 169.229
64.19000 166.758
64.20000 164.478
64.21000 160.665
64.22000 156.906
64.23000 153.972
64.24000 155.828
64.25000 158.456
64.26000 160.408
64.27000 159.803
64.28000 158.951
64.29000 158.330
64.30000 155.737
64.31000 153.666
64.32000 153.982
64.33000 158.407
64.34000 162.903
64.35000 164.731
64.36000 163.531
64.37000 162.331
64.38000 162.628
64.39000 164.006
64.40000 165.380
64.41000 166.583
64.42000 167.703
64.43000 168.641
64.44000 166.911
64.45000 164.298
64.46000 161.923
64.47000 157.318
64.48000 152.813
64.49000 149.836
64.50000 154.654
64.51000 160.566
64.52000 165.431
64.53000 166.772
64.54000 167.826
64.55000 168.567
64.56000 170.279
64.57000 171.603
64.58000 170.223
64.59000 164.702
64.60000 159.136
64.61000 156.085
64.62000 155.539
64.63000 154.998
64.64000 159.352
64.65000 166.769
64.66000 173.861
64.67000 172.654
64.68000 167.819
64.69000 163.425
64.70000 164.402
64.71000 166.965
64.72000 169.257
64.73000 170.407
64.74000 171.216
64.75000 172.148
64.76000 173.635
64.77000 175.189
64.78000 175.996
64.79000 174.560
64.80000 172.972
64.81000 171.898
64.82000 174.731
64.83000 176.925
64.84000 180.691
64.85000 186.594
64.86000 192.500
64.87000 191.315
64.88000 183.925
64.89000 176.617
64.90000 176.283
64.91000 179.891
64.92000 183.146
64.93000 179.373
64.94000 172.857
64.95000 166.945
64.96000 167.225
64.97000 169.130
64.98000 170.803
64.99000 171.740
65.00000 172.436
65.01000 174.311
65.02000 180.888
65.03000 187.953
65.04000 191.847
65.05000 187.246
65.06000 182.179
65.07000 178.891
65.08000 177.727
65.09000 176.906
65.10000 178.867
65.11000 184.168
65.12000 189.472
65.13000 193.862
65.14000 197.546
65.15000 201.169
65.16000 203.978
65.17000 206.291
65.18000 208.490
65.19000 208.873
65.20000 208.622
65.21000 208.764
65.22000 212.342
65.23000 216.720
65.24000 220.491
65.25000 223.139
65.26000 225.240
65.27000 227.806
65.28000 232.021
65.29000 236.382
65.30000 240.686
65.31000 244.854
65.32000 249.015
65.33000 251.598
65.34000 259.814
65.35000 265.780
65.36000 274.217
65.37000 285.263
65.38000 296.248
65.39000 300.154
65.40000 299.215
65.41000 298.297
65.42000 302.383
65.43000 308.495
65.44000 314.472
65.45000 318.660
65.46000 322.292
65.47000 326.514
65.48000 335.184
65.49000 344.770
65.50000 352.852
65.51000 359.875
65.52000 365.625
65.53000 369.085
65.54000 365.311
65.55000 361.006
65.56000 359.858
65.57000 365.454
65.58000 371.274
65.59000 374.714
65.60000 376.855
65.61000 378.362
65.62000 383.438
65.63000 391.820
65.64000 400.178
65.65000 406.907
65.66000 412.646
65.67000 418.207
65.68000 433.683
65.69000 452.186
65.70000 471.073
65.71000 494.219
65.72000 518.543
65.73000 544.828
65.74000 583.940
65.75000 625.379
65.76000 659.522
65.77000 696.771
65.78000 727.705
65.79000 759.633
65.80000 794.361
65.81000 829.259
65.82000 858.400
65.83000 876.567
65.84000 894.469
65.85000 904.497
65.86000 913.157
65.87000 919.148
65.88000 922.379
65.89000 923.356
65.90000 924.153
65.91000 916.752
65.92000 904.907
65.93000 893.534
65.94000 862.776
65.95000 827.359
65.96000 790.858
65.97000 744.200
65.98000 695.046
65.99000 646.891
66.00000 604.458
66.01000 562.934
66.02000 529.565
66.03000 483.484
66.04000 445.153
66.05000 410.316
66.06000 384.269
66.07000 358.646
66.08000 337.308
66.09000 323.252
66.10000 309.317
66.11000 301.953
66.12000 299.079
66.13000 297.111
66.14000 292.228
66.15000 285.239
66.16000 278.457
66.17000 278.426
66.18000 281.661
66.19000 284.734
66.20000 281.110
66.21000 275.737
66.22000 271.340
66.23000 274.789
66.24000 279.947
66.25000 284.596
66.26000 286.682
66.27000 288.414
66.28000 289.769
66.29000 299.574
66.30000 307.939
66.31000 317.788
66.32000 330.969
66.33000 344.274
66.34000 355.691
66.35000 364.252
66.36000 372.784
66.37000 383.604
66.38000 396.671
66.39000 409.598
66.40000 410.605
66.41000 403.971
66.42000 397.320
66.43000 390.249
66.44000 382.996
66.45000 376.184
66.46000 383.474
66.47000 393.872
66.48000 401.825
66.49000 392.753
66.50000 380.411
66.51000 369.416
66.52000 364.409
66.53000 360.116
66.54000 356.855
66.55000 342.671
66.56000 330.955
66.57000 322.057
66.58000 318.814
66.59000 315.730
66.60000 309.709
66.61000 299.753
66.62000 289.782
66.63000 289.603
66.64000 297.857
66.65000 305.941
66.66000 304.775
66.67000 298.332
66.68000 292.033
66.69000 288.536
66.70000 286.119
66.71000 283.879
66.72000 288.054
66.73000 293.308
66.74000 297.696
66.75000 296.818
66.76000 295.052
66.77000 293.180
66.78000 290.889
66.79000 288.555
66.80000 286.837
66.81000 295.099
66.82000 301.905
66.83000 306.248
66.84000 306.182
66.85000 306.029
66.86000 305.848
66.87000 305.635
66.88000 305.422
66.89000 307.829
66.90000 312.206
66.91000 316.434
66.92000 315.106
66.93000 310.952
66.94000 307.162
66.95000 309.110
66.96000 313.032
66.97000 316.615
66.98000 324.061
66.99000 331.461
67.00000 337.004
67.01000 332.649
67.02000 326.838
67.03000 323.383
67.04000 328.185
67.05000 333.700
67.06000 337.622
67.07000 339.362
67.08000 340.616
67.09000 339.580
67.10000 334.893
67.11000 330.159
67.12000 328.254
67.13000 329.296
67.14000 330.334
67.15000 332.004
67.16000 334.075
67.17000 336.009
67.18000 334.119
67.19000 330.492
67.20000 327.477
67.21000 332.379
67.22000 339.711
67.23000 346.305
67.24000 351.801
67.25000 356.420
67.26000 358.937
67.27000 351.589
67.28000 342.983
67.29000 338.432
67.30000 346.533
67.31000 355.545
67.32000 361.721
67.33000 358.510
67.34000 355.879
67.35000 357.758
67.36000 366.020
67.37000 374.324
67.38000 374.444
67.39000 367.086
67.40000 359.798
67.41000 359.750
67.42000 363.963
67.43000 368.314
67.44000 375.648
67.45000 384.192
67.46000 392.115
67.47000 393.289
67.48000 392.620
67.49000 392.029
67.50000 386.976
67.51000 381.923
67.52000 378.011
67.53000 378.840
67.54000 380.188
67.55000 382.147
67.56000 385.806
67.57000 389.566
67.58000 392.041
67.59000 398.112
67.60000 402.646
67.61000 403.267
67.62000 398.984
67.63000 394.707
67.64000 397.301
67.65000 405.427
67.66000 413.435
67.67000 416.549
67.68000 417.030
67.69000 417.560
67.70000 418.936
67.71000 420.618
67.72000 422.615
67.73000 427.508
67.74000 433.104
67.75000 437.956
67.76000 439.437
67.77000 440.248
67.78000 440.313
67.79000 437.625
67.80000 434.680
67.81000 433.770
67.82000 437.915
67.83000 442.298
67.84000 445.061
67.85000 456.023
67.86000 464.053
67.87000 465.447
67.88000 459.516
67.89000 453.645
67.90000 457.187
67.91000 467.438
67.92000 477.475
67.93000 481.395
67.94000 482.353
67.95000 483.056
67.96000 480.156
67.97000 476.092
67.98000 472.991
67.99000 477.516
68.00000 483.679
68.01000 488.914
68.02000 480.300
68.03000 471.489
68.04000 467.473
68.05000 479.203
68.06000 492.164
68.07000 501.265
68.08000 501.796
68.09000 502.015
68.10000 502.147
68.11000 513.292
68.12000 521.290
68.13000 525.315
68.14000 525.492
68.15000 525.721
68.16000 530.208
68.17000 537.388
68.18000 544.366
68.19000 548.417
68.20000 551.081
68.21000 553.544
68.22000 553.657
68.23000 553.093
68.24000 553.305
68.25000 558.841
68.26000 565.384
68.27000 570.819
68.28000 573.760
68.29000 575.949
68.30000 578.541
68.31000 582.309
68.32000 586.154
68.33000 586.930
68.34000 581.628
68.35000 576.161
68.36000 573.041
68.37000 587.455
68.38000 597.563
68.39000 603.944
68.40000 607.153
68.41000 610.495
68.42000 620.762
68.43000 634.930
68.44000 648.577
68.45000 655.126
68.46000 658.737
68.47000 662.645
68.48000 669.500
68.49000 677.108
68.50000 683.949
68.51000 686.201
68.52000 687.689
68.53000 688.896
68.54000 711.687
68.55000 732.020
68.56000 752.077
68.57000 771.409
68.58000 790.703
68.59000 813.424
68.60000 842.201
68.61000 871.092
68.62000 886.673
68.63000 936.209
68.64000 970.137
68.65000 1006.553
68.66000 1044.841
68.67000 1083.070
68.68000 1119.110
68.69000 1154.051
68.70000 1187.374
68.71000 1234.060
68.72000 1281.591
68.73000 1327.230
68.74000 1356.851
68.75000 1382.839
68.76000 1414.507
68.77000 1476.019
68.78000 1541.858
68.79000 1593.841
68.80000 1636.634
68.81000 1670.349
68.82000 1717.934
68.83000 1797.893
68.84000 1879.182
68.85000 1957.046
68.86000 2029.523
68.87000 2101.934
68.88000 2138.630
68.89000 2396.033
68.90000 2569.839
68.91000 2889.336
68.92000 3306.019
68.93000 3744.852
68.94000 4784.256
68.95000 6093.080
68.96000 7327.294
68.97000 9909.370
68.98000 12649.154
68.99000 15512.895
69.00000 19282.121
69.01000 23232.869
69.02000 27158.908
69.03000 30970.480
69.04000 34767.676
69.05000 37681.555
69.06000 40623.180
69.07000 42949.348
69.08000 44730.395
69.09000 45375.195
69.10000 45984.594
69.11000 46376.758
69.12000 46465.520
69.13000 46552.211
69.14000 46823.926
69.15000 47261.941
69.16000 47702.609
69.17000 48308.645
69.18000 49012.785
69.19000 49669.379
69.20000 49325.230
69.21000 48580.145
69.22000 47886.328
69.23000 45671.352
69.24000 43297.477
69.25000 40918.242
69.26000 38504.965
69.27000 36085.688
69.28000 33720.711
69.29000 31578.516
69.30000 29460.338
69.31000 27884.207
69.32000 26564.879
69.33000 25549.951
69.34000 24721.875
69.35000 24241.309
69.36000 23768.557
69.37000 23193.242
69.38000 22491.156
69.39000 21789.980
69.40000 20641.197
69.41000 19143.736
69.42000 17637.453
69.43000 15758.551
69.44000 13682.628
69.45000 11626.232
69.46000 9898.735
69.47000 8288.889
69.48000 6810.603
69.49000 5558.257
69.50000 4489.239
69.51000 3502.628
69.52000 2974.528
69.53000 2517.155
69.54000 2117.372
69.55000 1927.426
69.56000 1756.688
69.57000 1633.807
69.58000 1488.161
69.59000 1375.841
69.60000 1291.625
69.61000 1253.980
69.62000 1217.036
69.63000 1177.321
69.64000 1134.588
69.65000 1092.038
69.66000 1051.758
69.67000 1013.474
69.68000 975.849
69.69000 958.457
69.70000 950.614
69.71000 942.082
69.72000 924.052
69.73000 902.992
69.74000 883.948
69.75000 858.493
69.76000 834.896
69.77000 814.340
69.78000 808.679
69.79000 805.014
69.80000 797.385
69.81000 776.900
69.82000 755.428
69.83000 740.522
69.84000 725.241
69.85000 713.720
69.86000 707.072
69.87000 707.605
69.88000 708.203
69.89000 709.821
69.90000 712.412
69.91000 714.982
69.92000 702.615
69.93000 681.298
69.94000 660.441
69.95000 650.365
69.96000 644.831
69.97000 639.396
69.98000 635.081
69.99000 631.085
70.00000 627.532
