20.00000 548.488
20.01000 560.906
20.02000 575.099
20.03000 583.591
20.04000 569.862
20.05000 553.896
20.06000 542.179
20.07000 552.581
20.08000 561.514
20.09000 567.359
20.10000 567.735
20.11000 568.006
20.12000 568.470
20.13000 569.159
20.14000 569.847
20.15000 571.364
20.16000 573.491
20.17000 575.391
20.18000 569.001
20.19000 558.435
20.20000 548.850
20.21000 554.387
20.22000 565.078
20.23000 574.833
20.24000 565.230
20.25000 552.808
20.26000 543.219
20.27000 548.545
20.28000 556.041
20.29000 561.279
20.30000 558.689
20.31000 555.434
20.32000 553.126
20.33000 554.339
20.34000 555.371
20.35000 557.050
20.36000 559.750
20.37000 562.463
20.38000 568.075
20.39000 576.672
20.40000 585.220
20.41000 587.071
20.42000 584.480
20.43000 581.674
20.44000 573.016
20.45000 561.727
20.46000 551.282
20.47000 551.596
20.48000 555.177
20.49000 558.393
20.50000 562.235
20.51000 565.705
20.52000 568.220
20.53000 566.298
20.54000 563.818
20.55000 561.598
20.56000 560.182
20.57000 558.822
20.58000 557.894
20.59000 567.137
20.60000 574.290
20.61000 576.538
20.62000 571.919
20.63000 567.256
20.64000 564.529
20.65000 563.551
20.66000 562.583
20.67000 562.290
20.68000 562.396
20.69000 562.534
20.70000 563.345
20.71000 564.427
20.72000 565.095
20.73000 561.352
20.74000 556.416
20.75000 552.061
20.76000 544.566
20.77000 537.622
20.78000 534.090
20.79000 544.586
20.80000 556.600
20.81000 563.227
20.82000 555.015
20.83000 545.945
20.84000 539.996
20.85000 545.977
20.86000 550.575
20.87000 550.961
20.88000 546.130
20.89000 541.300
20.90000 541.708
20.91000 546.286
20.92000 550.795
20.93000 554.661
20.94000 558.079
20.95000 561.640
20.96000 567.623
20.97000 574.472
20.98000 579.974
20.99000 573.221
21.00000 563.525
21.01000 555.132
21.02000 560.415
21.03000 566.706
21.04000 570.245
21.05000 563.735
21.06000 556.303
21.07000 550.042
21.08000 546.663
21.09000 543.417
21.10000 541.379
21.11000 551.923
21.12000 559.682
21.13000 555.585
21.14000 538.542
21.15000 521.636
21.16000 524.059
21.17000 540.113
21.18000 555.822
21.19000 555.994
21.20000 549.107
21.21000 542.496
21.22000 539.699
21.23000 538.121
21.24000 537.862
21.25000 547.905
21.26000 560.138
21.27000 570.508
21.28000 562.984
21.29000 554.662
21.30000 548.822
21.31000 551.051
21.32000 553.900
21.33000 555.895
21.34000 556.014
21.35000 556.066
21.36000 556.097
21.37000 556.638
21.38000 557.025
21.39000 555.942
21.40000 553.452
21.41000 551.022
21.42000 553.154
21.43000 558.144
21.44000 562.989
21.45000 559.465
21.46000 552.766
21.47000 546.492
21.48000 545.144
21.49000 545.198
21.50000 545.173
21.51000 544.607
21.52000 543.940
21.53000 543.387
21.54000 546.083
21.55000 548.620
21.56000 549.528
21.57000 545.715
21.58000 541.602
21.59000 540.144
21.60000 543.892
21.61000 547.778
21.62000 549.985
21.63000 548.692
21.64000 547.784
21.65000 549.208
21.66000 552.594
21.67000 556.064
21.68000 563.740
21.69000 573.762
21.70000 583.407
21.71000 583.759
21.72000 580.801
21.73000 577.742
21.74000 573.696
21.75000 569.401
21.76000 566.636
21.77000 572.919
21.78000 580.688
21.79000 586.972
21.80000 583.146
21.81000 579.220
21.82000 577.057
21.83000 579.453
21.84000 582.082
21.85000 587.399
21.86000 597.418
21.87000 607.523
21.88000 612.944
21.89000 626.187
21.90000 635.221
21.91000 641.690
21.92000 646.250
21.93000 650.655
21.94000 649.599
21.95000 645.827
21.96000 642.234
21.97000 654.389
21.98000 670.568
21.99000 685.388
22.00000 688.871
22.01000 689.809
22.02000 691.234
22.03000 695.184
22.04000 699.496
22.05000 702.893
22.06000 695.228
22.07000 688.346
22.08000 683.413
22.09000 682.984
22.10000 682.736
22.11000 682.513
22.12000 682.331
22.13000 682.148
22.14000 682.057
22.15000 683.979
22.16000 685.162
22.17000 676.357
22.18000 660.958
22.19000 646.036
22.20000 643.709
22.21000 646.977
22.22000 650.055
22.23000 641.155
22.24000 629.724
22.25000 618.130
22.26000 605.365
22.27000 592.369
22.28000 581.580
22.29000 580.908
22.30000 581.491
22.31000 581.937
22.32000 581.769
22.33000 581.604
22.34000 577.612
22.35000 565.725
22.36000 553.599
22.37000 548.622
22.38000 553.525
22.39000 558.488
22.40000 557.414
22.41000 550.968
22.42000 544.606
22.43000 543.223
22.44000 544.763
22.45000 545.962
22.46000 540.099
22.47000 531.437
22.48000 523.380
22.49000 524.109
22.50000 526.887
22.51000 530.051
22.52000 535.640
22.53000 541.653
22.54000 545.712
22.55000 541.844
22.56000 537.134
22.57000 533.639
22.58000 520.828
22.59000 510.466
22.60000 505.853
22.61000 511.825
22.62000 518.027
22.63000 519.945
22.64000 516.626
22.65000 513.300
22.66000 512.989
22.67000 515.037
22.68000 517.140
22.69000 521.539
22.70000 527.140
22.71000 532.751
22.72000 538.545
22.73000 544.404
22.74000 549.778
22.75000 548.603
22.76000 546.173
22.77000 542.679
22.78000 533.331
22.79000 523.091
22.80000 515.273
22.81000 516.190
22.82000 517.894
22.83000 519.117
22.84000 521.919
22.85000 524.115
22.86000 521.697
22.87000 511.711
22.88000 501.615
22.89000 498.779
22.90000 503.760
22.91000 508.720
22.92000 512.976
22.93000 516.700
22.94000 520.370
22.95000 522.401
22.96000 523.665
22.97000 524.887
22.98000 525.528
22.99000 525.985
23.00000 526.397
23.01000 518.119
23.02000 509.242
23.03000 502.948
23.04000 509.164
23.05000 517.036
23.06000 523.263
23.07000 524.207
23.08000 524.753
23.09000 525.131
23.10000 529.164
23.11000 532.293
23.12000 532.818
23.13000 529.546
23.14000 526.241
23.15000 519.138
23.16000 508.451
23.17000 497.854
23.18000 491.570
23.19000 488.022
23.20000 484.807
23.21000 489.255
23.22000 496.899
23.23000 504.445
23.24000 510.880
23.25000 517.003
23.26000 522.439
23.27000 523.999
23.28000 524.732
23.29000 524.032
23.30000 517.197
23.31000 509.662
23.32000 502.630
23.33000 497.037
23.34000 491.534
23.35000 487.873
23.36000 509.166
23.37000 525.386
23.38000 530.301
23.39000 520.611
23.40000 510.877
23.41000 507.674
23.42000 509.897
23.43000 512.091
23.44000 511.473
23.45000 509.366
23.46000 507.506
23.47000 510.151
23.48000 514.475
23.49000 518.066
23.50000 514.621
23.51000 509.417
23.52000 504.883
23.53000 502.870
23.54000 501.498
23.55000 500.920
23.56000 503.357
23.57000 506.087
23.58000 506.166
23.59000 499.469
23.60000 492.434
23.61000 487.950
23.62000 490.360
23.63000 492.201
23.64000 496.169
23.65000 502.563
23.66000 508.932
23.67000 510.415
23.68000 508.309
23.69000 506.245
23.70000 506.848
23.71000 508.693
23.72000 510.434
23.73000 510.632
23.74000 510.316
23.75000 510.375
23.76000 513.508
23.77000 517.323
23.78000 520.581
23.79000 520.565
23.80000 520.163
23.81000 518.974
23.82000 515.127
23.83000 511.062
23.84000 508.280
23.85000 508.424
23.86000 508.683
23.87000 508.840
23.88000 505.530
23.89000 503.139
23.90000 506.242
23.91000 514.843
23.92000 523.396
23.93000 527.536
23.94000 528.799
23.95000 530.029
23.96000 530.186
23.97000 529.886
23.98000 529.851
23.99000 533.057
24.00000 537.224
24.01000 541.602
24.02000 547.489
24.03000 553.670
24.04000 558.834
24.05000 546.557
24.06000 534.601
24.07000 523.594
24.08000 515.444
24.09000 507.488
24.10000 504.515
24.11000 511.701
24.12000 519.184
24.13000 523.513
24.14000 538.139
24.15000 548.424
24.16000 549.162
24.17000 541.511
24.18000 533.980
24.19000 533.308
24.20000 536.615
24.21000 539.807
24.22000 537.950
24.23000 534.336
24.24000 530.552
24.25000 525.012
24.26000 519.008
24.27000 514.376
24.28000 518.236
24.29000 523.556
24.30000 527.894
24.31000 523.079
24.32000 518.358
24.33000 513.224
24.34000 506.976
24.35000 500.667
24.36000 498.877
24.37000 505.303
24.38000 511.901
24.39000 515.511
24.40000 508.350
24.41000 503.423
24.42000 501.561
24.43000 502.076
24.44000 502.530
24.45000 500.616
24.46000 497.476
24.47000 494.475
24.48000 495.034
24.49000 496.713
24.50000 497.675
24.51000 492.327
24.52000 485.503
24.53000 480.721
24.54000 487.018
24.55000 494.978
24.56000 501.305
24.57000 494.311
24.58000 487.727
24.59000 484.055
24.60000 487.377
24.61000 491.005
24.62000 492.673
24.63000 491.166
24.64000 489.615
24.65000 488.817
24.66000 495.973
24.67000 500.764
24.68000 502.138
24.69000 501.164
24.70000 500.140
24.71000 497.638
24.72000 494.453
24.73000 491.441
24.74000 498.217
24.75000 507.251
24.76000 514.036
24.77000 503.789
24.78000 490.018
24.79000 479.633
24.80000 485.426
24.81000 493.326
24.82000 499.434
24.83000 503.561
24.84000 506.720
24.85000 502.452
24.86000 482.261
24.87000 461.537
24.88000 455.598
24.89000 470.938
24.90000 486.445
24.91000 491.540
24.92000 486.948
24.93000 482.459
24.94000 485.186
24.95000 492.321
24.96000 499.059
24.97000 496.948
24.98000 491.191
24.99000 485.811
25.00000 483.691
25.01000 482.590
25.02000 481.654
25.03000 481.814
25.04000 482.173
25.05000 483.108
25.06000 486.475
25.07000 490.115
25.08000 492.844
25.09000 482.252
25.10000 473.348
25.11000 469.471
25.12000 475.212
25.13000 481.189
25.14000 483.702
25.15000 481.797
25.16000 479.879
25.17000 482.530
25.18000 488.903
25.19000 495.097
25.20000 493.023
25.21000 486.450
25.22000 480.100
25.23000 477.710
25.24000 476.776
25.25000 475.915
25.26000 478.541
25.27000 481.662
25.28000 483.862
25.29000 480.767
25.30000 476.828
25.31000 473.392
25.32000 471.843
25.33000 470.475
25.34000 469.482
25.35000 462.122
25.36000 456.225
25.37000 454.866
25.38000 461.246
25.39000 467.757
25.40000 468.345
25.41000 462.272
25.42000 456.216
25.43000 459.810
25.44000 470.307
25.45000 480.382
25.46000 476.479
25.47000 465.790
25.48000 455.931
25.49000 458.071
25.50000 464.152
25.51000 469.672
25.52000 478.214
25.53000 486.340
25.54000 491.870
25.55000 484.277
25.56000 474.861
25.57000 466.148
25.58000 459.783
25.59000 453.606
25.60000 449.278
25.61000 453.756
25.62000 457.396
25.63000 460.663
25.64000 463.364
25.65000 466.059
25.66000 466.193
25.67000 463.800
25.68000 461.423
25.69000 461.120
25.70000 462.135
25.71000 463.050
25.72000 461.495
25.73000 458.867
25.74000 456.226
25.75000 453.409
25.76000 450.541
25.77000 447.979
25.78000 461.738
25.79000 476.461
25.80000 486.228
25.81000 473.872
25.82000 458.862
25.83000 450.060
25.84000 459.736
25.85000 470.640
25.86000 477.993
25.87000 479.650
25.88000 480.763
25.89000 478.179
25.90000 470.618
25.91000 463.033
25.92000 457.632
25.93000 454.125
25.94000 450.658
25.95000 452.114
25.96000 456.287
25.97000 460.090
25.98000 456.631
25.99000 450.361
26.00000 445.283
26.01000 452.275
26.02000 462.409
26.03000 471.297
26.04000 478.834
26.05000 485.109
26.06000 489.382
26.07000 485.731
26.08000 481.266
26.09000 475.747
26.10000 467.429
26.11000 458.960
26.12000 453.482
26.13000 448.964
26.14000 445.674
26.15000 446.789
26.16000 453.147
26.17000 459.513
26.18000 465.817
26.19000 472.073
26.20000 478.222
26.21000 471.481
26.22000 458.603
26.23000 446.326
26.24000 443.559
26.25000 444.077
26.26000 445.382
26.27000 453.492
26.28000 463.173
26.29000 471.498
26.30000 468.140
26.31000 463.834
26.32000 460.827
26.33000 462.390
26.34000 464.349
26.35000 464.305
26.36000 459.507
26.37000 454.507
26.38000 451.415
26.39000 455.200
26.40000 457.985
26.41000 456.066
26.42000 449.223
26.43000 442.448
26.44000 443.161
26.45000 448.955
26.46000 454.612
26.47000 458.036
26.48000 460.338
26.49000 462.906
26.50000 468.927
26.51000 476.012
26.52000 482.008
26.53000 479.879
26.54000 476.091
26.55000 472.903
26.56000 459.408
26.57000 447.049
26.58000 436.889
26.59000 433.620
26.60000 430.849
26.61000 430.275
26.62000 434.356
26.63000 438.587
26.64000 441.078
26.65000 455.383
26.66000 465.531
26.67000 464.901
26.68000 454.379
26.69000 444.019
26.70000 444.432
26.71000 451.343
26.72000 458.036
26.73000 455.717
26.74000 450.054
26.75000 444.624
26.76000 441.734
26.77000 439.542
26.78000 438.304
26.79000 443.256
26.80000 449.319
26.81000 454.306
26.82000 455.833
26.83000 456.775
26.84000 457.616
26.85000 458.173
26.86000 458.714
26.87000 456.335
26.88000 448.436
26.89000 440.406
26.90000 435.927
26.91000 430.891
26.92000 427.419
26.93000 429.191
26.94000 435.204
26.95000 441.140
26.96000 443.661
26.97000 444.348
26.98000 445.007
26.99000 446.334
27.00000 447.802
27.01000 448.953
27.02000 447.172
27.03000 444.677
27.04000 442.589
27.05000 442.810
27.06000 443.394
27.07000 443.862
27.08000 430.451
27.09000 418.539
27.10000 412.800
27.11000 422.465
27.12000 432.861
27.13000 438.807
27.14000 437.255
27.15000 435.584
27.16000 434.704
27.17000 438.974
27.18000 441.837
27.19000 439.478
27.20000 433.383
27.21000 427.455
27.22000 426.902
27.23000 428.927
27.24000 430.849
27.25000 436.582
27.26000 443.014
27.27000 448.583
27.28000 447.286
27.29000 444.508
27.30000 442.302
27.31000 442.947
27.32000 443.982
27.33000 444.790
27.34000 443.397
27.35000 442.148
27.36000 439.658
27.37000 434.400
27.38000 429.040
27.39000 426.222
27.40000 427.212
27.41000 428.239
27.42000 431.791
27.43000 437.799
27.44000 443.720
27.45000 442.563
27.46000 436.909
27.47000 431.514
27.48000 432.438
27.49000 436.066
27.50000 439.470
27.51000 447.420
27.52000 455.861
27.53000 462.308
27.54000 455.014
27.55000 445.106
27.56000 436.622
27.57000 434.406
27.58000 432.931
27.59000 431.813
27.60000 430.790
27.61000 429.991
27.62000 430.242
27.63000 432.578
27.64000 434.972
27.65000 438.059
27.66000 442.065
27.67000 446.072
27.68000 445.477
27.69000 440.955
27.70000 436.464
27.71000 433.594
27.72000 431.641
27.73000 429.902
27.74000 432.264
27.75000 436.194
27.76000 439.833
27.77000 444.884
27.78000 449.752
27.79000 453.481
27.80000 450.363
27.81000 446.100
27.82000 442.079
27.83000 438.999
27.84000 436.013
27.85000 433.821
27.86000 435.924
27.87000 437.724
27.88000 435.812
27.89000 427.315
27.90000 418.692
27.91000 417.152
27.92000 423.926
27.93000 430.694
27.94000 433.750
27.95000 433.999
27.96000 434.241
27.97000 434.202
27.98000 434.022
27.99000 433.864
28.00000 434.045
28.01000 434.343
28.02000 434.614
28.03000 436.042
28.04000 437.543
28.05000 438.976
28.06000 440.042
28.07000 441.056
28.08000 442.357
28.09000 444.657
28.10000 447.042
28.11000 448.734
28.12000 443.044
28.13000 438.484
28.14000 437.678
28.15000 442.799
28.16000 447.993
28.17000 449.049
28.18000 445.834
28.19000 442.638
28.20000 439.377
28.21000 436.116
28.22000 432.857
28.23000 429.656
28.24000 426.480
28.25000 423.964
28.26000 429.862
28.27000 438.321
28.28000 445.919
28.29000 448.388
28.30000 449.645
28.31000 448.709
28.32000 437.568
28.33000 425.140
28.34000 416.526
28.35000 419.714
28.36000 423.739
28.37000 426.489
28.38000 430.601
28.39000 433.710
28.40000 433.026
28.41000 427.024
28.42000 420.991
28.43000 424.224
28.44000 435.841
28.45000 447.345
28.46000 446.242
28.47000 437.811
28.48000 429.718
28.49000 428.786
28.50000 430.734
28.51000 432.542
28.52000 432.843
28.53000 432.736
28.54000 432.642
28.55000 426.592
28.56000 420.463
28.57000 415.001
28.58000 412.292
28.59000 409.881
28.60000 410.802
28.61000 420.917
28.62000 431.565
28.63000 438.554
28.64000 439.464
28.65000 440.032
28.66000 436.909
28.67000 429.206
28.68000 421.504
28.69000 418.550
28.70000 419.384
28.71000 420.206
28.72000 423.577
28.73000 428.160
28.74000 432.445
28.75000 431.682
28.76000 429.106
28.77000 427.323
28.78000 432.767
28.79000 439.948
28.80000 446.166
28.81000 441.777
28.82000 436.645
28.83000 431.755
28.84000 427.747
28.85000 423.821
28.86000 421.976
28.87000 425.261
28.88000 428.784
28.89000 430.996
28.90000 427.308
28.91000 424.577
28.92000 423.624
28.93000 424.616
28.94000 425.583
28.95000 422.982
28.96000 417.861
28.97000 412.850
28.98000 415.163
28.99000 420.714
29.00000 425.969
29.01000 427.115
29.02000 426.946
29.03000 426.760
29.04000 426.446
29.05000 426.105
29.06000 425.815
29.07000 427.859
29.08000 429.835
29.09000 429.611
29.10000 422.224
29.11000 414.283
29.12000 408.110
29.13000 405.825
29.14000 403.679
29.15000 402.394
29.16000 417.306
29.17000 427.998
29.18000 434.343
29.19000 436.519
29.20000 438.621
29.21000 435.025
29.22000 427.854
29.23000 420.890
29.24000 415.647
29.25000 411.359
29.26000 407.469
29.27000 408.183
29.28000 410.210
29.29000 411.980
29.30000 412.008
29.31000 411.709
29.32000 411.461
29.33000 412.609
29.34000 413.690
29.35000 415.414
29.36000 419.000
29.37000 422.705
29.38000 423.738
29.39000 419.521
29.40000 415.164
29.41000 412.688
29.42000 410.687
29.43000 409.293
29.44000 407.372
29.45000 405.007
29.46000 402.756
29.47000 406.221
29.48000 412.880
29.49000 419.290
29.50000 420.760
29.51000 420.387
29.52000 419.934
29.53000 418.686
29.54000 417.236
29.55000 415.953
29.56000 415.659
29.57000 415.527
29.58000 415.420
29.59000 408.179
29.60000 401.710
29.61000 399.691
29.62000 409.205
29.63000 419.310
29.64000 424.118
29.65000 419.647
29.66000 415.004
29.67000 412.511
29.68000 413.395
29.69000 414.013
29.70000 416.904
29.71000 421.489
29.72000 425.927
29.73000 425.155
29.74000 421.788
29.75000 418.579
29.76000 421.804
29.77000 426.803
29.78000 430.476
29.79000 423.056
29.80000 413.140
29.81000 405.957
29.82000 412.993
29.83000 422.069
29.84000 429.220
29.85000 426.252
29.86000 423.194
29.87000 419.714
29.88000 415.259
29.89000 410.764
29.90000 409.593
29.91000 413.603
29.92000 417.674
29.93000 419.727
29.94000 431.820
29.95000 439.842
29.96000 441.683
29.97000 439.437
29.98000 437.292
29.99000 437.841
30.00000 439.590
30.01000 441.237
30.02000 445.428
30.03000 449.964
30.04000 453.814
30.05000 452.703
30.06000 450.607
30.07000 448.397
30.08000 445.671
30.09000 442.880
30.10000 440.743
30.11000 442.162
30.12000 443.477
30.13000 441.872
30.14000 434.232
30.15000 426.409
30.16000 419.665
30.17000 414.417
30.18000 409.180
30.19000 412.534
30.20000 423.542
30.21000 434.389
30.22000 435.546
30.23000 431.003
30.24000 426.866
30.25000 431.111
30.26000 438.686
30.27000 445.734
30.28000 441.789
30.29000 435.571
30.30000 429.153
30.31000 421.483
30.32000 413.594
30.33000 409.202
30.34000 419.030
30.35000 430.372
30.36000 438.792
30.37000 424.916
30.38000 413.152
30.39000 407.330
30.40000 412.466
30.41000 417.842
30.42000 423.306
30.43000 428.875
30.44000 434.434
30.45000 435.460
30.46000 432.930
30.47000 430.419
30.48000 428.646
30.49000 427.261
30.50000 426.102
30.51000 428.690
30.52000 432.606
30.53000 436.198
30.54000 429.927
30.55000 422.251
30.56000 416.286
30.57000 419.755
30.58000 424.664
30.59000 429.687
30.60000 435.123
30.61000 440.597
30.62000 444.526
30.63000 441.151
30.64000 438.318
30.65000 436.184
30.66000 435.198
30.67000 434.228
30.68000 433.795
30.69000 433.941
30.70000 434.086
30.71000 438.717
30.72000 446.392
30.73000 453.945
30.74000 457.842
30.75000 460.027
30.76000 461.621
30.77000 455.160
30.78000 446.150
30.79000 438.013
30.80000 440.000
30.81000 443.615
30.82000 446.559
30.83000 446.241
30.84000 445.492
30.85000 448.035
30.86000 461.167
30.87000 475.100
30.88000 484.745
30.89000 484.555
30.90000 484.155
30.91000 486.532
30.92000 492.965
30.93000 499.433
30.94000 505.719
30.95000 511.834
30.96000 517.898
30.97000 518.652
30.98000 516.163
30.99000 514.391
31.00000 529.135
31.01000 550.779
31.02000 571.421
31.03000 580.670
31.04000 586.709
31.05000 592.071
31.06000 628.139
31.07000 664.333
31.08000 699.947
31.09000 733.074
31.10000 765.916
31.11000 803.549
31.12000 854.922
31.13000 907.151
31.14000 941.914
31.15000 1029.228
31.16000 1094.827
31.17000 1180.106
31.18000 1290.856
31.19000 1401.682
31.20000 1500.144
31.21000 1588.317
31.22000 1675.328
31.23000 1804.224
31.24000 1952.136
31.25000 2099.604
31.26000 2238.981
31.27000 2375.340
31.28000 2511.749
31.29000 2648.637
31.30000 2785.646
31.31000 2905.066
31.32000 3032.794
31.33000 3143.113
31.34000 3244.278
31.35000 3310.600
31.36000 3373.526
31.37000 3416.862
31.38000 3410.030
31.39000 3400.686
31.40000 3394.727
31.41000 3332.594
31.42000 3286.685
31.43000 3235.233
31.44000 3177.450
31.45000 3119.451
31.46000 3024.761
31.47000 2903.074
31.48000 2783.714
31.49000 2649.594
31.50000 2513.377
31.51000 2377.616
31.52000 2248.593
31.53000 2121.813
31.54000 1994.893
31.55000 1866.808
31.56000 1738.465
31.57000 1628.835
31.58000 1489.765
31.59000 1369.099
31.60000 1256.387
31.61000 1170.606
31.62000 1087.034
31.63000 1005.794
31.64000 929.885
31.65000 854.186
31.66000 808.094
31.67000 749.924
31.68000 708.272
31.69000 672.773
31.70000 643.443
31.71000 614.197
31.72000 592.652
31.73000 576.135
31.74000 560.050
31.75000 550.424
31.76000 543.957
31.77000 536.946
31.78000 523.262
31.79000 507.599
31.80000 492.930
31.81000 485.344
31.82000 479.146
31.83000 473.967
31.84000 462.211
31.85000 451.784
31.86000 444.928
31.87000 448.850
31.88000 453.506
31.89000 455.103
31.90000 450.454
31.91000 445.621
31.92000 442.823
31.93000 441.365
31.94000 440.347
31.95000 437.571
31.96000 433.248
31.97000 428.948
31.98000 425.969
31.99000 423.758
32.00000 421.623
32.01000 424.109
32.02000 428.160
32.03000 431.754
32.04000 430.614
32.05000 428.225
32.06000 424.970
32.07000 416.344
32.08000 406.793
32.09000 399.000
32.10000 408.655
32.11000 418.047
32.12000 422.907
32.13000 415.560
32.14000 407.538
32.15000 405.940
32.16000 416.042
32.17000 426.391
32.18000 432.060
32.19000 429.910
32.20000 428.392
32.21000 419.372
32.22000 404.524
32.23000 390.039
32.24000 389.963
32.25000 397.350
32.26000 404.415
32.27000 403.763
32.28000 400.639
32.29000 397.261
32.30000 391.644
32.31000 385.503
32.32000 380.498
32.33000 381.666
32.34000 383.762
32.35000 385.429
32.36000 392.043
32.37000 397.726
32.38000 400.865
32.39000 397.887
32.40000 394.640
32.41000 391.793
32.42000 389.597
32.43000 387.409
32.44000 386.282
32.45000 385.942
32.46000 385.709
32.47000 385.039
32.48000 384.067
32.49000 383.040
32.50000 380.383
32.51000 376.973
32.52000 373.748
32.53000 369.453
32.54000 365.198
32.55000 361.852
32.56000 365.400
32.57000 370.378
32.58000 374.811
32.59000 376.636
32.60000 378.121
32.61000 379.269
32.62000 381.374
32.63000 383.101
32.64000 383.971
32.65000 383.000
32.66000 381.966
32.67000 381.133
32.68000 380.591
32.69000 380.051
32.70000 375.776
32.71000 368.022
32.72000 360.385
32.73000 360.954
32.74000 366.543
32.75000 371.913
32.76000 372.383
32.77000 370.830
32.78000 369.379
32.79000 369.284
32.80000 369.541
32.81000 370.144
32.82000 373.026
32.83000 376.324
32.84000 376.982
32.85000 366.457
32.86000 354.675
32.87000 345.835
32.88000 361.857
32.89000 375.555
32.90000 383.691
32.91000 381.161
32.92000 378.369
32.93000 378.497
32.94000 382.356
32.95000 386.223
32.96000 391.949
32.97000 399.177
32.98000 406.239
32.99000 405.626
33.00000 400.828
33.01000 396.272
33.02000 396.012
33.03000 397.336
33.04000 398.556
33.05000 394.478
33.06000 389.655
33.07000 385.809
33.08000 387.597
33.09000 390.285
33.10000 391.193
33.11000 385.410
33.12000 378.986
33.13000 374.320
33.14000 374.313
33.15000 374.483
33.16000 373.857
33.17000 371.870
33.18000 369.861
33.19000 366.535
33.20000 361.726
33.21000 356.933
33.22000 354.460
33.23000 353.679
33.24000 352.884
33.25000 351.638
33.26000 350.173
33.27000 349.026
33.28000 352.494
33.29000 357.480
33.30000 362.007
33.31000 362.281
33.32000 361.700
33.33000 360.237
33.34000 354.307
33.35000 347.755
33.36000 342.217
33.37000 340.069
33.38000 338.193
33.39000 336.879
33.40000 338.980
33.41000 340.668
33.42000 342.595
33.43000 344.885
33.44000 347.180
33.45000 351.578
33.46000 358.056
33.47000 364.490
33.48000 365.328
33.49000 362.602
33.50000 359.666
33.51000 351.445
33.52000 340.931
33.53000 330.969
33.54000 327.660
33.55000 326.301
33.56000 325.088
33.57000 324.403
33.58000 323.896
33.59000 325.033
33.60000 333.522
33.61000 342.894
33.62000 349.309
33.63000 346.907
33.64000 343.918
33.65000 341.901
33.66000 342.713
33.67000 343.377
33.68000 346.847
33.69000 354.101
33.70000 361.370
33.71000 364.708
33.72000 364.630
33.73000 364.554
33.74000 358.097
33.75000 348.223
33.76000 338.942
33.77000 341.349
33.78000 348.288
33.79000 354.342
33.80000 351.406
33.81000 346.127
33.82000 341.495
33.83000 341.306
33.84000 341.792
33.85000 341.751
33.86000 339.624
33.87000 337.283
33.88000 336.141
33.89000 338.194
33.90000 340.419
33.91000 341.859
33.92000 339.375
33.93000 337.500
33.94000 338.686
33.95000 343.522
33.96000 348.353
33.97000 350.512
33.98000 350.622
33.99000 350.730
34.00000 346.914
34.01000 341.284
34.02000 336.032
34.03000 336.765
34.04000 339.570
34.05000 342.510
34.06000 346.619
34.07000 350.997
34.08000 354.764
34.09000 349.878
34.10000 344.655
34.11000 339.875
34.12000 336.652
34.13000 333.566
34.14000 330.338
34.15000 326.775
34.16000 323.198
34.17000 320.984
34.18000 329.196
34.19000 335.197
34.20000 337.740
34.21000 336.656
34.22000 335.560
34.23000 333.286
34.24000 330.211
34.25000 327.209
34.26000 331.743
34.27000 339.373
34.28000 346.678
34.29000 349.738
34.30000 351.488
34.31000 352.614
34.32000 349.079
34.33000 344.591
34.34000 340.812
34.35000 348.508
34.36000 356.159
34.37000 361.956
34.38000 361.936
34.39000 361.494
34.40000 358.125
34.41000 348.546
34.42000 338.765
34.43000 333.002
34.44000 353.233
34.45000 367.640
34.46000 368.511
34.47000 356.935
34.48000 345.531
34.49000 345.633
34.50000 352.688
34.51000 359.520
34.52000 358.240
34.53000 353.899
34.54000 349.434
34.55000 343.611
34.56000 337.415
34.57000 333.266
34.58000 342.409
34.59000 353.943
34.60000 363.434
34.61000 359.584
34.62000 355.207
34.63000 352.473
34.64000 354.336
34.65000 356.473
34.66000 354.735
34.67000 345.657
34.68000 336.405
34.69000 331.239
34.70000 335.685
34.71000 338.774
34.72000 338.210
34.73000 334.685
34.74000 331.171
34.75000 328.144
34.76000 325.378
34.77000 322.725
34.78000 325.674
34.79000 330.337
34.80000 334.818
34.81000 337.607
34.82000 339.983
34.83000 341.544
34.84000 338.478
34.85000 334.682
34.86000 331.636
34.87000 336.079
34.88000 340.247
34.89000 341.938
34.90000 337.438
34.91000 332.643
34.92000 329.796
34.93000 330.235
34.94000 330.728
34.95000 330.987
34.96000 329.054
34.97000 327.749
34.98000 327.559
34.99000 328.169
35.00000 328.685
35.01000 326.211
35.02000 322.301
35.03000 318.588
35.04000 318.375
35.05000 319.227
35.06000 320.077
35.07000 320.908
35.08000 321.734
35.09000 323.018
35.10000 326.596
35.11000 330.487
35.12000 333.526
35.13000 327.590
35.14000 322.291
35.15000 319.438
35.16000 322.045
35.17000 324.853
35.18000 324.135
35.19000 318.121
35.20000 312.055
35.21000 308.120
35.22000 306.260
35.23000 304.431
35.24000 305.062
35.25000 307.259
35.26000 309.549
35.27000 314.123
35.28000 319.676
35.29000 324.886
35.30000 318.960
35.31000 310.620
35.32000 303.590
35.33000 305.596
35.34000 309.324
35.35000 312.173
35.36000 311.138
35.37000 309.644
35.38000 308.511
35.39000 309.215
35.40000 309.862
35.41000 310.956
35.42000 312.939
35.43000 314.946
35.44000 318.917
35.45000 325.501
35.46000 332.093
35.47000 332.860
35.48000 328.646
35.49000 324.437
35.50000 320.508
35.51000 316.738
35.52000 313.168
35.53000 313.455
35.54000 315.219
35.55000 316.852
35.56000 308.084
35.57000 297.789
35.58000 289.329
35.59000 291.927
35.60000 296.376
35.61000 300.662
35.62000 304.311
35.63000 307.897
35.64000 310.531
35.65000 316.220
35.66000 320.743
35.67000 321.956
35.68000 317.288
35.69000 312.506
35.70000 311.333
35.71000 314.406
35.72000 317.477
35.73000 312.304
35.74000 300.968
35.75000 290.056
35.76000 294.772
35.77000 307.386
35.78000 319.409
35.79000 322.245
35.80000 321.941
35.81000 321.663
35.82000 315.388
35.83000 308.605
35.84000 302.499
35.85000 299.967
35.86000 297.957
35.87000 297.279
35.88000 301.234
35.89000 305.584
35.90000 308.672
35.91000 306.590
35.92000 304.842
35.93000 303.342
35.94000 302.236
35.95000 301.135
35.96000 304.227
35.97000 311.655
35.98000 319.041
35.99000 318.498
36.00000 312.713
36.01000 307.107
36.02000 306.435
36.03000 307.989
36.04000 309.177
36.05000 305.692
36.06000 300.782
36.07000 296.370
36.08000 303.205
36.09000 311.172
36.10000 317.207
36.11000 314.234
36.12000 310.122
36.13000 305.063
36.14000 297.065
36.15000 288.859
36.16000 283.248
36.17000 295.876
36.18000 305.758
36.19000 311.952
36.20000 312.965
36.21000 313.942
36.22000 314.031
36.23000 313.313
36.24000 312.602
36.25000 306.356
36.26000 297.007
36.27000 288.179
36.28000 290.444
36.29000 297.179
36.30000 303.428
36.31000 304.465
36.32000 304.087
36.33000 303.753
36.34000 306.013
36.35000 308.359
36.36000 309.302
36.37000 304.452
36.38000 298.973
36.39000 296.074
36.40000 300.310
36.41000 304.960
36.42000 308.014
36.43000 298.253
36.44000 290.854
36.45000 287.623
36.46000 289.573
36.47000 291.542
36.48000 294.781
36.49000 299.035
36.50000 303.225
36.51000 301.495
36.52000 296.762
36.53000 292.437
36.54000 295.031
36.55000 300.115
36.56000 304.524
36.57000 302.779
36.58000 299.550
36.59000 296.754
36.60000 298.359
36.61000 300.306
36.62000 302.377
36.63000 304.902
36.64000 307.470
36.65000 309.457
36.66000 310.012
36.67000 310.500
36.68000 310.807
36.69000 303.133
36.70000 297.496
36.71000 292.539
36.72000 288.329
36.73000 284.180
36.74000 288.499
36.75000 298.809
36.76000 308.900
36.77000 312.238
36.78000 312.366
36.79000 312.399
36.80000 311.104
36.81000 309.384
36.82000 307.873
36.83000 308.005
36.84000 308.488
36.85000 308.898
36.86000 303.396
36.87000 298.115
36.88000 294.415
36.89000 295.873
36.90000 297.730
36.91000 299.736
36.92000 302.072
36.93000 304.420
36.94000 305.827
36.95000 307.556
36.96000 308.786
36.97000 309.962
36.98000 311.088
36.99000 312.141
37.00000 307.626
37.01000 299.611
37.02000 291.826
37.03000 296.122
37.04000 305.061
37.05000 313.339
37.06000 313.938
37.07000 312.341
37.08000 310.657
37.09000 308.382
37.10000 305.995
37.11000 304.015
37.12000 303.591
37.13000 303.390
37.14000 302.892
37.15000 301.529
37.16000 300.111
37.17000 300.910
37.18000 306.076
37.19000 311.358
37.20000 314.362
37.21000 301.761
37.22000 292.945
37.23000 292.388
37.24000 298.811
37.25000 305.119
37.26000 305.626
37.27000 302.887
37.28000 300.250
37.29000 298.485
37.30000 297.137
37.31000 295.877
37.32000 295.476
37.33000 295.293
37.34000 296.121
37.35000 302.954
37.36000 310.777
37.37000 317.109
37.38000 306.494
37.39000 296.482
37.40000 289.103
37.41000 288.560
37.42000 288.369
37.43000 287.844
37.44000 286.732
37.45000 285.608
37.46000 285.005
37.47000 287.462
37.48000 289.127
37.49000 287.509
37.50000 283.440
37.51000 279.508
37.52000 280.502
37.53000 283.955
37.54000 287.245
37.55000 290.605
37.56000 293.742
37.57000 296.120
37.58000 292.140
37.59000 286.727
37.60000 283.141
37.61000 289.077
37.62000 296.383
37.63000 302.142
37.64000 294.731
37.65000 287.904
37.66000 283.857
37.67000 286.258
37.68000 288.920
37.69000 290.668
37.70000 290.990
37.71000 291.294
37.72000 291.448
37.73000 292.578
37.74000 293.298
37.75000 290.445
37.76000 285.225
37.77000 280.321
37.78000 283.862
37.79000 291.166
37.80000 298.049
37.81000 293.212
37.82000 285.553
37.83000 279.300
37.84000 283.233
37.85000 289.193
37.86000 294.565
37.87000 297.235
37.88000 299.568
37.89000 301.356
37.90000 295.141
37.91000 289.793
37.92000 287.580
37.93000 291.854
37.94000 296.327
37.95000 300.617
37.96000 304.654
37.97000 308.687
37.98000 309.461
37.99000 307.323
38.00000 305.181
38.01000 302.797
38.02000 300.271
38.03000 297.887
38.04000 298.461
38.05000 300.212
38.06000 301.842
38.07000 302.228
38.08000 302.276
38.09000 302.401
38.10000 303.007
38.11000 303.698
38.12000 305.472
38.13000 311.661
38.14000 318.321
38.15000 323.268
38.16000 317.104
38.17000 311.823
38.18000 308.867
38.19000 310.208
38.20000 311.643
38.21000 312.317
38.22000 312.058
38.23000 311.797
38.24000 311.911
38.25000 312.320
38.26000 312.678
38.27000 310.995
38.28000 308.239
38.29000 305.760
38.30000 307.866
38.31000 311.602
38.32000 315.030
38.33000 316.518
38.34000 317.433
38.35000 319.407
38.36000 327.226
38.37000 335.940
38.38000 343.610
38.39000 347.507
38.40000 351.062
38.41000 353.615
38.42000 364.566
38.43000 373.234
38.44000 381.800
38.45000 390.199
38.46000 398.595
38.47000 414.052
38.48000 437.141
38.49000 460.127
38.50000 473.109
38.51000 479.039
38.52000 485.263
38.53000 500.375
38.54000 519.653
38.55000 539.332
38.56000 564.486
38.57000 591.376
38.58000 615.668
38.59000 646.447
38.60000 674.712
38.61000 703.084
38.62000 731.980
38.63000 760.945
38.64000 788.795
38.65000 813.049
38.66000 837.030
38.67000 853.642
38.68000 890.723
38.69000 919.168
38.70000 933.328
38.71000 926.592
38.72000 919.677
38.73000 920.029
38.74000 927.268
38.75000 934.447
38.76000 929.267
38.77000 916.649
38.78000 904.039
38.79000 891.594
38.80000 879.217
38.81000 865.986
38.82000 843.016
38.83000 817.297
38.84000 794.453
38.85000 765.017
38.86000 738.432
38.87000 711.800
38.88000 684.959
38.89000 658.094
38.90000 628.905
38.91000 593.034
38.92000 556.747
38.93000 532.580
38.94000 511.520
38.95000 495.992
38.96000 476.865
38.97000 453.074
38.98000 429.269
38.99000 408.337
39.00000 389.800
39.01000 371.506
39.02000 366.585
39.03000 368.990
39.04000 370.602
39.05000 357.721
39.06000 339.422
39.07000 322.030
39.08000 313.385
39.09000 306.934
39.10000 301.309
39.11000 302.766
39.12000 304.995
39.13000 304.282
39.14000 292.349
39.15000 279.320
39.16000 272.330
39.17000 280.830
39.18000 290.108
39.19000 296.029
39.20000 289.554
39.21000 284.683
39.22000 284.106
39.23000 288.443
39.24000 292.786
39.25000 297.258
39.26000 301.826
39.27000 306.307
39.28000 304.628
39.29000 300.084
39.30000 295.590
39.31000 291.848
39.32000 288.355
39.33000 285.005
39.34000 282.822
39.35000 280.898
39.36000 279.255
39.37000 275.014
39.38000 271.130
39.39000 267.836
39.40000 266.544
39.41000 265.416
39.42000 266.949
39.43000 274.577
39.44000 282.446
39.45000 287.240
39.46000 275.702
39.47000 267.327
39.48000 265.944
39.49000 271.587
39.50000 277.165
39.51000 276.574
39.52000 271.950
39.53000 267.446
39.54000 268.813
39.55000 272.579
39.56000 276.567
39.57000 283.274
39.58000 290.789
39.59000 297.123
39.60000 295.028
39.61000 291.279
39.62000 288.145
39.63000 284.979
39.64000 282.346
39.65000 280.136
39.66000 279.203
39.67000 278.357
39.68000 276.432
39.69000 272.300
39.70000 268.102
39.71000 265.671
39.72000 262.054
39.73000 259.519
39.74000 263.753
39.75000 273.958
39.76000 283.955
39.77000 281.909
39.78000 272.854
39.79000 264.109
39.80000 265.889
39.81000 271.465
39.82000 276.687
39.83000 278.228
39.84000 278.797
39.85000 278.877
39.86000 275.923
39.87000 272.446
39.88000 269.608
39.89000 264.998
39.90000 261.075
39.91000 258.106
39.92000 257.708
39.93000 257.454
39.94000 257.233
39.95000 257.074
39.96000 256.916
39.97000 256.830
39.98000 253.988
39.99000 252.040
40.00000 252.768
40.01000 255.581
40.02000 258.375
40.03000 260.446
40.04000 262.141
40.05000 263.763
40.06000 266.207
40.07000 268.752
40.08000 271.001
40.09000 270.639
40.10000 269.664
40.11000 267.731
40.12000 260.580
40.13000 252.643
40.14000 246.328
40.15000 251.598
40.16000 256.675
40.17000 260.264
40.18000 260.269
40.19000 260.115
40.20000 261.138
40.21000 264.072
40.22000 267.033
40.23000 268.561
40.24000 267.401
40.25000 266.599
40.26000 263.311
40.27000 258.309
40.28000 253.558
40.29000 256.141
40.30000 262.119
40.31000 267.776
40.32000 266.757
40.33000 263.899
40.34000 261.366
40.35000 261.293
40.36000 261.731
40.37000 261.213
40.38000 256.108
40.39000 250.404
40.40000 245.991
40.41000 252.484
40.42000 258.280
40.43000 259.361
40.44000 250.296
40.45000 240.889
40.46000 236.563
40.47000 239.577
40.48000 242.649
40.49000 247.063
40.50000 252.728
40.51000 258.309
40.52000 257.956
40.53000 253.967
40.54000 250.184
40.55000 251.047
40.56000 253.831
40.57000 256.433
40.58000 260.445
40.59000 264.443
40.60000 267.800
40.61000 266.921
40.62000 265.268
40.63000 263.406
40.64000 260.654
40.65000 257.803
40.66000 255.662
40.67000 254.896
40.68000 254.364
40.69000 253.717
40.70000 252.851
40.71000 251.979
40.72000 250.402
40.73000 247.922
40.74000 245.442
40.75000 243.413
40.76000 241.761
40.77000 240.134
40.78000 239.691
40.79000 239.894
40.80000 240.420
40.81000 246.729
40.82000 255.173
40.83000 262.958
40.84000 260.180
40.85000 255.349
40.86000 251.629
40.87000 254.319
40.88000 258.035
40.89000 260.139
40.90000 256.168
40.91000 251.615
40.92000 248.306
40.93000 250.729
40.94000 252.808
40.95000 253.746
40.96000 252.727
40.97000 251.676
40.98000 253.104
40.99000 257.333
41.00000 261.550
41.01000 261.611
41.02000 258.674
41.03000 255.763
41.04000 253.709
41.05000 252.072
41.06000 250.279
41.07000 246.209
41.08000 241.388
41.09000 237.009
41.10000 242.503
41.11000 249.272
41.12000 255.159
41.13000 256.580
41.14000 257.378
41.15000 257.036
41.16000 252.876
41.17000 248.408
41.18000 245.274
41.19000 240.932
41.20000 237.611
41.21000 235.943
41.22000 236.792
41.23000 237.667
41.24000 241.440
41.25000 248.083
41.26000 254.681
41.27000 253.970
41.28000 248.622
41.29000 243.468
41.30000 243.176
41.31000 244.998
41.32000 246.900
41.33000 249.771
41.34000 252.926
41.35000 255.745
41.36000 251.580
41.37000 246.773
41.38000 242.822
41.39000 242.705
41.40000 243.049
41.41000 243.309
41.42000 243.317
41.43000 243.307
41.44000 243.300
41.45000 242.689
41.46000 242.222
41.47000 242.855
41.48000 244.975
41.49000 247.100
41.50000 246.037
41.51000 242.200
41.52000 238.408
41.53000 237.552
41.54000 238.365
41.55000 238.979
41.56000 235.670
41.57000 230.839
41.58000 226.694
41.59000 229.537
41.60000 234.205
41.61000 238.302
41.62000 244.292
41.63000 249.714
41.64000 253.488
41.65000 250.723
41.66000 247.282
41.67000 244.123
41.68000 241.716
41.69000 239.349
41.70000 237.816
41.71000 229.629
41.72000 223.538
41.73000 224.378
41.74000 233.496
41.75000 242.608
41.76000 246.609
41.77000 246.683
41.78000 246.757
41.79000 245.128
41.80000 242.711
41.81000 240.513
41.82000 241.806
41.83000 244.310
41.84000 245.873
41.85000 239.264
41.86000 230.763
41.87000 223.447
41.88000 231.968
41.89000 241.175
41.90000 248.512
41.91000 249.252
41.92000 249.416
41.93000 247.915
41.94000 242.452
41.95000 236.818
41.96000 233.330
41.97000 235.900
41.98000 237.806
41.99000 236.839
42.00000 232.852
42.01000 228.908
42.02000 229.999
42.03000 234.517
42.04000 238.928
42.05000 240.796
42.06000 241.470
42.07000 242.270
42.08000 244.736
42.09000 247.716
42.10000 250.147
42.11000 248.460
42.12000 245.929
42.13000 243.798
42.14000 241.227
42.15000 239.034
42.16000 237.698
42.17000 239.057
42.18000 240.612
42.19000 242.666
42.20000 245.779
42.21000 248.928
42.22000 250.784
42.23000 251.278
42.24000 251.618
42.25000 248.854
42.26000 243.232
42.27000 237.630
42.28000 233.419
42.29000 230.050
42.30000 226.787
42.31000 226.454
42.32000 227.270
42.33000 227.924
42.34000 226.787
42.35000 225.157
42.36000 224.001
42.37000 225.931
42.38000 228.418
42.39000 230.465
42.40000 232.341
42.41000 233.869
42.42000 236.073
42.43000 240.170
42.44000 244.381
42.45000 246.272
42.46000 243.763
42.47000 241.149
42.48000 239.689
42.49000 237.313
42.50000 235.673
42.51000 236.971
42.52000 240.653
42.53000 244.256
42.54000 244.313
42.55000 242.458
42.56000 240.677
42.57000 241.077
42.58000 242.194
42.59000 243.211
42.60000 243.288
42.61000 243.136
42.62000 242.523
42.63000 239.289
42.64000 235.642
42.65000 232.715
42.66000 232.292
42.67000 232.141
42.68000 231.967
42.69000 231.734
42.70000 231.499
42.71000 232.597
42.72000 235.949
42.73000 239.338
42.74000 241.124
42.75000 244.767
42.76000 247.212
42.77000 245.500
42.78000 240.801
42.79000 236.179
42.80000 234.051
42.81000 233.124
42.82000 232.243
42.83000 232.778
42.84000 233.697
42.85000 234.776
42.86000 237.127
42.87000 239.753
42.88000 242.115
42.89000 243.162
42.90000 244.028
42.91000 244.705
42.92000 238.273
42.93000 232.692
42.94000 227.578
42.95000 223.506
42.96000 219.473
42.97000 219.714
42.98000 226.383
42.99000 233.116
43.00000 238.170
43.01000 241.585
43.02000 244.917
43.03000 241.303
43.04000 233.260
43.05000 225.598
43.06000 227.274
43.07000 232.962
43.08000 238.301
43.09000 235.978
43.10000 231.834
43.11000 228.428
43.12000 230.125
43.13000 232.796
43.14000 233.775
43.15000 227.278
43.16000 219.894
43.17000 214.293
43.18000 221.763
43.19000 228.303
43.20000 230.770
43.21000 225.108
43.22000 219.220
43.23000 216.792
43.24000 218.978
43.25000 221.184
43.26000 222.792
43.27000 223.883
43.28000 224.983
43.29000 226.556
43.30000 228.397
43.31000 230.019
43.32000 227.410
43.33000 223.179
43.34000 219.259
43.35000 223.935
43.36000 230.136
43.37000 235.202
43.38000 233.426
43.39000 230.503
43.40000 227.775
43.41000 225.813
43.42000 223.928
43.43000 222.543
43.44000 226.830
43.45000 230.376
43.46000 232.449
43.47000 231.898
43.48000 231.296
43.49000 229.372
43.50000 225.890
43.51000 222.415
43.52000 222.822
43.53000 226.148
43.54000 229.469
43.55000 232.579
43.56000 235.583
43.57000 238.479
43.58000 239.698
43.59000 240.343
43.60000 240.931
43.61000 238.124
43.62000 234.943
43.63000 231.464
43.64000 226.401
43.65000 221.107
43.66000 216.623
43.67000 214.965
43.68000 213.550
43.69000 212.544
43.70000 214.620
43.71000 216.298
43.72000 218.291
43.73000 220.783
43.74000 223.282
43.75000 227.206
43.76000 232.607
43.77000 237.978
43.78000 235.226
43.79000 227.122
43.80000 219.420
43.81000 222.822
43.82000 231.240
43.83000 238.968
43.84000 237.838
43.85000 234.002
43.86000 230.556
43.87000 225.752
43.88000 221.307
43.89000 218.450
43.90000 223.006
43.91000 228.501
43.92000 230.855
43.93000 223.455
43.94000 215.360
43.95000 209.821
43.96000 210.197
43.97000 210.618
43.98000 212.720
43.99000 217.189
44.00000 221.672
44.01000 222.610
44.02000 220.327
44.03000 218.067
44.04000 218.311
44.05000 220.016
44.06000 221.687
44.07000 222.612
44.08000 223.237
44.09000 223.473
44.10000 219.518
44.11000 214.424
44.12000 209.926
44.13000 209.327
44.14000 209.409
44.15000 209.976
44.16000 212.553
44.17000 215.349
44.18000 218.581
44.19000 223.020
44.20000 227.528
44.21000 230.491
44.22000 229.376
44.23000 228.486
44.24000 227.550
44.25000 226.557
44.26000 225.568
44.27000 225.964
44.28000 227.469
44.29000 228.952
44.30000 228.573
44.31000 227.245
44.32000 225.959
44.33000 225.418
44.34000 225.146
44.35000 224.971
44.36000 225.697
44.37000 226.640
44.38000 227.457
44.39000 217.675
44.40000 207.949
44.41000 202.216
44.42000 211.144
44.43000 221.428
44.44000 228.918
44.45000 229.497
44.46000 229.754
44.47000 229.916
44.48000 224.619
44.49000 220.726
44.50000 221.226
44.51000 226.548
44.52000 231.855
44.53000 234.673
44.54000 235.729
44.55000 236.761
44.56000 233.849
44.57000 229.252
44.58000 224.822
44.59000 222.719
44.60000 221.365
44.61000 220.636
44.62000 224.829
44.63000 230.074
44.64000 234.524
44.65000 241.205
44.66000 247.061
44.67000 250.051
44.68000 243.673
44.69000 236.568
44.70000 233.777
44.71000 240.516
44.72000 247.597
44.73000 251.845
44.74000 250.149
44.75000 248.904
44.76000 246.097
44.77000 241.784
44.78000 237.562
44.79000 240.541
44.80000 248.054
44.81000 255.351
44.82000 258.698
44.83000 260.284
44.84000 261.981
44.85000 264.963
44.86000 268.312
44.87000 272.064
44.88000 278.555
44.89000 285.563
44.90000 291.377
44.91000 298.388
44.92000 304.297
44.93000 308.703
44.94000 308.726
44.95000 308.468
44.96000 309.642
44.97000 313.636
44.98000 317.706
44.99000 320.023
45.00000 327.283
45.01000 332.372
45.02000 344.730
45.03000 363.244
45.04000 381.363
45.05000 379.450
45.06000 366.305
45.07000 353.649
45.08000 357.098
45.09000 366.067
45.10000 374.181
45.11000 373.899
45.12000 371.480
45.13000 368.916
45.14000 365.492
45.15000 361.926
45.16000 359.039
45.17000 357.377
45.18000 356.122
45.19000 353.277
45.20000 346.292
45.21000 339.094
45.22000 336.444
45.23000 341.789
45.24000 347.284
45.25000 350.239
45.26000 328.518
45.27000 313.677
45.28000 303.842
45.29000 297.753
45.30000 291.829
45.31000 291.808
45.32000 294.739
45.33000 297.534
45.34000 286.185
45.35000 271.224
45.36000 257.780
45.37000 257.085
45.38000 259.267
45.39000 260.476
45.40000 256.606
45.41000 252.004
45.42000 248.374
45.43000 251.084
45.44000 253.684
45.45000 253.943
45.46000 248.765
45.47000 243.366
45.48000 240.497
45.49000 241.588
45.50000 242.726
45.51000 243.301
45.52000 237.545
45.53000 233.729
45.54000 233.274
45.55000 235.050
45.56000 236.671
45.57000 234.125
45.58000 229.720
45.59000 225.568
45.60000 225.696
45.61000 226.995
45.62000 227.487
45.63000 222.119
45.64000 215.583
45.65000 210.314
45.66000 210.881
45.67000 212.176
45.68000 213.169
45.69000 215.085
45.70000 216.649
45.71000 217.477
45.72000 216.781
45.73000 216.037
45.74000 214.539
45.75000 211.992
45.76000 209.440
45.77000 211.599
45.78000 217.973
45.79000 224.240
45.80000 224.016
45.81000 219.960
45.82000 216.008
45.83000 214.227
45.84000 213.313
45.85000 212.462
45.86000 207.599
45.87000 202.232
45.88000 198.467
45.89000 204.824
45.90000 212.955
45.91000 219.017
45.92000 216.636
45.93000 213.352
45.94000 210.912
45.95000 205.711
45.96000 201.545
45.97000 199.537
45.98000 201.523
45.99000 203.598
46.00000 208.596
46.01000 217.187
46.02000 225.771
46.03000 224.295
46.04000 214.915
46.05000 205.667
46.06000 201.958
46.07000 201.161
46.08000 200.539
46.09000 202.824
46.10000 206.143
46.11000 209.190
46.12000 205.737
46.13000 201.277
46.14000 197.206
46.15000 195.282
46.16000 193.687
46.17000 192.653
46.18000 193.652
46.19000 194.836
46.20000 195.687
46.21000 197.584
46.22000 199.071
46.23000 200.590
46.24000 202.162
46.25000 203.735
46.26000 205.580
46.27000 207.720
46.28000 209.850
46.29000 207.106
46.30000 201.016
46.31000 195.113
46.32000 194.901
46.33000 197.362
46.34000 199.710
46.35000 200.522
46.36000 200.847
46.37000 201.141
46.38000 201.347
46.39000 201.513
46.40000 202.018
46.41000 204.169
46.42000 206.541
46.43000 207.776
46.44000 205.341
46.45000 202.628
46.46000 200.748
46.47000 205.491
46.48000 209.237
46.49000 212.043
46.50000 213.474
46.51000 214.892
46.52000 214.868
46.53000 213.474
46.54000 212.092
46.55000 211.134
46.56000 210.452
46.57000 209.646
46.58000 205.962
46.59000 201.070
46.60000 196.760
46.61000 199.094
46.62000 203.306
46.63000 207.049
46.64000 205.820
46.65000 203.954
46.66000 203.334
46.67000 208.080
46.68000 213.442
46.69000 216.705
46.70000 213.927
46.71000 210.772
46.72000 208.669
46.73000 210.723
46.74000 212.323
46.75000 212.258
46.76000 210.032
46.77000 207.796
46.78000 205.253
46.79000 202.454
46.80000 199.691
46.81000 198.010
46.82000 196.958
46.83000 196.145
46.84000 199.727
46.85000 204.954
46.86000 209.209
46.87000 204.073
46.88000 196.577
46.89000 190.040
46.90000 194.203
46.91000 199.254
46.92000 203.821
46.93000 206.544
46.94000 209.085
46.95000 209.683
46.96000 205.288
46.97000 200.642
46.98000 197.674
46.99000 202.081
47.00000 205.383
47.01000 206.111
47.02000 203.885
47.03000 201.668
47.04000 201.502
47.05000 202.849
47.06000 204.171
47.07000 202.906
47.08000 200.455
47.09000 198.168
47.10000 198.328
47.11000 199.305
47.12000 199.853
47.13000 196.856
47.14000 193.069
47.15000 189.833
47.16000 191.624
47.17000 193.736
47.18000 196.104
47.19000 199.344
47.20000 202.657
47.21000 203.453
47.22000 198.476
47.23000 193.271
47.24000 190.097
47.25000 196.191
47.26000 200.622
47.27000 200.357
47.28000 195.364
47.29000 190.425
47.30000 190.596
47.31000 194.113
47.32000 197.540
47.33000 198.818
47.34000 199.133
47.35000 199.331
47.36000 198.081
47.37000 196.399
47.38000 194.457
47.39000 190.656
47.40000 186.490
47.41000 183.006
47.42000 184.857
47.43000 186.940
47.44000 186.954
47.45000 180.709
47.46000 174.034
47.47000 171.861
47.48000 178.908
47.49000 186.229
47.50000 190.473
47.51000 187.327
47.52000 185.089
47.53000 184.469
47.54000 185.278
47.55000 186.089
47.56000 186.984
47.57000 187.928
47.58000 188.841
47.59000 191.029
47.60000 193.564
47.61000 195.639
47.62000 192.927
47.63000 188.946
47.64000 185.556
47.65000 185.850
47.66000 186.781
47.67000 187.541
47.68000 186.053
47.69000 184.641
47.70000 184.474
47.71000 187.669
47.72000 191.052
47.73000 192.876
47.74000 191.852
47.75000 190.767
47.76000 190.172
47.77000 186.421
47.78000 183.844
47.79000 183.760
47.80000 185.620
47.81000 187.448
47.82000 187.995
47.83000 187.877
47.84000 187.764
47.85000 192.688
47.86000 198.922
47.87000 203.992
47.88000 198.759
47.89000 191.104
47.90000 184.514
47.91000 183.728
47.92000 183.820
47.93000 183.893
47.94000 184.176
47.95000 184.419
47.96000 185.119
47.97000 186.922
47.98000 188.773
47.99000 191.029
48.00000 193.943
48.01000 196.866
48.02000 198.375
48.03000 194.046
48.04000 191.157
48.05000 191.894
48.06000 195.136
48.07000 198.254
48.08000 197.748
48.09000 195.559
48.10000 193.489
48.11000 190.988
48.12000 188.564
48.13000 185.807
48.14000 180.515
48.15000 174.696
48.16000 170.918
48.17000 176.948
48.18000 184.264
48.19000 189.927
48.20000 182.932
48.21000 176.630
48.22000 172.932
48.23000 174.843
48.24000 176.945
48.25000 178.370
48.26000 178.814
48.27000 179.250
48.28000 178.939
48.29000 177.929
48.30000 176.940
48.31000 177.506
48.32000 179.027
48.33000 180.375
48.34000 177.810
48.35000 173.625
48.36000 169.713
48.37000 172.840
48.38000 177.463
48.39000 181.531
48.40000 181.935
48.41000 181.667
48.42000 182.098
48.43000 185.500
48.44000 189.236
48.45000 192.042
48.46000 185.495
48.47000 179.930
48.48000 177.449
48.49000 180.902
48.50000 184.503
48.51000 183.758
48.52000 177.444
48.53000 171.117
48.54000 172.597
48.55000 180.485
48.56000 188.226
48.57000 189.055
48.58000 186.105
48.59000 183.224
48.60000 181.586
48.61000 180.408
48.62000 179.322
48.63000 177.133
48.64000 174.927
48.65000 173.724
48.66000 178.321
48.67000 183.848
48.68000 188.522
48.69000 189.974
48.70000 191.117
48.71000 191.948
48.72000 185.561
48.73000 180.375
48.74000 178.699
48.75000 183.044
48.76000 187.491
48.77000 189.115
48.78000 187.546
48.79000 185.979
48.80000 187.292
48.81000 190.675
48.82000 193.908
48.83000 192.137
48.84000 187.926
48.85000 183.895
48.86000 182.512
48.87000 182.001
48.88000 181.537
48.89000 182.880
48.90000 184.417
48.91000 185.110
48.92000 181.517
48.93000 177.324
48.94000 174.677
48.95000 177.221
48.96000 180.185
48.97000 182.265
48.98000 184.297
48.99000 185.833
49.00000 185.337
49.01000 181.738
49.02000 178.106
49.03000 180.723
49.04000 189.541
49.05000 198.299
49.06000 197.245
49.07000 189.958
49.08000 182.979
49.09000 183.801
49.10000 188.022
49.11000 191.718
49.12000 189.069
49.13000 184.553
49.14000 180.517
49.15000 176.293
49.16000 172.581
49.17000 170.622
49.18000 176.532
49.19000 183.392
49.20000 187.643
49.21000 184.093
49.22000 180.019
49.23000 177.267
49.24000 176.285
49.25000 175.593
49.26000 174.786
49.27000 173.826
49.28000 172.865
49.29000 171.623
49.30000 170.135
49.31000 168.665
49.32000 172.688
49.33000 179.704
49.34000 186.310
49.35000 184.777
49.36000 180.077
49.37000 175.617
49.38000 173.599
49.39000 172.221
49.40000 171.011
49.41000 175.747
49.42000 180.687
49.43000 183.993
49.44000 180.801
49.45000 176.938
49.46000 175.255
49.47000 179.395
49.48000 183.850
49.49000 186.738
49.50000 187.285
49.51000 187.650
49.52000 185.903
49.53000 181.627
49.54000 177.352
49.55000 174.499
49.56000 172.742
49.57000 171.013
49.58000 170.368
49.59000 170.282
49.60000 170.209
49.61000 170.332
49.62000 170.525
49.63000 170.650
49.64000 170.193
49.65000 169.600
49.66000 169.090
49.67000 172.911
49.68000 176.692
49.69000 180.179
49.70000 182.627
49.71000 184.984
49.72000 185.525
49.73000 181.736
49.74000 177.761
49.75000 175.298
49.76000 184.313
49.77000 190.906
49.78000 191.713
49.79000 186.430
49.80000 181.183
49.81000 180.264
49.82000 182.295
49.83000 184.278
49.84000 180.968
49.85000 175.479
49.86000 170.589
49.87000 173.565
49.88000 178.977
49.89000 183.487
49.90000 181.232
49.91000 177.588
49.92000 174.517
49.93000 174.613
49.94000 175.034
49.95000 175.825
49.96000 177.782
49.97000 179.825
49.98000 181.658
49.99000 183.047
50.00000 184.421
50.01000 185.231
50.02000 181.379
50.03000 178.634
50.04000 178.348
50.05000 180.330
50.06000 182.277
50.07000 181.820
50.08000 179.906
50.09000 178.051
50.10000 178.853
50.11000 180.639
50.12000 182.240
50.13000 181.792
50.14000 180.780
50.15000 179.788
50.16000 178.927
50.17000 178.090
50.18000 177.401
50.19000 177.830
50.20000 178.285
50.21000 179.736
50.22000 183.984
50.23000 188.399
50.24000 189.562
50.25000 184.546
50.26000 179.382
50.27000 176.494
50.28000 171.126
50.29000 167.415
50.30000 168.940
50.31000 174.720
50.32000 180.424
50.33000 182.637
50.34000 182.964
50.35000 183.279
50.36000 183.467
50.37000 183.599
50.38000 183.926
50.39000 186.067
50.40000 188.652
50.41000 190.792
50.42000 190.394
50.43000 189.595
50.44000 188.953
50.45000 192.982
50.46000 196.603
50.47000 199.514
50.48000 200.644
50.49000 201.689
50.50000 205.928
50.51000 215.576
50.52000 225.313
50.53000 230.448
50.54000 222.198
50.55000 216.665
50.56000 222.417
50.57000 236.290
50.58000 249.781
50.59000 250.910
50.60000 246.082
50.61000 241.495
50.62000 243.057
50.63000 246.350
50.64000 249.719
50.65000 253.700
50.66000 257.813
50.67000 261.033
50.68000 259.775
50.69000 257.900
50.70000 256.435
50.71000 257.256
50.72000 258.056
50.73000 258.388
50.74000 257.669
50.75000 256.910
50.76000 256.097
50.77000 255.200
50.78000 254.303
50.79000 254.329
50.80000 255.258
50.81000 256.130
50.82000 252.183
50.83000 245.158
50.84000 238.262
50.85000 234.527
50.86000 232.151
50.87000 229.920
50.88000 225.294
50.89000 220.442
50.90000 216.316
50.91000 217.228
50.92000 219.104
50.93000 218.965
50.94000 209.907
50.95000 199.789
50.96000 192.109
50.97000 194.835
50.98000 197.513
50.99000 200.315
51.00000 203.364
51.01000 206.420
51.02000 205.061
51.03000 197.806
51.04000 190.526
51.05000 185.262
51.06000 181.739
51.07000 178.222
51.08000 175.075
51.09000 172.137
51.10000 169.432
51.11000 171.214
51.12000 174.719
51.13000 177.967
51.14000 179.088
51.15000 179.602
51.16000 179.504
51.17000 175.707
51.18000 171.288
51.19000 167.917
51.20000 168.661
51.21000 169.822
51.22000 170.676
51.23000 177.406
51.24000 182.852
51.25000 185.020
51.26000 181.345
51.27000 177.555
51.28000 172.868
51.29000 167.120
51.30000 161.385
51.31000 162.623
51.32000 169.114
51.33000 175.405
51.34000 174.225
51.35000 169.259
51.36000 164.462
51.37000 162.301
51.38000 161.045
51.39000 159.897
51.40000 158.982
51.41000 158.218
51.42000 157.748
51.43000 158.843
51.44000 160.168
51.45000 161.107
51.46000 160.698
51.47000 160.173
51.48000 159.800
51.49000 161.314
51.50000 162.527
51.51000 164.397
51.52000 167.309
51.53000 170.234
51.54000 170.850
51.55000 169.068
51.56000 167.296
51.57000 166.500
51.58000 166.362
51.59000 166.234
51.60000 166.375
51.61000 166.637
51.62000 166.827
51.63000 166.085
51.64000 165.058
51.65000 164.136
51.66000 164.968
51.67000 166.008
51.68000 167.638
51.69000 172.028
51.70000 176.768
51.71000 178.974
51.72000 173.303
51.73000 167.067
51.74000 162.799
51.75000 162.784
51.76000 162.874
51.77000 163.610
51.78000 165.255
51.79000 166.908
51.80000 169.163
51.81000 171.967
51.82000 174.744
51.83000 173.760
51.84000 170.592
51.85000 167.575
51.86000 167.774
51.87000 169.273
51.88000 170.530
51.89000 169.170
51.90000 167.098
51.91000 165.268
51.92000 165.630
51.93000 166.281
51.94000 167.005
51.95000 168.036
51.96000 169.101
51.97000 170.197
51.98000 171.377
51.99000 172.562
52.00000 173.341
52.01000 171.237
52.02000 169.639
52.03000 165.752
52.04000 159.009
52.05000 152.274
52.06000 151.537
52.07000 155.611
52.08000 159.624
52.09000 159.301
52.10000 156.744
52.11000 154.507
52.12000 157.766
52.13000 163.009
52.14000 167.904
52.15000 169.617
52.16000 170.560
52.17000 171.377
52.18000 169.079
52.19000 166.708
52.20000 164.965
52.21000 165.523
52.22000 166.296
52.23000 165.483
52.24000 160.745
52.25000 155.823
52.26000 152.725
52.27000 156.236
52.28000 158.851
52.29000 159.747
52.30000 158.752
52.31000 157.760
52.32000 157.143
52.33000 156.794
52.34000 156.453
52.35000 158.156
52.36000 160.727
52.37000 163.070
52.38000 162.223
52.39000 160.349
52.40000 158.754
52.41000 159.368
52.42000 160.454
52.43000 161.376
52.44000 161.943
52.45000 162.379
52.46000 163.151
52.47000 165.026
52.48000 166.987
52.49000 168.321
52.50000 168.268
52.51000 168.165
52.52000 168.103
52.53000 164.445
52.54000 161.822
52.55000 159.834
52.56000 158.458
52.57000 157.103
52.58000 157.325
52.59000 158.543
52.60000 159.726
52.61000 161.646
52.62000 163.768
52.63000 165.459
52.64000 162.128
52.65000 157.357
52.66000 153.448
52.67000 155.433
52.68000 158.531
52.69000 161.102
52.70000 160.952
52.71000 160.565
52.72000 160.005
52.73000 158.938
52.74000 157.839
52.75000 157.077
52.76000 156.979
52.77000 156.899
52.78000 156.854
52.79000 150.385
52.80000 145.864
52.81000 147.905
52.82000 155.513
52.83000 162.998
52.84000 164.237
52.85000 161.968
52.86000 159.782
52.87000 161.201
52.88000 163.818
52.89000 165.845
52.90000 162.071
52.91000 156.817
52.92000 152.674
52.93000 155.156
52.94000 158.734
52.95000 161.632
52.96000 164.537
52.97000 166.904
52.98000 167.534
52.99000 163.642
53.00000 159.515
53.01000 158.581
53.02000 163.272
53.03000 168.068
53.04000 170.650
53.05000 172.454
53.06000 173.662
53.07000 170.051
53.08000 162.829
53.09000 155.762
53.10000 154.256
53.11000 155.535
53.12000 156.755
53.13000 159.300
53.14000 162.077
53.15000 164.233
53.16000 161.159
53.17000 156.903
53.18000 153.967
53.19000 157.940
53.20000 162.911
53.21000 166.833
53.22000 170.831
53.23000 174.042
53.24000 174.528
53.25000 168.670
53.26000 162.554
53.27000 159.471
53.28000 161.145
53.29000 162.875
53.30000 163.751
53.31000 158.751
53.32000 155.420
53.33000 153.544
53.34000 152.635
53.35000 151.852
53.36000 154.462
53.37000 158.588
53.38000 162.478
53.39000 163.202
53.40000 162.990
53.41000 162.967
53.42000 164.328
53.43000 165.965
53.44000 167.380
53.45000 167.772
53.46000 168.037
53.47000 168.240
53.48000 162.756
53.49000 158.109
53.50000 155.747
53.51000 158.132
53.52000 160.663
53.53000 163.171
53.54000 165.649
53.55000 168.126
53.56000 166.740
53.57000 161.892
53.58000 157.108
53.59000 156.239
53.60000 157.685
53.61000 159.049
53.62000 158.699
53.63000 157.664
53.64000 156.700
53.65000 160.252
53.66000 164.559
53.67000 167.372
53.68000 160.727
53.69000 152.422
53.70000 146.053
53.71000 147.599
53.72000 149.996
53.73000 151.777
53.74000 158.047
53.75000 163.123
53.76000 165.326
53.77000 162.203
53.78000 158.962
53.79000 157.451
53.80000 158.071
53.81000 158.695
53.82000 157.443
53.83000 154.719
53.84000 152.081
53.85000 153.037
53.86000 155.886
53.87000 158.556
53.88000 158.221
53.89000 156.815
53.90000 155.525
53.91000 161.298
53.92000 167.950
53.93000 172.941
53.94000 168.729
53.95000 163.103
53.96000 158.487
53.97000 157.538
53.98000 156.922
53.99000 156.480
54.00000 157.396
54.01000 158.144
54.02000 159.303
54.03000 161.139
54.04000 162.985
54.05000 161.115
54.06000 155.214
54.07000 149.337
54.08000 150.133
54.09000 155.548
54.10000 160.819
54.11000 161.662
54.12000 160.425
54.13000 159.147
54.14000 157.320
54.15000 155.318
54.16000 153.509
54.17000 155.704
54.18000 158.378
54.19000 160.887
54.20000 162.591
54.21000 164.188
54.22000 163.418
54.23000 154.998
54.24000 145.995
54.25000 139.752
54.26000 144.647
54.27000 148.627
54.28000 152.806
54.29000 157.276
54.30000 161.748
54.31000 161.318
54.32000 156.226
54.33000 151.176
54.34000 150.096
54.35000 151.463
54.36000 152.752
54.37000 152.213
54.38000 150.905
54.39000 149.865
54.40000 151.890
54.41000 154.784
54.42000 157.355
54.43000 154.691
54.44000 151.534
54.45000 149.121
54.46000 149.917
54.47000 151.081
54.48000 153.094
54.49000 157.552
54.50000 162.163
54.51000 165.238
54.52000 161.945
54.53000 159.384
54.54000 156.597
54.55000 153.516
54.56000 150.443
54.57000 152.018
54.58000 157.482
54.59000 162.875
54.60000 161.005
54.61000 155.264
54.62000 149.851
54.63000 150.495
54.64000 153.411
54.65000 156.075
54.66000 156.307
54.67000 155.927
54.68000 155.595
54.69000 157.914
54.70000 160.267
54.71000 162.075
54.72000 161.794
54.73000 161.308
54.74000 160.988
54.75000 161.094
54.76000 161.222
54.77000 161.304
54.78000 165.743
54.79000 169.031
54.80000 168.142
54.81000 162.454
54.82000 156.770
54.83000 152.695
54.84000 149.810
54.85000 146.980
54.86000 149.385
54.87000 154.199
54.88000 158.750
54.89000 159.369
54.90000 158.672
54.91000 158.615
54.92000 163.860
54.93000 170.287
54.94000 175.783
54.95000 174.118
54.96000 171.857
54.97000 169.045
54.98000 164.362
54.99000 159.524
55.00000 156.235
55.01000 156.506
55.02000 156.918
55.03000 157.170
55.04000 158.404
55.05000 159.294
55.06000 162.673
55.07000 168.561
55.08000 174.407
55.09000 176.225
55.10000 175.400
55.11000 174.596
55.12000 172.665
55.13000 170.349
55.14000 168.152
55.15000 167.432
55.16000 167.154
55.17000 166.770
55.18000 165.634
55.19000 164.349
55.20000 163.274
55.21000 166.108
55.22000 168.862
55.23000 170.376
55.24000 168.126
55.25000 165.618
55.26000 163.252
55.27000 161.178
55.28000 159.113
55.29000 157.915
55.30000 163.167
55.31000 166.877
55.32000 166.966
55.33000 163.850
55.34000 160.797
55.35000 161.458
55.36000 164.288
55.37000 167.021
55.38000 169.720
55.39000 172.250
55.40000 174.635
55.41000 175.503
55.42000 175.969
55.43000 176.592
55.44000 178.194
55.45000 179.967
55.46000 181.415
55.47000 179.312
55.48000 177.284
55.49000 176.870
55.50000 180.827
55.51000 185.028
55.52000 189.143
55.53000 193.103
55.54000 197.060
55.55000 199.233
55.56000 203.596
55.57000 206.609
55.58000 211.354
55.59000 217.453
55.60000 223.570
55.61000 230.447
55.62000 237.720
55.63000 244.679
55.64000 251.172
55.65000 257.068
55.66000 263.847
55.67000 278.473
55.68000 294.947
55.69000 309.867
55.70000 316.299
55.71000 321.446
55.72000 325.543
55.73000 345.543
55.74000 362.815
55.75000 382.668
55.76000 408.759
55.77000 435.126
55.78000 452.480
55.79000 455.134
55.80000 457.580
55.81000 458.845
55.82000 487.836
55.83000 507.383
55.84000 526.729
55.85000 545.933
55.86000 564.994
55.87000 579.797
55.88000 592.623
55.89000 604.761
55.90000 611.116
55.91000 615.290
55.92000 619.823
55.93000 627.098
55.94000 634.945
55.95000 640.260
55.96000 633.388
55.97000 624.915
55.98000 618.354
55.99000 629.654
56.00000 639.687
56.01000 643.326
56.02000 633.165
56.03000 622.534
56.04000 607.386
56.05000 585.694
56.06000 563.951
56.07000 550.092
56.08000 543.630
56.09000 537.052
56.10000 522.100
56.11000 501.999
56.12000 481.831
56.13000 460.128
56.14000 437.790
56.15000 416.904
56.16000 394.051
56.17000 372.802
56.18000 352.810
56.19000 341.150
56.20000 331.018
56.21000 320.019
56.22000 305.322
56.23000 290.207
56.24000 278.849
56.25000 278.843
56.26000 279.383
56.27000 275.438
56.28000 262.851
56.29000 250.047
56.30000 238.515
56.31000 228.618
56.32000 218.739
56.33000 213.696
56.34000 212.649
56.35000 211.589
56.36000 209.942
56.37000 207.973
56.38000 205.952
56.39000 202.990
56.40000 199.679
56.41000 196.625
56.42000 195.389
56.43000 194.688
56.44000 193.146
56.45000 186.731
56.46000 179.533
56.47000 173.540
56.48000 172.099
56.49000 171.098
56.50000 170.369
56.51000 166.534
56.52000 163.466
56.53000 161.237
56.54000 160.452
56.55000 159.692
56.56000 159.790
56.57000 160.860
56.58000 161.927
56.59000 163.761
56.60000 166.134
56.61000 168.406
56.62000 167.289
56.63000 164.515
56.64000 161.798
56.65000 159.912
56.66000 158.299
56.67000 156.834
56.68000 157.563
56.69000 158.633
56.70000 159.651
56.71000 160.406
56.72000 161.124
56.73000 160.756
56.74000 156.739
56.75000 152.426
56.76000 149.398
56.77000 151.534
56.78000 153.302
56.79000 153.968
56.80000 152.949
56.81000 151.911
56.82000 151.813
56.83000 152.648
56.84000 153.478
56.85000 154.352
56.86000 155.240
56.87000 156.193
56.88000 158.796
56.89000 162.117
56.90000 164.853
56.91000 160.465
56.92000 153.978
56.93000 148.179
56.94000 148.128
56.95000 149.058
56.96000 150.017
56.97000 151.109
56.98000 152.216
56.99000 153.304
57.00000 154.333
57.01000 155.358
57.02000 156.050
57.03000 159.128
57.04000 161.471
57.05000 161.955
57.06000 159.918
57.07000 157.865
57.08000 153.937
57.09000 148.372
57.10000 142.870
57.11000 139.730
57.12000 137.996
57.13000 136.289
57.14000 135.120
57.15000 134.161
57.16000 133.305
57.17000 133.504
57.18000 133.979
57.19000 134.396
57.20000 136.889
57.21000 139.336
57.22000 142.262
57.23000 147.101
57.24000 152.139
57.25000 154.937
57.26000 151.749
57.27000 148.234
57.28000 145.955
57.29000 141.584
57.30000 138.354
57.31000 138.583
57.32000 142.959
57.33000 147.334
57.34000 149.280
57.35000 149.355
57.36000 149.427
57.37000 149.896
57.38000 150.545
57.39000 151.048
57.40000 149.211
57.41000 146.560
57.42000 144.018
57.43000 142.434
57.44000 141.073
57.45000 139.901
57.46000 140.028
57.47000 140.300
57.48000 140.581
57.49000 140.897
57.50000 141.216
57.51000 143.057
57.52000 148.531
57.53000 154.162
57.54000 157.654
57.55000 156.078
57.56000 154.895
57.57000 154.157
57.58000 153.886
57.59000 153.606
57.60000 152.205
57.61000 150.039
57.62000 147.924
57.63000 143.562
57.64000 138.401
57.65000 133.615
57.66000 133.784
57.67000 135.489
57.68000 137.207
57.69000 139.017
57.70000 140.846
57.71000 142.388
57.72000 141.176
57.73000 139.867
57.74000 138.997
57.75000 139.509
57.76000 140.123
57.77000 140.273
57.78000 139.434
57.79000 138.563
57.80000 138.049
57.81000 142.413
57.82000 145.521
57.83000 147.447
57.84000 148.280
57.85000 149.087
57.86000 148.118
57.87000 146.068
57.88000 144.083
57.89000 143.274
57.90000 142.963
57.91000 142.670
57.92000 142.564
57.93000 142.509
57.94000 142.727
57.95000 144.724
57.96000 147.043
57.97000 148.952
57.98000 146.149
57.99000 143.410
58.00000 140.457
58.01000 136.897
58.02000 133.302
58.03000 132.756
58.04000 138.016
58.05000 143.415
58.06000 146.437
58.07000 141.243
58.08000 137.630
58.09000 136.280
58.10000 136.773
58.11000 137.334
58.12000 140.945
58.13000 146.206
58.14000 151.256
58.15000 150.812
58.16000 148.516
58.17000 146.386
58.18000 145.804
58.19000 145.602
58.20000 145.016
58.21000 142.239
58.22000 139.114
58.23000 136.604
58.24000 136.797
58.25000 137.161
58.26000 137.651
58.27000 138.460
58.28000 139.284
58.29000 139.403
58.30000 138.325
58.31000 137.228
58.32000 136.649
58.33000 140.469
58.34000 143.060
58.35000 144.870
58.36000 146.117
58.37000 147.233
58.38000 144.090
58.39000 138.890
58.40000 133.951
58.41000 129.676
58.42000 125.928
58.43000 123.138
58.44000 128.044
58.45000 134.621
58.46000 139.120
58.47000 133.176
58.48000 125.791
58.49000 120.017
58.50000 128.202
58.51000 135.622
58.52000 139.064
58.53000 133.584
58.54000 127.771
58.55000 126.740
58.56000 132.924
58.57000 139.182
58.58000 143.035
58.59000 144.531
58.60000 145.998
58.61000 144.972
58.62000 142.350
58.63000 139.928
58.64000 142.432
58.65000 147.061
58.66000 151.407
58.67000 149.680
58.68000 146.494
58.69000 143.709
58.70000 143.713
58.71000 144.252
58.72000 144.405
58.73000 142.846
58.74000 141.083
58.75000 139.744
58.76000 144.260
58.77000 148.111
58.78000 149.777
58.79000 147.068
58.80000 144.237
58.81000 142.929
58.82000 143.659
58.83000 144.398
58.84000 142.937
58.85000 139.587
58.86000 136.315
58.87000 137.258
58.88000 140.601
58.89000 143.781
58.90000 143.815
58.91000 142.636
58.92000 141.544
58.93000 137.529
58.94000 133.234
58.95000 129.589
58.96000 129.874
58.97000 130.821
58.98000 132.276
58.99000 135.731
59.00000 139.390
59.01000 142.081
59.02000 139.082
59.03000 136.527
59.04000 135.226
59.05000 136.163
59.06000 137.144
59.07000 137.271
59.08000 136.386
59.09000 135.501
59.10000 134.918
59.11000 134.567
59.12000 134.329
59.13000 138.361
59.14000 144.561
59.15000 150.276
59.16000 148.395
59.17000 143.904
59.18000 139.802
59.19000 139.965
59.20000 140.980
59.21000 141.468
59.22000 139.160
59.23000 136.441
59.24000 134.089
59.25000 133.019
59.26000 132.060
59.27000 131.378
59.28000 134.410
59.29000 136.838
59.30000 137.186
59.31000 134.229
59.32000 131.230
59.33000 128.138
59.34000 124.948
59.35000 121.776
59.36000 123.396
59.37000 128.187
59.38000 132.905
59.39000 135.596
59.40000 137.367
59.41000 138.832
59.42000 136.328
59.43000 132.610
59.44000 129.266
59.45000 131.504
59.46000 134.455
59.47000 136.955
59.48000 137.336
59.49000 137.448
59.50000 137.540
59.51000 137.571
59.52000 137.597
59.53000 137.615
59.54000 136.337
59.55000 135.348
59.56000 136.385
59.57000 140.281
59.58000 144.196
59.59000 143.279
59.60000 137.958
59.61000 132.687
59.62000 133.837
59.63000 138.734
59.64000 143.428
59.65000 143.731
59.66000 142.258
59.67000 140.803
59.68000 139.544
59.69000 138.339
59.70000 137.275
59.71000 134.032
59.72000 130.897
59.73000 129.395
59.74000 134.667
59.75000 140.680
59.76000 143.634
59.77000 138.086
59.78000 132.040
59.79000 128.061
59.80000 127.717
59.81000 127.525
59.82000 128.852
59.83000 132.078
59.84000 135.293
59.85000 133.122
59.86000 126.621
59.87000 120.216
59.88000 119.729
59.89000 122.327
59.90000 125.025
59.91000 129.442
59.92000 134.482
59.93000 139.157
59.94000 140.472
59.95000 140.973
59.96000 141.408
59.97000 137.801
59.98000 134.194
59.99000 131.596
60.00000 132.719
60.01000 134.187
60.02000 135.634
60.03000 137.029
60.04000 138.422
60.05000 139.299
60.06000 136.135
60.07000 133.800
60.08000 132.462
60.09000 132.224
60.10000 132.001
60.11000 133.913
60.12000 137.344
60.13000 140.703
60.14000 140.641
60.15000 139.015
60.16000 137.797
60.17000 142.313
60.18000 148.679
60.19000 153.540
60.20000 146.517
60.21000 136.946
60.22000 128.820
60.23000 129.651
60.24000 131.371
60.25000 133.510
60.26000 137.029
60.27000 140.655
60.28000 142.173
60.29000 139.019
60.30000 135.696
60.31000 133.701
60.32000 131.867
60.33000 130.564
60.34000 129.861
60.35000 129.736
60.36000 129.675
60.37000 134.698
60.38000 142.933
60.39000 150.935
60.40000 147.161
60.41000 138.813
60.42000 130.881
60.43000 127.830
60.44000 126.181
60.45000 125.158
60.46000 128.427
60.47000 132.508
60.48000 135.895
60.49000 135.170
60.50000 134.173
60.51000 133.117
60.52000 131.894
60.53000 130.660
60.54000 130.318
60.55000 131.743
60.56000 133.215
60.57000 134.055
60.58000 135.456
60.59000 136.432
60.60000 135.558
60.61000 133.111
60.62000 130.735
60.63000 132.005
60.64000 135.325
60.65000 138.523
60.66000 141.853
60.67000 145.026
60.68000 147.310
60.69000 140.805
60.70000 132.055
60.71000 125.085
60.72000 128.750
60.73000 134.178
60.74000 138.577
60.75000 138.788
60.76000 138.618
60.77000 137.662
60.78000 134.656
60.79000 131.544
60.80000 131.913
60.81000 138.422
60.82000 145.048
60.83000 148.618
60.84000 141.924
60.85000 137.353
60.86000 135.951
60.87000 136.929
60.88000 137.835
60.89000 136.161
60.90000 133.193
60.91000 130.363
60.92000 128.243
60.93000 126.500
60.94000 125.427
60.95000 130.008
60.96000 135.870
60.97000 141.229
60.98000 143.946
60.99000 146.280
61.00000 148.123
61.01000 141.958
61.02000 136.469
61.03000 133.920
61.04000 138.224
61.05000 142.808
61.06000 143.416
61.07000 137.783
61.08000 132.073
61.09000 129.183
61.10000 123.711
61.11000 120.103
61.12000 122.120
61.13000 127.881
61.14000 133.529
61.15000 136.125
61.16000 137.354
61.17000 138.513
61.18000 138.668
61.19000 138.533
61.20000 138.536
61.21000 139.549
61.22000 140.764
61.23000 140.915
61.24000 136.143
61.25000 130.754
61.26000 126.620
61.27000 128.956
61.28000 131.161
61.29000 132.760
61.30000 133.100
61.31000 133.401
61.32000 132.473
61.33000 129.832
61.34000 127.182
61.35000 132.169
61.36000 144.014
61.37000 155.681
61.38000 156.319
61.39000 150.425
61.40000 144.739
61.41000 143.420
61.42000 143.848
61.43000 144.247
61.44000 146.789
61.45000 149.608
61.46000 151.408
61.47000 146.737
61.48000 140.927
61.49000 137.284
61.50000 142.516
61.51000 148.703
61.52000 153.304
61.53000 163.580
61.54000 171.826
61.55000 180.089
61.56000 188.381
61.57000 196.674
61.58000 205.920
61.59000 216.340
61.60000 226.744
61.61000 232.614
61.62000 234.878
61.63000 237.150
61.64000 239.775
61.65000 242.587
61.66000 245.361
61.67000 247.499
61.68000 249.410
61.69000 251.164
61.70000 253.192
61.71000 255.060
61.72000 255.613
61.73000 248.865
61.74000 240.994
61.75000 234.411
61.76000 232.513
61.77000 231.042
61.78000 229.985
61.79000 221.516
61.80000 214.773
61.81000 206.998
61.82000 197.513
61.83000 188.002
61.84000 179.063
61.85000 170.746
61.86000 162.466
61.87000 156.877
61.88000 153.216
61.89000 149.673
61.90000 149.732
61.91000 151.486
61.92000 152.856
61.93000 148.922
61.94000 143.299
61.95000 138.216
61.96000 140.529
61.97000 143.940
61.98000 146.586
61.99000 145.495
62.00000 143.903
62.01000 142.240
62.02000 140.348
62.03000 138.438
62.04000 137.113
62.05000 137.725
62.06000 138.238
62.07000 140.598
62.08000 145.675
62.09000 150.776
62.10000 150.234
62.11000 144.315
62.12000 138.444
62.13000 137.437
62.14000 139.428
62.15000 141.282
62.16000 139.923
62.17000 137.212
62.18000 135.065
62.19000 139.384
62.20000 145.537
62.21000 151.007
62.22000 146.750
62.23000 141.482
62.24000 137.741
62.25000 140.595
62.26000 144.209
62.27000 146.594
62.28000 145.431
62.29000 144.044
62.30000 143.119
62.31000 144.251
62.32000 145.130
62.33000 143.264
62.34000 137.822
62.35000 132.373
62.36000 131.337
62.37000 133.999
62.38000 136.628
62.39000 139.358
62.40000 142.072
62.41000 144.690
62.42000 145.542
62.43000 145.731
62.44000 145.960
62.45000 146.581
62.46000 147.302
62.47000 147.930
62.48000 142.723
62.49000 137.452
62.50000 134.272
62.51000 139.108
62.52000 144.731
62.53000 147.892
62.54000 144.701
62.55000 141.188
62.56000 138.942
62.57000 142.050
62.58000 144.383
62.59000 147.819
62.60000 152.524
62.61000 157.188
62.62000 154.122
62.63000 145.329
62.64000 136.700
62.65000 134.974
62.66000 136.607
62.67000 138.340
62.68000 141.580
62.69000 145.324
62.70000 148.575
62.71000 147.725
62.72000 145.957
62.73000 144.445
62.74000 142.194
62.75000 140.207
62.76000 138.157
62.77000 135.896
62.78000 133.616
62.79000 133.954
62.80000 140.317
62.81000 146.920
62.82000 150.952
62.83000 146.744
62.84000 143.667
62.85000 143.674
62.86000 146.797
62.87000 149.892
62.88000 150.238
62.89000 148.778
62.90000 147.355
62.91000 146.284
62.92000 145.409
62.93000 144.391
62.94000 141.589
62.95000 138.254
62.96000 135.404
62.97000 136.035
62.98000 137.354
62.99000 138.457
63.00000 144.100
63.01000 149.254
63.02000 151.675
63.03000 145.791
63.04000 139.337
63.05000 135.720
63.06000 137.936
63.07000 140.328
63.08000 141.717
63.09000 139.461
63.10000 137.864
63.11000 140.245
63.12000 146.154
63.13000 151.935
63.14000 150.157
63.15000 143.958
63.16000 137.968
63.17000 140.261
63.18000 145.507
63.19000 150.216
63.20000 149.306
63.21000 146.902
63.22000 144.735
63.23000 144.055
63.24000 143.632
63.25000 143.287
63.26000 142.568
63.27000 141.948
63.28000 141.186
63.29000 140.038
63.30000 138.869
63.31000 138.520
63.32000 139.676
63.33000 140.865
63.34000 141.518
63.35000 144.683
63.36000 146.854
63.37000 145.840
63.38000 142.333
63.39000 138.863
63.40000 136.872
63.41000 135.653
63.42000 134.486
63.43000 140.940
63.44000 149.455
63.45000 157.079
63.46000 156.779
63.47000 154.610
63.48000 152.600
63.49000 151.470
63.50000 150.473
63.51000 149.678
63.52000 151.942
63.53000 153.988
63.54000 154.374
63.55000 150.740
63.56000 146.926
63.57000 143.842
63.58000 141.949
63.59000 140.073
63.60000 139.103
63.61000 141.849
63.62000 143.707
63.63000 146.170
63.64000 149.052
63.65000 151.863
63.66000 152.541
63.67000 152.228
63.68000 151.932
63.69000 154.179
63.70000 156.982
63.71000 159.205
63.72000 156.991
63.73000 153.851
63.74000 151.368
63.75000 152.053
63.76000 153.155
63.77000 154.009
63.78000 153.732
63.79000 153.446
63.80000 151.029
63.81000 144.008
63.82000 136.828
63.83000 134.922
63.84000 140.673
63.85000 146.487
63.86000 150.690
63.87000 153.380
63.88000 156.039
63.89000 156.534
63.90000 155.694
63.91000 154.834
63.92000 153.521
63.93000 152.020
63.94000 150.616
63.95000 149.074
63.96000 147.638
63.97000 146.889
63.98000 150.699
63.99000 155.348
64.00000 158.908
64.01000 157.823
64.02000 156.211
64.03000 155.000
64.04000 159.338
64.05000 162.998
64.06000 165.275
64.07000 164.883
64.08000 164.423
64.09000 162.327
64.10000 158.126
64.11000 153.922
64.12000 152.662
64.13000 153.832
64.14000 155.024
64.15000 157.259
64.16000 160.066
64.17000 162.585
64.18000 159.886
64.19000 155.251
64.20000 150.975
64.21000 152.822
64.22000 155.844
64.23000 158.715
64.24000 160.713
64.25000 162.570
64.26000 164.460
64.27000 166.471
64.28000 168.493
64.29000 169.965
64.30000 168.153
64.31000 166.633
64.32000 162.811
64.33000 155.028
64.34000 147.177
64.35000 145.390
64.36000 150.487
64.37000 155.574
64.38000 158.719
64.39000 160.429
64.40000 162.254
64.41000 167.961
64.42000 175.569
64.43000 182.416
64.44000 178.109
64.45000 170.107
64.46000 162.835
64.47000 166.242
64.48000 171.337
64.49000 175.042
64.50000 171.657
64.51000 167.277
64.52000 162.988
64.53000 159.008
64.54000 155.053
64.55000 152.275
64.56000 154.643
64.57000 156.587
64.58000 159.231
64.59000 162.946
64.60000 166.672
64.61000 168.186
64.62000 167.495
64.63000 166.808
64.64000 164.364
64.65000 160.833
64.66000 157.506
64.67000 159.380
64.68000 163.527
64.69000 167.406
64.70000 168.037
64.71000 167.709
64.72000 167.415
64.73000 170.767
64.74000 174.308
64.75000 176.485
64.76000 172.525
64.77000 167.819
64.78000 164.132
64.79000 163.505
64.80000 163.083
64.81000 162.798
64.82000 169.642
64.83000 174.893
64.84000 176.862
64.85000 174.372
64.86000 171.858
64.87000 170.637
64.88000 170.548
64.89000 170.459
64.90000 173.736
64.91000 178.835
64.92000 183.592
64.93000 181.536
64.94000 176.821
64.95000 172.391
64.96000 170.892
64.97000 170.163
64.98000 169.522
64.99000 175.146
65.00000 180.900
65.01000 185.089
65.02000 183.029
65.03000 180.320
65.04000 179.147
65.05000 182.090
65.06000 185.259
65.07000 187.316
65.08000 191.464
65.09000 194.533
65.10000 198.668
65.11000 204.083
65.12000 209.481
65.13000 210.169
65.14000 207.218
65.15000 204.317
65.16000 205.148
65.17000 207.811
65.18000 210.771
65.19000 218.493
65.20000 227.873
65.21000 236.202
65.22000 235.331
65.23000 232.317
65.24000 229.721
65.25000 236.865
65.26000 244.152
65.27000 252.032
65.28000 262.019
65.29000 272.191
65.30000 279.397
65.31000 279.506
65.32000 279.308
65.33000 279.185
65.34000 282.485
65.35000 284.894
65.36000 287.594
65.37000 290.603
65.38000 293.647
65.39000 300.784
65.40000 310.723
65.41000 320.431
65.42000 330.204
65.43000 339.587
65.44000 348.581
65.45000 352.448
65.46000 354.722
65.47000 357.920
65.48000 368.083
65.49000 379.681
65.50000 389.461
65.51000 392.536
65.52000 394.379
65.53000 396.560
65.54000 399.811
65.55000 403.140
65.56000 404.035
65.57000 399.731
65.58000 395.254
65.59000 392.608
65.60000 405.340
65.61000 414.418
65.62000 420.156
65.63000 422.797
65.64000 425.482
65.65000 431.168
65.66000 438.679
65.67000 445.958
65.68000 464.629
65.69000 486.729
65.70000 509.982
65.71000 545.962
65.72000 585.465
65.73000 623.405
65.74000 651.112
65.75000 676.963
65.76000 698.263
65.77000 752.377
65.78000 799.915
65.79000 838.097
65.80000 849.917
65.81000 860.149
65.82000 874.400
65.83000 896.311
65.84000 918.408
65.85000 930.787
65.86000 935.510
65.87000 938.766
65.88000 942.371
65.89000 946.261
65.90000 949.901
65.91000 942.127
65.92000 928.167
65.93000 914.763
65.94000 879.287
65.95000 838.533
65.96000 796.649
65.97000 744.168
65.98000 689.083
65.99000 634.966
66.00000 586.388
66.01000 538.691
66.02000 500.361
66.03000 457.394
66.04000 422.209
66.05000 389.930
66.06000 364.964
66.07000 340.351
66.08000 323.595
66.09000 320.188
66.10000 317.002
66.11000 315.319
66.12000 308.725
66.13000 304.225
66.14000 296.690
66.15000 286.963
66.16000 277.373
66.17000 272.232
66.18000 269.244
66.19000 266.404
66.20000 270.736
66.21000 276.904
66.22000 282.540
66.23000 283.887
66.24000 284.300
66.25000 284.842
66.26000 286.035
66.27000 287.318
66.28000 288.322
66.29000 307.837
66.30000 324.596
66.31000 337.257
66.32000 340.711
66.33000 343.820
66.34000 350.853
66.35000 363.819
66.36000 376.845
66.37000 385.327
66.38000 389.346
66.39000 393.378
66.40000 398.545
66.41000 404.439
66.42000 410.048
66.43000 408.604
66.44000 404.113
66.45000 399.896
66.46000 395.637
66.47000 391.740
66.48000 388.129
66.49000 386.507
66.50000 385.268
66.51000 383.400
66.52000 378.743
66.53000 373.753
66.54000 369.962
66.55000 350.196
66.56000 333.830
66.57000 321.426
66.58000 316.971
66.59000 312.740
66.60000 307.038
66.61000 299.366
66.62000 291.689
66.63000 286.318
66.64000 282.944
66.65000 279.752
66.66000 286.379
66.67000 298.608
66.68000 310.219
66.69000 309.787
66.70000 304.711
66.71000 300.007
66.72000 297.071
66.73000 294.842
66.74000 292.503
66.75000 289.498
66.76000 286.381
66.77000 284.614
66.78000 288.167
66.79000 292.264
66.80000 295.278
66.81000 305.590
66.82000 313.872
66.83000 317.030
66.84000 311.022
66.85000 304.832
66.86000 303.485
66.87000 307.877
66.88000 312.268
66.89000 313.569
66.90000 312.523
66.91000 311.486
66.92000 310.801
66.93000 310.294
66.94000 310.235
66.95000 317.189
66.96000 326.558
66.97000 335.117
66.98000 330.583
66.99000 323.884
67.00000 318.896
67.01000 323.024
67.02000 328.494
67.03000 332.535
67.04000 331.569
67.05000 330.171
67.06000 329.177
67.07000 322.961
67.08000 318.059
67.09000 315.565
67.10000 316.908
67.11000 318.299
67.12000 319.365
67.13000 320.092
67.14000 320.814
67.15000 325.244
67.16000 332.092
67.17000 338.863
67.18000 343.470
67.19000 347.094
67.20000 350.913
67.21000 357.252
67.22000 364.363
67.23000 370.758
67.24000 363.201
67.25000 354.099
67.26000 346.999
67.27000 349.300
67.28000 352.800
67.29000 356.268
67.30000 359.635
67.31000 362.994
67.32000 365.297
67.33000 360.715
67.34000 357.116
67.35000 358.230
67.36000 366.010
67.37000 373.837
67.38000 377.860
67.39000 378.408
67.40000 378.950
67.41000 381.121
67.42000 384.205
67.43000 387.267
67.44000 389.840
67.45000 392.215
67.46000 394.519
67.47000 396.060
67.48000 397.391
67.49000 398.568
67.50000 387.926
67.51000 376.909
67.52000 370.087
67.53000 380.699
67.54000 393.224
67.55000 403.489
67.56000 407.467
67.57000 411.074
67.58000 413.449
67.59000 409.095
67.60000 405.773
67.61000 404.869
67.62000 406.996
67.63000 409.134
67.64000 411.824
67.65000 414.957
67.66000 418.044
67.67000 422.584
67.68000 427.744
67.69000 432.517
67.70000 430.614
67.71000 426.293
67.72000 423.141
67.73000 430.773
67.74000 441.021
67.75000 449.907
67.76000 452.518
67.77000 453.906
67.78000 454.299
67.79000 451.023
67.80000 447.406
67.81000 443.964
67.82000 440.956
67.83000 437.969
67.84000 436.086
67.85000 461.853
67.86000 480.822
67.87000 484.822
67.88000 472.293
67.89000 459.815
67.90000 456.105
67.91000 458.644
67.92000 461.130
67.93000 466.002
67.94000 471.779
67.95000 477.318
67.96000 479.520
67.97000 480.644
67.98000 482.992
67.99000 495.030
68.00000 509.150
68.01000 521.143
68.02000 513.746
68.03000 505.323
68.04000 498.945
68.05000 499.286
68.06000 500.151
68.07000 501.461
68.08000 503.757
68.09000 506.089
68.10000 507.490
68.11000 510.833
68.12000 513.223
68.13000 517.834
68.14000 524.596
68.15000 531.312
68.16000 534.238
68.17000 534.767
68.18000 535.281
68.19000 539.019
68.20000 543.878
68.21000 548.429
68.22000 549.372
68.23000 549.276
68.24000 549.993
68.25000 556.283
68.26000 563.629
68.27000 569.730
68.28000 574.851
68.29000 578.990
68.30000 585.395
68.31000 598.432
68.32000 611.898
68.33000 623.315
68.34000 630.675
68.35000 637.924
68.36000 642.061
68.37000 647.310
68.38000 650.972
68.39000 652.049
68.40000 650.927
68.41000 649.849
68.42000 651.032
68.43000 653.488
68.44000 655.854
68.45000 663.077
68.46000 671.599
68.47000 680.259
68.48000 690.281
68.49000 700.651
68.50000 709.240
68.51000 707.172
68.52000 703.332
68.53000 700.219
68.54000 725.247
68.55000 747.939
68.56000 768.203
68.57000 782.124
68.58000 795.713
68.59000 815.535
68.60000 846.367
68.61000 877.409
68.62000 894.150
68.63000 938.336
68.64000 968.617
68.65000 1005.319
68.66000 1046.851
68.67000 1088.639
68.68000 1139.758
68.69000 1195.567
68.70000 1248.791
68.71000 1292.985
68.72000 1331.141
68.73000 1370.136
68.74000 1416.235
68.75000 1463.947
68.76000 1512.269
68.77000 1563.801
68.78000 1615.798
68.79000 1656.853
68.80000 1715.778
68.81000 1764.280
68.82000 1818.167
68.83000 1884.623
68.84000 1951.594
68.85000 2036.599
68.86000 2149.968
68.87000 2263.683
68.88000 2321.309
68.89000 2607.458
68.90000 2801.318
68.91000 3222.955
68.92000 3796.536
68.93000 4395.890
68.94000 5694.036
68.95000 7305.661
68.96000 8825.418
68.97000 11881.101
68.98000 15106.988
68.99000 18426.287
69.00000 22427.945
69.01000 26566.393
69.02000 30645.578
69.03000 34450.195
69.04000 38220.324
69.05000 41113.438
69.06000 43663.551
69.07000 45659.672
69.08000 47154.160
69.09000 47603.043
69.10000 48019.348
69.11000 48319.434
69.12000 48457.199
69.13000 48593.828
69.14000 48966.004
69.15000 49549.867
69.16000 50132.762
69.17000 50655.773
69.18000 51143.254
69.19000 51580.250
69.20000 50954.699
69.21000 49903.457
69.22000 48924.551
69.23000 46334.672
69.24000 43599.902
69.25000 40892.063
69.26000 38355.375
69.27000 35848.863
69.28000 33454.910
69.29000 31522.686
69.30000 29640.238
69.31000 28239.516
69.32000 27065.211
69.33000 26161.750
69.34000 25382.277
69.35000 24833.406
69.36000 24289.719
69.37000 23624.053
69.38000 22807.611
69.39000 21992.223
69.40000 20627.635
69.41000 18835.029
69.42000 17037.467
69.43000 15030.573
69.44000 12912.996
69.45000 10819.377
69.46000 9129.303
69.47000 7583.578
69.48000 6164.174
69.49000 5039.743
69.50000 4099.596
69.51000 3229.638
69.52000 2750.209
69.53000 2331.019
69.54000 1967.623
69.55000 1807.509
69.56000 1666.003
69.57000 1564.161
69.58000 1442.931
69.59000 1349.425
69.60000 1279.578
69.61000 1248.935
69.62000 1218.883
69.63000 1178.807
69.64000 1127.814
69.65000 1077.039
69.66000 1042.095
69.67000 1018.536
69.68000 995.042
69.69000 973.531
69.70000 952.956
69.71000 932.505
69.72000 913.755
69.73000 895.548
69.74000 879.084
69.75000 861.634
69.76000 846.094
69.77000 831.813
69.78000 823.699
69.79000 816.412
69.80000 806.523
69.81000 788.193
69.82000 769.217
69.83000 756.043
69.84000 737.010
69.85000 722.516
69.86000 711.142
69.87000 704.364
69.88000 697.628
69.89000 693.798
69.90000 692.743
69.91000 691.696
69.92000 693.464
69.93000 696.928
69.94000 699.817
69.95000 689.203
69.96000 672.900
69.97000 656.896
69.98000 644.333
69.99000 632.747
70.00000 622.447
