20.00000 573.748
20.01000 571.488
20.02000 568.904
20.03000 564.854
20.04000 555.076
20.05000 544.719
20.06000 537.109
20.07000 537.224
20.08000 537.629
20.09000 542.637
20.10000 555.849
20.11000 569.222
20.12000 571.090
20.13000 559.342
20.14000 547.601
20.15000 547.171
20.16000 555.322
20.17000 563.131
20.18000 557.907
20.19000 546.032
20.20000 534.828
20.21000 534.263
20.22000 537.381
20.23000 540.233
20.24000 553.575
20.25000 567.597
20.26000 577.778
20.27000 567.273
20.28000 553.685
20.29000 544.186
20.30000 549.194
20.31000 555.477
20.32000 559.967
20.33000 561.217
20.34000 562.063
20.35000 560.491
20.36000 554.998
20.37000 549.451
20.38000 544.882
20.39000 541.355
20.40000 537.846
20.41000 539.474
20.42000 544.592
20.43000 549.578
20.44000 550.653
20.45000 549.911
20.46000 549.393
20.47000 551.920
20.48000 555.405
20.49000 558.551
20.50000 567.423
20.51000 576.276
20.52000 581.226
20.53000 567.243
20.54000 550.749
20.55000 536.588
20.56000 529.948
20.57000 523.879
20.58000 519.671
20.59000 527.525
20.60000 533.758
20.61000 539.564
20.62000 544.744
20.63000 549.919
20.64000 553.035
20.65000 554.185
20.66000 555.325
20.67000 549.664
20.68000 539.913
20.69000 530.473
20.70000 528.415
20.71000 529.483
20.72000 530.794
20.73000 534.926
20.74000 539.866
20.75000 544.266
20.76000 543.309
20.77000 541.599
20.78000 539.744
20.79000 537.259
20.80000 534.699
20.81000 534.874
20.82000 543.070
20.83000 551.786
20.84000 557.638
20.85000 548.945
20.86000 542.193
20.87000 539.756
20.88000 543.067
20.89000 546.408
20.90000 550.807
20.91000 556.115
20.92000 561.361
20.93000 558.726
20.94000 551.777
20.95000 545.196
20.96000 545.788
20.97000 549.148
20.98000 552.557
20.99000 556.475
21.00000 560.524
21.01000 564.076
21.02000 557.421
21.03000 550.218
21.04000 544.155
21.05000 542.615
21.06000 541.542
21.07000 541.732
21.08000 545.296
21.09000 549.044
21.10000 551.476
21.11000 548.911
21.12000 546.958
21.13000 546.539
21.14000 547.966
21.15000 549.377
21.16000 545.804
21.17000 538.365
21.18000 531.046
21.19000 531.479
21.20000 535.785
21.21000 539.994
21.22000 542.613
21.23000 544.673
21.24000 546.199
21.25000 542.982
21.26000 538.648
21.27000 534.906
21.28000 534.372
21.29000 534.331
21.30000 535.710
21.31000 542.203
21.32000 549.156
21.33000 552.765
21.34000 548.234
21.35000 543.337
21.36000 540.274
21.37000 550.206
21.38000 557.513
21.39000 556.855
21.40000 547.568
21.41000 538.316
21.42000 534.205
21.43000 533.703
21.44000 533.212
21.45000 529.073
21.46000 523.450
21.47000 518.358
21.48000 520.637
21.49000 525.273
21.50000 529.249
21.51000 528.061
21.52000 525.773
21.53000 523.831
21.54000 533.621
21.55000 543.161
21.56000 551.564
21.57000 556.247
21.58000 560.639
21.59000 562.982
21.60000 560.780
21.61000 558.413
21.62000 556.989
21.63000 551.890
21.64000 548.239
21.65000 546.311
21.66000 546.061
21.67000 545.883
21.68000 551.760
21.69000 561.492
21.70000 570.953
21.71000 569.596
21.72000 563.881
21.73000 558.820
21.74000 561.545
21.75000 566.534
21.76000 570.754
21.77000 569.619
21.78000 567.454
21.79000 565.652
21.80000 557.544
21.81000 550.201
21.82000 546.290
21.83000 552.602
21.84000 559.593
21.85000 570.621
21.86000 589.802
21.87000 609.217
21.88000 620.409
21.89000 611.586
21.90000 605.337
21.91000 604.511
21.92000 608.425
21.93000 612.420
21.94000 620.964
21.95000 632.141
21.96000 642.932
21.97000 641.854
21.98000 636.459
21.99000 632.364
22.00000 641.716
22.01000 654.619
22.02000 665.932
22.03000 667.358
22.04000 667.078
22.05000 666.849
22.06000 664.774
22.07000 662.917
22.08000 663.986
22.09000 672.993
22.10000 682.445
22.11000 684.818
22.12000 674.179
22.13000 663.258
22.14000 657.242
22.15000 661.221
22.16000 663.974
22.17000 665.367
22.18000 665.688
22.19000 666.050
22.20000 668.141
22.21000 671.143
22.22000 674.018
22.23000 670.048
22.24000 664.068
22.25000 658.622
22.26000 658.013
22.27000 658.563
22.28000 657.546
22.29000 647.795
22.30000 636.693
22.31000 627.814
22.32000 619.241
22.33000 612.334
22.34000 605.178
22.35000 597.408
22.36000 589.609
22.37000 584.828
22.38000 585.094
22.39000 585.438
22.40000 585.618
22.41000 584.641
22.42000 583.937
22.43000 577.207
22.44000 566.179
22.45000 555.632
22.46000 560.479
22.47000 572.701
22.48000 584.306
22.49000 582.688
22.50000 577.231
22.51000 572.649
22.52000 575.065
22.53000 578.998
22.54000 580.328
22.55000 568.605
22.56000 555.082
22.57000 544.506
22.58000 539.245
22.59000 535.383
22.60000 532.434
22.61000 531.541
22.62000 530.725
22.63000 532.963
22.64000 539.838
22.65000 546.761
22.66000 546.817
22.67000 540.079
22.68000 533.345
22.69000 527.043
22.70000 521.019
22.71000 515.400
22.72000 520.042
22.73000 529.162
22.74000 537.739
22.75000 524.964
22.76000 507.534
22.77000 492.818
22.78000 497.365
22.79000 505.676
22.80000 513.289
22.81000 517.744
22.82000 521.813
22.83000 524.920
22.84000 516.175
22.85000 508.644
22.86000 504.796
22.87000 508.499
22.88000 512.427
22.89000 512.340
22.90000 506.730
22.91000 501.089
22.92000 502.627
22.93000 510.536
22.94000 518.289
22.95000 516.715
22.96000 509.663
22.97000 503.050
22.98000 505.518
22.99000 511.597
23.00000 517.254
23.01000 506.486
23.02000 492.774
23.03000 482.038
23.04000 490.146
23.05000 501.565
23.06000 510.651
23.07000 510.173
23.08000 508.666
23.09000 507.544
23.10000 517.467
23.11000 525.685
23.12000 530.049
23.13000 527.220
23.14000 524.227
23.15000 521.653
23.16000 519.599
23.17000 517.550
23.18000 513.634
23.19000 508.247
23.20000 502.825
23.21000 495.938
23.22000 488.268
23.23000 481.062
23.24000 481.857
23.25000 485.550
23.26000 488.947
23.27000 497.345
23.28000 505.938
23.29000 513.705
23.30000 516.793
23.31000 519.144
23.32000 520.578
23.33000 518.605
23.34000 516.311
23.35000 514.649
23.36000 502.324
23.37000 492.466
23.38000 485.255
23.39000 482.539
23.40000 479.897
23.41000 484.289
23.42000 496.569
23.43000 508.812
23.44000 510.799
23.45000 505.401
23.46000 499.997
23.47000 494.374
23.48000 488.645
23.49000 483.469
23.50000 486.346
23.51000 491.880
23.52000 496.909
23.53000 503.390
23.54000 509.400
23.55000 513.101
23.56000 505.016
23.57000 495.277
23.58000 488.677
23.59000 492.678
23.60000 497.544
23.61000 500.968
23.62000 499.998
23.63000 499.134
23.64000 500.939
23.65000 506.859
23.66000 512.826
23.67000 511.193
23.68000 501.905
23.69000 492.676
23.70000 489.907
23.71000 491.360
23.72000 492.903
23.73000 496.824
23.74000 501.799
23.75000 506.560
23.76000 508.637
23.77000 509.909
23.78000 511.050
23.79000 501.246
23.80000 490.780
23.81000 482.541
23.82000 484.558
23.83000 487.853
23.84000 489.757
23.85000 487.395
23.86000 484.734
23.87000 482.919
23.88000 485.190
23.89000 486.983
23.90000 487.014
23.91000 484.584
23.92000 482.141
23.93000 485.132
23.94000 493.037
23.95000 500.865
23.96000 498.978
23.97000 491.457
23.98000 484.050
23.99000 479.074
24.00000 475.079
24.01000 471.562
24.02000 473.221
24.03000 476.291
24.04000 479.004
24.05000 485.051
24.06000 490.789
24.07000 495.735
24.08000 497.383
24.09000 498.670
24.10000 499.113
24.11000 497.200
24.12000 495.148
24.13000 493.793
24.14000 479.507
24.15000 468.746
24.16000 466.442
24.17000 474.831
24.18000 483.239
24.19000 484.915
24.20000 481.107
24.21000 477.352
24.22000 474.715
24.23000 472.742
24.24000 470.806
24.25000 469.524
24.26000 468.483
24.27000 468.277
24.28000 475.956
24.29000 485.584
24.30000 493.962
24.31000 493.412
24.32000 491.721
24.33000 489.558
24.34000 485.609
24.35000 481.489
24.36000 478.281
24.37000 477.398
24.38000 476.630
24.39000 476.141
24.40000 473.981
24.41000 472.389
24.42000 472.969
24.43000 476.023
24.44000 479.074
24.45000 480.858
24.46000 481.711
24.47000 482.548
24.48000 479.997
24.49000 475.927
24.50000 472.083
24.51000 471.639
24.52000 472.333
24.53000 472.852
24.54000 471.917
24.55000 470.657
24.56000 469.579
24.57000 472.146
24.58000 474.752
24.59000 476.793
24.60000 476.897
24.61000 476.839
24.62000 476.967
24.63000 477.525
24.64000 478.101
24.65000 478.454
24.66000 470.869
24.67000 465.368
24.68000 468.297
24.69000 479.867
24.70000 491.340
24.71000 492.774
24.72000 487.511
24.73000 482.377
24.74000 477.144
24.75000 472.101
24.76000 467.902
24.77000 474.489
24.78000 484.361
24.79000 492.581
24.80000 488.624
24.81000 482.207
24.82000 476.812
24.83000 475.573
24.84000 474.980
24.85000 475.035
24.86000 477.108
24.87000 479.327
24.88000 479.124
24.89000 473.803
24.90000 468.316
24.91000 465.087
24.92000 482.225
24.93000 494.419
24.94000 498.615
24.95000 495.455
24.96000 492.200
24.97000 482.588
24.98000 469.123
24.99000 456.078
25.00000 458.536
25.01000 466.873
25.02000 474.143
25.03000 469.605
25.04000 461.798
25.05000 454.726
25.06000 452.477
25.07000 451.105
25.08000 449.974
25.09000 453.203
25.10000 456.264
25.11000 457.303
25.12000 452.605
25.13000 447.556
25.14000 447.166
25.15000 455.737
25.16000 464.532
25.17000 469.487
25.18000 476.217
25.19000 480.882
25.20000 479.567
25.21000 473.299
25.22000 467.163
25.23000 467.374
25.24000 471.082
25.25000 474.648
25.26000 467.712
25.27000 457.537
25.28000 448.347
25.29000 448.651
25.30000 451.339
25.31000 453.839
25.32000 455.230
25.33000 456.440
25.34000 457.418
25.35000 466.139
25.36000 473.851
25.37000 479.027
25.38000 477.649
25.39000 475.937
25.40000 473.926
25.41000 471.391
25.42000 468.847
25.43000 467.480
25.44000 460.606
25.45000 455.905
25.46000 451.210
25.47000 446.520
25.48000 442.006
25.49000 443.855
25.50000 448.893
25.51000 453.698
25.52000 456.835
25.53000 459.220
25.54000 461.090
25.55000 458.594
25.56000 455.105
25.57000 452.501
25.58000 454.570
25.59000 457.320
25.60000 459.495
25.61000 468.803
25.62000 476.769
25.63000 480.490
25.64000 474.216
25.65000 467.522
25.66000 461.437
25.67000 456.321
25.68000 451.217
25.69000 448.610
25.70000 448.185
25.71000 447.902
25.72000 447.904
25.73000 448.098
25.74000 448.608
25.75000 458.031
25.76000 471.524
25.77000 484.274
25.78000 477.186
25.79000 465.045
25.80000 454.447
25.81000 455.447
25.82000 458.828
25.83000 460.375
25.84000 453.193
25.85000 444.878
25.86000 438.454
25.87000 442.155
25.88000 445.681
25.89000 449.367
25.90000 453.392
25.91000 457.429
25.92000 461.140
25.93000 464.381
25.94000 467.618
25.95000 468.796
25.96000 468.048
25.97000 467.218
25.98000 460.579
25.99000 450.365
26.00000 440.400
26.01000 436.119
26.02000 434.201
26.03000 432.408
26.04000 440.555
26.05000 450.496
26.06000 458.647
26.07000 454.833
26.08000 448.804
26.09000 445.507
26.10000 453.953
26.11000 463.744
26.12000 471.125
26.13000 469.157
26.14000 467.157
26.15000 465.212
26.16000 463.373
26.17000 461.537
26.18000 457.887
26.19000 451.869
26.20000 445.846
26.21000 440.579
26.22000 435.962
26.23000 431.493
26.24000 434.505
26.25000 441.702
26.26000 448.491
26.27000 447.638
26.28000 443.888
26.29000 440.419
26.30000 443.804
26.31000 448.418
26.32000 450.792
26.33000 439.772
26.34000 426.527
26.35000 418.678
26.36000 431.851
26.37000 447.138
26.38000 458.362
26.39000 455.808
26.40000 453.274
26.41000 449.354
26.42000 442.969
26.43000 436.537
26.44000 433.212
26.45000 433.554
26.46000 433.902
26.47000 433.366
26.48000 432.167
26.49000 431.073
26.50000 433.928
26.51000 438.793
26.52000 443.393
26.53000 443.801
26.54000 442.762
26.55000 441.813
26.56000 437.937
26.57000 433.892
26.58000 432.420
26.59000 444.764
26.60000 459.159
26.61000 469.015
26.62000 462.816
26.63000 455.211
26.64000 449.783
26.65000 454.104
26.66000 457.721
26.67000 458.626
26.68000 455.145
26.69000 451.605
26.70000 448.731
26.71000 446.565
26.72000 444.409
26.73000 441.744
26.74000 438.762
26.75000 435.935
26.76000 437.677
26.77000 441.537
26.78000 445.068
26.79000 444.189
26.80000 441.926
26.81000 439.882
26.82000 445.462
26.83000 451.763
26.84000 456.644
26.85000 454.653
26.86000 451.754
26.87000 450.072
26.88000 452.303
26.89000 454.830
26.90000 456.580
26.91000 444.896
26.92000 435.751
26.93000 430.442
26.94000 430.755
26.95000 431.119
26.96000 434.483
26.97000 440.704
26.98000 446.876
26.99000 448.603
27.00000 447.572
27.01000 446.474
27.02000 443.819
27.03000 440.505
27.04000 437.398
27.05000 436.693
27.06000 436.673
27.07000 436.655
27.08000 435.399
27.09000 434.105
27.10000 432.224
27.11000 427.776
27.12000 423.028
27.13000 422.069
27.14000 432.195
27.15000 443.035
27.16000 450.306
27.17000 439.778
27.18000 431.604
27.19000 428.210
27.20000 431.165
27.21000 434.146
27.22000 434.034
27.23000 431.273
27.24000 428.545
27.25000 429.398
27.26000 432.212
27.27000 434.905
27.28000 435.226
27.29000 434.634
27.30000 433.768
27.31000 430.138
27.32000 425.791
27.33000 421.979
27.34000 422.490
27.35000 423.555
27.36000 424.825
27.37000 426.904
27.38000 429.065
27.39000 430.170
27.40000 428.459
27.41000 426.596
27.42000 425.388
27.43000 431.036
27.44000 435.273
27.45000 440.175
27.46000 445.876
27.47000 451.558
27.48000 452.315
27.49000 449.264
27.50000 446.263
27.51000 442.026
27.52000 437.308
27.53000 432.787
27.54000 431.459
27.55000 431.249
27.56000 429.924
27.57000 418.736
27.58000 405.232
27.59000 393.581
27.60000 401.951
27.61000 411.622
27.62000 421.508
27.63000 432.167
27.64000 442.896
27.65000 449.085
27.66000 444.255
27.67000 438.933
27.68000 435.608
27.69000 424.001
27.70000 415.540
27.71000 413.756
27.72000 419.184
27.73000 424.560
27.74000 422.883
27.75000 416.271
27.76000 409.803
27.77000 410.217
27.78000 413.722
27.79000 417.174
27.80000 419.905
27.81000 422.407
27.82000 424.561
27.83000 423.998
27.84000 422.859
27.85000 421.893
27.86000 426.709
27.87000 431.400
27.88000 434.842
27.89000 434.208
27.90000 433.259
27.91000 432.874
27.92000 433.737
27.93000 434.645
27.94000 435.190
27.95000 429.655
27.96000 425.681
27.97000 420.099
27.98000 412.959
27.99000 405.880
28.00000 403.788
28.01000 404.862
28.02000 405.907
28.03000 413.590
28.04000 423.601
28.05000 432.873
28.06000 433.386
28.07000 431.359
28.08000 429.201
28.09000 426.131
28.10000 422.886
28.11000 420.185
28.12000 419.184
28.13000 418.522
28.14000 419.179
28.15000 423.750
28.16000 428.579
28.17000 429.406
28.18000 422.170
28.19000 414.706
28.20000 410.409
28.21000 418.665
28.22000 424.488
28.23000 428.366
28.24000 430.551
28.25000 432.730
28.26000 434.623
28.27000 436.351
28.28000 438.019
28.29000 435.296
28.30000 431.117
28.31000 427.198
28.32000 425.971
28.33000 425.453
28.34000 423.839
28.35000 415.436
28.36000 405.865
28.37000 398.053
28.38000 417.212
28.39000 435.203
28.40000 444.381
28.41000 429.727
28.42000 413.744
28.43000 403.016
28.44000 401.920
28.45000 401.030
28.46000 400.541
28.47000 414.538
28.48000 424.172
28.49000 425.358
28.50000 419.904
28.51000 414.652
28.52000 417.725
28.53000 425.167
28.54000 432.293
28.55000 424.628
28.56000 412.575
28.57000 401.880
28.58000 403.436
28.59000 407.916
28.60000 411.394
28.61000 409.308
28.62000 406.365
28.63000 404.012
28.64000 411.306
28.65000 417.914
28.66000 423.347
28.67000 425.883
28.68000 428.285
28.69000 425.090
28.70000 412.564
28.71000 399.895
28.72000 393.260
28.73000 405.152
28.74000 413.164
28.75000 414.280
28.76000 410.494
28.77000 406.742
28.78000 404.058
28.79000 401.885
28.80000 399.822
28.81000 403.272
28.82000 408.103
28.83000 412.572
28.84000 414.144
28.85000 415.092
28.86000 415.234
28.87000 411.348
28.88000 406.908
28.89000 403.438
28.90000 409.747
28.91000 415.401
28.92000 420.959
28.93000 426.298
28.94000 431.630
28.95000 431.746
28.96000 423.969
28.97000 416.111
28.98000 410.993
28.99000 408.576
29.00000 406.161
29.01000 403.824
29.02000 401.538
29.03000 399.243
29.04000 396.727
29.05000 394.115
29.06000 391.659
29.07000 396.983
29.08000 403.936
29.09000 410.474
29.10000 414.073
29.11000 417.101
29.12000 419.354
29.13000 418.108
29.14000 416.437
29.15000 415.161
29.16000 411.382
29.17000 408.271
29.18000 405.672
29.19000 404.123
29.20000 402.604
29.21000 405.904
29.22000 415.812
29.23000 425.755
29.24000 425.042
29.25000 414.899
29.26000 404.896
29.27000 403.176
29.28000 406.308
29.29000 409.169
29.30000 406.438
29.31000 401.489
29.32000 396.886
29.33000 390.235
29.34000 383.732
29.35000 378.951
29.36000 385.029
29.37000 393.009
29.38000 399.583
29.39000 400.408
29.40000 400.617
29.41000 400.772
29.42000 409.297
29.43000 416.301
29.44000 418.973
29.45000 413.582
29.46000 408.010
29.47000 406.396
29.48000 409.689
29.49000 412.990
29.50000 411.383
29.51000 405.878
29.52000 400.445
29.53000 398.126
29.54000 397.465
29.55000 397.051
29.56000 400.880
29.57000 406.241
29.58000 411.171
29.59000 407.197
29.60000 401.716
29.61000 396.916
29.62000 395.962
29.63000 395.612
29.64000 395.215
29.65000 394.648
29.66000 394.066
29.67000 393.644
29.68000 396.898
29.69000 399.530
29.70000 399.202
29.71000 393.864
29.72000 388.444
29.73000 388.466
29.74000 394.572
29.75000 400.659
29.76000 403.120
29.77000 402.961
29.78000 402.876
29.79000 405.220
29.80000 408.741
29.81000 411.752
29.82000 407.346
29.83000 400.501
29.84000 394.283
29.85000 395.830
29.86000 398.703
29.87000 401.893
29.88000 406.704
29.89000 411.742
29.90000 416.563
29.91000 420.656
29.92000 424.690
29.93000 427.525
29.94000 426.748
29.95000 426.052
29.96000 423.695
29.97000 418.782
29.98000 413.842
29.99000 414.264
30.00000 420.070
30.01000 425.839
30.02000 423.993
30.03000 417.261
30.04000 410.679
30.05000 408.041
30.06000 407.146
30.07000 407.170
30.08000 418.617
30.09000 433.482
30.10000 446.803
30.11000 439.823
30.12000 430.215
30.13000 421.538
30.14000 417.139
30.15000 413.270
30.16000 410.349
30.17000 410.331
30.18000 410.516
30.19000 410.642
30.20000 410.772
30.21000 410.870
30.22000 410.296
30.23000 408.785
30.24000 407.271
30.25000 410.282
30.26000 417.371
30.27000 424.390
30.28000 422.436
30.29000 415.301
30.30000 408.270
30.31000 403.453
30.32000 399.528
30.33000 396.167
30.34000 398.882
30.35000 403.249
30.36000 407.106
30.37000 401.980
30.38000 396.172
30.39000 391.707
30.40000 392.817
30.41000 394.537
30.42000 396.275
30.43000 398.063
30.44000 399.853
30.45000 401.033
30.46000 397.940
30.47000 395.587
30.48000 397.736
30.49000 405.561
30.50000 413.385
30.51000 413.812
30.52000 408.231
30.53000 402.729
30.54000 409.313
30.55000 422.059
30.56000 434.144
30.57000 434.560
30.58000 430.699
30.59000 426.466
30.60000 418.739
30.61000 410.152
30.62000 402.684
30.63000 409.299
30.64000 416.862
30.65000 420.601
30.66000 409.941
30.67000 397.902
30.68000 390.400
30.69000 394.418
30.70000 399.003
30.71000 401.921
30.72000 396.534
30.73000 392.516
30.74000 397.667
30.75000 413.244
30.76000 428.734
30.77000 427.257
30.78000 413.321
30.79000 399.652
30.80000 401.262
30.81000 410.060
30.82000 418.757
30.83000 425.934
30.84000 432.603
30.85000 438.525
30.86000 438.249
30.87000 436.590
30.88000 435.171
30.89000 440.168
30.90000 445.152
30.91000 450.957
30.92000 459.571
30.93000 468.419
30.94000 476.281
30.95000 481.865
30.96000 487.356
30.97000 490.719
30.98000 505.273
30.99000 515.788
31.00000 531.692
31.01000 553.102
31.02000 574.442
31.03000 588.663
31.04000 598.147
31.05000 607.395
31.06000 630.977
31.07000 659.637
31.08000 688.329
31.09000 717.439
31.10000 746.676
31.11000 776.215
31.12000 807.972
31.13000 840.176
31.14000 867.232
31.15000 925.639
31.16000 977.606
31.17000 1027.034
31.18000 1068.569
31.19000 1109.541
31.20000 1157.153
31.21000 1218.761
31.22000 1280.818
31.23000 1317.300
31.24000 1425.704
31.25000 1502.504
31.26000 1556.247
31.27000 1588.848
31.28000 1621.649
31.29000 1667.785
31.30000 1721.975
31.31000 1774.468
31.32000 1821.258
31.33000 1863.324
31.34000 1904.240
31.35000 1932.499
31.36000 1957.265
31.37000 1977.852
31.38000 1971.093
31.39000 1959.376
31.40000 1949.718
31.41000 1937.413
31.42000 1927.042
31.43000 1912.109
31.44000 1884.267
31.45000 1855.641
31.46000 1821.575
31.47000 1777.073
31.48000 1732.313
31.49000 1707.131
31.50000 1622.874
31.51000 1564.257
31.52000 1514.878
31.53000 1473.129
31.54000 1431.096
31.55000 1375.541
31.56000 1312.559
31.57000 1252.008
31.58000 1196.407
31.59000 1146.039
31.60000 1095.708
31.61000 1045.731
31.62000 995.844
31.63000 946.383
31.64000 899.425
31.65000 852.874
31.66000 815.277
31.67000 779.203
31.68000 749.998
31.69000 724.720
31.70000 709.561
31.71000 694.915
31.72000 678.048
31.73000 657.303
31.74000 636.489
31.75000 625.320
31.76000 601.703
31.77000 585.546
31.78000 565.336
31.79000 542.101
31.80000 519.192
31.81000 507.968
31.82000 502.585
31.83000 497.452
31.84000 489.971
31.85000 482.293
31.86000 474.619
31.87000 466.968
31.88000 459.322
31.89000 452.796
31.90000 452.164
31.91000 452.388
31.92000 452.566
31.93000 450.731
31.94000 449.121
31.95000 448.093
31.96000 448.432
31.97000 448.828
31.98000 447.337
31.99000 442.854
32.00000 438.334
32.01000 436.029
32.02000 422.407
32.03000 413.279
32.04000 405.653
32.05000 399.043
32.06000 392.776
32.07000 396.130
32.08000 403.864
32.09000 411.171
32.10000 414.582
32.11000 416.611
32.12000 417.933
32.13000 413.969
32.14000 408.923
32.15000 403.729
32.16000 397.836
32.17000 391.853
32.18000 387.233
32.19000 390.490
32.20000 393.531
32.21000 392.360
32.22000 382.180
32.23000 371.699
32.24000 367.583
32.25000 372.624
32.26000 377.737
32.27000 382.697
32.28000 387.512
32.29000 392.206
32.30000 388.371
32.31000 379.304
32.32000 370.653
32.33000 371.419
32.34000 376.091
32.35000 380.460
32.36000 383.164
32.37000 385.195
32.38000 386.945
32.39000 386.820
32.40000 386.349
32.41000 384.603
32.42000 377.385
32.43000 369.543
32.44000 363.637
32.45000 366.018
32.46000 368.287
32.47000 368.919
32.48000 366.365
32.49000 363.728
32.50000 362.592
32.51000 363.413
32.52000 364.242
32.53000 367.616
32.54000 373.112
32.55000 378.494
32.56000 378.142
32.57000 374.591
32.58000 371.096
32.59000 368.641
32.60000 366.579
32.61000 364.671
32.62000 359.251
32.63000 353.580
32.64000 349.234
32.65000 352.789
32.66000 357.652
32.67000 362.018
32.68000 364.452
32.69000 366.693
32.70000 368.337
32.71000 364.278
32.72000 360.910
32.73000 359.197
32.74000 360.415
32.75000 361.689
32.76000 361.190
32.77000 358.605
32.78000 356.023
32.79000 356.821
32.80000 360.160
32.81000 363.538
32.82000 368.421
32.83000 374.068
32.84000 379.312
32.85000 378.240
32.86000 374.993
32.87000 372.027
32.88000 371.589
32.89000 371.718
32.90000 372.902
32.91000 379.729
32.92000 387.391
32.93000 392.718
32.94000 389.808
32.95000 386.180
32.96000 383.592
32.97000 376.700
32.98000 371.304
32.99000 368.195
33.00000 368.772
33.01000 369.399
33.02000 369.655
33.03000 369.519
33.04000 369.384
33.05000 368.359
33.06000 366.743
33.07000 365.146
33.08000 364.110
33.09000 363.334
33.10000 362.423
33.11000 359.716
33.12000 356.448
33.13000 353.499
33.14000 347.046
33.15000 340.738
33.16000 336.721
33.17000 343.752
33.18000 352.237
33.19000 357.354
33.20000 351.671
33.21000 345.175
33.22000 340.680
33.23000 334.857
33.24000 330.441
33.25000 329.161
33.26000 332.466
33.27000 335.810
33.28000 339.666
33.29000 344.007
33.30000 348.313
33.31000 347.697
33.32000 344.079
33.33000 340.595
33.34000 340.244
33.35000 341.214
33.36000 341.774
33.37000 337.616
33.38000 332.115
33.39000 327.221
33.40000 325.406
33.41000 324.332
33.42000 324.201
33.43000 328.175
33.44000 332.628
33.45000 337.350
33.46000 342.856
33.47000 348.412
33.48000 352.135
33.49000 343.393
33.50000 336.656
33.51000 334.339
33.52000 337.871
33.53000 341.423
33.54000 339.574
33.55000 333.113
33.56000 326.729
33.57000 326.366
33.58000 329.337
33.59000 332.208
33.60000 333.165
33.61000 333.388
33.62000 333.914
33.63000 337.491
33.64000 341.856
33.65000 345.681
33.66000 350.578
33.67000 354.936
33.68000 356.511
33.69000 347.105
33.70000 336.576
33.71000 329.573
33.72000 331.939
33.73000 334.808
33.74000 336.666
33.75000 332.329
33.76000 329.064
33.77000 325.867
33.78000 322.750
33.79000 319.654
33.80000 321.779
33.81000 327.927
33.82000 333.974
33.83000 335.044
33.84000 333.600
33.85000 332.277
33.86000 332.900
33.87000 334.203
33.88000 335.073
33.89000 332.134
33.90000 328.302
33.91000 324.997
33.92000 326.030
33.93000 327.460
33.94000 328.572
33.95000 328.543
33.96000 328.413
33.97000 327.966
33.98000 326.756
33.99000 325.512
34.00000 324.736
34.01000 323.541
34.02000 322.675
34.03000 321.017
34.04000 318.506
34.05000 316.019
34.06000 316.688
34.07000 319.560
34.08000 322.368
34.09000 325.674
34.10000 329.069
34.11000 332.106
34.12000 330.238
34.13000 326.810
34.14000 323.824
34.15000 324.276
34.16000 325.456
34.17000 326.456
34.18000 320.748
34.19000 315.211
34.20000 312.120
34.21000 316.992
34.22000 322.478
34.23000 324.597
34.24000 319.293
34.25000 313.722
34.26000 310.381
34.27000 318.811
34.28000 324.878
34.29000 328.525
34.30000 329.836
34.31000 331.133
34.32000 331.381
34.33000 330.965
34.34000 330.560
34.35000 327.414
34.36000 323.309
34.37000 319.532
34.38000 319.615
34.39000 320.815
34.40000 322.440
34.41000 327.005
34.42000 332.132
34.43000 336.397
34.44000 330.187
34.45000 324.014
34.46000 319.040
34.47000 317.616
34.48000 316.426
34.49000 316.116
34.50000 317.576
34.51000 319.086
34.52000 319.954
34.53000 318.097
34.54000 316.786
34.55000 313.348
34.56000 308.063
34.57000 302.959
34.58000 307.921
34.59000 318.670
34.60000 329.043
34.61000 328.699
34.62000 324.447
34.63000 320.615
34.64000 321.100
34.65000 322.720
34.66000 324.272
34.67000 325.408
34.68000 326.473
34.69000 327.342
34.70000 322.768
34.71000 318.563
34.72000 316.245
34.73000 319.018
34.74000 322.073
34.75000 323.786
34.76000 323.044
34.77000 322.251
34.78000 321.815
34.79000 325.353
34.80000 327.792
34.81000 329.241
34.82000 329.916
34.83000 330.558
34.84000 329.855
34.85000 328.448
34.86000 327.100
34.87000 324.534
34.88000 321.738
34.89000 319.114
34.90000 318.027
34.91000 317.307
34.92000 316.535
34.93000 315.480
34.94000 314.382
34.95000 313.505
34.96000 313.525
34.97000 313.608
34.98000 312.339
34.99000 307.750
35.00000 303.008
35.01000 301.030
35.02000 303.643
35.03000 306.326
35.04000 307.729
35.05000 317.086
35.06000 323.332
35.07000 317.082
35.08000 301.974
35.09000 287.439
35.10000 290.946
35.11000 303.049
35.12000 314.534
35.13000 317.941
35.14000 318.678
35.15000 319.005
35.16000 316.076
35.17000 312.446
35.18000 309.887
35.19000 312.663
35.20000 316.169
35.21000 318.907
35.22000 309.427
35.23000 301.094
35.24000 293.981
35.25000 289.597
35.26000 285.314
35.27000 285.293
35.28000 291.701
35.29000 298.175
35.30000 299.236
35.31000 294.975
35.32000 290.769
35.33000 291.246
35.34000 294.733
35.35000 298.151
35.36000 299.836
35.37000 300.769
35.38000 301.646
35.39000 304.461
35.40000 307.551
35.41000 309.800
35.42000 306.128
35.43000 301.306
35.44000 297.217
35.45000 296.422
35.46000 296.027
35.47000 295.726
35.48000 300.212
35.49000 303.999
35.50000 307.188
35.51000 309.155
35.52000 311.085
35.53000 310.343
35.54000 305.946
35.55000 301.530
35.56000 301.386
35.57000 305.010
35.58000 308.540
35.59000 306.561
35.60000 301.365
35.61000 296.633
35.62000 301.391
35.63000 309.901
35.64000 317.816
35.65000 309.339
35.66000 297.735
35.67000 288.797
35.68000 296.619
35.69000 307.366
35.70000 314.990
35.71000 309.890
35.72000 303.430
35.73000 298.629
35.74000 305.381
35.75000 311.143
35.76000 314.246
35.77000 312.413
35.78000 310.471
35.79000 308.276
35.80000 305.771
35.81000 303.269
35.82000 302.332
35.83000 302.642
35.84000 303.031
35.85000 306.840
35.86000 312.466
35.87000 317.839
35.88000 318.902
35.89000 318.413
35.90000 317.963
35.91000 310.001
35.92000 301.268
35.93000 294.097
35.94000 295.731
35.95000 298.741
35.96000 299.664
35.97000 292.876
35.98000 285.367
35.99000 279.937
36.00000 289.995
36.01000 298.277
36.02000 304.113
36.03000 305.820
36.04000 307.460
36.05000 306.358
36.06000 302.200
36.07000 298.055
36.08000 293.641
36.09000 289.076
36.10000 284.819
36.11000 290.669
36.12000 301.408
36.13000 311.172
36.14000 306.875
36.15000 297.966
36.16000 289.878
36.17000 291.625
36.18000 295.067
36.19000 298.786
36.20000 303.910
36.21000 309.230
36.22000 311.986
36.23000 306.139
36.24000 299.595
36.25000 295.000
36.26000 300.251
36.27000 304.515
36.28000 303.137
36.29000 293.112
36.30000 282.994
36.31000 281.992
36.32000 290.114
36.33000 298.183
36.34000 297.143
36.35000 290.259
36.36000 283.714
36.37000 285.962
36.38000 292.085
36.39000 297.850
36.40000 299.186
36.41000 299.201
36.42000 299.215
36.43000 297.707
36.44000 296.128
36.45000 294.623
36.46000 293.455
36.47000 292.329
36.48000 292.577
36.49000 297.017
36.50000 301.748
36.51000 304.970
36.52000 306.140
36.53000 306.968
36.54000 306.356
36.55000 303.744
36.56000 301.118
36.57000 296.946
36.58000 291.387
36.59000 285.883
36.60000 290.041
36.61000 299.717
36.62000 308.781
36.63000 304.918
36.64000 295.865
36.65000 287.309
36.66000 284.073
36.67000 282.278
36.68000 280.693
36.69000 284.701
36.70000 289.018
36.71000 291.601
36.72000 287.012
36.73000 281.641
36.74000 279.307
36.75000 285.414
36.76000 292.016
36.77000 296.364
36.78000 294.965
36.79000 293.835
36.80000 292.589
36.81000 291.196
36.82000 289.809
36.83000 291.051
36.84000 294.422
36.85000 297.744
36.86000 298.214
36.87000 297.176
36.88000 296.377
36.89000 299.757
36.90000 304.666
36.91000 308.618
36.92000 303.610
36.93000 296.401
36.94000 290.134
36.95000 285.401
36.96000 281.571
36.97000 278.526
36.98000 278.422
36.99000 278.599
37.00000 279.720
37.01000 283.230
37.02000 286.856
37.03000 289.161
37.04000 294.111
37.05000 297.739
37.06000 298.746
37.07000 296.782
37.08000 294.818
37.09000 293.269
37.10000 292.025
37.11000 290.805
37.12000 289.442
37.13000 288.061
37.14000 286.634
37.15000 284.516
37.16000 282.168
37.17000 279.987
37.18000 279.180
37.19000 278.680
37.20000 278.252
37.21000 281.794
37.22000 285.256
37.23000 288.110
37.24000 288.891
37.25000 289.501
37.26000 290.789
37.27000 293.644
37.28000 296.561
37.29000 298.345
37.30000 291.815
37.31000 287.073
37.32000 282.768
37.33000 278.908
37.34000 275.091
37.35000 275.537
37.36000 278.810
37.37000 282.002
37.38000 282.360
37.39000 281.491
37.40000 280.520
37.41000 278.252
37.42000 275.591
37.43000 274.073
37.44000 280.917
37.45000 289.439
37.46000 296.595
37.47000 290.029
37.48000 283.118
37.49000 277.890
37.50000 277.883
37.51000 278.246
37.52000 278.916
37.53000 280.228
37.54000 281.561
37.55000 282.343
37.56000 282.523
37.57000 282.647
37.58000 283.053
37.59000 283.715
37.60000 284.391
37.61000 286.016
37.62000 288.212
37.63000 290.338
37.64000 290.272
37.65000 289.364
37.66000 288.635
37.67000 289.872
37.68000 291.650
37.69000 292.350
37.70000 286.025
37.71000 278.430
37.72000 272.174
37.73000 280.104
37.74000 287.928
37.75000 293.642
37.76000 293.399
37.77000 292.796
37.78000 290.678
37.79000 285.661
37.80000 280.573
37.81000 277.714
37.82000 293.653
37.83000 304.731
37.84000 303.737
37.85000 292.802
37.86000 282.115
37.87000 283.054
37.88000 290.361
37.89000 297.384
37.90000 294.356
37.91000 288.025
37.92000 282.352
37.93000 282.982
37.94000 285.186
37.95000 287.819
37.96000 292.952
37.97000 298.490
37.98000 302.960
37.99000 294.274
38.00000 286.171
38.01000 281.574
38.02000 285.985
38.03000 290.851
38.04000 292.941
38.05000 290.200
38.06000 287.371
38.07000 285.856
38.08000 286.391
38.09000 286.753
38.10000 286.193
38.11000 284.947
38.12000 283.669
38.13000 281.250
38.14000 278.262
38.15000 275.414
38.16000 278.868
38.17000 284.046
38.18000 288.866
38.19000 290.678
38.20000 291.810
38.21000 293.564
38.22000 298.581
38.23000 304.071
38.24000 308.406
38.25000 312.062
38.26000 314.949
38.27000 316.453
38.28000 314.717
38.29000 312.846
38.30000 310.439
38.31000 307.183
38.32000 303.916
38.33000 302.253
38.34000 316.099
38.35000 325.368
38.36000 332.726
38.37000 338.797
38.38000 344.941
38.39000 353.132
38.40000 362.252
38.41000 370.865
38.42000 380.048
38.43000 388.635
38.44000 397.198
38.45000 405.582
38.46000 413.930
38.47000 424.783
38.48000 447.481
38.49000 471.703
38.50000 490.391
38.51000 498.150
38.52000 503.667
38.53000 514.287
38.54000 535.794
38.55000 557.661
38.56000 573.843
38.57000 581.868
38.58000 589.828
38.59000 603.453
38.60000 622.336
38.61000 641.135
38.62000 654.070
38.63000 663.417
38.64000 673.198
38.65000 692.765
38.66000 716.379
38.67000 738.456
38.68000 739.829
38.69000 735.823
38.70000 732.263
38.71000 731.673
38.72000 731.628
38.73000 730.804
38.74000 726.646
38.75000 722.108
38.76000 718.693
38.77000 700.984
38.78000 686.434
38.79000 676.018
38.80000 673.634
38.81000 671.456
38.82000 660.519
38.83000 638.210
38.84000 615.877
38.85000 598.550
38.86000 585.451
38.87000 572.313
38.88000 557.248
38.89000 541.112
38.90000 524.836
38.91000 505.938
38.92000 486.053
38.93000 467.667
38.94000 460.689
38.95000 457.021
38.96000 452.300
38.97000 441.319
38.98000 429.305
38.99000 414.908
39.00000 391.282
39.01000 366.734
39.02000 348.742
39.03000 346.759
39.04000 345.871
39.05000 341.032
39.06000 329.208
39.07000 317.252
39.08000 306.812
39.09000 298.151
39.10000 289.515
39.11000 285.047
39.12000 283.739
39.13000 282.454
39.14000 282.024
39.15000 282.027
39.16000 282.160
39.17000 284.314
39.18000 287.162
39.19000 289.763
39.20000 286.103
39.21000 281.576
39.22000 276.966
39.23000 271.923
39.24000 266.816
39.25000 263.124
39.26000 264.405
39.27000 266.118
39.28000 267.339
39.29000 267.120
39.30000 266.907
39.31000 267.199
39.32000 268.303
39.33000 269.417
39.34000 269.717
39.35000 269.157
39.36000 268.600
39.37000 266.632
39.38000 263.733
39.39000 261.017
39.40000 263.629
39.41000 268.698
39.42000 273.563
39.43000 275.724
39.44000 277.040
39.45000 278.227
39.46000 281.309
39.47000 284.360
39.48000 284.760
39.49000 272.417
39.50000 258.401
39.51000 250.304
39.52000 261.119
39.53000 273.350
39.54000 281.806
39.55000 277.058
39.56000 273.146
39.57000 270.019
39.58000 268.036
39.59000 266.062
39.60000 262.685
39.61000 257.981
39.62000 253.316
39.63000 255.919
39.64000 262.910
39.65000 269.592
39.66000 269.107
39.67000 265.611
39.68000 262.328
39.69000 261.478
39.70000 261.319
39.71000 261.177
39.72000 259.733
39.73000 258.267
39.74000 256.291
39.75000 252.096
39.76000 247.642
39.77000 245.974
39.78000 252.407
39.79000 259.357
39.80000 264.009
39.81000 259.152
39.82000 255.361
39.83000 254.457
39.84000 257.364
39.85000 260.290
39.86000 263.746
39.87000 267.652
39.88000 271.512
39.89000 270.913
39.90000 267.876
39.91000 264.968
39.92000 264.542
39.93000 265.065
39.94000 265.523
39.95000 265.328
39.96000 264.964
39.97000 264.646
39.98000 260.294
39.99000 255.979
40.00000 253.633
40.01000 259.035
40.02000 265.226
40.03000 268.356
40.04000 263.377
40.05000 257.964
40.06000 254.463
40.07000 257.960
40.08000 260.620
40.09000 262.638
40.10000 263.889
40.11000 265.113
40.12000 259.966
40.13000 249.925
40.14000 240.052
40.15000 237.928
40.16000 239.725
40.17000 241.540
40.18000 243.660
40.19000 245.886
40.20000 248.271
40.21000 252.057
40.22000 256.171
40.23000 259.716
40.24000 260.830
40.25000 261.465
40.26000 260.543
40.27000 254.065
40.28000 247.093
40.29000 242.776
40.30000 244.863
40.31000 247.233
40.32000 248.710
40.33000 251.507
40.34000 253.535
40.35000 255.898
40.36000 258.617
40.37000 261.284
40.38000 257.219
40.39000 248.472
40.40000 239.918
40.41000 239.731
40.42000 243.305
40.43000 246.826
40.44000 249.619
40.45000 252.183
40.46000 254.313
40.47000 253.089
40.48000 251.158
40.49000 249.521
40.50000 256.460
40.51000 263.233
40.52000 267.209
40.53000 262.109
40.54000 256.312
40.55000 251.030
40.56000 246.879
40.57000 242.768
40.58000 240.305
40.59000 237.343
40.60000 235.238
40.61000 238.776
40.62000 247.747
40.63000 256.634
40.64000 258.914
40.65000 257.025
40.66000 255.188
40.67000 253.410
40.68000 251.744
40.69000 249.972
40.70000 246.958
40.71000 243.585
40.72000 240.794
40.73000 242.008
40.74000 243.984
40.75000 245.627
40.76000 252.847
40.77000 259.368
40.78000 260.826
40.79000 247.330
40.80000 232.855
40.81000 224.907
40.82000 230.027
40.83000 235.513
40.84000 238.662
40.85000 245.728
40.86000 250.675
40.87000 249.490
40.88000 242.998
40.89000 236.587
40.90000 234.682
40.91000 235.360
40.92000 236.014
40.93000 236.003
40.94000 235.750
40.95000 235.918
40.96000 240.377
40.97000 245.961
40.98000 250.961
40.99000 252.370
41.00000 253.164
41.01000 253.812
41.02000 246.685
41.03000 240.196
41.04000 236.706
41.05000 241.280
41.06000 246.299
41.07000 248.085
41.08000 243.978
41.09000 239.746
41.10000 237.426
41.11000 240.435
41.12000 242.518
41.13000 245.648
41.14000 249.596
41.15000 253.449
41.16000 253.477
41.17000 251.509
41.18000 249.625
41.19000 248.877
41.20000 248.553
41.21000 248.107
41.22000 246.561
41.23000 244.753
41.24000 243.262
41.25000 243.517
41.26000 244.038
41.27000 244.454
41.28000 236.798
41.29000 230.023
41.30000 227.532
41.31000 235.537
41.32000 244.021
41.33000 247.458
41.34000 242.531
41.35000 237.479
41.36000 234.841
41.37000 236.993
41.38000 238.440
41.39000 238.652
41.40000 237.990
41.41000 237.422
41.42000 239.808
41.43000 243.598
41.44000 247.193
41.45000 243.321
41.46000 237.532
41.47000 232.918
41.48000 237.596
41.49000 244.267
41.50000 249.475
41.51000 247.410
41.52000 244.353
41.53000 241.968
41.54000 241.414
41.55000 241.088
41.56000 239.275
41.57000 234.143
41.58000 228.889
41.59000 227.296
41.60000 231.213
41.61000 235.184
41.62000 238.304
41.63000 240.590
41.64000 242.845
41.65000 242.554
41.66000 240.631
41.67000 238.663
41.68000 235.593
41.69000 232.045
41.70000 228.713
41.71000 232.058
41.72000 236.896
41.73000 240.731
41.74000 237.528
41.75000 232.962
41.76000 229.780
41.77000 232.810
41.78000 236.590
41.79000 239.469
41.80000 240.336
41.81000 240.912
41.82000 239.802
41.83000 235.266
41.84000 230.629
41.85000 229.974
41.86000 234.745
41.87000 239.545
41.88000 238.516
41.89000 232.364
41.90000 226.278
41.91000 224.082
41.92000 224.150
41.93000 224.390
41.94000 228.149
41.95000 233.294
41.96000 238.077
41.97000 240.590
41.98000 242.314
41.99000 243.507
42.00000 241.375
42.01000 238.665
42.02000 236.128
42.03000 234.293
42.04000 232.533
42.05000 231.226
42.06000 237.738
42.07000 243.145
42.08000 245.977
42.09000 244.044
42.10000 242.007
42.11000 240.290
42.12000 238.967
42.13000 237.649
42.14000 233.385
42.15000 226.814
42.16000 220.312
42.17000 216.763
42.18000 214.777
42.19000 213.058
42.20000 215.865
42.21000 220.298
42.22000 224.371
42.23000 227.863
42.24000 230.856
42.25000 233.863
42.26000 236.951
42.27000 240.051
42.28000 242.037
42.29000 239.918
42.30000 237.417
42.31000 235.611
42.32000 232.344
42.33000 229.785
42.34000 228.600
42.35000 229.727
42.36000 230.891
42.37000 228.968
42.38000 223.617
42.39000 218.284
42.40000 219.306
42.41000 224.839
42.42000 230.373
42.43000 235.935
42.44000 241.511
42.45000 246.284
42.46000 239.531
42.47000 229.008
42.48000 219.458
42.49000 220.325
42.50000 223.095
42.51000 225.650
42.52000 227.114
42.53000 228.426
42.54000 230.833
42.55000 236.908
42.56000 243.277
42.57000 247.747
42.58000 238.851
42.59000 231.730
42.60000 227.998
42.61000 229.445
42.62000 230.947
42.63000 232.992
42.64000 235.578
42.65000 238.148
42.66000 234.827
42.67000 227.779
42.68000 220.850
42.69000 217.004
42.70000 214.511
42.71000 212.464
42.72000 215.906
42.73000 220.980
42.74000 225.523
42.75000 222.172
42.76000 217.892
42.77000 216.092
42.78000 225.607
42.79000 236.516
42.80000 242.808
42.81000 235.045
42.82000 226.311
42.83000 220.371
42.84000 224.003
42.85000 226.932
42.86000 229.060
42.87000 230.077
42.88000 231.085
42.89000 229.945
42.90000 226.883
42.91000 223.851
42.92000 223.439
42.93000 224.552
42.94000 225.536
42.95000 223.835
42.96000 221.059
42.97000 218.736
42.98000 221.258
42.99000 225.087
43.00000 228.467
43.01000 219.855
43.02000 210.593
43.03000 205.244
43.04000 216.042
43.05000 228.593
43.06000 236.527
43.07000 231.663
43.08000 226.052
43.09000 222.360
43.10000 229.749
43.11000 235.379
43.12000 235.694
43.13000 229.348
43.14000 222.996
43.15000 221.454
43.16000 223.797
43.17000 226.106
43.18000 227.678
43.19000 228.821
43.20000 229.823
43.21000 228.382
43.22000 226.050
43.23000 223.832
43.24000 222.675
43.25000 221.777
43.26000 220.997
43.27000 230.367
43.28000 239.729
43.29000 243.844
43.30000 228.323
43.31000 210.935
43.32000 199.627
43.33000 203.671
43.34000 208.462
43.35000 211.503
43.36000 207.597
43.37000 204.676
43.38000 206.451
43.39000 213.531
43.40000 220.578
43.41000 221.190
43.42000 217.108
43.43000 213.104
43.44000 214.594
43.45000 218.618
43.46000 222.223
43.47000 219.647
43.48000 215.018
43.49000 211.143
43.50000 213.475
43.51000 217.183
43.52000 220.350
43.53000 218.528
43.54000 216.397
43.55000 215.349
43.56000 217.979
43.57000 220.914
43.58000 223.081
43.59000 223.482
43.60000 223.813
43.61000 224.015
43.62000 222.685
43.63000 221.721
43.64000 217.436
43.65000 209.780
43.66000 202.219
43.67000 203.994
43.68000 211.946
43.69000 219.696
43.70000 225.762
43.71000 230.834
43.72000 235.531
43.73000 235.498
43.74000 234.038
43.75000 232.160
43.76000 227.240
43.77000 221.710
43.78000 217.070
43.79000 216.421
43.80000 216.299
43.81000 215.638
43.82000 213.315
43.83000 210.874
43.84000 210.330
43.85000 213.761
43.86000 217.318
43.87000 219.404
43.88000 219.735
43.89000 219.960
43.90000 220.509
43.91000 221.353
43.92000 222.176
43.93000 221.656
43.94000 220.330
43.95000 219.045
43.96000 219.334
43.97000 220.211
43.98000 220.778
43.99000 217.956
44.00000 214.204
44.01000 211.251
44.02000 213.487
44.03000 216.658
44.04000 219.268
44.05000 219.499
44.06000 219.472
44.07000 219.822
44.08000 221.231
44.09000 222.704
44.10000 223.642
44.11000 223.558
44.12000 223.450
44.13000 223.389
44.14000 221.538
44.15000 220.251
44.16000 219.071
44.17000 217.980
44.18000 216.918
44.19000 217.262
44.20000 218.373
44.21000 219.440
44.22000 219.341
44.23000 218.843
44.24000 218.204
44.25000 216.208
44.26000 213.875
44.27000 212.148
44.28000 213.945
44.29000 216.313
44.30000 218.222
44.31000 220.858
44.32000 223.057
44.33000 223.905
44.34000 221.294
44.35000 218.508
44.36000 219.904
44.37000 228.555
44.38000 237.336
44.39000 242.034
44.40000 229.179
44.41000 220.430
44.42000 217.863
44.43000 219.881
44.44000 221.861
44.45000 222.521
44.46000 222.525
44.47000 222.529
44.48000 220.456
44.49000 217.886
44.50000 215.896
44.51000 218.777
44.52000 222.755
44.53000 225.599
44.54000 222.506
44.55000 218.557
44.56000 215.441
44.57000 226.400
44.58000 236.145
44.59000 241.291
44.60000 235.695
44.61000 229.658
44.62000 226.340
44.63000 227.308
44.64000 228.329
44.65000 228.848
44.66000 231.354
44.67000 233.051
44.68000 236.612
44.69000 241.425
44.70000 246.060
44.71000 245.743
44.72000 243.184
44.73000 240.768
44.74000 242.024
44.75000 244.209
44.76000 246.146
44.77000 246.242
44.78000 245.962
44.79000 246.349
44.80000 249.877
44.81000 253.807
44.82000 256.836
44.83000 254.978
44.84000 253.224
44.85000 254.428
44.86000 261.921
44.87000 269.621
44.88000 273.196
44.89000 270.872
44.90000 268.503
44.91000 269.344
44.92000 273.160
44.93000 277.005
44.94000 282.956
44.95000 290.191
44.96000 297.247
44.97000 300.319
44.98000 301.747
44.99000 303.082
45.00000 302.849
45.01000 302.240
45.02000 301.594
45.03000 300.696
45.04000 299.753
45.05000 298.186
45.06000 293.965
45.07000 289.443
45.08000 286.042
45.09000 293.886
45.10000 300.564
45.11000 305.590
45.12000 307.414
45.13000 309.156
45.14000 311.779
45.15000 315.540
45.16000 319.303
45.17000 313.981
45.18000 301.117
45.19000 288.474
45.20000 286.741
45.21000 291.057
45.22000 295.341
45.23000 299.049
45.24000 302.541
45.25000 305.769
45.26000 295.858
45.27000 283.981
45.28000 274.800
45.29000 281.590
45.30000 291.006
45.31000 297.684
45.32000 293.791
45.33000 288.847
45.34000 285.226
45.35000 283.747
45.36000 282.690
45.37000 278.599
45.38000 269.157
45.39000 259.614
45.40000 258.531
45.41000 267.331
45.42000 276.122
45.43000 281.274
45.44000 283.668
45.45000 286.004
45.46000 286.232
45.47000 285.398
45.48000 284.255
45.49000 278.320
45.50000 270.746
45.51000 263.828
45.52000 268.123
45.53000 274.214
45.54000 278.630
45.55000 274.136
45.56000 268.334
45.57000 262.360
45.58000 255.788
45.59000 249.163
45.60000 244.447
45.61000 246.255
45.62000 247.844
45.63000 248.821
45.64000 248.818
45.65000 248.802
45.66000 246.950
45.67000 243.169
45.68000 239.408
45.69000 238.920
45.70000 240.646
45.71000 242.272
45.72000 241.025
45.73000 238.457
45.74000 236.156
45.75000 237.397
45.76000 239.742
45.77000 241.855
45.78000 237.831
45.79000 233.184
45.80000 230.324
45.81000 236.021
45.82000 242.838
45.83000 247.042
45.84000 242.924
45.85000 238.185
45.86000 234.913
45.87000 235.111
45.88000 235.349
45.89000 234.954
45.90000 233.641
45.91000 232.319
45.92000 230.227
45.93000 227.407
45.94000 224.611
45.95000 223.270
45.96000 222.839
45.97000 222.373
45.98000 221.105
45.99000 219.502
46.00000 217.973
46.01000 217.280
46.02000 216.825
46.03000 216.420
46.04000 216.039
46.05000 215.712
46.06000 214.291
46.07000 208.134
46.08000 201.430
46.09000 197.387
46.10000 201.063
46.11000 205.228
46.12000 208.014
46.13000 206.022
46.14000 204.452
46.15000 204.960
46.16000 208.201
46.17000 211.447
46.18000 209.723
46.19000 203.783
46.20000 197.915
46.21000 200.118
46.22000 206.694
46.23000 213.093
46.24000 216.132
46.25000 217.888
46.26000 219.156
46.27000 215.558
46.28000 210.710
46.29000 206.465
46.30000 202.131
46.31000 198.401
46.32000 195.662
46.33000 196.809
46.34000 198.351
46.35000 199.711
46.36000 200.589
46.37000 201.442
46.38000 201.993
46.39000 205.964
46.40000 208.916
46.41000 208.325
46.42000 203.523
46.43000 198.724
46.44000 196.309
46.45000 195.722
46.46000 195.145
46.47000 197.539
46.48000 201.325
46.49000 204.781
46.50000 202.954
46.51000 199.293
46.52000 196.073
46.53000 196.717
46.54000 198.259
46.55000 199.588
46.56000 202.214
46.57000 204.603
46.58000 206.383
46.59000 205.989
46.60000 205.403
46.61000 204.232
46.62000 201.654
46.63000 199.013
46.64000 197.369
46.65000 196.039
46.66000 195.084
46.67000 196.565
46.68000 200.650
46.69000 204.685
46.70000 202.394
46.71000 195.715
46.72000 189.185
46.73000 189.588
46.74000 193.074
46.75000 196.103
46.76000 192.915
46.77000 187.761
46.78000 183.911
46.79000 190.129
46.80000 198.465
46.81000 205.523
46.82000 201.382
46.83000 196.665
46.84000 192.366
46.85000 189.419
46.86000 186.575
46.87000 186.181
46.88000 191.155
46.89000 196.320
46.90000 199.410
46.91000 192.132
46.92000 186.900
46.93000 185.542
46.94000 187.900
46.95000 190.208
46.96000 188.485
46.97000 184.226
46.98000 180.089
46.99000 182.749
47.00000 188.021
47.01000 193.274
47.02000 198.319
47.03000 203.304
47.04000 207.062
47.05000 202.398
47.06000 196.137
47.07000 190.933
47.08000 190.723
47.09000 191.037
47.10000 191.112
47.11000 190.484
47.12000 189.810
47.13000 189.907
47.14000 191.542
47.15000 193.220
47.16000 194.182
47.17000 195.892
47.18000 197.090
47.19000 198.577
47.20000 200.315
47.21000 201.984
47.22000 199.924
47.23000 195.732
47.24000 191.689
47.25000 191.737
47.26000 193.274
47.27000 194.825
47.28000 196.528
47.29000 198.271
47.30000 199.346
47.31000 196.322
47.32000 192.599
47.33000 189.566
47.34000 188.901
47.35000 188.559
47.36000 189.449
47.37000 193.644
47.38000 198.020
47.39000 199.502
47.40000 195.725
47.41000 191.838
47.42000 189.709
47.43000 191.168
47.44000 192.172
47.45000 191.911
47.46000 190.665
47.47000 189.456
47.48000 189.765
47.49000 190.864
47.50000 191.915
47.51000 190.253
47.52000 187.814
47.53000 185.565
47.54000 185.021
47.55000 184.879
47.56000 184.520
47.57000 182.965
47.58000 181.229
47.59000 179.843
47.60000 185.406
47.61000 190.403
47.62000 193.427
47.63000 191.629
47.64000 189.612
47.65000 188.206
47.66000 187.809
47.67000 187.428
47.68000 187.229
47.69000 191.863
47.70000 194.961
47.71000 193.107
47.72000 187.764
47.73000 182.607
47.74000 183.225
47.75000 186.580
47.76000 189.762
47.77000 188.123
47.78000 185.185
47.79000 182.855
47.80000 185.313
47.81000 188.794
47.82000 191.354
47.83000 189.350
47.84000 186.725
47.85000 184.677
47.86000 183.655
47.87000 182.903
47.88000 182.209
47.89000 181.643
47.90000 181.082
47.91000 180.336
47.92000 179.314
47.93000 178.289
47.94000 180.348
47.95000 185.419
47.96000 190.412
47.97000 188.910
47.98000 183.257
47.99000 177.806
48.00000 177.353
48.01000 179.056
48.02000 180.656
48.03000 178.519
48.04000 175.575
48.05000 173.403
48.06000 176.629
48.07000 180.897
48.08000 184.880
48.09000 187.586
48.10000 190.139
48.11000 192.082
48.12000 194.149
48.13000 195.781
48.14000 194.434
48.15000 187.047
48.16000 179.485
48.17000 176.838
48.18000 180.870
48.19000 184.938
48.20000 182.767
48.21000 175.132
48.22000 167.592
48.23000 165.484
48.24000 166.529
48.25000 167.861
48.26000 174.970
48.27000 184.352
48.28000 193.070
48.29000 190.341
48.30000 185.140
48.31000 181.062
48.32000 183.997
48.33000 188.148
48.34000 190.815
48.35000 187.472
48.36000 183.493
48.37000 180.540
48.38000 185.507
48.39000 189.714
48.40000 190.019
48.41000 183.125
48.42000 176.073
48.43000 172.334
48.44000 172.665
48.45000 173.005
48.46000 175.889
48.47000 180.763
48.48000 185.483
48.49000 183.724
48.50000 178.543
48.51000 173.586
48.52000 172.395
48.53000 172.553
48.54000 172.698
48.55000 173.762
48.56000 174.908
48.57000 175.675
48.58000 174.318
48.59000 172.631
48.60000 172.991
48.61000 180.867
48.62000 189.438
48.63000 195.626
48.64000 187.791
48.65000 181.280
48.66000 178.017
48.67000 180.206
48.68000 182.481
48.69000 181.845
48.70000 177.986
48.71000 174.141
48.72000 172.833
48.73000 173.338
48.74000 173.907
48.75000 176.522
48.76000 180.121
48.77000 183.523
48.78000 184.102
48.79000 183.759
48.80000 183.449
48.81000 180.581
48.82000 177.558
48.83000 175.098
48.84000 175.471
48.85000 176.237
48.86000 175.768
48.87000 171.179
48.88000 166.259
48.89000 162.811
48.90000 167.462
48.91000 171.214
48.92000 171.314
48.93000 165.849
48.94000 160.325
48.95000 161.159
48.96000 168.314
48.97000 175.420
48.98000 176.483
48.99000 173.665
49.00000 170.939
49.01000 170.551
49.02000 171.187
49.03000 172.054
49.04000 175.752
49.05000 180.290
49.06000 184.352
49.07000 181.573
49.08000 177.978
49.09000 174.665
49.10000 172.630
49.11000 170.753
49.12000 169.914
49.13000 172.227
49.14000 174.757
49.15000 176.476
49.16000 175.048
49.17000 173.911
49.18000 172.405
49.19000 170.390
49.20000 168.374
49.21000 167.491
49.22000 167.621
49.23000 167.750
49.24000 167.148
49.25000 166.137
49.26000 165.207
49.27000 165.947
49.28000 167.353
49.29000 168.974
49.30000 172.882
49.31000 177.406
49.32000 181.397
49.33000 179.703
49.34000 177.378
49.35000 175.610
49.36000 176.138
49.37000 176.914
49.38000 176.404
49.39000 172.341
49.40000 168.072
49.41000 165.267
49.42000 173.018
49.43000 178.901
49.44000 180.535
49.45000 176.862
49.46000 173.184
49.47000 173.419
49.48000 176.804
49.49000 180.140
49.50000 180.013
49.51000 178.089
49.52000 176.198
49.53000 174.909
49.54000 173.838
49.55000 173.115
49.56000 175.636
49.57000 178.949
49.58000 181.826
49.59000 178.415
49.60000 174.661
49.61000 171.796
49.62000 172.250
49.63000 173.020
49.64000 173.339
49.65000 172.523
49.66000 171.654
49.67000 171.102
49.68000 174.531
49.69000 177.068
49.70000 180.185
49.71000 183.958
49.72000 187.692
49.73000 185.073
49.74000 177.832
49.75000 170.732
49.76000 171.498
49.77000 175.932
49.78000 179.938
49.79000 177.659
49.80000 173.299
49.81000 169.340
49.82000 168.670
49.83000 168.727
49.84000 168.775
49.85000 174.251
49.86000 179.509
49.87000 182.972
49.88000 180.354
49.89000 177.236
49.90000 174.532
49.91000 172.776
49.92000 171.057
49.93000 170.009
49.94000 175.874
49.95000 180.123
49.96000 179.779
49.97000 174.786
49.98000 169.845
49.99000 169.821
50.00000 173.039
50.01000 176.176
50.02000 177.169
50.03000 177.207
50.04000 177.252
50.05000 177.385
50.06000 177.543
50.07000 177.382
50.08000 174.898
50.09000 171.951
50.10000 169.479
50.11000 175.573
50.12000 181.538
50.13000 184.810
50.14000 179.786
50.15000 174.176
50.16000 171.820
50.17000 176.259
50.18000 180.911
50.19000 183.636
50.20000 179.022
50.21000 175.740
50.22000 176.893
50.23000 182.073
50.24000 187.120
50.25000 183.619
50.26000 174.999
50.27000 166.655
50.28000 168.626
50.29000 174.439
50.30000 179.909
50.31000 181.645
50.32000 182.360
50.33000 182.939
50.34000 182.634
50.35000 182.172
50.36000 181.791
50.37000 183.100
50.38000 184.330
50.39000 185.442
50.40000 186.222
50.41000 186.983
50.42000 189.210
50.43000 194.227
50.44000 199.312
50.45000 202.161
50.46000 206.644
50.47000 209.753
50.48000 211.734
50.49000 212.792
50.50000 213.782
50.51000 211.572
50.52000 207.621
50.53000 203.824
50.54000 208.491
50.55000 215.783
50.56000 222.056
50.57000 218.655
50.58000 212.854
50.59000 208.249
50.60000 210.582
50.61000 214.032
50.62000 216.813
50.63000 219.102
50.64000 220.921
50.65000 223.567
50.66000 228.323
50.67000 233.185
50.68000 234.031
50.69000 227.928
50.70000 221.702
50.71000 218.377
50.72000 211.834
50.73000 207.402
50.74000 208.642
50.75000 214.076
50.76000 219.318
50.77000 217.830
50.78000 213.007
50.79000 208.411
50.80000 204.960
50.81000 202.119
50.82000 199.700
50.83000 200.816
50.84000 202.727
50.85000 204.710
50.86000 207.074
50.87000 209.492
50.88000 211.399
50.89000 202.020
50.90000 193.736
50.91000 188.605
50.92000 190.812
50.93000 193.319
50.94000 195.745
50.95000 198.045
50.96000 200.343
50.97000 201.509
50.98000 200.429
50.99000 199.700
51.00000 198.428
51.01000 196.792
51.02000 195.256
51.03000 196.454
51.04000 198.886
51.05000 201.182
51.06000 198.776
51.07000 195.251
51.08000 191.787
51.09000 188.778
51.10000 185.862
51.11000 183.060
51.12000 180.796
51.13000 178.602
51.14000 176.911
51.15000 175.996
51.16000 175.315
51.17000 175.625
51.18000 178.036
51.19000 180.515
51.20000 181.450
51.21000 180.181
51.22000 178.896
51.23000 176.311
51.24000 172.526
51.25000 168.798
51.26000 168.937
51.27000 171.428
51.28000 173.753
51.29000 172.373
51.30000 169.470
51.31000 166.757
51.32000 165.567
51.33000 164.871
51.34000 164.608
51.35000 167.203
51.36000 170.320
51.37000 172.713
51.38000 172.029
51.39000 170.998
51.40000 170.223
51.41000 173.921
51.42000 177.026
51.43000 177.445
51.44000 172.675
51.45000 167.774
51.46000 166.761
51.47000 170.768
51.48000 174.790
51.49000 175.131
51.50000 172.416
51.51000 169.769
51.52000 170.388
51.53000 172.813
51.54000 175.035
51.55000 173.510
51.56000 170.583
51.57000 167.878
51.58000 168.897
51.59000 170.654
51.60000 171.739
51.61000 168.856
51.62000 165.324
51.63000 162.270
51.64000 161.060
51.65000 160.032
51.66000 159.281
51.67000 159.942
51.68000 160.509
51.69000 161.158
51.70000 161.950
51.71000 162.744
51.72000 163.155
51.73000 163.119
51.74000 163.082
51.75000 163.867
51.76000 165.259
51.77000 166.600
51.78000 166.048
51.79000 164.545
51.80000 163.022
51.81000 161.196
51.82000 159.267
51.83000 157.505
51.84000 157.384
51.85000 157.608
51.86000 157.622
51.87000 156.523
51.88000 155.262
51.89000 154.959
51.90000 158.009
51.91000 161.347
51.92000 163.721
51.93000 159.811
51.94000 156.631
51.95000 155.496
51.96000 157.630
51.97000 159.806
51.98000 162.870
51.99000 166.865
52.00000 170.839
52.01000 171.468
52.02000 169.841
52.03000 168.036
52.04000 161.172
52.05000 151.990
52.06000 143.620
52.07000 145.961
52.08000 151.628
52.09000 156.735
52.10000 163.310
52.11000 169.344
52.12000 174.841
52.13000 177.773
52.14000 180.371
52.15000 181.776
52.16000 179.393
52.17000 176.729
52.18000 174.891
52.19000 174.862
52.20000 174.887
52.21000 172.030
52.22000 164.996
52.23000 157.930
52.24000 155.332
52.25000 156.937
52.26000 158.527
52.27000 157.691
52.28000 155.398
52.29000 153.213
52.30000 153.486
52.31000 154.785
52.32000 156.101
52.33000 157.611
52.34000 159.177
52.35000 160.567
52.36000 158.533
52.37000 156.216
52.38000 153.971
52.39000 152.038
52.40000 150.141
52.41000 150.760
52.42000 158.655
52.43000 167.009
52.44000 172.590
52.45000 166.086
52.46000 161.030
52.47000 158.396
52.48000 158.940
52.49000 159.496
52.50000 159.239
52.51000 158.293
52.52000 157.359
52.53000 155.410
52.54000 152.956
52.55000 150.691
52.56000 152.018
52.57000 154.712
52.58000 157.352
52.59000 159.463
52.60000 161.439
52.61000 163.169
52.62000 160.406
52.63000 157.395
52.64000 155.063
52.65000 155.387
52.66000 155.981
52.67000 156.747
52.68000 157.967
52.69000 159.212
52.70000 160.015
52.71000 154.905
52.72000 151.085
52.73000 152.176
52.74000 159.083
52.75000 165.977
52.76000 167.465
52.77000 164.824
52.78000 162.228
52.79000 159.733
52.80000 157.372
52.81000 155.234
52.82000 156.639
52.83000 159.271
52.84000 161.824
52.85000 163.686
52.86000 165.389
52.87000 166.855
52.88000 170.312
52.89000 173.493
52.90000 174.016
52.91000 165.103
52.92000 155.358
52.93000 148.847
52.94000 150.096
52.95000 151.684
52.96000 152.672
52.97000 151.910
52.98000 151.344
52.99000 150.354
53.00000 148.912
53.01000 147.511
53.02000 151.130
53.03000 158.220
53.04000 165.150
53.05000 163.407
53.06000 157.870
53.07000 152.806
53.08000 154.138
53.09000 157.487
53.10000 160.185
53.11000 157.876
53.12000 154.517
53.13000 151.675
53.14000 154.850
53.15000 158.177
53.16000 159.338
53.17000 153.509
53.18000 147.148
53.19000 143.287
53.20000 144.891
53.21000 146.687
53.22000 147.760
53.23000 155.981
53.24000 161.857
53.25000 163.266
53.26000 160.401
53.27000 157.595
53.28000 159.410
53.29000 164.124
53.30000 168.703
53.31000 166.037
53.32000 160.591
53.33000 155.634
53.34000 156.385
53.35000 158.771
53.36000 161.126
53.37000 163.264
53.38000 165.361
53.39000 167.103
53.40000 162.659
53.41000 158.383
53.42000 156.035
53.43000 159.352
53.44000 163.035
53.45000 164.206
53.46000 160.374
53.47000 156.405
53.48000 154.131
53.49000 157.334
53.50000 159.587
53.51000 159.244
53.52000 156.669
53.53000 154.175
53.54000 156.074
53.55000 160.477
53.56000 164.723
53.57000 165.168
53.58000 164.205
53.59000 163.046
53.60000 159.897
53.61000 156.231
53.62000 152.784
53.63000 150.674
53.64000 148.792
53.65000 147.259
53.66000 142.718
53.67000 138.754
53.68000 138.223
53.69000 146.872
53.70000 156.022
53.71000 160.807
53.72000 157.686
53.73000 154.400
53.74000 152.604
53.75000 151.846
53.76000 151.331
53.77000 151.727
53.78000 152.830
53.79000 153.789
53.80000 148.981
53.81000 141.182
53.82000 133.720
53.83000 138.056
53.84000 145.958
53.85000 153.284
53.86000 155.498
53.87000 156.505
53.88000 156.662
53.89000 152.152
53.90000 146.933
53.91000 142.772
53.92000 139.781
53.93000 137.452
53.94000 138.425
53.95000 147.438
53.96000 156.815
53.97000 161.876
53.98000 159.827
53.99000 157.673
54.00000 156.552
54.01000 157.270
54.02000 157.745
54.03000 156.884
54.04000 155.083
54.05000 153.214
54.06000 149.251
54.07000 144.299
54.08000 139.602
54.09000 145.126
54.10000 153.232
54.11000 160.103
54.12000 157.281
54.13000 152.391
54.14000 148.705
54.15000 150.959
54.16000 154.018
54.17000 156.402
54.18000 156.231
54.19000 155.935
54.20000 155.415
54.21000 154.394
54.22000 153.356
54.23000 154.952
54.24000 160.488
54.25000 166.063
54.26000 165.622
54.27000 159.328
54.28000 153.070
54.29000 149.747
54.30000 148.294
54.31000 146.853
54.32000 145.693
54.33000 144.654
54.34000 143.678
54.35000 148.013
54.36000 153.377
54.37000 157.595
54.38000 153.823
54.39000 148.515
54.40000 145.152
54.41000 150.469
54.42000 156.825
54.43000 161.661
54.44000 155.129
54.45000 149.395
54.46000 144.806
54.47000 142.531
54.48000 140.324
54.49000 142.465
54.50000 150.500
54.51000 158.564
54.52000 158.792
54.53000 152.176
54.54000 145.621
54.55000 142.486
54.56000 141.331
54.57000 140.355
54.58000 142.979
54.59000 147.015
54.60000 150.765
54.61000 155.716
54.62000 160.470
54.63000 163.670
54.64000 157.200
54.65000 149.058
54.66000 142.859
54.67000 144.499
54.68000 146.966
54.69000 148.796
54.70000 146.690
54.71000 144.882
54.72000 144.016
54.73000 144.880
54.74000 145.781
54.75000 145.885
54.76000 145.011
54.77000 144.136
54.78000 145.021
54.79000 147.283
54.80000 149.527
54.81000 150.999
54.82000 152.065
54.83000 153.117
54.84000 153.942
54.85000 154.687
54.86000 155.371
54.87000 151.541
54.88000 147.158
54.89000 143.719
54.90000 145.541
54.91000 148.178
54.92000 150.067
54.93000 149.215
54.94000 148.110
54.95000 147.313
54.96000 148.890
54.97000 150.184
54.98000 151.164
54.99000 151.621
55.00000 152.069
55.01000 152.921
55.02000 154.218
55.03000 155.511
55.04000 155.402
55.05000 154.304
55.06000 153.252
55.07000 153.705
55.08000 154.879
55.09000 155.871
55.10000 154.269
55.11000 151.825
55.12000 149.607
55.13000 149.430
55.14000 149.663
55.15000 150.663
55.16000 155.515
55.17000 160.897
55.18000 164.621
55.19000 162.827
55.20000 160.593
55.21000 159.028
55.22000 160.091
55.23000 160.970
55.24000 162.384
55.25000 164.610
55.26000 166.845
55.27000 168.528
55.28000 169.666
55.29000 170.796
55.30000 167.893
55.31000 162.465
55.32000 157.252
55.33000 157.537
55.34000 160.224
55.35000 162.852
55.36000 164.770
55.37000 166.477
55.38000 168.005
55.39000 176.140
55.40000 184.363
55.41000 190.553
55.42000 187.527
55.43000 183.373
55.44000 180.641
55.45000 182.210
55.46000 184.074
55.47000 185.338
55.48000 185.029
55.49000 184.764
55.50000 189.382
55.51000 200.725
55.52000 212.103
55.53000 215.980
55.54000 213.181
55.55000 210.411
55.56000 213.693
55.57000 220.383
55.58000 227.153
55.59000 235.585
55.60000 244.679
55.61000 253.291
55.62000 256.805
55.63000 258.951
55.64000 260.843
55.65000 268.124
55.66000 275.219
55.67000 282.070
55.68000 287.924
55.69000 293.670
55.70000 301.021
55.71000 312.795
55.72000 324.824
55.73000 332.721
55.74000 349.222
55.75000 361.507
55.76000 368.948
55.77000 370.357
55.78000 371.755
55.79000 375.441
55.80000 380.961
55.81000 386.401
55.82000 398.044
55.83000 412.563
55.84000 426.565
55.85000 431.617
55.86000 433.427
55.87000 434.798
55.88000 432.118
55.89000 428.451
55.90000 425.268
55.91000 430.810
55.92000 436.702
55.93000 440.071
55.94000 434.047
55.95000 427.137
55.96000 423.561
55.97000 428.353
55.98000 433.548
55.99000 436.838
56.00000 423.230
56.01000 413.158
56.02000 407.042
56.03000 405.367
56.04000 403.705
56.05000 403.448
56.06000 404.212
56.07000 404.960
56.08000 396.919
56.09000 385.061
56.10000 373.296
56.11000 362.871
56.12000 352.889
56.13000 342.808
56.14000 331.912
56.15000 320.837
56.16000 311.385
56.17000 298.522
56.18000 287.288
56.19000 278.985
56.20000 280.583
56.21000 282.992
56.22000 284.369
56.23000 283.390
56.24000 282.318
56.25000 281.665
56.26000 271.709
56.27000 264.520
56.28000 256.917
56.29000 248.895
56.30000 240.918
56.31000 237.176
56.32000 236.217
56.33000 235.282
56.34000 232.015
56.35000 227.911
56.36000 223.512
56.37000 215.427
56.38000 206.236
56.39000 198.581
56.40000 202.047
56.41000 207.724
56.42000 212.484
56.43000 202.586
56.44000 192.830
56.45000 185.209
56.46000 184.146
56.47000 183.544
56.48000 182.758
56.49000 181.591
56.50000 180.413
56.51000 179.724
56.52000 170.424
56.53000 163.840
56.54000 161.768
56.55000 163.781
56.56000 165.757
56.57000 165.423
56.58000 163.710
56.59000 162.051
56.60000 161.206
56.61000 160.717
56.62000 160.368
56.63000 161.532
56.64000 163.109
56.65000 164.366
56.66000 163.560
56.67000 162.384
56.68000 161.418
56.69000 160.134
56.70000 159.050
56.71000 158.603
56.72000 159.936
56.73000 161.374
56.74000 161.569
56.75000 159.405
56.76000 157.185
56.77000 155.942
56.78000 155.846
56.79000 155.780
56.80000 154.864
56.81000 153.255
56.82000 151.633
56.83000 149.420
56.84000 146.887
56.85000 144.454
56.86000 144.074
56.87000 144.427
56.88000 144.674
56.89000 143.933
56.90000 142.947
56.91000 142.412
56.92000 144.482
56.93000 146.970
56.94000 148.974
56.95000 147.323
56.96000 145.697
56.97000 145.092
56.98000 147.089
56.99000 149.216
57.00000 150.349
57.01000 149.767
57.02000 149.156
57.03000 148.830
57.04000 141.748
57.05000 136.933
57.06000 134.992
57.07000 135.169
57.08000 135.486
57.09000 140.631
57.10000 148.163
57.11000 155.336
57.12000 151.528
57.13000 144.591
57.14000 137.766
57.15000 131.874
57.16000 126.191
57.17000 122.794
57.18000 131.267
57.19000 141.442
57.20000 149.460
57.21000 143.095
57.22000 137.028
57.23000 134.376
57.24000 139.657
57.25000 145.259
57.26000 148.598
57.27000 148.388
57.28000 148.136
57.29000 148.008
57.30000 153.372
57.31000 156.944
57.32000 158.525
57.33000 158.774
57.34000 158.782
57.35000 152.184
57.36000 142.611
57.37000 133.579
57.38000 136.915
57.39000 143.429
57.40000 149.041
57.41000 147.995
57.42000 145.603
57.43000 143.717
57.44000 144.204
57.45000 144.992
57.46000 145.599
57.47000 138.422
57.48000 132.298
57.49000 129.019
57.50000 131.757
57.51000 134.690
57.52000 136.131
57.53000 135.451
57.54000 134.755
57.55000 134.326
57.56000 134.145
57.57000 133.962
57.58000 133.725
57.59000 133.456
57.60000 133.326
57.61000 136.265
57.62000 140.463
57.63000 144.385
57.64000 147.983
57.65000 151.166
57.66000 154.005
57.67000 154.584
57.68000 154.752
57.69000 154.397
57.70000 151.829
57.71000 149.011
57.72000 146.896
57.73000 140.904
57.74000 136.036
57.75000 135.334
57.76000 142.654
57.77000 150.174
57.78000 152.189
57.79000 147.119
57.80000 142.028
57.81000 137.937
57.82000 134.686
57.83000 131.523
57.84000 132.613
57.85000 136.049
57.86000 139.373
57.87000 140.664
57.88000 141.195
57.89000 141.685
57.90000 143.789
57.91000 146.041
57.92000 147.387
57.93000 143.405
57.94000 138.554
57.95000 134.527
57.96000 133.664
57.97000 133.113
57.98000 132.710
57.99000 135.112
58.00000 137.076
58.01000 137.393
58.02000 134.825
58.03000 132.204
58.04000 131.729
58.05000 133.746
58.06000 135.761
58.07000 136.258
58.08000 135.623
58.09000 135.040
58.10000 136.337
58.11000 138.578
58.12000 140.543
58.13000 138.263
58.14000 134.539
58.15000 131.141
58.16000 133.390
58.17000 136.526
58.18000 139.550
58.19000 141.987
58.20000 144.338
58.21000 145.807
58.22000 144.199
58.23000 142.328
58.24000 140.998
58.25000 138.607
58.26000 136.753
58.27000 136.051
58.28000 137.186
58.29000 138.343
58.30000 137.660
58.31000 135.055
58.32000 132.464
58.33000 133.074
58.34000 135.822
58.35000 138.550
58.36000 140.731
58.37000 142.661
58.38000 144.529
58.39000 145.592
58.40000 146.406
58.41000 147.139
58.42000 143.809
58.43000 140.155
58.44000 136.814
58.45000 134.960
58.46000 133.299
58.47000 131.992
58.48000 131.811
58.49000 131.713
58.50000 131.646
58.51000 138.550
58.52000 143.911
58.53000 146.153
58.54000 143.888
58.55000 141.587
58.56000 138.774
58.57000 135.481
58.58000 132.217
58.59000 131.329
58.60000 131.895
58.61000 132.386
58.62000 131.194
58.63000 129.300
58.64000 127.638
58.65000 128.593
58.66000 130.286
58.67000 131.789
58.68000 134.076
58.69000 136.186
58.70000 137.424
58.71000 134.911
58.72000 131.968
58.73000 130.544
58.74000 133.503
58.75000 136.737
58.76000 138.895
58.77000 133.902
58.78000 130.065
58.79000 128.005
58.80000 128.270
58.81000 128.545
58.82000 129.123
58.83000 129.955
58.84000 130.776
58.85000 132.069
58.86000 133.587
58.87000 135.032
58.88000 135.116
58.89000 134.684
58.90000 134.271
58.91000 134.048
58.92000 133.875
58.93000 133.722
58.94000 135.709
58.95000 137.716
58.96000 138.847
58.97000 136.564
58.98000 133.937
58.99000 131.959
59.00000 131.686
59.01000 131.503
59.02000 131.385
59.03000 132.944
59.04000 134.107
59.05000 133.239
59.06000 129.974
59.07000 126.715
59.08000 125.763
59.09000 126.567
59.10000 127.357
59.11000 128.484
59.12000 129.740
59.13000 131.015
59.14000 132.592
59.15000 134.273
59.16000 135.513
59.17000 132.928
59.18000 129.458
59.19000 126.472
59.20000 131.792
59.21000 137.344
59.22000 140.420
59.23000 134.734
59.24000 128.279
59.25000 124.393
59.26000 126.653
59.27000 129.180
59.28000 130.749
59.29000 131.555
59.30000 132.128
59.31000 130.205
59.32000 125.630
59.33000 121.097
59.34000 121.621
59.35000 125.633
59.36000 129.553
59.37000 133.135
59.38000 136.416
59.39000 139.479
59.40000 139.592
59.41000 138.779
59.42000 137.957
59.43000 137.077
59.44000 136.185
59.45000 135.430
59.46000 132.638
59.47000 130.076
59.48000 129.234
59.49000 133.926
59.50000 139.036
59.51000 141.380
59.52000 137.691
59.53000 133.792
59.54000 131.464
59.55000 132.522
59.56000 133.294
59.57000 131.809
59.58000 128.173
59.59000 124.578
59.60000 124.088
59.61000 125.540
59.62000 126.950
59.63000 125.540
59.64000 123.069
59.65000 121.153
59.66000 125.671
59.67000 132.028
59.68000 137.210
59.69000 134.379
59.70000 130.039
59.71000 126.436
59.72000 129.221
59.73000 132.143
59.74000 133.514
59.75000 130.347
59.76000 126.887
59.77000 125.218
59.78000 127.104
59.79000 129.087
59.80000 130.221
59.81000 127.262
59.82000 125.189
59.83000 127.447
59.84000 133.419
59.85000 139.303
59.86000 140.466
59.87000 138.945
59.88000 137.479
59.89000 136.186
59.90000 135.034
59.91000 134.097
59.92000 135.331
59.93000 137.129
59.94000 138.365
59.95000 136.176
59.96000 133.407
59.97000 131.154
59.98000 133.206
59.99000 135.244
60.00000 137.321
60.01000 139.505
60.02000 141.694
60.03000 141.868
60.04000 138.402
60.05000 134.861
60.06000 132.928
60.07000 126.132
60.08000 121.470
60.09000 120.040
60.10000 121.113
60.11000 122.165
60.12000 122.448
60.13000 122.332
60.14000 122.222
60.15000 121.751
60.16000 121.195
60.17000 120.813
60.18000 121.971
60.19000 123.491
60.20000 125.174
60.21000 127.743
60.22000 130.446
60.23000 132.600
60.24000 131.291
60.25000 129.985
60.26000 128.778
60.27000 127.808
60.28000 126.849
60.29000 125.866
60.30000 124.845
60.31000 123.823
60.32000 123.292
60.33000 133.075
60.34000 139.649
60.35000 141.592
60.36000 140.290
60.37000 139.094
60.38000 141.122
60.39000 144.669
60.40000 148.031
60.41000 144.530
60.42000 139.285
60.43000 134.431
60.44000 132.634
60.45000 131.487
60.46000 130.002
60.47000 126.851
60.48000 123.476
60.49000 120.848
60.50000 125.067
60.51000 128.850
60.52000 131.231
60.53000 130.507
60.54000 129.670
60.55000 130.087
60.56000 132.370
60.57000 134.672
60.58000 134.501
60.59000 131.933
60.60000 129.389
60.61000 128.786
60.62000 129.417
60.63000 130.034
60.64000 130.317
60.65000 130.456
60.66000 130.587
60.67000 128.993
60.68000 127.084
60.69000 125.298
60.70000 124.364
60.71000 123.594
60.72000 123.214
60.73000 124.567
60.74000 126.128
60.75000 127.314
60.76000 130.202
60.77000 132.562
60.78000 133.346
60.79000 130.950
60.80000 128.464
60.81000 126.876
60.82000 126.501
60.83000 126.133
60.84000 126.127
60.85000 126.436
60.86000 126.752
60.87000 127.423
60.88000 128.299
60.89000 129.145
60.90000 129.385
60.91000 129.389
60.92000 129.392
60.93000 129.669
60.94000 129.983
60.95000 130.494
60.96000 132.224
60.97000 134.164
60.98000 136.449
60.99000 140.122
61.00000 143.942
61.01000 146.771
61.02000 144.605
61.03000 142.707
61.04000 139.870
61.05000 135.309
61.06000 130.710
61.07000 128.690
61.08000 129.819
61.09000 130.953
61.10000 133.006
61.11000 135.769
61.12000 138.522
61.13000 140.895
61.14000 143.067
61.15000 145.044
61.16000 143.771
61.17000 141.339
61.18000 139.107
61.19000 138.930
61.20000 139.209
61.21000 139.291
61.22000 138.282
61.23000 137.105
61.24000 136.308
61.25000 136.899
61.26000 137.618
61.27000 138.136
61.28000 135.921
61.29000 134.126
61.30000 133.596
61.31000 135.173
61.32000 136.784
61.33000 138.210
61.34000 139.434
61.35000 140.652
61.36000 140.779
61.37000 140.134
61.38000 139.523
61.39000 139.959
61.40000 140.897
61.41000 141.807
61.42000 142.329
61.43000 142.726
61.44000 143.085
61.45000 142.976
61.46000 142.790
61.47000 142.857
61.48000 144.186
61.49000 145.689
61.50000 147.944
61.51000 152.697
61.52000 157.647
61.53000 161.112
61.54000 174.128
61.55000 184.238
61.56000 193.818
61.57000 202.591
61.58000 211.356
61.59000 222.880
61.60000 237.129
61.61000 251.279
61.62000 257.777
61.63000 259.314
61.64000 260.910
61.65000 263.997
61.66000 267.734
61.67000 271.262
61.68000 272.240
61.69000 272.467
61.70000 272.670
61.71000 271.814
61.72000 270.889
61.73000 270.174
61.74000 270.413
61.75000 270.767
61.76000 269.396
61.77000 262.818
61.78000 255.884
61.79000 251.183
61.80000 225.694
61.81000 206.226
61.82000 194.338
61.83000 192.858
61.84000 191.435
61.85000 184.004
61.86000 171.246
61.87000 158.621
61.88000 152.191
61.89000 149.456
61.90000 146.815
61.91000 146.143
61.92000 146.251
61.93000 146.431
61.94000 147.359
61.95000 148.487
61.96000 149.481
61.97000 146.330
61.98000 142.988
61.99000 140.362
62.00000 140.665
62.01000 141.283
62.02000 142.458
62.03000 145.164
62.04000 147.958
62.05000 149.790
62.06000 145.311
62.07000 141.913
62.08000 140.665
62.09000 142.088
62.10000 143.507
62.11000 141.165
62.12000 135.816
62.13000 130.546
62.14000 132.037
62.15000 136.982
62.16000 141.597
62.17000 140.551
62.18000 137.459
62.19000 135.017
62.20000 138.583
62.21000 143.608
62.22000 147.967
62.23000 144.767
62.24000 141.030
62.25000 137.553
62.26000 135.044
62.27000 132.625
62.28000 133.505
62.29000 142.645
62.30000 152.179
62.31000 158.211
62.32000 150.150
62.33000 144.138
62.34000 138.279
62.35000 132.591
62.36000 126.958
62.37000 130.046
62.38000 139.441
62.39000 148.650
62.40000 149.228
62.41000 145.753
62.42000 142.553
62.43000 143.335
62.44000 145.427
62.45000 146.997
62.46000 144.318
62.47000 140.705
62.48000 137.623
62.49000 138.083
62.50000 138.889
62.51000 139.424
62.52000 139.051
62.53000 138.604
62.54000 138.431
62.55000 138.883
62.56000 139.359
62.57000 139.648
62.58000 145.076
62.59000 148.994
62.60000 147.911
62.61000 141.804
62.62000 135.765
62.63000 136.148
62.64000 140.742
62.65000 145.216
62.66000 146.148
62.67000 145.542
62.68000 145.052
62.69000 146.002
62.70000 147.384
62.71000 148.219
62.72000 145.114
62.73000 141.227
62.74000 137.971
62.75000 139.836
62.76000 141.916
62.77000 142.681
62.78000 139.415
62.79000 135.866
62.80000 134.349
62.81000 137.049
62.82000 139.879
62.83000 141.532
62.84000 147.146
62.85000 151.111
62.86000 149.964
62.87000 144.203
62.88000 138.550
62.89000 139.635
62.90000 144.732
62.91000 149.664
62.92000 147.295
62.93000 142.278
62.94000 137.485
62.95000 135.105
62.96000 133.383
62.97000 131.947
62.98000 132.360
62.99000 133.103
63.00000 133.713
63.01000 139.304
63.02000 144.346
63.03000 147.886
63.04000 147.235
63.05000 146.337
63.06000 144.369
63.07000 140.378
63.08000 136.338
63.09000 134.081
63.10000 140.784
63.11000 145.439
63.12000 147.635
63.13000 147.831
63.14000 148.017
63.15000 147.730
63.16000 147.187
63.17000 146.665
63.18000 149.384
63.19000 153.040
63.20000 155.969
63.21000 152.053
63.22000 146.448
63.23000 141.761
63.24000 142.362
63.25000 143.810
63.26000 144.975
63.27000 142.085
63.28000 139.424
63.29000 137.161
63.30000 135.910
63.31000 134.709
63.32000 135.194
63.33000 138.579
63.34000 142.014
63.35000 143.843
63.36000 147.949
63.37000 150.729
63.38000 150.391
63.39000 147.761
63.40000 145.172
63.41000 143.997
63.42000 143.518
63.43000 143.062
63.44000 143.737
63.45000 144.711
63.46000 145.992
63.47000 149.821
63.48000 154.219
63.49000 157.452
63.50000 154.648
63.51000 150.983
63.52000 148.097
63.53000 155.023
63.54000 161.228
63.55000 163.106
63.56000 154.964
63.57000 146.419
63.58000 143.640
63.59000 149.876
63.60000 156.220
63.61000 159.427
63.62000 155.079
63.63000 152.193
63.64000 151.716
63.65000 152.844
63.66000 153.991
63.67000 155.674
63.68000 157.597
63.69000 159.411
63.70000 156.957
63.71000 153.520
63.72000 150.479
63.73000 150.352
63.74000 150.813
63.75000 150.813
63.76000 148.664
63.77000 146.242
63.78000 144.379
63.79000 151.145
63.80000 156.988
63.81000 160.055
63.82000 157.268
63.83000 154.292
63.84000 154.186
63.85000 158.146
63.86000 162.135
63.87000 162.020
63.88000 158.140
63.89000 154.293
63.90000 152.630
63.91000 152.287
63.92000 152.045
63.93000 153.988
63.94000 156.826
63.95000 159.475
63.96000 157.703
63.97000 154.990
63.98000 152.339
63.99000 150.099
64.00000 147.933
64.01000 146.967
64.02000 151.063
64.03000 155.726
64.04000 159.225
64.05000 158.281
64.06000 157.333
64.07000 155.829
64.08000 153.260
64.09000 150.665
64.10000 152.465
64.11000 159.904
64.12000 167.356
64.13000 166.429
64.14000 158.600
64.15000 150.998
64.16000 154.175
64.17000 163.278
64.18000 171.738
64.19000 168.503
64.20000 160.910
64.21000 153.900
64.22000 153.283
64.23000 154.166
64.24000 155.465
64.25000 159.199
64.26000 163.330
64.27000 166.255
64.28000 164.560
64.29000 162.412
64.30000 160.843
64.31000 164.714
64.32000 167.912
64.33000 169.002
64.34000 166.411
64.35000 163.753
64.36000 161.565
64.37000 159.923
64.38000 158.286
64.39000 158.720
64.40000 160.686
64.41000 162.677
64.42000 165.600
64.43000 168.988
64.44000 172.136
64.45000 171.604
64.46000 169.823
64.47000 168.199
64.48000 165.485
64.49000 162.859
64.50000 161.455
64.51000 166.489
64.52000 172.460
64.53000 177.284
64.54000 178.125
64.55000 178.626
64.56000 178.982
64.57000 176.240
64.58000 174.055
64.59000 173.150
64.60000 174.279
64.61000 175.433
64.62000 176.081
64.63000 176.201
64.64000 176.321
64.65000 174.393
64.66000 171.122
64.67000 168.008
64.68000 169.328
64.69000 172.669
64.70000 175.929
64.71000 178.118
64.72000 179.977
64.73000 181.650
64.74000 180.496
64.75000 178.975
64.76000 177.098
64.77000 173.529
64.78000 169.742
64.79000 167.339
64.80000 169.312
64.81000 171.606
64.82000 173.186
64.83000 174.900
64.84000 176.190
64.85000 175.208
64.86000 170.953
64.87000 166.675
64.88000 172.689
64.89000 188.315
64.90000 203.805
64.91000 206.479
64.92000 201.381
64.93000 196.471
64.94000 195.826
64.95000 196.952
64.96000 197.887
64.97000 196.672
64.98000 194.854
64.99000 193.239
65.00000 192.902
65.01000 192.813
65.02000 192.752
65.03000 192.807
65.04000 192.875
65.05000 193.295
65.06000 194.724
65.07000 196.216
65.08000 197.211
65.09000 205.498
65.10000 211.773
65.11000 216.766
65.12000 220.085
65.13000 223.397
65.14000 226.056
65.15000 228.168
65.16000 230.253
65.17000 231.802
65.18000 233.020
65.19000 234.351
65.20000 237.797
65.21000 242.043
65.22000 245.656
65.23000 243.044
65.24000 238.848
65.25000 235.178
65.26000 232.737
65.27000 230.820
65.28000 231.434
65.29000 241.894
65.30000 253.341
65.31000 260.785
65.32000 257.745
65.33000 254.155
65.34000 251.844
65.35000 261.866
65.36000 269.357
65.37000 271.773
65.38000 268.217
65.39000 264.661
65.40000 263.249
65.41000 263.463
65.42000 263.675
65.43000 269.758
65.44000 278.517
65.45000 286.911
65.46000 289.554
65.47000 290.216
65.48000 290.781
65.49000 290.508
65.50000 290.042
65.51000 289.641
65.52000 298.216
65.53000 306.600
65.54000 314.673
65.55000 321.644
65.56000 328.519
65.57000 335.403
65.58000 342.307
65.59000 349.211
65.60000 353.495
65.61000 351.319
65.62000 349.690
65.63000 354.651
65.64000 366.592
65.65000 378.572
65.66000 394.929
65.67000 414.295
65.68000 433.219
65.69000 461.424
65.70000 492.553
65.71000 525.289
65.72000 579.544
65.73000 640.545
65.74000 702.302
65.75000 769.829
65.76000 838.558
65.77000 896.654
65.78000 934.458
65.79000 963.842
65.80000 995.120
65.81000 1032.474
65.82000 1070.285
65.83000 1099.695
65.84000 1110.844
65.85000 1121.359
65.86000 1127.628
65.87000 1121.303
65.88000 1116.743
65.89000 1116.987
65.90000 1121.794
65.91000 1126.328
65.92000 1110.161
65.93000 1081.083
65.94000 1052.851
65.95000 1005.250
65.96000 952.323
65.97000 898.482
65.98000 834.091
65.99000 766.692
66.00000 700.704
66.01000 644.298
66.02000 589.693
66.03000 544.389
66.04000 496.413
66.05000 456.508
66.06000 422.760
66.07000 406.986
66.08000 392.366
66.09000 377.765
66.10000 363.201
66.11000 348.638
66.12000 340.321
66.13000 325.824
66.14000 315.695
66.15000 311.351
66.16000 311.953
66.17000 312.582
66.18000 314.656
66.19000 317.550
66.20000 320.339
66.21000 323.494
66.22000 326.592
66.23000 330.104
66.24000 337.776
66.25000 346.525
66.26000 354.320
66.27000 356.324
66.28000 357.350
66.29000 358.185
66.30000 365.554
66.31000 372.115
66.32000 382.566
66.33000 403.357
66.34000 424.706
66.35000 443.010
66.36000 455.830
66.37000 468.538
66.38000 475.468
66.39000 470.203
66.40000 466.577
66.41000 464.597
66.42000 463.886
66.43000 463.235
66.44000 464.905
66.45000 467.772
66.46000 470.514
66.47000 469.259
66.48000 466.790
66.49000 462.681
66.50000 444.116
66.51000 422.163
66.52000 402.861
66.53000 398.003
66.54000 395.326
66.55000 393.194
66.56000 376.827
66.57000 362.605
66.58000 350.406
66.59000 343.107
66.60000 336.027
66.61000 331.722
66.62000 331.965
66.63000 332.272
66.64000 332.432
66.65000 330.520
66.66000 329.240
66.67000 329.278
66.68000 330.237
66.69000 331.043
66.70000 327.180
66.71000 321.125
66.72000 315.387
66.73000 318.691
66.74000 324.386
66.75000 329.286
66.76000 328.002
66.77000 325.407
66.78000 324.062
66.79000 328.847
66.80000 334.456
66.81000 338.821
66.82000 334.050
66.83000 329.690
66.84000 328.104
66.85000 332.642
66.86000 337.401
66.87000 341.838
66.88000 345.798
66.89000 349.753
66.90000 355.203
66.91000 362.099
66.92000 368.904
66.93000 368.480
66.94000 363.476
66.95000 358.485
66.96000 353.816
66.97000 349.285
66.98000 345.033
66.99000 347.577
67.00000 351.688
67.01000 355.020
67.02000 352.960
67.03000 349.869
67.04000 347.567
67.05000 348.755
67.06000 350.360
67.07000 351.578
67.08000 365.292
67.09000 376.719
67.10000 382.178
67.11000 375.640
67.12000 368.764
67.13000 368.254
67.14000 376.319
67.15000 384.425
67.16000 387.608
67.17000 386.514
67.18000 385.421
67.19000 384.402
67.20000 383.425
67.21000 382.436
67.22000 381.198
67.23000 379.865
67.24000 378.627
67.25000 379.029
67.26000 379.781
67.27000 380.746
67.28000 383.023
67.29000 385.527
67.30000 388.794
67.31000 395.126
67.32000 401.780
67.33000 406.705
67.34000 410.322
67.35000 413.072
67.36000 414.233
67.37000 412.489
67.38000 410.683
67.39000 410.737
67.40000 413.057
67.41000 415.378
67.42000 416.361
67.43000 416.297
67.44000 416.232
67.45000 416.118
67.46000 415.980
67.47000 416.017
67.48000 418.982
67.49000 422.987
67.50000 426.662
67.51000 429.909
67.52000 432.713
67.53000 436.239
67.54000 443.764
67.55000 451.904
67.56000 457.774
67.57000 455.379
67.58000 452.229
67.59000 449.961
67.60000 457.214
67.61000 463.104
67.62000 465.422
67.63000 461.799
67.64000 458.085
67.65000 460.200
67.66000 468.707
67.67000 477.182
67.68000 479.872
67.69000 478.470
67.70000 477.189
67.71000 479.737
67.72000 484.112
67.73000 488.200
67.74000 488.262
67.75000 487.023
67.76000 485.900
67.77000 480.116
67.78000 474.131
67.79000 471.330
67.80000 484.419
67.81000 499.686
67.82000 509.933
67.83000 503.579
67.84000 495.910
67.85000 490.549
67.86000 501.245
67.87000 509.781
67.88000 513.253
67.89000 509.078
67.90000 504.825
67.91000 509.144
67.92000 521.899
67.93000 534.565
67.94000 536.511
67.95000 531.639
67.96000 526.904
67.97000 525.615
67.98000 525.823
67.99000 526.392
68.00000 531.322
68.01000 537.535
68.02000 543.088
68.03000 550.676
68.04000 557.633
68.05000 563.291
68.06000 563.095
68.07000 562.189
68.08000 558.594
68.09000 546.905
68.10000 534.668
68.11000 526.378
68.12000 558.649
68.13000 583.595
68.14000 600.073
68.15000 604.961
68.16000 609.775
68.17000 608.796
68.18000 602.694
68.19000 596.657
68.20000 598.203
68.21000 604.047
68.22000 609.799
68.23000 613.661
68.24000 616.774
68.25000 619.381
68.26000 616.678
68.27000 612.556
68.28000 608.925
68.29000 619.236
68.30000 630.218
68.31000 641.458
68.32000 653.752
68.33000 666.158
68.34000 676.676
68.35000 682.020
68.36000 687.067
68.37000 690.374
68.38000 703.751
68.39000 713.750
68.40000 723.522
68.41000 733.013
68.42000 742.501
68.43000 751.105
68.44000 759.004
68.45000 766.786
68.46000 771.272
68.47000 773.925
68.48000 777.432
68.49000 795.542
68.50000 818.917
68.51000 840.295
68.52000 843.328
68.53000 841.922
68.54000 840.702
68.55000 865.517
68.56000 890.116
68.57000 915.195
68.58000 942.056
68.59000 969.083
68.60000 999.480
68.61000 1038.292
68.62000 1077.503
68.63000 1102.281
68.64000 1155.188
68.65000 1193.856
68.66000 1246.534
68.67000 1314.837
68.68000 1383.138
68.69000 1449.287
68.70000 1513.885
68.71000 1577.184
68.72000 1623.126
68.73000 1659.240
68.74000 1696.089
68.75000 1743.578
68.76000 1794.558
68.77000 1847.421
68.78000 1915.532
68.79000 1986.984
68.80000 2047.902
68.81000 2120.031
68.82000 2182.033
68.83000 2257.987
68.84000 2380.809
68.85000 2507.431
68.86000 2649.176
68.87000 2825.316
68.88000 3002.786
68.89000 3110.687
68.90000 3700.868
68.91000 4126.015
68.92000 4966.787
68.93000 6223.847
68.94000 7491.414
68.95000 9734.646
68.96000 12615.598
68.97000 15421.722
68.98000 19636.879
68.99000 24247.936
69.00000 28866.461
69.01000 33577.527
69.02000 38316.219
69.03000 42909.398
69.04000 46456.672
69.05000 49797.246
69.06000 52594.391
69.07000 54330.012
69.08000 55663.492
69.09000 56749.578
69.10000 57079.738
69.11000 57357.363
69.12000 57720.832
69.13000 58262.125
69.14000 58808.871
69.15000 59127.805
69.16000 60299.355
69.17000 61126.652
69.18000 61327.836
69.19000 60965.918
69.20000 60581.961
69.21000 58824.070
69.22000 56250.621
69.23000 53761.070
69.24000 50532.578
69.25000 47202.996
69.26000 43927.004
69.27000 41226.363
69.28000 38681.734
69.29000 36236.645
69.30000 34429.543
69.31000 32735.869
69.32000 31344.855
69.33000 30541.588
69.34000 29934.664
69.35000 29294.230
69.36000 28560.578
69.37000 27821.441
69.38000 26794.475
69.39000 25224.645
69.40000 23642.070
69.41000 22759.129
69.42000 19273.535
69.43000 16855.734
69.44000 14542.206
69.45000 12313.195
69.46000 10094.972
69.47000 8362.472
69.48000 6892.181
69.49000 5480.676
69.50000 4522.199
69.51000 3780.848
69.52000 3073.896
69.53000 2689.794
69.54000 2385.094
69.55000 2102.241
69.56000 1944.829
69.57000 1807.409
69.58000 1696.851
69.59000 1588.839
69.60000 1501.425
69.61000 1423.082
69.62000 1367.724
69.63000 1313.492
69.64000 1267.107
69.65000 1234.186
69.66000 1201.496
69.67000 1184.113
69.68000 1129.208
69.69000 1091.840
69.70000 1059.377
69.71000 1030.507
69.72000 1001.955
69.73000 984.273
69.74000 971.933
69.75000 960.187
69.76000 940.613
69.77000 920.077
69.78000 900.392
69.79000 887.741
69.80000 876.656
69.81000 865.464
69.82000 853.715
69.83000 841.888
69.84000 832.580
69.85000 811.973
69.86000 794.714
69.87000 780.777
69.88000 774.508
69.89000 768.546
69.90000 757.040
69.91000 736.895
69.92000 716.648
69.93000 706.427
69.94000 727.955
69.95000 742.179
69.96000 738.880
69.97000 723.948
69.98000 708.900
69.99000 690.761
70.00000 671.237
