20.00000 570.853
20.01000 568.100
20.02000 564.954
20.03000 563.020
20.04000 565.824
20.05000 569.107
20.06000 571.519
20.07000 567.713
20.08000 564.516
20.09000 562.806
20.10000 563.749
20.11000 564.744
20.12000 566.584
20.13000 569.424
20.14000 572.258
20.15000 570.718
20.16000 565.871
20.17000 561.068
20.18000 557.940
20.19000 555.668
20.20000 553.343
20.21000 550.161
20.22000 546.682
20.23000 543.501
20.24000 546.759
20.25000 550.982
20.26000 554.751
20.27000 556.073
20.28000 557.030
20.29000 558.078
20.30000 559.446
20.31000 560.842
20.32000 561.840
20.33000 577.470
20.34000 589.885
20.35000 592.063
20.36000 577.654
20.37000 563.016
20.38000 554.587
20.39000 552.773
20.40000 550.969
20.41000 553.485
20.42000 558.923
20.43000 564.053
20.44000 560.036
20.45000 551.769
20.46000 544.273
20.47000 547.198
20.48000 553.406
20.49000 559.010
20.50000 562.781
20.51000 565.757
20.52000 565.698
20.53000 550.907
20.54000 534.162
20.55000 523.452
20.56000 532.194
20.57000 542.413
20.58000 549.498
20.59000 559.983
20.60000 567.967
20.61000 570.079
20.62000 563.557
20.63000 556.958
20.64000 550.295
20.65000 543.570
20.66000 536.898
20.67000 541.544
20.68000 553.079
20.69000 564.179
20.70000 564.978
20.71000 561.414
20.72000 558.155
20.73000 558.438
20.74000 559.734
20.75000 560.889
20.76000 562.859
20.77000 564.704
20.78000 565.046
20.79000 558.799
20.80000 551.778
20.81000 546.344
20.82000 545.566
20.83000 545.090
20.84000 544.770
20.85000 557.634
20.86000 567.457
20.87000 568.725
20.88000 558.600
20.89000 548.426
20.90000 544.275
20.91000 545.298
20.92000 546.309
20.93000 552.602
20.94000 561.676
20.95000 570.309
20.96000 570.356
20.97000 567.090
20.98000 563.540
20.99000 557.114
21.00000 549.940
21.01000 543.646
21.02000 553.863
21.03000 565.042
21.04000 572.310
21.05000 564.054
21.06000 554.195
21.07000 549.110
21.08000 556.780
21.09000 565.144
21.10000 570.571
21.11000 572.810
21.12000 574.401
21.13000 565.955
21.14000 545.432
21.15000 524.959
21.16000 523.749
21.17000 537.478
21.18000 550.984
21.19000 554.034
21.20000 551.741
21.21000 549.408
21.22000 546.423
21.23000 543.208
21.24000 540.370
21.25000 540.879
21.26000 542.177
21.27000 543.297
21.28000 546.401
21.29000 549.290
21.30000 551.247
21.31000 549.845
21.32000 548.141
21.33000 546.711
21.34000 545.949
21.35000 545.218
21.36000 544.760
21.37000 546.536
21.38000 547.842
21.39000 547.166
21.40000 544.342
21.41000 541.523
21.42000 539.284
21.43000 537.452
21.44000 535.660
21.45000 541.841
21.46000 551.383
21.47000 559.972
21.48000 555.376
21.49000 546.562
21.50000 538.202
21.51000 533.404
21.52000 529.364
21.53000 525.937
21.54000 530.984
21.55000 536.178
21.56000 540.078
21.57000 539.741
21.58000 539.076
21.59000 540.710
21.60000 547.446
21.61000 554.367
21.62000 558.530
21.63000 583.979
21.64000 602.220
21.65000 609.120
21.66000 604.993
21.67000 600.938
21.68000 602.787
21.69000 608.395
21.70000 613.847
21.71000 620.838
21.72000 628.115
21.73000 635.327
21.74000 641.767
21.75000 647.983
21.76000 654.504
21.77000 663.156
21.78000 672.218
21.79000 679.766
21.80000 693.921
21.81000 706.305
21.82000 719.181
21.83000 733.524
21.84000 747.965
21.85000 762.194
21.86000 775.996
21.87000 789.785
21.88000 797.734
21.89000 821.693
21.90000 838.528
21.91000 852.342
21.92000 863.517
21.93000 874.533
21.94000 876.504
21.95000 873.244
21.96000 870.096
21.97000 885.302
21.98000 906.397
21.99000 925.691
22.00000 926.351
22.01000 922.089
22.02000 917.974
22.03000 914.775
22.04000 911.734
22.05000 909.250
22.06000 890.117
22.07000 873.022
22.08000 857.224
22.09000 844.942
22.10000 832.858
22.11000 825.284
22.12000 826.001
22.13000 826.899
22.14000 827.393
22.15000 796.451
22.16000 775.098
22.17000 759.397
22.18000 748.151
22.19000 736.839
22.20000 722.752
22.21000 707.205
22.22000 692.313
22.23000 686.241
22.24000 683.512
22.25000 680.986
22.26000 680.306
22.27000 680.067
22.28000 678.344
22.29000 668.342
22.30000 657.060
22.31000 648.037
22.32000 630.304
22.33000 615.321
22.34000 604.803
22.35000 605.319
22.36000 606.347
22.37000 605.284
22.38000 600.727
22.39000 596.115
22.40000 593.696
22.41000 595.736
22.42000 597.090
22.43000 593.995
22.44000 587.728
22.45000 581.344
22.46000 571.232
22.47000 559.335
22.48000 548.037
22.49000 550.606
22.50000 557.136
22.51000 563.133
22.52000 564.876
22.53000 565.698
22.54000 564.737
22.55000 554.830
22.56000 543.691
22.57000 534.979
22.58000 532.461
22.59000 530.846
22.60000 528.816
22.61000 525.854
22.62000 522.857
22.63000 518.538
22.64000 512.215
22.65000 505.870
22.66000 502.918
22.67000 503.321
22.68000 503.822
22.69000 512.905
22.70000 527.537
22.71000 541.641
22.72000 542.329
22.73000 537.163
22.74000 532.304
22.75000 527.977
22.76000 524.169
22.77000 521.685
22.78000 528.600
22.79000 537.351
22.80000 543.256
22.81000 536.273
22.82000 527.716
22.83000 521.181
22.84000 520.342
22.85000 519.987
22.86000 517.454
22.87000 510.453
22.88000 503.319
22.89000 500.304
22.90000 502.955
22.91000 505.640
22.92000 509.424
22.93000 514.178
22.94000 518.816
22.95000 516.534
22.96000 510.186
22.97000 504.450
22.98000 511.371
22.99000 523.326
23.00000 534.451
23.01000 526.136
23.02000 513.909
23.03000 503.591
23.04000 505.354
23.05000 509.240
23.06000 511.957
23.07000 509.884
23.08000 507.296
23.09000 505.369
23.10000 515.333
23.11000 523.619
23.12000 526.440
23.13000 519.058
23.14000 511.445
23.15000 509.916
23.16000 515.958
23.17000 522.011
23.18000 519.733
23.19000 510.815
23.20000 502.082
23.21000 501.385
23.22000 504.982
23.23000 508.305
23.24000 506.914
23.25000 503.814
23.26000 500.963
23.27000 509.290
23.28000 519.164
23.29000 526.900
23.30000 522.512
23.31000 516.216
23.32000 512.684
23.33000 519.426
23.34000 527.135
23.35000 532.720
23.36000 515.118
23.37000 500.746
23.38000 492.162
23.39000 493.406
23.40000 494.812
23.41000 496.933
23.42000 499.855
23.43000 502.767
23.44000 503.502
23.45000 502.667
23.46000 501.792
23.47000 499.606
23.48000 496.783
23.49000 494.454
23.50000 499.337
23.51000 506.597
23.52000 513.194
23.53000 506.998
23.54000 499.033
23.55000 494.255
23.56000 505.738
23.57000 519.504
23.58000 528.198
23.59000 519.773
23.60000 509.950
23.61000 503.037
23.62000 510.679
23.63000 516.902
23.64000 517.005
23.65000 507.675
23.66000 498.239
23.67000 496.125
23.68000 501.384
23.69000 506.611
23.70000 500.686
23.71000 487.628
23.72000 475.074
23.73000 475.806
23.74000 482.422
23.75000 488.448
23.76000 487.087
23.77000 483.512
23.78000 480.306
23.79000 485.288
23.80000 491.062
23.81000 495.748
23.82000 495.427
23.83000 494.481
23.84000 495.429
23.85000 502.191
23.86000 509.360
23.87000 514.251
23.88000 503.176
23.89000 494.525
23.90000 490.034
23.91000 491.359
23.92000 492.721
23.93000 492.522
23.94000 490.911
23.95000 489.315
23.96000 491.161
23.97000 494.979
23.98000 498.316
23.99000 491.368
24.00000 480.269
24.01000 470.639
24.02000 476.889
24.03000 487.467
24.04000 496.815
24.05000 495.521
24.06000 492.761
24.07000 490.042
24.08000 487.499
24.09000 484.975
24.10000 481.901
24.11000 477.294
24.12000 472.595
24.13000 469.494
24.14000 472.539
24.15000 474.892
24.16000 478.967
24.17000 485.222
24.18000 491.474
24.19000 493.758
24.20000 492.810
24.21000 491.875
24.22000 493.556
24.23000 496.569
24.24000 499.369
24.25000 498.394
24.26000 496.030
24.27000 493.424
24.28000 488.523
24.29000 483.056
24.30000 478.299
24.31000 477.515
24.32000 477.390
24.33000 477.695
24.34000 479.628
24.35000 481.718
24.36000 484.661
24.37000 489.780
24.38000 495.006
24.39000 498.334
24.40000 495.718
24.41000 493.742
24.42000 488.456
24.43000 479.397
24.44000 470.374
24.45000 468.482
24.46000 471.840
24.47000 475.136
24.48000 479.177
24.49000 483.426
24.50000 487.093
24.51000 482.048
24.52000 474.085
24.53000 467.443
24.54000 471.783
24.55000 478.580
24.56000 484.397
24.57000 478.066
24.58000 471.260
24.59000 467.654
24.60000 475.021
24.61000 483.304
24.62000 490.669
24.63000 495.901
24.64000 501.047
24.65000 504.203
24.66000 490.068
24.67000 479.795
24.68000 473.845
24.69000 472.324
24.70000 470.850
24.71000 474.089
24.72000 480.472
24.73000 486.698
24.74000 487.435
24.75000 485.782
24.76000 484.122
24.77000 482.382
24.78000 480.617
24.79000 479.389
24.80000 482.111
24.81000 485.632
24.82000 488.591
24.83000 484.354
24.84000 480.061
24.85000 477.152
24.86000 478.563
24.87000 480.285
24.88000 481.408
24.89000 481.268
24.90000 481.087
24.91000 480.980
24.92000 490.897
24.93000 497.942
24.94000 496.264
24.95000 486.561
24.96000 476.986
24.97000 476.014
24.98000 480.254
24.99000 484.361
25.00000 484.484
25.01000 483.055
25.02000 480.904
25.03000 470.763
25.04000 458.411
25.05000 448.389
25.06000 453.666
25.07000 461.725
25.08000 468.373
25.09000 461.253
25.10000 454.118
25.11000 451.460
25.12000 461.504
25.13000 472.323
25.14000 476.564
25.15000 468.148
25.16000 459.416
25.17000 454.497
25.18000 449.522
25.19000 446.080
25.20000 448.927
25.21000 456.983
25.22000 464.879
25.23000 465.110
25.24000 461.120
25.25000 457.283
25.26000 461.306
25.27000 467.828
25.28000 474.009
25.29000 476.906
25.30000 478.979
25.31000 479.329
25.32000 469.556
25.33000 458.131
25.34000 448.898
25.35000 450.764
25.36000 453.170
25.37000 453.359
25.38000 447.818
25.39000 441.983
25.40000 443.602
25.41000 458.267
25.42000 473.173
25.43000 481.182
25.44000 469.763
25.45000 461.979
25.46000 461.200
25.47000 465.664
25.48000 470.057
25.49000 471.908
25.50000 472.484
25.51000 473.034
25.52000 472.377
25.53000 471.387
25.54000 470.818
25.55000 473.827
25.56000 477.649
25.57000 480.150
25.58000 475.679
25.59000 470.192
25.60000 465.852
25.61000 456.519
25.62000 448.679
25.63000 442.778
25.64000 441.444
25.65000 440.302
25.66000 439.250
25.67000 438.344
25.68000 437.440
25.69000 436.978
25.70000 444.700
25.71000 449.867
25.72000 453.060
25.73000 454.913
25.74000 456.848
25.75000 461.076
25.76000 466.352
25.77000 471.337
25.78000 467.898
25.79000 462.347
25.80000 457.335
25.81000 456.364
25.82000 456.223
25.83000 455.908
25.84000 454.760
25.85000 453.505
25.86000 452.535
25.87000 449.926
25.88000 447.761
25.89000 450.024
25.90000 461.786
25.91000 473.867
25.92000 477.178
25.93000 467.831
25.94000 458.383
25.95000 454.310
25.96000 455.267
25.97000 456.192
25.98000 454.838
25.99000 452.081
26.00000 449.365
26.01000 447.560
26.02000 446.135
26.03000 444.802
26.04000 445.654
26.05000 446.987
26.06000 448.366
26.07000 450.047
26.08000 451.785
26.09000 454.286
26.10000 460.074
26.11000 466.237
26.12000 470.883
26.13000 464.662
26.14000 459.256
26.15000 456.638
26.16000 459.463
26.17000 462.429
26.18000 462.225
26.19000 457.876
26.20000 453.513
26.21000 452.939
26.22000 455.549
26.23000 458.078
26.24000 456.484
26.25000 452.585
26.26000 448.687
26.27000 444.804
26.28000 440.928
26.29000 437.342
26.30000 449.061
26.31000 463.101
26.32000 473.342
26.33000 460.872
26.34000 444.630
26.35000 432.686
26.36000 437.487
26.37000 443.973
26.38000 448.735
26.39000 456.104
26.40000 461.905
26.41000 465.905
26.42000 466.705
26.43000 467.443
26.44000 465.088
26.45000 459.084
26.46000 453.089
26.47000 451.047
26.48000 452.004
26.49000 452.912
26.50000 451.944
26.51000 450.022
26.52000 448.625
26.53000 455.521
26.54000 465.279
26.55000 474.201
26.56000 471.260
26.57000 466.210
26.58000 461.160
26.59000 456.110
26.60000 451.060
26.61000 447.602
26.62000 449.777
26.63000 452.446
26.64000 454.351
26.65000 447.593
26.66000 442.153
26.67000 440.511
26.68000 445.006
26.69000 449.584
26.70000 448.886
26.71000 442.585
26.72000 436.315
26.73000 439.589
26.74000 449.325
26.75000 458.650
26.76000 455.896
26.77000 447.544
26.78000 439.791
26.79000 440.091
26.80000 442.920
26.81000 445.473
26.82000 453.039
26.83000 460.607
26.84000 466.541
26.85000 464.572
26.86000 461.560
26.87000 457.022
26.88000 447.584
26.89000 437.775
26.90000 430.980
26.91000 427.106
26.92000 424.266
26.93000 427.495
26.94000 439.622
26.95000 451.826
26.96000 454.155
26.97000 447.080
26.98000 440.061
26.99000 437.338
27.00000 437.299
27.01000 437.087
27.02000 432.791
27.03000 426.771
27.04000 421.286
27.05000 422.010
27.06000 424.508
27.07000 426.730
27.08000 427.827
27.09000 428.596
27.10000 428.671
27.11000 425.716
27.12000 422.406
27.13000 422.948
27.14000 434.759
27.15000 447.295
27.16000 455.704
27.17000 443.267
27.18000 433.614
27.19000 428.109
27.20000 428.111
27.21000 428.143
27.22000 430.139
27.23000 433.815
27.24000 437.449
27.25000 442.044
27.26000 447.059
27.27000 451.590
27.28000 446.750
27.29000 438.306
27.30000 430.855
27.31000 433.407
27.32000 438.553
27.33000 443.064
27.34000 440.731
27.35000 437.735
27.36000 434.215
27.37000 428.623
27.38000 422.817
27.39000 420.137
27.40000 425.780
27.41000 431.875
27.42000 435.825
27.43000 424.929
27.44000 416.733
27.45000 420.928
27.46000 439.987
27.47000 458.980
27.48000 453.712
27.49000 429.686
27.50000 406.056
27.51000 403.480
27.52000 411.516
27.53000 419.559
27.54000 427.734
27.55000 435.956
27.56000 443.351
27.57000 443.447
27.58000 441.828
27.59000 440.431
27.60000 444.492
27.61000 448.637
27.62000 450.574
27.63000 444.577
27.64000 437.870
27.65000 430.281
27.66000 420.556
27.67000 410.735
27.68000 404.600
27.69000 415.438
27.70000 423.435
27.71000 428.568
27.72000 430.607
27.73000 432.631
27.74000 432.817
27.75000 431.717
27.76000 430.640
27.77000 428.520
27.78000 426.014
27.79000 423.953
27.80000 428.034
27.81000 434.073
27.82000 439.413
27.83000 439.294
27.84000 438.016
27.85000 436.932
27.86000 435.789
27.87000 434.825
27.88000 433.946
27.89000 433.347
27.90000 432.770
27.91000 433.246
27.92000 436.048
27.93000 438.935
27.94000 440.669
27.95000 435.628
27.96000 431.999
27.97000 434.542
27.98000 443.065
27.99000 451.452
28.00000 448.782
28.01000 439.093
28.02000 429.675
28.03000 426.348
28.04000 425.669
28.05000 425.079
28.06000 425.556
28.07000 426.343
28.08000 426.046
28.09000 418.226
28.10000 408.966
28.11000 401.257
28.12000 413.832
28.13000 426.251
28.14000 435.106
28.15000 433.378
28.16000 430.950
28.17000 429.602
28.18000 430.429
28.19000 431.318
28.20000 431.830
28.21000 423.733
28.22000 418.041
28.23000 419.286
28.24000 426.574
28.25000 433.734
28.26000 433.706
28.27000 429.531
28.28000 425.502
28.29000 424.949
28.30000 425.707
28.31000 426.517
28.32000 427.863
28.33000 429.351
28.34000 431.070
28.35000 434.230
28.36000 437.637
28.37000 440.418
28.38000 432.538
28.39000 425.175
28.40000 418.481
28.41000 413.600
28.42000 408.820
28.43000 408.464
28.44000 416.218
28.45000 424.147
28.46000 428.508
28.47000 412.001
28.48000 400.629
28.49000 397.693
28.50000 401.386
28.51000 405.024
28.52000 406.324
28.53000 406.397
28.54000 406.468
28.55000 408.147
28.56000 410.247
28.57000 412.083
28.58000 411.537
28.59000 410.423
28.60000 409.850
28.61000 412.283
28.62000 415.180
28.63000 417.495
28.64000 412.530
28.65000 407.979
28.66000 406.297
28.67000 411.686
28.68000 417.400
28.69000 420.802
28.70000 420.350
28.71000 419.837
28.72000 419.569
28.73000 414.981
28.74000 411.888
28.75000 411.093
28.76000 411.930
28.77000 412.689
28.78000 410.971
28.79000 408.070
28.80000 405.316
28.81000 408.489
28.82000 413.190
28.83000 417.361
28.84000 417.317
28.85000 416.363
28.86000 415.120
28.87000 412.435
28.88000 409.551
28.89000 407.298
28.90000 406.477
28.91000 405.913
28.92000 406.178
28.93000 408.304
28.94000 410.499
28.95000 411.107
28.96000 409.314
28.97000 407.496
28.98000 408.514
28.99000 412.328
29.00000 416.151
29.01000 420.614
29.02000 425.491
29.03000 429.991
29.04000 424.968
29.05000 415.802
29.06000 407.185
29.07000 401.730
29.08000 397.600
29.09000 394.563
29.10000 399.255
29.11000 405.453
29.12000 410.572
29.13000 410.819
29.14000 410.474
29.15000 410.210
29.16000 411.419
29.17000 412.451
29.18000 413.012
29.19000 412.614
29.20000 412.188
29.21000 408.029
29.22000 398.750
29.23000 389.445
29.24000 391.487
29.25000 403.568
29.26000 415.489
29.27000 417.980
29.28000 414.949
29.29000 412.123
29.30000 413.536
29.31000 416.629
29.32000 419.507
29.33000 413.326
29.34000 405.554
29.35000 399.484
29.36000 404.150
29.37000 410.696
29.38000 416.457
29.39000 419.011
29.40000 421.220
29.41000 422.864
29.42000 424.858
29.43000 426.425
29.44000 425.468
29.45000 419.814
29.46000 414.053
29.47000 410.519
29.48000 409.746
29.49000 408.981
29.50000 410.935
29.51000 415.043
29.52000 418.956
29.53000 414.473
29.54000 405.518
29.55000 397.375
29.56000 403.147
29.57000 413.945
29.58000 423.876
29.59000 418.451
29.60000 410.276
29.61000 403.294
29.62000 403.057
29.63000 403.877
29.64000 405.632
29.65000 410.850
29.66000 416.393
29.67000 420.405
29.68000 421.755
29.69000 422.695
29.70000 421.286
29.71000 415.903
29.72000 410.455
29.73000 408.023
29.74000 408.964
29.75000 409.904
29.76000 413.910
29.77000 420.077
29.78000 426.157
29.79000 429.357
29.80000 431.159
29.81000 432.706
29.82000 430.536
29.83000 427.145
29.84000 424.065
29.85000 430.424
29.86000 437.872
29.87000 443.886
29.88000 442.605
29.89000 440.303
29.90000 439.496
29.91000 443.723
29.92000 448.360
29.93000 451.619
29.94000 454.776
29.95000 457.165
29.96000 457.090
29.97000 453.227
29.98000 449.322
29.99000 449.175
30.00000 452.798
30.01000 456.399
30.02000 451.793
30.03000 441.957
30.04000 432.486
30.05000 432.516
30.06000 436.744
30.07000 440.615
30.08000 440.042
30.09000 438.140
30.10000 436.436
30.11000 431.487
30.12000 426.604
30.13000 423.215
30.14000 426.686
30.15000 431.010
30.16000 435.640
30.17000 441.213
30.18000 446.852
30.19000 450.694
30.20000 438.642
30.21000 429.270
30.22000 424.289
30.23000 425.427
30.24000 426.608
30.25000 431.596
30.26000 440.016
30.27000 448.354
30.28000 444.302
30.29000 433.124
30.30000 422.499
30.31000 423.642
30.32000 429.522
30.33000 434.116
30.34000 424.878
30.35000 411.880
30.36000 400.399
30.37000 408.741
30.38000 418.992
30.39000 426.212
30.40000 420.844
30.41000 414.098
30.42000 409.441
30.43000 410.608
30.44000 412.118
30.45000 413.114
30.46000 416.836
30.47000 419.628
30.48000 422.285
30.49000 424.775
30.50000 427.256
30.51000 426.752
30.52000 423.822
30.53000 420.933
30.54000 416.321
30.55000 410.935
30.56000 405.740
30.57000 403.911
30.58000 403.318
30.59000 403.493
30.60000 410.905
30.61000 420.100
30.62000 428.097
30.63000 442.732
30.64000 456.124
30.65000 464.116
30.66000 451.780
30.67000 437.494
30.68000 428.693
30.69000 433.815
30.70000 439.622
30.71000 443.316
30.72000 451.654
30.73000 457.770
30.74000 457.898
30.75000 451.217
30.76000 444.588
30.77000 448.125
30.78000 459.126
30.79000 469.918
30.80000 469.040
30.81000 462.658
30.82000 457.089
30.83000 463.625
30.84000 474.201
30.85000 484.366
30.86000 491.111
30.87000 497.093
30.88000 502.210
30.89000 504.656
30.90000 506.397
30.91000 511.218
30.92000 526.565
30.93000 542.788
30.94000 557.733
30.95000 569.723
30.96000 581.595
30.97000 588.865
30.98000 616.140
30.99000 635.836
31.00000 659.153
31.01000 686.170
31.02000 713.312
31.03000 752.964
31.04000 800.940
31.05000 847.725
31.06000 889.612
31.07000 927.516
31.08000 966.749
31.09000 1022.906
31.10000 1084.202
31.11000 1148.547
31.12000 1235.281
31.13000 1326.524
31.14000 1403.184
31.15000 1496.999
31.16000 1576.968
31.17000 1660.309
31.18000 1754.132
31.19000 1848.705
31.20000 1949.886
31.21000 2064.990
31.22000 2180.539
31.23000 2248.469
31.24000 2408.723
31.25000 2522.192
31.26000 2612.446
31.27000 2681.416
31.28000 2750.202
31.29000 2806.708
31.30000 2855.798
31.31000 2903.349
31.32000 2949.063
31.33000 2991.602
31.34000 3032.467
31.35000 3054.884
31.36000 3072.210
31.37000 3083.286
31.38000 3053.471
31.39000 3016.243
31.40000 2985.557
31.41000 2906.592
31.42000 2837.159
31.43000 2769.217
31.44000 2705.492
31.45000 2642.024
31.46000 2567.657
31.47000 2472.376
31.48000 2376.578
31.49000 2322.681
31.50000 2186.153
31.51000 2091.190
31.52000 2004.711
31.53000 1925.237
31.54000 1845.516
31.55000 1754.005
31.56000 1656.020
31.57000 1561.815
31.58000 1487.574
31.59000 1424.976
31.60000 1362.461
31.61000 1300.734
31.62000 1239.204
31.63000 1180.427
31.64000 1137.774
31.65000 1097.743
31.66000 1065.412
31.67000 1009.963
31.68000 963.043
31.69000 919.055
31.70000 882.622
31.71000 846.572
31.72000 810.581
31.73000 774.693
31.74000 738.806
31.75000 719.551
31.76000 707.449
31.77000 699.157
31.78000 683.876
31.79000 663.381
31.80000 642.856
31.81000 621.293
31.82000 599.211
31.83000 578.158
31.84000 560.866
31.85000 546.011
31.86000 532.406
31.87000 529.371
31.88000 528.733
31.89000 525.443
31.90000 508.201
31.91000 488.932
31.92000 473.705
31.93000 473.003
31.94000 473.432
31.95000 471.065
31.96000 462.131
31.97000 452.923
31.98000 445.731
31.99000 441.737
32.00000 437.783
32.01000 435.767
32.02000 429.800
32.03000 425.822
32.04000 424.742
32.05000 425.621
32.06000 426.435
32.07000 425.429
32.08000 423.595
32.09000 421.862
32.10000 410.503
32.11000 397.352
32.12000 386.702
32.13000 394.769
32.14000 406.670
32.15000 414.780
32.16000 404.904
32.17000 392.706
32.18000 383.287
32.19000 391.230
32.20000 398.537
32.21000 403.470
32.22000 403.326
32.23000 403.012
32.24000 400.947
32.25000 396.361
32.26000 391.755
32.27000 388.648
32.28000 386.940
32.29000 385.344
32.30000 391.675
32.31000 402.869
32.32000 413.546
32.33000 412.500
32.34000 406.593
32.35000 401.069
32.36000 389.012
32.37000 376.400
32.38000 365.250
32.39000 363.843
32.40000 364.232
32.41000 365.419
32.42000 370.024
32.43000 375.019
32.44000 378.781
32.45000 381.034
32.46000 382.723
32.47000 381.414
32.48000 374.265
32.49000 366.965
32.50000 366.461
32.51000 374.811
32.52000 383.190
32.53000 385.858
32.54000 383.738
32.55000 381.568
32.56000 376.895
32.57000 370.828
32.58000 365.222
32.59000 368.254
32.60000 374.550
32.61000 380.374
32.62000 380.179
32.63000 378.630
32.64000 376.951
32.65000 374.507
32.66000 371.935
32.67000 369.091
32.68000 365.187
32.69000 361.177
32.70000 358.235
32.71000 368.043
32.72000 376.136
32.73000 378.248
32.74000 369.758
32.75000 361.064
32.76000 360.268
32.77000 368.760
32.78000 377.245
32.79000 383.607
32.80000 388.329
32.81000 392.969
32.82000 394.600
32.83000 394.702
32.84000 395.439
32.85000 406.141
32.86000 420.273
32.87000 433.188
32.88000 431.403
32.89000 426.809
32.90000 421.499
32.91000 412.353
32.92000 402.640
32.93000 397.102
32.94000 406.287
32.95000 416.756
32.96000 424.222
32.97000 408.721
32.98000 396.148
32.99000 390.295
33.00000 395.269
33.01000 400.388
33.02000 397.648
33.03000 386.591
33.04000 375.587
33.05000 376.306
33.06000 384.973
33.07000 393.185
33.08000 388.134
33.09000 376.953
33.10000 366.249
33.11000 361.933
33.12000 359.616
33.13000 357.526
33.14000 362.338
33.15000 367.826
33.16000 371.934
33.17000 369.394
33.18000 365.977
33.19000 363.618
33.20000 364.647
33.21000 365.931
33.22000 366.820
33.23000 354.754
33.24000 345.339
33.25000 342.099
33.26000 347.883
33.27000 353.744
33.28000 355.331
33.29000 352.858
33.30000 350.406
33.31000 349.239
33.32000 348.879
33.33000 348.460
33.34000 346.644
33.35000 344.240
33.36000 341.979
33.37000 341.362
33.38000 341.213
33.39000 341.080
33.40000 339.401
33.41000 337.691
33.42000 336.530
33.43000 337.758
33.44000 339.265
33.45000 341.476
33.46000 345.744
33.47000 350.143
33.48000 353.091
33.49000 348.897
33.50000 345.642
33.51000 344.258
33.52000 345.348
33.53000 346.447
33.54000 345.427
33.55000 342.599
33.56000 339.804
33.57000 339.086
33.58000 339.532
33.59000 339.999
33.60000 340.879
33.61000 341.917
33.62000 342.403
33.63000 337.344
33.64000 330.852
33.65000 325.163
33.66000 332.082
33.67000 339.843
33.68000 346.392
33.69000 348.155
33.70000 349.429
33.71000 349.909
33.72000 348.280
33.73000 346.539
33.74000 345.411
33.75000 347.071
33.76000 348.327
33.77000 347.542
33.78000 344.316
33.79000 341.070
33.80000 334.178
33.81000 324.476
33.82000 314.934
33.83000 317.187
33.84000 325.246
33.85000 333.210
33.86000 339.659
33.87000 345.578
33.88000 350.161
33.89000 342.984
33.90000 333.053
33.91000 324.488
33.92000 329.659
33.93000 335.799
33.94000 339.439
33.95000 334.119
33.96000 328.000
33.97000 322.539
33.98000 318.672
33.99000 314.876
34.00000 312.507
34.01000 322.800
34.02000 330.354
34.03000 334.356
34.04000 334.536
34.05000 334.717
34.06000 335.213
34.07000 335.930
34.08000 336.631
34.09000 336.511
34.10000 336.027
34.11000 335.546
34.12000 335.102
34.13000 334.670
34.14000 334.135
34.15000 332.802
34.16000 331.301
34.17000 330.028
34.18000 333.620
34.19000 337.177
34.20000 340.174
34.21000 341.346
34.22000 342.378
34.23000 342.690
34.24000 341.418
34.25000 340.089
34.26000 339.292
34.27000 332.296
34.28000 327.285
34.29000 326.268
34.30000 329.109
34.31000 331.918
34.32000 332.178
34.33000 330.826
34.34000 329.511
34.35000 328.959
34.36000 328.745
34.37000 328.570
34.38000 328.872
34.39000 329.311
34.40000 329.605
34.41000 328.894
34.42000 327.992
34.43000 327.241
34.44000 325.868
34.45000 324.669
34.46000 323.689
34.47000 323.353
34.48000 323.060
34.49000 322.272
34.50000 320.491
34.51000 318.682
34.52000 317.642
34.53000 319.928
34.54000 321.543
34.55000 325.803
34.56000 332.360
34.57000 338.772
34.58000 337.091
34.59000 330.757
34.60000 324.645
34.61000 318.680
34.62000 313.119
34.63000 308.471
34.64000 313.189
34.65000 320.367
34.66000 326.549
34.67000 326.588
34.68000 325.573
34.69000 324.745
34.70000 319.096
34.71000 314.064
34.72000 311.021
34.73000 313.346
34.74000 315.968
34.75000 317.599
34.76000 317.419
34.77000 317.200
34.78000 317.080
34.79000 326.126
34.80000 332.342
34.81000 331.584
34.82000 325.363
34.83000 319.318
34.84000 320.500
34.85000 325.465
34.86000 330.217
34.87000 328.784
34.88000 325.402
34.89000 321.950
34.90000 317.862
34.91000 313.622
34.92000 309.675
34.93000 307.347
34.94000 305.268
34.95000 303.607
34.96000 311.056
34.97000 317.745
34.98000 321.229
34.99000 316.840
35.00000 312.089
35.01000 309.337
35.02000 309.907
35.03000 310.528
35.04000 310.853
35.05000 312.709
35.06000 313.935
35.07000 310.777
35.08000 304.512
35.09000 298.591
35.10000 303.526
35.11000 313.632
35.12000 323.223
35.13000 320.836
35.14000 315.065
35.15000 309.534
35.16000 305.898
35.17000 302.670
35.18000 300.623
35.19000 304.466
35.20000 309.114
35.21000 312.744
35.22000 310.483
35.23000 308.307
35.24000 306.958
35.25000 307.458
35.26000 308.027
35.27000 308.152
35.28000 307.608
35.29000 307.057
35.30000 309.960
35.31000 316.258
35.32000 322.460
35.33000 320.246
35.34000 312.623
35.35000 305.296
35.36000 305.400
35.37000 308.729
35.38000 311.857
35.39000 311.208
35.40000 309.604
35.41000 308.212
35.42000 308.326
35.43000 308.731
35.44000 308.693
35.45000 306.656
35.46000 304.377
35.47000 302.640
35.48000 315.624
35.49000 326.635
35.50000 331.413
35.51000 323.486
35.52000 315.186
35.53000 311.117
35.54000 312.832
35.55000 314.581
35.56000 315.017
35.57000 314.294
35.58000 313.536
35.59000 310.667
35.60000 306.565
35.61000 302.661
35.62000 302.805
35.63000 304.550
35.64000 306.172
35.65000 309.286
35.66000 312.458
35.67000 314.074
35.68000 305.903
35.69000 296.024
35.70000 289.136
35.71000 294.435
35.72000 301.036
35.73000 305.941
35.74000 298.175
35.75000 291.574
35.76000 288.919
35.77000 293.587
35.78000 298.419
35.79000 304.367
35.80000 311.695
35.81000 319.015
35.82000 317.245
35.83000 308.276
35.84000 299.532
35.85000 300.370
35.86000 306.299
35.87000 311.866
35.88000 311.264
35.89000 308.440
35.90000 305.844
35.91000 304.438
35.92000 303.439
35.93000 302.465
35.94000 301.628
35.95000 300.812
35.96000 299.972
35.97000 299.044
35.98000 298.107
35.99000 297.430
36.00000 299.395
36.01000 300.999
36.02000 301.052
36.03000 298.488
36.04000 295.882
36.05000 298.141
36.06000 305.821
36.07000 313.476
36.08000 314.742
36.09000 311.435
36.10000 308.213
36.11000 307.769
36.12000 308.668
36.13000 309.173
36.14000 303.981
36.15000 296.921
36.16000 290.512
36.17000 291.962
36.18000 294.762
36.19000 296.699
36.20000 294.262
36.21000 291.216
36.22000 289.334
36.23000 291.360
36.24000 293.702
36.25000 295.347
36.26000 298.666
36.27000 301.228
36.28000 301.625
36.29000 298.704
36.30000 295.747
36.31000 297.713
36.32000 304.605
36.33000 311.452
36.34000 306.583
36.35000 294.248
36.36000 282.564
36.37000 287.772
36.38000 300.421
36.39000 311.998
36.40000 310.293
36.41000 304.627
36.42000 299.551
36.43000 298.023
36.44000 297.301
36.45000 297.029
36.46000 298.821
36.47000 300.868
36.48000 302.268
36.49000 301.693
36.50000 300.981
36.51000 300.496
36.52000 297.265
36.53000 294.788
36.54000 293.455
36.55000 293.708
36.56000 293.972
36.57000 293.624
36.58000 292.726
36.59000 291.836
36.60000 292.477
36.61000 293.992
36.62000 295.455
36.63000 295.840
36.64000 295.792
36.65000 295.582
36.66000 293.639
36.67000 291.227
36.68000 289.098
36.69000 290.018
36.70000 291.280
36.71000 293.160
36.72000 297.602
36.73000 302.324
36.74000 306.076
36.75000 307.137
36.76000 308.039
36.77000 308.633
36.78000 296.677
36.79000 287.652
36.80000 285.641
36.81000 292.444
36.82000 299.263
36.83000 301.517
36.84000 300.076
36.85000 298.654
36.86000 298.595
36.87000 299.251
36.88000 299.934
36.89000 301.106
36.90000 302.456
36.91000 303.103
36.92000 297.156
36.93000 289.589
36.94000 283.011
36.95000 287.310
36.96000 292.453
36.97000 295.689
36.98000 291.763
36.99000 287.155
37.00000 285.544
37.01000 291.525
37.02000 297.877
37.03000 301.914
37.04000 300.562
37.05000 299.514
37.06000 300.551
37.07000 303.950
37.08000 307.320
37.09000 305.508
37.10000 299.902
37.11000 294.404
37.12000 297.003
37.13000 303.337
37.14000 308.997
37.15000 304.670
37.16000 297.018
37.17000 290.067
37.18000 288.901
37.19000 289.021
37.20000 289.123
37.21000 295.547
37.22000 301.719
37.23000 306.106
37.24000 304.410
37.25000 302.209
37.26000 301.357
37.27000 303.615
37.28000 305.997
37.29000 307.455
37.30000 299.372
37.31000 293.509
37.32000 291.747
37.33000 294.163
37.34000 296.547
37.35000 295.766
37.36000 292.885
37.37000 290.077
37.38000 292.325
37.39000 296.630
37.40000 300.229
37.41000 294.878
37.42000 286.816
37.43000 279.983
37.44000 282.133
37.45000 286.088
37.46000 289.408
37.47000 283.784
37.48000 278.159
37.49000 274.147
37.50000 275.133
37.51000 276.475
37.52000 277.943
37.53000 279.674
37.54000 281.414
37.55000 282.436
37.56000 280.329
37.57000 278.829
37.58000 278.749
37.59000 279.967
37.60000 281.129
37.61000 278.523
37.62000 273.648
37.63000 268.927
37.64000 271.542
37.65000 276.844
37.66000 281.971
37.67000 285.191
37.68000 287.885
37.69000 290.262
37.70000 290.565
37.71000 290.494
37.72000 290.436
37.73000 280.088
37.74000 270.632
37.75000 265.298
37.76000 271.597
37.77000 278.598
37.78000 283.361
37.79000 283.842
37.80000 284.218
37.81000 284.429
37.82000 280.771
37.83000 278.237
37.84000 281.680
37.85000 290.043
37.86000 298.257
37.87000 299.447
37.88000 296.790
37.89000 294.235
37.90000 293.113
37.91000 292.560
37.92000 291.793
37.93000 288.987
37.94000 285.671
37.95000 283.121
37.96000 285.040
37.97000 287.683
37.98000 289.816
37.99000 285.103
38.00000 280.729
38.01000 278.797
38.02000 283.135
38.03000 287.790
38.04000 290.023
38.05000 288.040
38.06000 285.982
38.07000 284.878
38.08000 296.932
38.09000 305.132
38.10000 306.271
38.11000 302.158
38.12000 298.133
38.13000 297.217
38.14000 297.851
38.15000 298.456
38.16000 305.272
38.17000 313.538
38.18000 320.164
38.19000 312.969
38.20000 302.651
38.21000 294.061
38.22000 294.537
38.23000 296.325
38.24000 297.738
38.25000 304.210
38.26000 309.750
38.27000 312.130
38.28000 307.112
38.29000 301.788
38.30000 300.385
38.31000 305.181
38.32000 310.054
38.33000 312.535
38.34000 311.984
38.35000 311.702
38.36000 320.727
38.37000 336.026
38.38000 350.998
38.39000 356.859
38.40000 358.584
38.41000 360.213
38.42000 366.855
38.43000 374.364
38.44000 381.292
38.45000 383.891
38.46000 385.605
38.47000 388.797
38.48000 398.973
38.49000 410.048
38.50000 418.592
38.51000 430.745
38.52000 440.585
38.53000 450.675
38.54000 461.299
38.55000 471.941
38.56000 478.886
38.57000 480.526
38.58000 482.124
38.59000 483.618
38.60000 485.016
38.61000 486.430
38.62000 488.978
38.63000 492.220
38.64000 495.300
38.65000 494.738
38.66000 492.669
38.67000 490.735
38.68000 491.342
38.69000 492.538
38.70000 492.874
38.71000 487.500
38.72000 481.077
38.73000 475.656
38.74000 474.521
38.75000 473.874
38.76000 473.386
38.77000 469.734
38.78000 466.724
38.79000 461.673
38.80000 452.660
38.81000 443.545
38.82000 432.008
38.83000 417.324
38.84000 402.642
38.85000 388.439
38.86000 374.674
38.87000 361.136
38.88000 358.807
38.89000 362.709
38.90000 366.096
38.91000 359.884
38.92000 350.054
38.93000 340.966
38.94000 338.870
38.95000 338.580
38.96000 336.056
38.97000 320.261
38.98000 302.275
38.99000 288.266
39.00000 289.655
39.01000 292.581
39.02000 294.726
39.03000 296.647
39.04000 298.121
39.05000 299.076
39.06000 299.113
39.07000 299.132
39.08000 298.486
39.09000 297.062
39.10000 295.640
39.11000 289.547
39.12000 279.987
39.13000 270.860
39.14000 277.816
39.15000 292.910
39.16000 306.607
39.17000 298.481
39.18000 282.865
39.19000 268.599
39.20000 272.742
39.21000 280.177
39.22000 285.623
39.23000 280.465
39.24000 273.743
39.25000 269.987
39.26000 276.661
39.27000 284.241
39.28000 289.642
39.29000 279.078
39.30000 270.506
39.31000 267.547
39.32000 273.604
39.33000 279.782
39.34000 281.189
39.35000 277.565
39.36000 273.958
39.37000 271.209
39.38000 269.072
39.39000 267.023
39.40000 267.488
39.41000 269.113
39.42000 270.485
39.43000 268.502
39.44000 265.471
39.45000 262.737
39.46000 264.348
39.47000 266.554
39.48000 267.823
39.49000 264.584
39.50000 260.754
39.51000 258.046
39.52000 258.922
39.53000 260.067
39.54000 260.859
39.55000 255.305
39.56000 250.965
39.57000 249.429
39.58000 251.980
39.59000 254.566
39.60000 260.267
39.61000 268.914
39.62000 277.490
39.63000 278.017
39.64000 273.624
39.65000 269.322
39.66000 267.143
39.67000 265.854
39.68000 264.874
39.69000 267.444
39.70000 271.021
39.71000 274.202
39.72000 274.302
39.73000 273.890
39.74000 274.363
39.75000 278.681
39.76000 283.446
39.77000 284.645
39.78000 275.477
39.79000 265.647
39.80000 259.067
39.81000 259.309
39.82000 259.624
39.83000 261.333
39.84000 264.883
39.85000 268.436
39.86000 268.138
39.87000 264.564
39.88000 261.032
39.89000 261.825
39.90000 264.979
39.91000 267.857
39.92000 265.446
39.93000 261.012
39.94000 256.994
39.95000 257.129
39.96000 258.334
39.97000 259.390
39.98000 262.529
39.99000 265.523
40.00000 268.050
40.01000 268.744
40.02000 269.251
40.03000 268.779
40.04000 265.711
40.05000 262.503
40.06000 260.429
40.07000 259.577
40.08000 258.972
40.09000 258.850
40.10000 259.303
40.11000 259.769
40.12000 263.039
40.13000 268.463
40.14000 273.797
40.15000 270.943
40.16000 264.114
40.17000 257.889
40.18000 261.366
40.19000 268.223
40.20000 273.796
40.21000 268.108
40.22000 259.790
40.23000 252.620
40.24000 250.006
40.25000 248.370
40.26000 247.379
40.27000 248.693
40.28000 250.211
40.29000 250.990
40.30000 249.988
40.31000 248.906
40.32000 248.233
40.33000 246.137
40.34000 244.612
40.35000 246.058
40.36000 250.692
40.37000 255.266
40.38000 252.168
40.39000 243.734
40.40000 235.487
40.41000 236.736
40.42000 242.194
40.43000 247.300
40.44000 247.607
40.45000 246.392
40.46000 244.539
40.47000 237.738
40.48000 229.892
40.49000 223.246
40.50000 230.026
40.51000 237.209
40.52000 242.883
40.53000 243.659
40.54000 244.059
40.55000 245.023
40.56000 247.228
40.57000 249.478
40.58000 250.825
40.59000 246.413
40.60000 243.242
40.61000 244.899
40.62000 251.203
40.63000 257.397
40.64000 254.902
40.65000 246.924
40.66000 239.171
40.67000 238.432
40.68000 240.571
40.69000 242.410
40.70000 240.742
40.71000 238.063
40.72000 235.867
40.73000 237.000
40.74000 238.767
40.75000 240.236
40.76000 238.133
40.77000 236.043
40.78000 234.398
40.79000 234.069
40.80000 233.827
40.81000 236.203
40.82000 243.820
40.83000 251.583
40.84000 256.041
40.85000 254.285
40.86000 253.040
40.87000 255.438
40.88000 260.991
40.89000 266.370
40.90000 262.184
40.91000 252.512
40.92000 243.181
40.93000 239.426
40.94000 237.930
40.95000 237.325
40.96000 245.822
40.97000 256.701
40.98000 265.598
40.99000 262.297
41.00000 256.910
41.01000 252.518
41.02000 243.870
41.03000 236.437
41.04000 231.833
41.05000 234.836
41.06000 238.258
41.07000 238.840
41.08000 234.246
41.09000 229.542
41.10000 226.962
41.11000 233.028
41.12000 237.202
41.13000 238.188
41.14000 236.684
41.15000 235.261
41.16000 237.152
41.17000 240.770
41.18000 244.233
41.19000 241.350
41.20000 236.571
41.21000 232.396
41.22000 233.627
41.23000 236.141
41.24000 239.187
41.25000 245.171
41.26000 251.605
41.27000 256.742
41.28000 250.706
41.29000 245.013
41.30000 242.154
41.31000 246.239
41.32000 250.640
41.33000 254.084
41.34000 255.940
41.35000 257.772
41.36000 258.728
41.37000 257.019
41.38000 255.850
41.39000 252.895
41.40000 248.679
41.41000 244.406
41.42000 238.344
41.43000 231.433
41.44000 224.876
41.45000 223.928
41.46000 224.718
41.47000 226.514
41.48000 236.255
41.49000 247.700
41.50000 256.644
41.51000 253.153
41.52000 247.967
41.53000 243.919
41.54000 243.479
41.55000 243.354
41.56000 242.385
41.57000 239.533
41.58000 236.611
41.59000 236.900
41.60000 242.023
41.61000 247.193
41.62000 246.679
41.63000 240.595
41.64000 234.582
41.65000 234.564
41.66000 238.389
41.67000 242.168
41.68000 244.813
41.69000 246.969
41.70000 248.994
41.71000 247.635
41.72000 245.492
41.73000 243.218
41.74000 240.023
41.75000 236.650
41.76000 233.771
41.77000 233.111
41.78000 232.718
41.79000 232.420
41.80000 230.749
41.81000 229.362
41.82000 229.136
41.83000 231.273
41.84000 233.479
41.85000 234.267
41.86000 233.120
41.87000 231.962
41.88000 234.000
41.89000 238.846
41.90000 243.594
41.91000 242.703
41.92000 238.528
41.93000 234.350
41.94000 230.102
41.95000 225.827
41.96000 221.853
41.97000 223.653
41.98000 226.664
41.99000 229.201
42.00000 228.776
42.01000 227.834
42.02000 227.803
42.03000 231.470
42.04000 235.530
42.05000 238.545
42.06000 236.569
42.07000 234.812
42.08000 233.598
42.09000 233.386
42.10000 233.196
42.11000 234.235
42.12000 236.789
42.13000 239.343
42.14000 239.567
42.15000 237.948
42.16000 236.331
42.17000 234.782
42.18000 233.270
42.19000 231.737
42.20000 229.846
42.21000 227.827
42.22000 225.971
42.23000 228.328
42.24000 231.339
42.25000 234.049
42.26000 235.071
42.27000 235.829
42.28000 236.356
42.29000 236.028
42.30000 235.621
42.31000 235.326
42.32000 234.620
42.33000 234.063
42.34000 234.289
42.35000 235.835
42.36000 237.403
42.37000 238.559
42.38000 239.260
42.39000 239.958
42.40000 237.356
42.41000 232.429
42.42000 227.620
42.43000 226.641
42.44000 227.510
42.45000 228.318
42.46000 228.256
42.47000 227.909
42.48000 227.594
42.49000 223.573
42.50000 219.311
42.51000 216.099
42.52000 218.202
42.53000 221.043
42.54000 223.571
42.55000 225.051
42.56000 226.446
42.57000 227.425
42.58000 227.669
42.59000 227.832
42.60000 228.251
42.61000 229.062
42.62000 229.877
42.63000 231.547
42.64000 234.070
42.65000 236.576
42.66000 235.628
42.67000 232.478
42.68000 229.398
42.69000 228.133
42.70000 227.667
42.71000 226.944
42.72000 223.065
42.73000 218.247
42.74000 213.933
42.75000 219.729
42.76000 226.525
42.77000 232.144
42.78000 232.397
42.79000 231.989
42.80000 231.248
42.81000 229.496
42.82000 227.673
42.83000 226.434
42.84000 232.998
42.85000 238.076
42.86000 239.681
42.87000 236.476
42.88000 233.242
42.89000 232.669
42.90000 234.479
42.91000 236.271
42.92000 237.915
42.93000 239.438
42.94000 240.655
42.95000 235.452
42.96000 227.678
42.97000 220.715
42.98000 222.404
42.99000 226.429
43.00000 229.982
43.01000 228.201
43.02000 225.851
43.03000 224.891
43.04000 229.673
43.05000 235.078
43.06000 237.666
43.07000 232.447
43.08000 226.771
43.09000 223.038
43.10000 232.521
43.11000 239.730
43.12000 241.150
43.13000 235.318
43.14000 229.479
43.15000 229.187
43.16000 233.372
43.17000 237.496
43.18000 235.289
43.19000 229.841
43.20000 224.781
43.21000 226.517
43.22000 230.730
43.23000 233.988
43.24000 228.333
43.25000 220.495
43.26000 213.684
43.27000 212.905
43.28000 213.056
43.29000 213.937
43.30000 217.552
43.31000 221.427
43.32000 223.889
43.33000 222.787
43.34000 221.510
43.35000 220.700
43.36000 225.935
43.37000 229.809
43.38000 232.036
43.39000 232.402
43.40000 232.746
43.41000 229.746
43.42000 224.306
43.43000 218.971
43.44000 218.076
43.45000 219.307
43.46000 220.891
43.47000 227.665
43.48000 236.162
43.49000 243.068
43.50000 236.891
43.51000 227.814
43.52000 220.059
43.53000 220.671
43.54000 222.185
43.55000 224.229
43.56000 228.074
43.57000 232.067
43.58000 233.444
43.59000 228.801
43.60000 223.920
43.61000 220.938
43.62000 222.882
43.63000 224.313
43.64000 225.048
43.65000 225.077
43.66000 225.142
43.67000 228.809
43.68000 234.857
43.69000 240.753
43.70000 244.668
43.71000 247.560
43.72000 249.847
43.73000 244.489
43.74000 236.822
43.75000 230.049
43.76000 229.793
43.77000 230.841
43.78000 231.721
43.79000 230.002
43.80000 228.299
43.81000 225.680
43.82000 220.229
43.83000 214.578
43.84000 211.292
43.85000 212.961
43.86000 214.787
43.87000 215.857
43.88000 228.148
43.89000 236.859
43.90000 240.190
43.91000 238.621
43.92000 237.107
43.93000 239.263
43.94000 243.623
43.95000 247.844
43.96000 244.484
43.97000 238.393
43.98000 232.556
43.99000 229.489
44.00000 227.183
44.01000 225.461
44.02000 227.539
44.03000 230.301
44.04000 232.576
44.05000 227.614
44.06000 222.874
44.07000 220.737
44.08000 225.927
44.09000 231.556
44.10000 233.545
44.11000 228.589
44.12000 223.465
44.13000 220.590
44.14000 221.675
44.15000 222.443
44.16000 225.282
44.17000 229.823
44.18000 234.294
44.19000 235.537
44.20000 235.018
44.21000 234.519
44.22000 235.987
44.23000 238.044
44.24000 239.978
44.25000 240.738
44.26000 241.205
44.27000 241.017
44.28000 237.018
44.29000 232.404
44.30000 228.682
44.31000 230.357
44.32000 232.144
44.33000 232.898
44.34000 231.004
44.35000 228.978
44.36000 229.235
44.37000 233.455
44.38000 237.746
44.39000 240.041
44.40000 249.320
44.41000 255.632
44.42000 257.707
44.43000 256.639
44.44000 255.537
44.45000 253.200
44.46000 250.249
44.47000 247.437
44.48000 247.033
44.49000 247.410
44.50000 248.523
44.51000 255.798
44.52000 264.463
44.53000 271.826
44.54000 272.387
44.55000 271.965
44.56000 271.633
44.57000 279.898
44.58000 287.112
44.59000 292.878
44.60000 295.265
44.61000 297.513
44.62000 301.584
44.63000 308.531
44.64000 315.513
44.65000 319.060
44.66000 335.445
44.67000 346.342
44.68000 348.101
44.69000 343.720
44.70000 339.662
44.71000 344.552
44.72000 353.492
44.73000 361.933
44.74000 376.983
44.75000 392.647
44.76000 406.634
44.77000 408.153
44.78000 407.135
44.79000 407.194
44.80000 412.328
44.81000 418.112
44.82000 422.572
44.83000 427.155
44.84000 430.793
44.85000 435.763
44.86000 443.566
44.87000 451.463
44.88000 458.150
44.89000 463.108
44.90000 468.051
44.91000 471.901
44.92000 474.737
44.93000 477.535
44.94000 477.785
44.95000 476.481
44.96000 475.241
44.97000 475.424
44.98000 476.194
44.99000 476.914
45.00000 483.628
45.01000 491.236
45.02000 496.275
45.03000 484.300
45.04000 469.208
45.05000 455.414
45.06000 447.153
45.07000 439.519
45.08000 433.778
45.09000 438.709
45.10000 443.080
45.11000 442.486
45.12000 432.272
45.13000 421.813
45.14000 416.678
45.15000 418.435
45.16000 420.218
45.17000 414.945
45.18000 403.818
45.19000 392.704
45.20000 382.274
45.21000 372.223
45.22000 362.685
45.23000 362.628
45.24000 366.133
45.25000 369.373
45.26000 364.261
45.27000 357.776
45.28000 351.407
45.29000 345.729
45.30000 340.164
45.31000 333.263
45.32000 321.202
45.33000 308.630
45.34000 299.422
45.35000 304.497
45.36000 308.985
45.37000 310.347
45.38000 306.199
45.39000 301.947
45.40000 298.545
45.41000 296.137
45.42000 293.737
45.43000 294.807
45.44000 298.467
45.45000 301.977
45.46000 299.990
45.47000 295.229
45.48000 290.828
45.49000 292.010
45.50000 295.103
45.51000 297.927
45.52000 293.046
45.53000 287.146
45.54000 281.331
45.55000 275.964
45.56000 270.663
45.57000 265.308
45.58000 259.762
45.59000 254.199
45.60000 250.239
45.61000 249.533
45.62000 249.100
45.63000 249.684
45.64000 251.897
45.65000 254.132
45.66000 251.909
45.67000 245.001
45.68000 238.127
45.69000 238.258
45.70000 243.110
45.71000 247.799
45.72000 247.778
45.73000 245.593
45.74000 243.432
45.75000 241.583
45.76000 239.830
45.77000 238.250
45.78000 235.797
45.79000 233.485
45.80000 232.185
45.81000 235.733
45.82000 239.916
45.83000 241.121
45.84000 232.839
45.85000 223.850
45.86000 217.641
45.87000 221.375
45.88000 224.436
45.89000 226.551
45.90000 227.290
45.91000 228.017
45.92000 227.601
45.93000 226.108
45.94000 224.628
45.95000 223.595
45.96000 222.853
45.97000 222.064
45.98000 220.177
45.99000 217.830
46.00000 215.862
46.01000 218.211
46.02000 221.782
46.03000 224.956
46.04000 227.310
46.05000 229.220
46.06000 230.257
46.07000 227.514
46.08000 224.334
46.09000 221.309
46.10000 218.729
46.11000 216.178
46.12000 214.472
46.13000 217.216
46.14000 219.338
46.15000 220.415
46.16000 220.117
46.17000 219.807
46.18000 216.339
46.19000 210.190
46.20000 204.116
46.21000 200.586
46.22000 198.540
46.23000 196.489
46.24000 194.338
46.25000 192.149
46.26000 190.534
46.27000 194.635
46.28000 200.205
46.29000 205.082
46.30000 203.909
46.31000 202.035
46.32000 201.283
46.33000 204.938
46.34000 209.039
46.35000 211.684
46.36000 210.478
46.37000 209.068
46.38000 208.157
46.39000 204.404
46.40000 201.620
46.41000 201.077
46.42000 203.197
46.43000 205.309
46.44000 204.356
46.45000 201.053
46.46000 197.806
46.47000 200.099
46.48000 205.059
46.49000 209.647
46.50000 208.283
46.51000 204.852
46.52000 201.819
46.53000 202.269
46.54000 203.530
46.55000 204.616
46.56000 202.924
46.57000 201.138
46.58000 200.425
46.59000 203.535
46.60000 206.982
46.61000 207.834
46.62000 202.438
46.63000 196.767
46.64000 193.237
46.65000 198.952
46.66000 203.163
46.67000 206.431
46.68000 208.690
46.69000 210.897
46.70000 206.695
46.71000 198.048
46.72000 189.595
46.73000 189.707
46.74000 193.645
46.75000 197.565
46.76000 201.240
46.77000 204.837
46.78000 207.457
46.79000 202.533
46.80000 196.021
46.81000 190.508
46.82000 192.428
46.83000 194.865
46.84000 196.739
46.85000 196.790
46.86000 196.702
46.87000 195.767
46.88000 192.974
46.89000 190.115
46.90000 188.405
46.91000 194.418
46.92000 198.734
46.93000 197.808
46.94000 191.850
46.95000 186.025
46.96000 190.559
46.97000 201.613
46.98000 212.351
46.99000 211.236
47.00000 205.390
47.01000 199.984
47.02000 199.723
47.03000 200.942
47.04000 201.292
47.05000 195.678
47.06000 188.934
47.07000 183.328
47.08000 189.783
47.09000 196.301
47.10000 200.959
47.11000 200.146
47.12000 198.975
47.13000 197.432
47.14000 195.144
47.15000 192.836
47.16000 191.512
47.17000 189.618
47.18000 188.299
47.19000 191.605
47.20000 198.903
47.21000 206.041
47.22000 204.488
47.23000 197.966
47.24000 191.675
47.25000 195.184
47.26000 202.056
47.27000 207.604
47.28000 199.681
47.29000 188.241
47.30000 178.534
47.31000 179.456
47.32000 182.189
47.33000 184.416
47.34000 184.625
47.35000 184.625
47.36000 183.503
47.37000 179.374
47.38000 175.080
47.39000 175.234
47.40000 183.471
47.41000 191.876
47.42000 196.480
47.43000 193.283
47.44000 191.068
47.45000 187.384
47.46000 182.557
47.47000 177.908
47.48000 180.389
47.49000 186.578
47.50000 192.501
47.51000 190.775
47.52000 186.655
47.53000 183.398
47.54000 187.847
47.55000 194.119
47.56000 199.258
47.57000 198.165
47.58000 196.122
47.59000 194.492
47.60000 188.921
47.61000 184.137
47.62000 181.440
47.63000 183.845
47.64000 186.482
47.65000 186.230
47.66000 181.206
47.67000 176.111
47.68000 173.455
47.69000 181.512
47.70000 186.935
47.71000 188.647
47.72000 187.744
47.73000 186.831
47.74000 185.624
47.75000 184.278
47.76000 183.001
47.77000 180.575
47.78000 177.997
47.79000 176.186
47.80000 180.419
47.81000 185.946
47.82000 189.719
47.83000 184.805
47.84000 178.711
47.85000 173.958
47.86000 184.518
47.87000 193.891
47.88000 198.814
47.89000 193.833
47.90000 188.488
47.91000 187.058
47.92000 191.499
47.93000 195.998
47.94000 196.529
47.95000 193.184
47.96000 189.870
47.97000 189.208
47.98000 190.240
47.99000 191.052
48.00000 186.446
48.01000 179.501
48.02000 172.977
48.03000 177.431
48.04000 184.418
48.05000 190.332
48.06000 188.743
48.07000 185.706
48.08000 183.097
48.09000 182.403
48.10000 181.941
48.11000 181.588
48.12000 179.412
48.13000 177.604
48.14000 176.448
48.15000 176.616
48.16000 176.822
48.17000 177.793
48.18000 179.804
48.19000 181.819
48.20000 183.931
48.21000 186.124
48.22000 188.276
48.23000 188.107
48.24000 186.590
48.25000 185.132
48.26000 184.860
48.27000 185.053
48.28000 185.233
48.29000 182.357
48.30000 179.031
48.31000 176.618
48.32000 179.916
48.33000 184.204
48.34000 187.229
48.35000 185.140
48.36000 182.508
48.37000 180.555
48.38000 179.396
48.39000 178.530
48.40000 177.499
48.41000 176.160
48.42000 174.816
48.43000 175.401
48.44000 178.356
48.45000 181.313
48.46000 183.049
48.47000 183.817
48.48000 184.526
48.49000 182.743
48.50000 179.643
48.51000 176.956
48.52000 181.223
48.53000 187.980
48.54000 194.188
48.55000 194.367
48.56000 193.232
48.57000 191.666
48.58000 187.681
48.59000 183.320
48.60000 180.087
48.61000 180.998
48.62000 182.292
48.63000 183.226
48.64000 182.170
48.65000 181.288
48.66000 182.295
48.67000 186.470
48.68000 190.695
48.69000 190.437
48.70000 185.216
48.71000 180.013
48.72000 177.724
48.73000 177.523
48.74000 177.405
48.75000 179.954
48.76000 183.784
48.77000 187.651
48.78000 192.027
48.79000 196.569
48.80000 200.690
48.81000 190.345
48.82000 178.440
48.83000 169.089
48.84000 172.612
48.85000 177.917
48.86000 181.891
48.87000 181.423
48.88000 180.600
48.89000 180.022
48.90000 182.221
48.91000 183.965
48.92000 183.830
48.93000 180.830
48.94000 177.800
48.95000 175.355
48.96000 173.492
48.97000 171.641
48.98000 175.635
48.99000 183.306
49.00000 190.648
49.01000 189.554
49.02000 184.765
49.03000 180.066
49.04000 176.470
49.05000 173.202
49.06000 170.276
49.07000 174.960
49.08000 180.349
49.09000 184.615
49.10000 183.774
49.11000 182.306
49.12000 181.546
49.13000 182.933
49.14000 184.467
49.15000 185.509
49.16000 178.492
49.17000 173.073
49.18000 171.158
49.19000 174.082
49.20000 177.036
49.21000 180.039
49.22000 183.085
49.23000 186.099
49.24000 184.093
49.25000 179.235
49.26000 174.506
49.27000 172.490
49.28000 171.555
49.29000 170.873
49.30000 172.870
49.31000 175.588
49.32000 177.986
49.33000 175.532
49.34000 172.676
49.35000 171.019
49.36000 174.290
49.37000 178.095
49.38000 181.092
49.39000 181.856
49.40000 182.490
49.41000 182.907
49.42000 184.636
49.43000 185.931
49.44000 183.144
49.45000 175.260
49.46000 167.381
49.47000 166.521
49.48000 171.308
49.49000 176.026
49.50000 176.844
49.51000 175.607
49.52000 174.541
49.53000 176.433
49.54000 179.402
49.55000 181.800
49.56000 178.902
49.57000 174.711
49.58000 171.071
49.59000 174.847
49.60000 179.065
49.61000 182.166
49.62000 181.094
49.63000 179.627
49.64000 178.360
49.65000 177.596
49.66000 176.856
49.67000 176.387
49.68000 177.815
49.69000 178.874
49.70000 177.349
49.71000 172.916
49.72000 168.503
49.73000 167.964
49.74000 170.243
49.75000 172.478
49.76000 178.889
49.77000 187.024
49.78000 194.554
49.79000 193.218
49.80000 188.947
49.81000 184.902
49.82000 182.697
49.83000 180.898
49.84000 179.363
49.85000 176.885
49.86000 174.686
49.87000 173.597
49.88000 176.270
49.89000 179.251
49.90000 180.473
49.91000 177.662
49.92000 174.691
49.93000 172.878
49.94000 173.569
49.95000 174.082
49.96000 175.552
49.97000 177.989
49.98000 180.383
49.99000 178.659
50.00000 174.217
50.01000 169.889
50.02000 169.023
50.03000 169.665
50.04000 170.157
50.05000 168.760
50.06000 166.793
50.07000 165.600
50.08000 170.020
50.09000 175.561
50.10000 180.208
50.11000 180.494
50.12000 180.278
50.13000 181.336
50.14000 186.322
50.15000 191.584
50.16000 194.668
50.17000 193.205
50.18000 191.599
50.19000 190.658
50.20000 186.921
50.21000 184.278
50.22000 184.203
50.23000 186.462
50.24000 188.688
50.25000 188.857
50.26000 187.794
50.27000 186.765
50.28000 191.125
50.29000 197.311
50.30000 202.844
50.31000 201.281
50.32000 197.776
50.33000 195.108
50.34000 197.856
50.35000 201.578
50.36000 204.640
50.37000 203.569
50.38000 202.314
50.39000 203.317
50.40000 210.659
50.41000 218.380
50.42000 222.109
50.43000 218.243
50.44000 214.194
50.45000 211.926
50.46000 223.283
50.47000 231.178
50.48000 235.808
50.49000 237.766
50.50000 239.633
50.51000 237.288
50.52000 232.650
50.53000 228.195
50.54000 229.125
50.55000 231.857
50.56000 234.541
50.57000 236.769
50.58000 238.883
50.59000 241.115
50.60000 244.027
50.61000 247.050
50.62000 249.486
50.63000 241.441
50.64000 234.085
50.65000 229.119
50.66000 230.264
50.67000 231.713
50.68000 230.257
50.69000 223.776
50.70000 217.205
50.71000 213.695
50.72000 219.146
50.73000 222.868
50.74000 226.623
50.75000 230.400
50.76000 234.019
50.77000 232.069
50.78000 227.360
50.79000 222.874
50.80000 223.246
50.81000 225.103
50.82000 226.690
50.83000 226.024
50.84000 224.852
50.85000 223.468
50.86000 220.981
50.87000 218.336
50.88000 216.249
50.89000 216.353
50.90000 216.584
50.91000 215.045
50.92000 209.383
50.93000 203.554
50.94000 199.028
50.95000 196.553
50.96000 194.103
50.97000 192.860
50.98000 189.556
50.99000 187.351
51.00000 185.978
51.01000 185.162
51.02000 184.458
51.03000 186.830
51.04000 190.590
51.05000 194.139
51.06000 193.039
51.07000 190.727
51.08000 189.029
51.09000 191.873
51.10000 195.639
51.11000 198.319
51.12000 195.900
51.13000 192.829
51.14000 190.464
51.15000 184.547
51.16000 179.658
51.17000 177.809
51.18000 182.409
51.19000 187.219
51.20000 186.869
51.21000 179.158
51.22000 171.394
51.23000 169.996
51.24000 174.477
51.25000 178.940
51.26000 182.086
51.27000 184.433
51.28000 186.594
51.29000 184.621
51.30000 180.948
51.31000 177.516
51.32000 173.735
51.33000 170.216
51.34000 167.146
51.35000 167.030
51.36000 167.455
51.37000 168.051
51.38000 169.381
51.39000 170.793
51.40000 171.854
51.41000 176.133
51.42000 179.633
51.43000 181.760
51.44000 181.236
51.45000 180.644
51.46000 177.473
51.47000 170.971
51.48000 164.463
51.49000 164.002
51.50000 168.559
51.51000 172.980
51.52000 170.805
51.53000 164.983
51.54000 159.383
51.55000 157.854
51.56000 157.851
51.57000 157.849
51.58000 160.398
51.59000 163.263
51.60000 165.567
51.61000 164.564
51.62000 163.018
51.63000 162.379
51.64000 165.232
51.65000 168.430
51.66000 170.771
51.67000 170.414
51.68000 170.032
51.69000 168.431
51.70000 164.687
51.71000 160.904
51.72000 158.793
51.73000 158.629
51.74000 158.469
51.75000 159.037
51.76000 160.144
51.77000 161.267
51.78000 162.969
51.79000 164.964
51.80000 166.861
51.81000 167.249
51.82000 167.123
51.83000 167.008
51.84000 169.332
51.85000 171.890
51.86000 173.416
51.87000 169.474
51.88000 164.731
51.89000 161.344
51.90000 162.696
51.91000 164.456
51.92000 165.708
51.93000 162.756
51.94000 160.373
51.95000 159.654
51.96000 161.592
51.97000 163.564
51.98000 163.800
51.99000 162.214
52.00000 160.637
52.01000 163.091
52.02000 168.226
52.03000 173.122
52.04000 171.221
52.05000 166.206
52.06000 161.267
52.07000 157.339
52.08000 153.725
52.09000 150.468
52.10000 154.659
52.11000 159.685
52.12000 163.344
52.13000 160.479
52.14000 156.764
52.15000 153.589
52.16000 152.130
52.17000 150.798
52.18000 149.879
52.19000 157.077
52.20000 162.692
52.21000 163.550
52.22000 157.514
52.23000 151.424
52.24000 151.989
52.25000 158.811
52.26000 165.575
52.27000 167.448
52.28000 166.321
52.29000 165.180
52.30000 163.716
52.31000 162.119
52.32000 160.637
52.33000 160.468
52.34000 160.670
52.35000 160.849
52.36000 161.152
52.37000 161.434
52.38000 161.416
52.39000 160.101
52.40000 158.638
52.41000 157.809
52.42000 158.819
52.43000 159.945
52.44000 160.698
52.45000 158.208
52.46000 156.299
52.47000 155.759
52.48000 157.012
52.49000 158.275
52.50000 160.160
52.51000 162.573
52.52000 164.956
52.53000 165.297
52.54000 164.511
52.55000 163.700
52.56000 162.416
52.57000 160.951
52.58000 159.647
52.59000 159.944
52.60000 160.652
52.61000 161.271
52.62000 162.143
52.63000 162.928
52.64000 163.056
52.65000 160.617
52.66000 157.918
52.67000 156.609
52.68000 158.959
52.69000 161.502
52.70000 163.144
52.71000 162.136
52.72000 161.361
52.73000 159.777
52.74000 157.235
52.75000 154.698
52.76000 153.569
52.77000 153.517
52.78000 153.465
52.79000 155.934
52.80000 159.565
52.81000 162.916
52.82000 161.826
52.83000 159.197
52.84000 156.744
52.85000 155.819
52.86000 155.249
52.87000 154.759
52.88000 157.788
52.89000 160.800
52.90000 162.356
52.91000 158.743
52.92000 154.674
52.93000 151.726
52.94000 151.467
52.95000 151.325
52.96000 151.237
52.97000 158.868
52.98000 164.441
52.99000 164.546
53.00000 158.820
53.01000 153.124
53.02000 151.171
53.03000 151.805
53.04000 152.426
53.05000 154.178
53.06000 156.363
53.07000 158.423
53.08000 158.800
53.09000 158.646
53.10000 158.650
53.11000 159.874
53.12000 161.352
53.13000 162.604
53.14000 162.255
53.15000 161.786
53.16000 160.887
53.17000 158.602
53.18000 156.212
53.19000 154.670
53.20000 154.982
53.21000 155.360
53.22000 155.585
53.23000 153.048
53.24000 151.231
53.25000 152.697
53.26000 157.302
53.27000 161.872
53.28000 163.644
53.29000 163.661
53.30000 163.678
53.31000 161.416
53.32000 158.351
53.33000 155.340
53.34000 152.954
53.35000 150.748
53.36000 148.998
53.37000 150.374
53.38000 152.341
53.39000 153.975
53.40000 157.782
53.41000 161.141
53.42000 163.612
53.43000 163.475
53.44000 163.168
53.45000 162.414
53.46000 160.767
53.47000 159.096
53.48000 158.139
53.49000 163.967
53.50000 168.052
53.51000 165.425
53.52000 157.023
53.53000 148.801
53.54000 150.283
53.55000 157.297
53.56000 164.061
53.57000 163.950
53.58000 161.349
53.59000 158.621
53.60000 154.613
53.61000 150.272
53.62000 146.034
53.63000 142.425
53.64000 138.923
53.65000 136.072
53.66000 142.760
53.67000 149.029
53.68000 154.277
53.69000 156.795
53.70000 159.163
53.71000 159.596
53.72000 156.521
53.73000 153.373
53.74000 151.652
53.75000 153.898
53.76000 155.444
53.77000 155.803
53.78000 155.243
53.79000 154.653
53.80000 152.900
53.81000 150.544
53.82000 148.289
53.83000 147.231
53.84000 146.637
53.85000 146.576
53.86000 151.250
53.87000 157.040
53.88000 161.887
53.89000 161.565
53.90000 160.457
53.91000 159.573
53.92000 158.286
53.93000 157.218
53.94000 157.445
53.95000 160.828
53.96000 164.354
53.97000 164.023
53.98000 157.339
53.99000 150.562
54.00000 147.035
54.01000 151.694
54.02000 154.823
54.03000 155.095
54.04000 153.359
54.05000 151.738
54.06000 153.632
54.07000 157.185
54.08000 160.554
54.09000 159.329
54.10000 156.845
54.11000 154.531
54.12000 153.554
54.13000 152.862
54.14000 152.022
54.15000 150.450
54.16000 148.780
54.17000 147.478
54.18000 146.705
54.19000 146.122
54.20000 147.613
54.21000 153.705
54.22000 159.964
54.23000 161.632
54.24000 156.430
54.25000 151.162
54.26000 150.245
54.27000 153.561
54.28000 156.831
54.29000 156.263
54.30000 153.248
54.31000 150.367
54.32000 150.772
54.33000 152.592
54.34000 154.301
54.35000 154.136
54.36000 153.488
54.37000 153.111
54.38000 154.623
54.39000 156.499
54.40000 157.022
54.41000 151.507
54.42000 145.268
54.43000 140.522
54.44000 148.656
54.45000 155.731
54.46000 159.800
54.47000 157.796
54.48000 155.618
54.49000 154.463
54.50000 154.696
54.51000 154.937
54.52000 155.295
54.53000 155.755
54.54000 156.184
54.55000 154.829
54.56000 152.442
54.57000 150.106
54.58000 148.794
54.59000 147.883
54.60000 147.036
54.61000 148.136
54.62000 149.591
54.63000 150.854
54.64000 150.913
54.65000 150.764
54.66000 150.554
54.67000 150.097
54.68000 149.615
54.69000 149.257
54.70000 156.582
54.71000 162.605
54.72000 164.271
54.73000 157.921
54.74000 151.397
54.75000 149.444
54.76000 153.091
54.77000 156.744
54.78000 157.136
54.79000 154.963
54.80000 152.905
54.81000 155.609
54.82000 160.821
54.83000 165.571
54.84000 162.569
54.85000 156.798
54.86000 151.498
54.87000 152.030
54.88000 153.751
54.89000 155.301
54.90000 155.896
54.91000 156.344
54.92000 157.287
54.93000 160.046
54.94000 162.972
54.95000 165.083
54.96000 164.778
54.97000 164.459
54.98000 162.643
54.99000 158.322
55.00000 153.962
55.01000 153.397
55.02000 157.019
55.03000 160.629
55.04000 160.867
55.05000 158.719
55.06000 156.570
55.07000 154.418
55.08000 152.265
55.09000 150.533
55.10000 154.796
55.11000 161.008
55.12000 166.641
55.13000 165.867
55.14000 163.958
55.15000 161.584
55.16000 156.874
55.17000 151.841
55.18000 149.237
55.19000 154.716
55.20000 160.840
55.21000 165.130
55.22000 162.815
55.23000 160.875
55.24000 158.930
55.25000 156.976
55.26000 155.022
55.27000 155.664
55.28000 158.876
55.29000 162.067
55.30000 163.394
55.31000 163.514
55.32000 163.843
55.33000 169.501
55.34000 177.487
55.35000 184.865
55.36000 184.816
55.37000 182.571
55.38000 180.563
55.39000 178.740
55.40000 177.180
55.41000 177.135
55.42000 183.952
55.43000 191.608
55.44000 197.580
55.45000 198.455
55.46000 198.981
55.47000 199.338
55.48000 200.406
55.49000 201.220
55.50000 205.346
55.51000 214.034
55.52000 222.746
55.53000 225.882
55.54000 224.056
55.55000 222.249
55.56000 226.321
55.57000 233.682
55.58000 241.129
55.59000 250.368
55.60000 260.321
55.61000 269.300
55.62000 267.979
55.63000 263.893
55.64000 260.289
55.65000 270.534
55.66000 281.466
55.67000 292.031
55.68000 301.097
55.69000 310.000
55.70000 319.403
55.71000 330.179
55.72000 341.034
55.73000 348.160
55.74000 353.508
55.75000 357.413
55.76000 361.795
55.77000 366.771
55.78000 371.735
55.79000 372.058
55.80000 368.659
55.81000 365.310
55.82000 370.216
55.83000 379.261
55.84000 387.696
55.85000 385.612
55.86000 379.714
55.87000 374.284
55.88000 373.198
55.89000 373.169
55.90000 373.144
55.91000 380.627
55.92000 388.011
55.93000 392.364
55.94000 385.438
55.95000 377.448
55.96000 372.129
55.97000 373.518
55.98000 375.228
55.99000 376.312
56.00000 363.346
56.01000 353.773
56.02000 349.273
56.03000 350.468
56.04000 351.631
56.05000 346.979
56.06000 338.108
56.07000 329.412
56.08000 326.271
56.09000 325.852
56.10000 324.973
56.11000 317.395
56.12000 307.606
56.13000 298.170
56.14000 291.619
56.15000 285.703
56.16000 280.654
56.17000 274.743
56.18000 269.665
56.19000 264.193
56.20000 257.393
56.21000 250.485
56.22000 246.797
56.23000 250.471
56.24000 254.435
56.25000 256.850
56.26000 245.108
56.27000 236.603
56.28000 231.554
56.29000 229.990
56.30000 228.372
56.31000 221.674
56.32000 211.636
56.33000 201.855
56.34000 200.219
56.35000 202.104
56.36000 203.803
56.37000 203.164
56.38000 201.824
56.39000 200.040
56.40000 195.041
56.41000 189.401
56.42000 184.674
56.43000 187.599
56.44000 190.826
56.45000 193.055
56.46000 192.215
56.47000 191.160
56.48000 189.430
56.49000 186.295
56.50000 183.117
56.51000 181.258
56.52000 174.729
56.53000 170.113
56.54000 167.750
56.55000 167.427
56.56000 167.154
56.57000 170.169
56.58000 175.145
56.59000 179.961
56.60000 175.299
56.61000 167.276
56.62000 159.840
56.63000 158.773
56.64000 159.444
56.65000 159.886
56.66000 158.859
56.67000 157.569
56.68000 156.508
56.69000 156.698
56.70000 156.967
56.71000 156.115
56.72000 152.128
56.73000 147.954
56.74000 148.013
56.75000 156.098
56.76000 164.374
56.77000 169.005
56.78000 164.637
56.79000 161.594
56.80000 160.244
56.81000 160.275
56.82000 160.293
56.83000 159.733
56.84000 158.858
56.85000 158.018
56.86000 153.775
56.87000 148.631
56.88000 144.012
56.89000 144.369
56.90000 145.955
56.91000 148.372
56.92000 155.587
56.93000 163.572
56.94000 170.004
56.95000 160.065
56.96000 150.716
56.97000 143.906
56.98000 143.565
56.99000 143.546
57.00000 143.324
57.01000 142.752
57.02000 142.174
57.03000 141.866
57.04000 141.450
57.05000 141.163
57.06000 140.169
57.07000 138.653
57.08000 137.236
57.09000 139.250
57.10000 142.961
57.11000 146.495
57.12000 150.793
57.13000 155.011
57.14000 157.969
57.15000 150.430
57.16000 140.540
57.17000 133.172
57.18000 138.906
57.19000 146.517
57.20000 152.515
57.21000 151.711
57.22000 150.611
57.23000 148.442
57.24000 143.791
57.25000 139.040
57.26000 138.088
57.27000 143.092
57.28000 148.169
57.29000 150.740
57.30000 150.895
57.31000 150.977
57.32000 148.766
57.33000 145.023
57.34000 141.320
57.35000 138.739
57.36000 136.663
57.37000 134.704
57.38000 135.475
57.39000 136.944
57.40000 138.421
57.41000 139.959
57.42000 141.508
57.43000 143.138
57.44000 145.145
57.45000 147.200
57.46000 148.782
57.47000 146.589
57.48000 144.638
57.49000 143.679
57.50000 144.816
57.51000 146.020
57.52000 146.058
57.53000 144.435
57.54000 142.800
57.55000 141.662
57.56000 140.982
57.57000 140.314
57.58000 140.401
57.59000 140.945
57.60000 141.418
57.61000 140.290
57.62000 138.505
57.63000 136.838
57.64000 139.798
57.65000 143.646
57.66000 146.849
57.67000 145.821
57.68000 144.022
57.69000 141.841
57.70000 138.042
57.71000 134.060
57.72000 131.070
57.73000 142.247
57.74000 151.659
57.75000 155.988
57.76000 150.528
57.77000 144.824
57.78000 141.957
57.79000 142.742
57.80000 143.540
57.81000 141.001
57.82000 135.711
57.83000 130.534
57.84000 130.788
57.85000 134.037
57.86000 137.395
57.87000 142.765
57.88000 148.886
57.89000 154.539
57.90000 157.232
57.91000 158.979
57.92000 159.599
57.93000 153.589
57.94000 146.496
57.95000 140.654
57.96000 139.614
57.97000 139.046
57.98000 138.632
57.99000 138.600
58.00000 138.590
58.01000 138.731
58.02000 139.136
58.03000 139.547
58.04000 139.496
58.05000 138.908
58.06000 138.322
58.07000 139.679
58.08000 142.470
58.09000 145.183
58.10000 145.011
58.11000 143.393
58.12000 141.915
58.13000 142.596
58.14000 144.012
58.15000 145.303
58.16000 141.841
58.17000 137.811
58.18000 134.333
58.19000 133.778
58.20000 133.650
58.21000 133.757
58.22000 134.686
58.23000 135.686
58.24000 136.396
58.25000 136.219
58.26000 136.055
58.27000 136.126
58.28000 136.570
58.29000 137.019
58.30000 136.620
58.31000 135.337
58.32000 134.060
58.33000 133.602
58.34000 133.699
58.35000 133.897
58.36000 136.980
58.37000 141.381
58.38000 145.221
58.39000 141.711
58.40000 135.925
58.41000 130.714
58.42000 130.030
58.43000 130.248
58.44000 130.768
58.45000 132.730
58.46000 134.879
58.47000 136.857
58.48000 138.294
58.49000 139.690
58.50000 140.653
58.51000 143.943
58.52000 146.473
58.53000 146.053
58.54000 141.371
58.55000 136.655
58.56000 134.174
58.57000 133.786
58.58000 133.401
58.59000 133.938
58.60000 135.022
58.61000 136.149
58.62000 138.249
58.63000 140.755
58.64000 143.053
58.65000 142.992
58.66000 142.267
58.67000 141.623
58.68000 136.239
58.69000 130.809
58.70000 127.740
58.71000 134.837
58.72000 143.100
58.73000 147.944
58.74000 142.932
58.75000 137.300
58.76000 133.541
58.77000 136.326
58.78000 138.515
58.79000 141.160
58.80000 144.400
58.81000 147.632
58.82000 145.427
58.83000 138.637
58.84000 131.932
58.85000 130.538
58.86000 132.075
58.87000 133.634
58.88000 135.593
58.89000 137.705
58.90000 139.689
58.91000 140.418
58.92000 140.827
58.93000 141.184
58.94000 142.678
58.95000 144.121
58.96000 144.613
58.97000 141.399
58.98000 137.811
58.99000 136.408
59.00000 140.740
59.01000 145.375
59.02000 148.362
59.03000 144.573
59.04000 141.709
59.05000 140.361
59.06000 140.802
59.07000 141.245
59.08000 141.441
59.09000 141.448
59.10000 141.456
59.11000 139.060
59.12000 135.562
59.13000 132.525
59.14000 136.765
59.15000 143.519
59.16000 148.987
59.17000 143.303
59.18000 135.039
59.19000 127.927
59.20000 127.851
59.21000 128.672
59.22000 129.621
59.23000 131.025
59.24000 132.469
59.25000 135.128
59.26000 140.693
59.27000 146.385
59.28000 149.920
59.29000 135.034
59.30000 124.137
59.31000 119.120
59.32000 120.354
59.33000 121.616
59.34000 126.207
59.35000 133.092
59.36000 139.822
59.37000 139.689
59.38000 136.510
59.39000 133.603
59.40000 134.342
59.41000 136.226
59.42000 137.800
59.43000 136.983
59.44000 135.668
59.45000 134.555
59.46000 138.270
59.47000 141.914
59.48000 143.493
59.49000 138.433
59.50000 132.871
59.51000 129.106
59.52000 129.258
59.53000 129.547
59.54000 129.720
59.55000 138.162
59.56000 144.199
59.57000 145.024
59.58000 140.880
59.59000 136.769
59.60000 135.129
59.61000 135.035
59.62000 134.944
59.63000 137.444
59.64000 140.856
59.65000 143.960
59.66000 143.483
59.67000 141.983
59.68000 140.651
59.69000 140.461
59.70000 140.486
59.71000 140.508
59.72000 134.469
59.73000 128.889
59.74000 124.312
59.75000 122.667
59.76000 121.210
59.77000 119.892
59.78000 118.847
59.79000 117.810
59.80000 117.217
59.81000 128.994
59.82000 137.251
59.83000 140.191
59.84000 138.571
59.85000 136.949
59.86000 135.188
59.87000 133.349
59.88000 131.575
59.89000 128.750
59.90000 125.713
59.91000 123.232
59.92000 126.368
59.93000 130.961
59.94000 135.373
59.95000 138.686
59.96000 141.813
59.97000 144.357
59.98000 141.229
59.99000 138.197
60.00000 135.084
60.01000 131.751
60.02000 128.406
60.03000 127.508
60.04000 131.029
60.05000 134.641
60.06000 136.614
60.07000 132.082
60.08000 128.981
60.09000 131.178
60.10000 137.473
60.11000 143.543
60.12000 140.665
60.13000 133.159
60.14000 125.981
60.15000 129.023
60.16000 135.192
60.17000 140.605
60.18000 139.334
60.19000 136.492
60.20000 134.082
60.21000 134.036
60.22000 134.348
60.23000 134.597
60.24000 135.520
60.25000 136.313
60.26000 136.087
60.27000 133.387
60.28000 130.576
60.29000 128.770
60.30000 128.616
60.31000 128.485
60.32000 128.417
60.33000 133.323
60.34000 136.607
60.35000 136.009
60.36000 132.690
60.37000 129.487
60.38000 129.778
60.39000 131.716
60.40000 133.553
60.41000 132.871
60.42000 131.501
60.43000 130.503
60.44000 132.407
60.45000 134.928
60.46000 136.541
60.47000 133.686
60.48000 130.228
60.49000 127.535
60.50000 134.196
60.51000 140.080
60.52000 141.710
60.53000 133.927
60.54000 125.804
60.55000 124.122
60.56000 132.045
60.57000 140.059
60.58000 142.579
60.59000 139.771
60.60000 136.997
60.61000 137.071
60.62000 138.955
60.63000 140.667
60.64000 138.191
60.65000 133.918
60.66000 129.908
60.67000 130.312
60.68000 131.850
60.69000 132.845
60.70000 130.070
60.71000 126.572
60.72000 124.380
60.73000 127.992
60.74000 132.296
60.75000 135.569
60.76000 134.139
60.77000 132.770
60.78000 131.880
60.79000 131.957
60.80000 132.061
60.81000 131.678
60.82000 130.636
60.83000 129.590
60.84000 130.129
60.85000 132.047
60.86000 133.994
60.87000 137.645
60.88000 142.279
60.89000 146.582
60.90000 144.246
60.91000 139.316
60.92000 134.736
60.93000 130.170
60.94000 126.054
60.95000 123.150
60.96000 127.757
60.97000 133.657
60.98000 138.840
60.99000 141.136
61.00000 143.128
61.01000 144.604
61.02000 140.559
61.03000 137.180
61.04000 135.030
61.05000 135.135
61.06000 135.289
61.07000 135.596
61.08000 136.088
61.09000 136.580
61.10000 137.471
61.11000 138.668
61.12000 139.770
61.13000 136.939
61.14000 132.043
61.15000 127.624
61.16000 131.176
61.17000 137.567
61.18000 143.434
61.19000 145.163
61.20000 145.825
61.21000 146.308
61.22000 145.798
61.23000 145.135
61.24000 144.803
61.25000 145.678
61.26000 146.664
61.27000 147.375
61.28000 147.014
61.29000 146.700
61.30000 147.684
61.31000 150.835
61.32000 154.020
61.33000 152.479
61.34000 145.739
61.35000 139.024
61.36000 135.399
61.37000 133.987
61.38000 132.611
61.39000 132.354
61.40000 132.634
61.41000 133.133
61.42000 136.743
61.43000 141.362
61.44000 145.549
61.45000 146.233
61.46000 146.169
61.47000 145.982
61.48000 145.183
61.49000 144.299
61.50000 148.023
61.51000 167.034
61.52000 187.261
61.53000 201.414
61.54000 218.652
61.55000 231.771
61.56000 249.484
61.57000 274.155
61.58000 298.897
61.59000 311.601
61.60000 312.418
61.61000 313.230
61.62000 320.847
61.63000 332.669
61.64000 344.481
61.65000 356.016
61.66000 367.432
61.67000 378.500
61.68000 385.345
61.69000 390.946
61.70000 395.955
61.71000 388.894
61.72000 380.686
61.73000 371.348
61.74000 356.905
61.75000 341.840
61.76000 328.049
61.77000 318.107
61.78000 308.426
61.79000 301.862
61.80000 278.467
61.81000 260.648
61.82000 244.125
61.83000 229.382
61.84000 214.650
61.85000 201.540
61.86000 189.867
61.87000 178.317
61.88000 170.684
61.89000 165.466
61.90000 160.316
61.91000 156.568
61.92000 153.376
61.93000 150.475
61.94000 150.640
61.95000 151.625
61.96000 152.494
61.97000 152.263
61.98000 151.898
61.99000 152.196
62.00000 155.210
62.01000 158.516
62.02000 159.511
62.03000 154.158
62.04000 148.440
62.05000 144.690
62.06000 149.634
62.07000 153.414
62.08000 154.405
62.09000 151.934
62.10000 149.441
62.11000 143.011
62.12000 133.433
62.13000 123.997
62.14000 129.998
62.15000 143.809
62.16000 156.707
62.17000 153.944
62.18000 145.519
62.19000 137.959
62.20000 138.377
62.21000 140.733
62.22000 142.777
62.23000 142.067
62.24000 141.094
62.25000 141.165
62.26000 145.111
62.27000 149.420
62.28000 151.261
62.29000 146.926
62.30000 142.295
62.31000 139.365
62.32000 146.766
62.33000 152.253
62.34000 153.418
62.35000 149.746
62.36000 146.084
62.37000 144.594
62.38000 144.676
62.39000 144.756
62.40000 145.877
62.41000 147.444
62.42000 148.948
62.43000 149.555
62.44000 149.867
62.45000 150.012
62.46000 148.806
62.47000 147.302
62.48000 146.020
62.49000 141.896
62.50000 138.091
62.51000 135.238
62.52000 135.595
62.53000 136.214
62.54000 137.188
62.55000 138.971
62.56000 140.786
62.57000 141.890
62.58000 145.084
62.59000 147.381
62.60000 145.221
62.61000 138.583
62.62000 132.030
62.63000 133.564
62.64000 140.401
62.65000 147.062
62.66000 146.916
62.67000 143.908
62.68000 141.101
62.69000 140.806
62.70000 141.262
62.71000 142.037
62.72000 145.110
62.73000 148.639
62.74000 151.595
62.75000 151.230
62.76000 150.582
62.77000 150.149
62.78000 150.370
62.79000 150.637
62.80000 150.120
62.81000 147.977
62.82000 145.783
62.83000 144.502
62.84000 147.867
62.85000 150.256
62.86000 151.302
62.87000 151.136
62.88000 150.983
62.89000 151.606
62.90000 152.690
62.91000 153.739
62.92000 154.868
62.93000 155.965
62.94000 156.706
62.95000 153.603
62.96000 149.455
62.97000 145.833
62.98000 145.595
62.99000 145.961
63.00000 146.262
63.01000 148.235
63.02000 150.006
63.03000 151.038
63.04000 150.011
63.05000 148.861
63.06000 149.108
63.07000 151.996
63.08000 154.946
63.09000 156.594
63.10000 155.667
63.11000 155.018
63.12000 153.693
63.13000 151.820
63.14000 149.943
63.15000 147.905
63.16000 145.780
63.17000 143.740
63.18000 148.159
63.19000 154.512
63.20000 159.934
63.21000 156.596
63.22000 151.096
63.23000 146.161
63.24000 144.477
63.25000 143.313
63.26000 142.376
63.27000 145.217
63.28000 147.817
63.29000 150.365
63.30000 152.781
63.31000 155.190
63.32000 155.498
63.33000 152.188
63.34000 148.816
63.35000 147.021
63.36000 146.479
63.37000 146.114
63.38000 146.240
63.39000 146.725
63.40000 147.322
63.41000 151.732
63.42000 158.021
63.43000 164.010
63.44000 162.773
63.45000 159.392
63.46000 156.276
63.47000 155.359
63.48000 154.934
63.49000 154.471
63.50000 153.817
63.51000 153.135
63.52000 152.598
63.53000 159.475
63.54000 165.482
63.55000 166.960
63.56000 157.951
63.57000 148.521
63.58000 144.708
63.59000 149.678
63.60000 154.752
63.61000 157.317
63.62000 156.372
63.63000 155.755
63.64000 156.617
63.65000 158.465
63.66000 160.216
63.67000 159.327
63.68000 157.253
63.69000 155.297
63.70000 154.135
63.71000 153.292
63.72000 152.657
63.73000 153.561
63.74000 154.774
63.75000 155.654
63.76000 154.977
63.77000 154.102
63.78000 153.429
63.79000 153.567
63.80000 153.721
63.81000 154.922
63.82000 158.329
63.83000 161.806
63.84000 161.912
63.85000 157.238
63.86000 152.531
63.87000 150.590
63.88000 151.186
63.89000 151.818
63.90000 154.787
63.91000 159.170
63.92000 163.419
63.93000 164.747
63.94000 164.879
63.95000 165.003
63.96000 164.162
63.97000 163.157
63.98000 162.359
63.99000 162.916
64.00000 163.719
64.01000 164.127
64.02000 162.866
64.03000 161.418
64.04000 160.332
64.05000 165.278
64.06000 169.429
64.07000 171.206
64.08000 168.426
64.09000 165.534
64.10000 166.658
64.11000 172.934
64.12000 179.223
64.13000 177.122
64.14000 168.116
64.15000 159.313
64.16000 160.246
64.17000 166.531
64.18000 172.589
64.19000 174.507
64.20000 174.883
64.21000 175.230
64.22000 177.883
64.23000 180.781
64.24000 183.050
64.25000 181.624
64.26000 179.598
64.27000 177.931
64.28000 177.643
64.29000 177.490
64.30000 177.379
64.31000 169.965
64.32000 163.961
64.33000 164.599
64.34000 176.838
64.35000 189.290
64.36000 192.172
64.37000 183.977
64.38000 175.792
64.39000 171.904
64.40000 171.232
64.41000 170.694
64.42000 175.003
64.43000 181.739
64.44000 188.046
64.45000 187.798
64.46000 185.326
64.47000 183.072
64.48000 177.563
64.49000 172.024
64.50000 168.112
64.51000 172.772
64.52000 178.680
64.53000 182.960
64.54000 181.586
64.55000 179.730
64.56000 178.412
64.57000 176.148
64.58000 174.396
64.59000 174.426
64.60000 177.285
64.61000 180.181
64.62000 182.498
64.63000 184.214
64.64000 185.921
64.65000 189.088
64.66000 193.191
64.67000 197.027
64.68000 193.345
64.69000 186.238
64.70000 179.761
64.71000 181.527
64.72000 185.838
64.73000 189.719
64.74000 195.695
64.75000 201.310
64.76000 205.025
64.77000 199.711
64.78000 193.231
64.79000 188.939
64.80000 191.560
64.81000 194.690
64.82000 196.846
64.83000 195.107
64.84000 193.704
64.85000 194.744
64.86000 199.302
64.87000 203.887
64.88000 204.917
64.89000 202.626
64.90000 200.355
64.91000 202.905
64.92000 208.310
64.93000 213.446
64.94000 212.456
64.95000 208.923
64.96000 205.771
64.97000 206.920
64.98000 209.275
64.99000 211.366
65.00000 215.994
65.01000 220.410
65.02000 224.294
65.03000 225.887
65.04000 227.219
65.05000 229.182
65.06000 232.962
65.07000 236.854
65.08000 239.450
65.09000 243.119
65.10000 245.856
65.11000 249.552
65.12000 254.496
65.13000 259.444
65.14000 263.740
65.15000 267.487
65.16000 271.187
65.17000 271.097
65.18000 268.950
65.19000 267.133
65.20000 271.502
65.21000 278.211
65.22000 284.639
65.23000 288.312
65.24000 291.284
65.25000 293.882
65.26000 301.611
65.27000 308.961
65.28000 315.714
65.29000 320.152
65.30000 324.357
65.31000 326.484
65.32000 323.167
65.33000 319.564
65.34000 317.245
65.35000 326.601
65.36000 333.596
65.37000 342.913
65.38000 354.965
65.39000 366.997
65.40000 373.783
65.41000 376.586
65.42000 379.341
65.43000 383.232
65.44000 387.550
65.45000 391.692
65.46000 393.086
65.47000 393.533
65.48000 393.744
65.49000 391.915
65.50000 389.615
65.51000 387.637
65.52000 392.489
65.53000 397.453
65.54000 404.256
65.55000 417.553
65.56000 431.416
65.57000 440.504
65.58000 438.199
65.59000 435.403
65.60000 433.669
65.61000 453.201
65.62000 467.461
65.63000 481.080
65.64000 494.020
65.65000 507.083
65.66000 534.786
65.67000 572.551
65.68000 609.454
65.69000 666.993
65.70000 731.252
65.71000 796.786
65.72000 879.401
65.73000 967.369
65.74000 1055.111
65.75000 1141.114
65.76000 1226.755
65.77000 1299.146
65.78000 1389.668
65.79000 1467.385
65.80000 1538.733
65.81000 1589.643
65.82000 1639.014
65.83000 1673.687
65.84000 1676.412
65.85000 1678.030
65.86000 1678.994
65.87000 1673.546
65.88000 1669.643
65.89000 1656.199
65.90000 1633.690
65.91000 1611.029
65.92000 1576.803
65.93000 1535.365
65.94000 1495.132
65.95000 1416.939
65.96000 1327.540
65.97000 1236.815
65.98000 1130.780
65.99000 1020.383
66.00000 915.152
66.01000 845.028
66.02000 781.498
66.03000 728.791
66.04000 650.911
66.05000 584.126
66.06000 526.171
66.07000 493.993
66.08000 463.470
66.09000 441.426
66.10000 436.167
66.11000 431.362
66.12000 428.618
66.13000 412.736
66.14000 401.607
66.15000 388.973
66.16000 375.054
66.17000 361.350
66.18000 359.073
66.19000 363.272
66.20000 367.320
66.21000 376.426
66.22000 386.812
66.23000 396.619
66.24000 400.597
66.25000 403.068
66.26000 407.619
66.27000 424.800
66.28000 444.113
66.29000 459.818
66.30000 489.408
66.31000 514.723
66.32000 537.157
66.33000 551.926
66.34000 566.283
66.35000 574.605
66.36000 572.055
66.37000 569.284
66.38000 567.773
66.39000 587.647
66.40000 601.312
66.41000 612.697
66.42000 622.324
66.43000 631.700
66.44000 631.254
66.45000 625.744
66.46000 620.475
66.47000 611.886
66.48000 602.812
66.49000 593.005
66.50000 576.737
66.51000 558.954
66.52000 540.553
66.53000 518.783
66.54000 496.504
66.55000 478.768
66.56000 457.738
66.57000 440.545
66.58000 427.148
66.59000 422.947
66.60000 419.156
66.61000 413.636
66.62000 405.287
66.63000 396.897
66.64000 392.544
66.65000 389.208
66.66000 386.949
66.67000 383.713
66.68000 379.794
66.69000 375.841
66.70000 370.835
66.71000 365.335
66.72000 360.122
66.73000 367.778
66.74000 378.603
66.75000 387.966
66.76000 385.940
66.77000 381.500
66.78000 378.099
66.79000 379.802
66.80000 382.190
66.81000 384.049
66.82000 379.885
66.83000 376.199
66.84000 375.971
66.85000 383.375
66.86000 391.054
66.87000 395.647
66.88000 395.655
66.89000 395.619
66.90000 400.282
66.91000 409.487
66.92000 418.519
66.93000 413.506
66.94000 399.596
66.95000 386.179
66.96000 384.700
66.97000 388.329
66.98000 391.735
66.99000 405.096
67.00000 419.899
67.01000 432.271
67.02000 427.811
67.03000 420.135
67.04000 415.593
67.05000 424.942
67.06000 435.944
67.07000 444.301
67.08000 441.265
67.09000 438.288
67.10000 435.376
67.11000 432.596
67.12000 429.820
67.13000 430.278
67.14000 435.092
67.15000 439.927
67.16000 443.707
67.17000 446.566
67.18000 449.425
67.19000 452.238
67.20000 455.024
67.21000 457.781
67.22000 459.950
67.23000 461.889
67.24000 463.689
67.25000 461.252
67.26000 458.051
67.27000 455.619
67.28000 457.938
67.29000 461.072
67.30000 464.577
67.31000 469.571
67.32000 474.721
67.33000 478.533
67.34000 485.279
67.35000 490.640
67.36000 491.830
67.37000 485.391
67.38000 478.789
67.39000 477.866
67.40000 483.856
67.41000 489.851
67.42000 495.270
67.43000 500.212
67.44000 504.982
67.45000 502.712
67.46000 496.755
67.47000 491.273
67.48000 493.671
67.49000 498.867
67.50000 503.635
67.51000 506.648
67.52000 508.962
67.53000 512.031
67.54000 519.288
67.55000 527.188
67.56000 534.661
67.57000 540.577
67.58000 546.351
67.59000 550.509
67.60000 543.883
67.61000 538.428
67.62000 535.169
67.63000 535.561
67.64000 536.009
67.65000 540.460
67.66000 549.298
67.67000 558.103
67.68000 558.461
67.69000 552.882
67.70000 547.569
67.71000 550.679
67.72000 557.805
67.73000 564.612
67.74000 566.932
67.75000 567.802
67.76000 568.590
67.77000 573.266
67.78000 578.127
67.79000 583.714
67.80000 592.924
67.81000 602.631
67.82000 609.214
67.83000 605.465
67.84000 600.898
67.85000 597.706
67.86000 595.992
67.87000 594.738
67.88000 595.282
67.89000 598.540
67.90000 601.825
67.91000 611.363
67.92000 627.054
67.93000 642.635
67.94000 646.797
67.95000 643.660
67.96000 640.673
67.97000 641.447
67.98000 643.855
67.99000 646.388
68.00000 650.437
68.01000 654.931
68.02000 658.949
68.03000 666.336
68.04000 673.344
68.05000 679.754
68.06000 683.466
68.07000 686.850
68.08000 688.521
68.09000 685.034
68.10000 681.199
68.11000 678.601
68.12000 688.306
68.13000 695.812
68.14000 701.378
68.15000 704.289
68.16000 707.190
68.17000 715.355
68.18000 728.174
68.19000 740.857
68.20000 744.000
68.21000 741.619
68.22000 739.464
68.23000 741.909
68.24000 746.174
68.25000 750.786
68.26000 759.042
68.27000 768.270
68.28000 776.399
68.29000 782.802
68.30000 788.058
68.31000 795.200
68.32000 810.033
68.33000 825.688
68.34000 837.561
68.35000 839.075
68.36000 839.996
68.37000 840.600
68.38000 850.849
68.39000 858.542
68.40000 867.051
68.41000 876.572
68.42000 886.098
68.43000 896.527
68.44000 907.674
68.45000 918.654
68.46000 929.742
68.47000 940.553
68.48000 952.279
68.49000 979.637
68.50000 1012.630
68.51000 1044.439
68.52000 1065.364
68.53000 1083.655
68.54000 1099.516
68.55000 1138.672
68.56000 1175.115
68.57000 1209.505
68.58000 1236.303
68.59000 1262.391
68.60000 1297.525
68.61000 1355.238
68.62000 1414.024
68.63000 1451.171
68.64000 1564.967
68.65000 1648.326
68.66000 1730.496
68.67000 1811.339
68.68000 1892.147
68.69000 1967.674
68.70000 2039.394
68.71000 2109.673
68.72000 2197.317
68.73000 2289.711
68.74000 2381.695
68.75000 2467.731
68.76000 2551.816
68.77000 2638.984
68.78000 2751.139
68.79000 2868.766
68.80000 2969.054
68.81000 3120.575
68.82000 3254.075
68.83000 3404.269
68.84000 3610.546
68.85000 3821.369
68.86000 4094.913
68.87000 4511.090
68.88000 4932.782
68.89000 5189.170
68.90000 6459.624
68.91000 7374.630
68.92000 9033.795
68.93000 11438.309
68.94000 13859.972
68.95000 17874.025
68.96000 22928.908
68.97000 27852.500
68.98000 34779.117
68.99000 42224.984
69.00000 49652.742
69.01000 56856.105
69.02000 63992.484
69.03000 70850.305
69.04000 75705.891
69.05000 80165.773
69.06000 83900.148
69.07000 85971.281
69.08000 87521.711
69.09000 88835.008
69.10000 89423.773
69.11000 89962.180
69.12000 90615.547
69.13000 91507.047
69.14000 92405.852
69.15000 92930.156
69.16000 94033.813
69.17000 94811.703
69.18000 94383.852
69.19000 92871.602
69.20000 91340.094
69.21000 88608.297
69.22000 85164.016
69.23000 81832.023
69.24000 77133.672
69.25000 72177.805
69.26000 67272.867
69.27000 62914.727
69.28000 58704.859
69.29000 54720.664
69.30000 52182.973
69.31000 49902.465
69.32000 48029.480
69.33000 46760.305
69.34000 45772.215
69.35000 44636.676
69.36000 43090.984
69.37000 41521.160
69.38000 39523.922
69.39000 36720.559
69.40000 33898.266
69.41000 32323.672
69.42000 27486.645
69.43000 24131.896
69.44000 20813.131
69.45000 17523.529
69.46000 14249.972
69.47000 11698.942
69.48000 9537.957
69.49000 7463.373
69.50000 6124.173
69.51000 5123.393
69.52000 4167.537
69.53000 3633.300
69.54000 3202.755
69.55000 2802.711
69.56000 2577.785
69.57000 2380.768
69.58000 2222.262
69.59000 2088.703
69.60000 1982.304
69.61000 1882.050
69.62000 1797.363
69.63000 1713.439
69.64000 1645.384
69.65000 1604.553
69.66000 1564.189
69.67000 1542.726
69.68000 1448.852
69.69000 1384.999
69.70000 1336.747
69.71000 1299.927
69.72000 1263.102
69.73000 1226.115
69.74000 1189.049
69.75000 1153.766
69.76000 1143.146
69.77000 1140.922
69.78000 1136.651
69.79000 1115.469
69.80000 1090.522
69.81000 1064.868
69.82000 1035.560
69.83000 1005.734
69.84000 982.260
69.85000 971.329
69.86000 963.407
69.87000 953.621
69.88000 939.533
69.89000 925.272
69.90000 911.721
69.91000 899.279
69.92000 886.849
69.93000 880.574
69.94000 847.114
69.95000 824.825
69.96000 811.604
69.97000 804.404
69.98000 797.485
69.99000 798.158
70.00000 802.231
