20.00000 541.586
20.01000 550.791
20.02000 561.311
20.03000 568.047
20.04000 559.997
20.05000 550.454
20.06000 543.441
20.07000 545.439
20.08000 547.352
20.09000 549.080
20.10000 550.478
20.11000 551.870
20.12000 548.638
20.13000 539.936
20.14000 531.245
20.15000 535.544
20.16000 549.666
20.17000 563.580
20.18000 569.608
20.19000 571.611
20.20000 573.480
20.21000 573.223
20.22000 572.229
20.23000 571.320
20.24000 561.394
20.25000 550.712
20.26000 541.475
20.27000 540.021
20.28000 539.727
20.29000 539.273
20.30000 538.250
20.31000 537.178
20.32000 536.412
20.33000 545.179
20.34000 552.187
20.35000 556.489
20.36000 556.404
20.37000 556.260
20.38000 555.508
20.39000 554.111
20.40000 552.721
20.41000 552.862
20.42000 554.048
20.43000 555.158
20.44000 554.007
20.45000 551.805
20.46000 549.992
20.47000 553.441
20.48000 558.548
20.49000 563.159
20.50000 562.464
20.51000 560.876
20.52000 558.891
20.53000 554.982
20.54000 550.818
20.55000 547.107
20.56000 544.853
20.57000 542.710
20.58000 541.224
20.59000 544.930
20.60000 547.858
20.61000 545.011
20.62000 533.674
20.63000 522.264
20.64000 525.034
20.65000 541.353
20.66000 557.543
20.67000 554.369
20.68000 539.326
20.69000 525.080
20.70000 529.755
20.71000 542.441
20.72000 554.360
20.73000 557.344
20.74000 557.770
20.75000 558.150
20.76000 555.202
20.77000 552.096
20.78000 549.600
20.79000 549.785
20.80000 550.284
20.81000 551.612
20.82000 555.371
20.83000 559.287
20.84000 561.917
20.85000 550.934
20.86000 542.501
20.87000 535.401
20.88000 530.079
20.89000 524.783
20.90000 532.394
20.91000 551.098
20.92000 569.582
20.93000 568.099
20.94000 555.559
20.95000 543.577
20.96000 542.468
20.97000 545.553
20.98000 548.416
20.99000 549.022
21.00000 549.042
21.01000 549.059
21.02000 547.023
21.03000 544.975
21.04000 544.594
21.05000 550.833
21.06000 557.756
21.07000 558.442
21.08000 542.469
21.09000 525.587
21.10000 514.634
21.11000 539.109
21.12000 557.566
21.13000 564.776
21.14000 558.452
21.15000 552.110
21.16000 548.329
21.17000 546.533
21.18000 544.766
21.19000 545.347
21.20000 547.087
21.21000 548.701
21.22000 548.254
21.23000 547.084
21.24000 546.018
21.25000 545.871
21.26000 545.940
21.27000 546.000
21.28000 545.090
21.29000 544.192
21.30000 543.135
21.31000 541.508
21.32000 539.830
21.33000 537.759
21.34000 534.734
21.35000 531.667
21.36000 529.748
21.37000 534.789
21.38000 538.501
21.39000 539.731
21.40000 538.272
21.41000 536.822
21.42000 536.598
21.43000 537.234
21.44000 537.857
21.45000 539.229
21.46000 540.883
21.47000 542.597
21.48000 545.134
21.49000 547.933
21.50000 550.365
21.51000 549.918
21.52000 548.857
21.53000 547.957
21.54000 549.672
21.55000 551.407
21.56000 552.204
21.57000 549.929
21.58000 547.415
21.59000 547.667
21.60000 554.051
21.61000 560.658
21.62000 564.632
21.63000 568.485
21.64000 571.224
21.65000 571.784
21.66000 570.226
21.67000 568.678
21.68000 567.978
21.69000 567.818
21.70000 567.662
21.71000 575.307
21.72000 585.767
21.73000 595.242
21.74000 592.987
21.75000 587.321
21.76000 582.687
21.77000 585.236
21.78000 589.165
21.79000 592.437
21.80000 601.509
21.81000 609.601
21.82000 615.646
21.83000 615.594
21.84000 615.138
21.85000 619.261
21.86000 632.632
21.87000 646.268
21.88000 654.129
21.89000 669.785
21.90000 680.773
21.91000 688.446
21.92000 693.221
21.93000 698.133
21.94000 710.811
21.95000 727.982
21.96000 744.559
21.97000 748.985
21.98000 748.671
21.99000 748.167
22.00000 745.688
22.01000 742.689
22.02000 740.052
22.03000 739.667
22.04000 739.671
22.05000 739.674
22.06000 746.917
22.07000 753.469
22.08000 759.395
22.09000 763.623
22.10000 767.755
22.11000 764.599
22.12000 748.043
22.13000 731.197
22.14000 721.917
22.15000 708.171
22.16000 698.701
22.17000 692.134
22.18000 687.854
22.19000 683.668
22.20000 683.398
22.21000 685.189
22.22000 686.904
22.23000 687.529
22.24000 687.749
22.25000 686.706
22.26000 674.219
22.27000 658.993
22.28000 644.685
22.29000 635.498
22.30000 627.102
22.31000 620.387
22.32000 618.724
22.33000 617.755
22.34000 616.603
22.35000 614.997
22.36000 613.371
22.37000 609.173
22.38000 600.676
22.39000 592.112
22.40000 587.621
22.41000 594.737
22.42000 599.499
22.43000 594.898
22.44000 583.620
22.45000 572.726
22.46000 574.096
22.47000 581.341
22.48000 588.221
22.49000 579.869
22.50000 567.592
22.51000 556.416
22.52000 554.030
22.53000 553.548
22.54000 553.053
22.55000 552.496
22.56000 551.931
22.57000 551.489
22.58000 546.045
22.59000 541.381
22.60000 535.234
22.61000 525.749
22.62000 516.138
22.63000 515.431
22.64000 528.237
22.65000 541.184
22.66000 544.249
22.67000 537.537
22.68000 530.856
22.69000 527.006
22.70000 524.986
22.71000 523.147
22.72000 525.915
22.73000 530.693
22.74000 535.187
22.75000 532.686
22.76000 528.513
22.77000 524.836
22.78000 524.671
22.79000 525.192
22.80000 526.570
22.81000 531.832
22.82000 537.568
22.83000 541.948
22.84000 531.949
22.85000 523.294
22.86000 517.224
22.87000 516.454
22.88000 515.842
22.89000 513.305
22.90000 508.119
22.91000 502.920
22.92000 502.195
22.93000 505.443
22.94000 508.659
22.95000 509.932
22.96000 510.065
22.97000 510.346
22.98000 513.680
22.99000 518.228
23.00000 522.461
23.01000 507.179
23.02000 488.638
23.03000 473.610
23.04000 480.817
23.05000 491.931
23.06000 500.192
23.07000 496.756
23.08000 492.062
23.09000 488.567
23.10000 488.436
23.11000 488.486
23.12000 492.333
23.13000 503.268
23.14000 514.365
23.15000 515.605
23.16000 504.584
23.17000 493.546
23.18000 489.688
23.19000 491.574
23.20000 493.470
23.21000 495.736
23.22000 498.200
23.23000 500.884
23.24000 507.369
23.25000 515.231
23.26000 522.464
23.27000 514.772
23.28000 504.653
23.29000 496.102
23.30000 496.442
23.31000 498.182
23.32000 499.862
23.33000 501.317
23.34000 502.750
23.35000 503.789
23.36000 501.954
23.37000 500.439
23.38000 499.589
23.39000 499.870
23.40000 500.170
23.41000 494.152
23.42000 481.052
23.43000 467.992
23.44000 468.437
23.45000 478.578
23.46000 488.726
23.47000 499.109
23.48000 509.604
23.49000 519.129
23.50000 514.492
23.51000 505.186
23.52000 496.730
23.53000 487.476
23.54000 479.144
23.55000 473.549
23.56000 481.929
23.57000 492.270
23.58000 499.672
23.59000 497.152
23.60000 493.820
23.61000 491.477
23.62000 496.112
23.63000 499.831
23.64000 499.687
23.65000 493.584
23.66000 487.414
23.67000 487.113
23.68000 492.723
23.69000 498.297
23.70000 497.318
23.71000 492.111
23.72000 487.167
23.73000 489.159
23.74000 494.224
23.75000 498.575
23.76000 494.008
23.77000 486.766
23.78000 480.273
23.79000 487.110
23.80000 495.398
23.81000 501.269
23.82000 496.021
23.83000 489.387
23.84000 484.413
23.85000 484.537
23.86000 485.018
23.87000 485.346
23.88000 485.604
23.89000 485.795
23.90000 489.211
23.91000 497.135
23.92000 505.083
23.93000 502.739
23.94000 491.090
23.95000 479.555
23.96000 479.232
23.97000 485.462
23.98000 491.468
23.99000 492.690
24.00000 491.981
24.01000 491.301
24.02000 490.941
24.03000 490.669
24.04000 490.428
24.05000 494.405
24.06000 498.491
24.07000 501.950
24.08000 502.798
24.09000 503.360
24.10000 503.497
24.11000 502.450
24.12000 501.332
24.13000 500.594
24.14000 490.784
24.15000 483.392
24.16000 480.293
24.17000 482.622
24.18000 484.966
24.19000 485.840
24.20000 485.518
24.21000 485.201
24.22000 480.422
24.23000 473.427
24.24000 466.996
24.25000 470.561
24.26000 477.802
24.27000 484.713
24.28000 488.503
24.29000 491.521
24.30000 494.148
24.31000 491.742
24.32000 488.999
24.33000 485.783
24.34000 480.782
24.35000 475.609
24.36000 473.059
24.37000 477.185
24.38000 481.642
24.39000 484.480
24.40000 482.189
24.41000 480.458
24.42000 478.378
24.43000 475.897
24.44000 473.419
24.45000 471.274
24.46000 469.377
24.47000 467.515
24.48000 470.424
24.49000 475.498
24.50000 479.910
24.51000 474.434
24.52000 465.647
24.53000 458.658
24.54000 466.618
24.55000 477.923
24.56000 487.598
24.57000 488.715
24.58000 488.624
24.59000 486.795
24.60000 479.007
24.61000 470.720
24.62000 469.743
24.63000 485.724
24.64000 502.391
24.65000 512.610
24.66000 510.254
24.67000 508.458
24.68000 498.998
24.69000 481.681
24.70000 464.528
24.71000 464.332
24.72000 475.451
24.73000 486.296
24.74000 486.876
24.75000 483.020
24.76000 479.652
24.77000 482.534
24.78000 487.320
24.79000 491.182
24.80000 488.241
24.81000 483.925
24.82000 480.296
24.83000 477.161
24.84000 474.601
24.85000 472.269
24.86000 470.650
24.87000 469.083
24.88000 468.070
24.89000 468.229
24.90000 468.425
24.91000 468.541
24.92000 473.668
24.93000 477.312
24.94000 480.127
24.95000 482.181
24.96000 484.155
24.97000 480.707
24.98000 473.975
24.99000 467.452
25.00000 470.668
25.01000 477.489
25.02000 483.525
25.03000 480.894
25.04000 475.864
25.05000 471.750
25.06000 473.654
25.07000 476.652
25.08000 479.125
25.09000 476.582
25.10000 474.024
25.11000 469.897
25.12000 461.316
25.13000 452.464
25.14000 448.573
25.15000 454.229
25.16000 460.123
25.17000 463.444
25.18000 466.734
25.19000 469.020
25.20000 472.024
25.21000 475.621
25.22000 479.195
25.23000 481.623
25.24000 483.419
25.25000 485.147
25.26000 477.997
25.27000 468.190
25.28000 459.267
25.29000 458.866
25.30000 460.605
25.31000 462.280
25.32000 463.577
25.33000 464.812
25.34000 465.810
25.35000 468.292
25.36000 470.430
25.37000 470.185
25.38000 463.786
25.39000 457.073
25.40000 453.412
25.41000 455.096
25.42000 456.877
25.43000 457.834
25.44000 461.845
25.45000 464.598
25.46000 469.433
25.47000 475.827
25.48000 481.991
25.49000 479.841
25.50000 473.524
25.51000 467.498
25.52000 467.387
25.53000 469.148
25.54000 470.412
25.55000 467.453
25.56000 463.533
25.57000 459.456
25.58000 454.546
25.59000 449.514
25.60000 445.535
25.61000 454.717
25.62000 462.997
25.63000 466.480
25.64000 458.668
25.65000 450.382
25.66000 446.216
25.67000 448.602
25.68000 451.073
25.69000 452.334
25.70000 461.245
25.71000 467.167
25.72000 466.187
25.73000 460.531
25.74000 455.001
25.75000 453.079
25.76000 452.803
25.77000 452.542
25.78000 448.833
25.79000 444.448
25.80000 440.869
25.81000 443.335
25.82000 447.043
25.83000 449.774
25.84000 447.858
25.85000 445.339
25.86000 443.393
25.87000 451.980
25.88000 459.405
25.89000 461.895
25.90000 453.795
25.91000 445.339
25.92000 441.366
25.93000 443.864
25.94000 446.413
25.95000 446.925
25.96000 445.529
25.97000 444.146
25.98000 443.637
25.99000 443.665
26.00000 443.559
26.01000 440.383
26.02000 435.930
26.03000 431.764
26.04000 440.054
26.05000 450.766
26.06000 459.568
26.07000 455.600
26.08000 449.269
26.09000 445.029
26.10000 449.785
26.11000 455.571
26.12000 459.933
26.13000 442.338
26.14000 427.483
26.15000 423.068
26.16000 439.052
26.17000 455.567
26.18000 462.114
26.19000 455.637
26.20000 449.109
26.21000 444.525
26.22000 441.587
26.23000 438.866
26.24000 447.156
26.25000 461.604
26.26000 475.165
26.27000 472.046
26.28000 462.605
26.29000 453.870
26.30000 446.788
26.31000 440.804
26.32000 436.450
26.33000 441.845
26.34000 448.859
26.35000 454.208
26.36000 453.073
26.37000 451.285
26.38000 449.973
26.39000 454.732
26.40000 458.657
26.41000 460.461
26.42000 458.496
26.43000 456.458
26.44000 449.407
26.45000 436.442
26.46000 423.500
26.47000 424.933
26.48000 437.221
26.49000 449.245
26.50000 451.319
26.51000 448.327
26.52000 445.175
26.53000 439.506
26.54000 432.968
26.55000 426.991
26.56000 432.662
26.57000 440.094
26.58000 446.667
26.59000 448.630
26.60000 449.909
26.61000 450.180
26.62000 446.889
26.63000 443.286
26.64000 440.714
26.65000 437.015
26.66000 434.156
26.67000 432.928
26.68000 434.336
26.69000 435.779
26.70000 437.949
26.71000 440.890
26.72000 443.817
26.73000 442.021
26.74000 437.029
26.75000 432.242
26.76000 433.462
26.77000 437.467
26.78000 441.531
26.79000 446.395
26.80000 451.508
26.81000 456.124
26.82000 451.082
26.83000 444.880
26.84000 439.839
26.85000 440.416
26.86000 441.734
26.87000 442.352
26.88000 440.714
26.89000 438.905
26.90000 437.652
26.91000 445.137
26.92000 450.999
26.93000 452.332
26.94000 447.022
26.95000 441.654
26.96000 434.942
26.97000 426.951
26.98000 419.023
26.99000 422.329
27.00000 432.472
27.01000 441.985
27.02000 436.654
27.03000 425.054
27.04000 414.680
27.05000 418.504
27.06000 426.381
27.07000 433.392
27.08000 432.523
27.09000 430.480
27.10000 428.116
27.11000 424.349
27.12000 420.418
27.13000 420.675
27.14000 433.181
27.15000 446.477
27.16000 455.396
27.17000 445.024
27.18000 436.936
27.19000 435.882
27.20000 444.171
27.21000 452.489
27.22000 450.036
27.23000 438.358
27.24000 426.817
27.25000 423.134
27.26000 423.893
27.27000 424.665
27.28000 425.678
27.29000 426.783
27.30000 427.683
27.31000 426.524
27.32000 424.831
27.33000 423.346
27.34000 423.590
27.35000 424.050
27.36000 424.084
27.37000 422.430
27.38000 420.602
27.39000 420.381
27.40000 424.442
27.41000 428.735
27.42000 431.517
27.43000 433.149
27.44000 434.326
27.45000 435.575
27.46000 436.908
27.47000 438.221
27.48000 434.485
27.49000 426.845
27.50000 419.331
27.51000 422.173
27.52000 430.103
27.53000 437.795
27.54000 441.642
27.55000 444.141
27.56000 445.830
27.57000 440.350
27.58000 433.187
27.59000 427.007
27.60000 424.666
27.61000 423.173
27.62000 423.706
27.63000 431.514
27.64000 439.975
27.65000 444.486
27.66000 439.414
27.67000 433.913
27.68000 430.477
27.69000 428.268
27.70000 426.688
27.71000 428.042
27.72000 432.566
27.73000 437.019
27.74000 432.175
27.75000 420.824
27.76000 409.720
27.77000 410.248
27.78000 416.006
27.79000 421.438
27.80000 422.386
27.81000 421.904
27.82000 421.978
27.83000 426.397
27.84000 431.739
27.85000 436.269
27.86000 430.709
27.87000 424.908
27.88000 419.552
27.89000 415.647
27.90000 411.855
27.91000 410.090
27.92000 412.806
27.93000 415.685
27.94000 417.414
27.95000 422.905
27.96000 426.834
27.97000 427.861
27.98000 426.077
27.99000 424.269
28.00000 420.529
28.01000 415.562
28.02000 410.734
28.03000 419.876
28.04000 434.261
28.05000 446.669
28.06000 435.631
28.07000 417.795
28.08000 402.427
28.09000 404.180
28.10000 409.212
28.11000 413.401
28.12000 422.739
28.13000 430.983
28.14000 435.244
28.15000 427.676
28.16000 419.325
28.17000 417.603
28.18000 429.229
28.19000 441.235
28.20000 448.146
28.21000 433.080
28.22000 422.461
28.23000 419.761
28.24000 423.961
28.25000 428.081
28.26000 427.709
28.27000 424.747
28.28000 421.889
28.29000 416.972
28.30000 411.586
28.31000 406.806
28.32000 408.274
28.33000 411.387
28.34000 413.817
28.35000 412.005
28.36000 409.463
28.37000 407.389
28.38000 419.583
28.39000 430.786
28.40000 438.538
28.41000 436.956
28.42000 434.854
28.43000 428.634
28.44000 414.866
28.45000 400.935
28.46000 393.273
28.47000 395.562
28.48000 397.159
28.49000 399.919
28.50000 403.595
28.51000 407.264
28.52000 410.721
28.53000 414.065
28.54000 417.268
28.55000 414.399
28.56000 409.711
28.57000 405.753
28.58000 408.394
28.59000 412.611
28.60000 415.498
28.61000 410.997
28.62000 405.359
28.63000 400.852
28.64000 401.692
28.65000 402.768
28.66000 405.366
28.67000 411.717
28.68000 418.241
28.69000 419.022
28.70000 410.229
28.71000 401.289
28.72000 396.608
28.73000 404.033
28.74000 409.009
28.75000 406.023
28.76000 397.374
28.77000 389.123
28.78000 393.495
28.79000 403.898
28.80000 413.773
28.81000 415.484
28.82000 414.623
28.83000 414.072
28.84000 415.995
28.85000 418.452
28.86000 420.463
28.87000 420.244
28.88000 419.720
28.89000 419.310
28.90000 412.293
28.91000 406.275
28.92000 402.969
28.93000 405.749
28.94000 408.757
28.95000 410.347
28.96000 409.791
28.97000 409.214
28.98000 407.739
28.99000 405.377
29.00000 403.042
29.01000 402.985
29.02000 404.398
29.03000 405.802
29.04000 406.976
29.05000 408.049
29.06000 409.059
29.07000 406.102
29.08000 402.334
29.09000 399.366
29.10000 402.049
29.11000 405.831
29.12000 408.340
29.13000 405.097
29.14000 401.153
29.15000 398.144
29.16000 395.027
29.17000 392.566
29.18000 392.992
29.19000 399.321
29.20000 405.826
29.21000 412.230
29.22000 418.495
29.23000 424.757
29.24000 421.520
29.25000 409.883
29.26000 398.433
29.27000 398.113
29.28000 404.312
29.29000 410.056
29.30000 406.413
29.31000 399.049
29.32000 392.197
29.33000 399.040
29.34000 408.530
29.35000 415.757
29.36000 408.706
29.37000 399.155
29.38000 391.830
29.39000 393.601
29.40000 396.349
29.41000 398.392
29.42000 406.395
29.43000 412.886
29.44000 416.976
29.45000 416.596
29.46000 416.116
29.47000 414.436
29.48000 411.268
29.49000 408.101
29.50000 408.121
29.51000 410.676
29.52000 413.142
29.53000 411.707
29.54000 408.195
29.55000 404.561
29.56000 398.823
29.57000 392.326
29.58000 386.351
29.59000 388.005
29.60000 391.136
29.61000 394.360
29.62000 398.115
29.63000 401.952
29.64000 404.553
29.65000 402.571
29.66000 400.159
29.67000 398.413
29.68000 399.401
29.69000 400.259
29.70000 400.511
29.71000 399.737
29.72000 398.946
29.73000 399.986
29.74000 403.073
29.75000 406.150
29.76000 406.643
29.77000 405.280
29.78000 404.117
29.79000 409.540
29.80000 418.157
29.81000 426.228
29.82000 426.380
29.83000 423.929
29.84000 421.702
29.85000 419.683
29.86000 417.940
29.87000 416.510
29.88000 416.671
29.89000 417.054
29.90000 417.855
29.91000 420.064
29.92000 422.387
29.93000 424.020
29.94000 422.241
29.95000 420.794
29.96000 420.578
29.97000 422.255
29.98000 423.954
29.99000 421.795
30.00000 415.764
30.01000 409.771
30.02000 407.974
30.03000 408.912
30.04000 410.031
30.05000 415.913
30.06000 423.898
30.07000 431.376
30.08000 432.546
30.09000 431.829
30.10000 431.187
30.11000 429.256
30.12000 427.347
30.13000 425.553
30.14000 424.288
30.15000 423.088
30.16000 423.929
30.17000 431.017
30.18000 438.541
30.19000 443.668
30.20000 435.793
30.21000 429.608
30.22000 422.511
30.23000 414.143
30.24000 405.769
30.25000 402.410
30.26000 403.569
30.27000 404.718
30.28000 408.657
30.29000 414.138
30.30000 419.226
30.31000 415.941
30.32000 409.286
30.33000 403.824
30.34000 411.207
30.35000 422.078
30.36000 431.682
30.37000 422.411
30.38000 411.504
30.39000 402.687
30.40000 402.548
30.41000 403.359
30.42000 403.849
30.43000 403.440
30.44000 402.978
30.45000 402.674
30.46000 409.090
30.47000 413.935
30.48000 412.539
30.49000 403.278
30.50000 394.018
30.51000 394.961
30.52000 404.192
30.53000 413.293
30.54000 412.643
30.55000 406.887
30.56000 401.947
30.57000 411.405
30.58000 426.142
30.59000 438.651
30.60000 430.196
30.61000 416.574
30.62000 404.728
30.63000 413.106
30.64000 423.012
30.65000 431.470
30.66000 434.478
30.67000 436.963
30.68000 437.802
30.69000 434.463
30.70000 430.919
30.71000 428.664
30.72000 428.434
30.73000 428.292
30.74000 427.326
30.75000 425.422
30.76000 423.512
30.77000 420.686
30.78000 417.187
30.79000 413.754
30.80000 424.160
30.81000 440.749
30.82000 456.455
30.83000 458.993
30.84000 457.136
30.85000 455.656
30.86000 457.295
30.87000 459.630
30.88000 461.627
30.89000 464.160
30.90000 466.361
30.91000 470.568
30.92000 481.638
30.93000 493.279
30.94000 505.505
30.95000 519.085
30.96000 532.718
30.97000 541.068
30.98000 542.186
30.99000 542.925
31.00000 556.182
31.01000 582.228
31.02000 608.302
31.03000 637.018
31.04000 667.491
31.05000 697.208
31.06000 728.796
31.07000 759.765
31.08000 790.629
31.09000 820.164
31.10000 849.296
31.11000 881.719
31.12000 938.315
31.13000 999.780
31.14000 1051.421
31.15000 1095.307
31.16000 1131.050
31.17000 1174.203
31.18000 1240.389
31.19000 1308.222
31.20000 1374.588
31.21000 1437.859
31.22000 1501.031
31.23000 1538.168
31.24000 1646.562
31.25000 1723.359
31.26000 1792.986
31.27000 1856.039
31.28000 1918.884
31.29000 1967.944
31.30000 2008.678
31.31000 2048.134
31.32000 2084.514
31.33000 2117.745
31.34000 2149.260
31.35000 2161.879
31.36000 2169.283
31.37000 2175.440
31.38000 2173.445
31.39000 2169.971
31.40000 2167.108
31.41000 2148.302
31.42000 2131.358
31.43000 2111.554
31.44000 2083.657
31.45000 2055.269
31.46000 2010.815
31.47000 1935.535
31.48000 1859.492
31.49000 1816.711
31.50000 1756.804
31.51000 1715.144
31.52000 1658.549
31.53000 1589.620
31.54000 1520.794
31.55000 1456.914
31.56000 1395.751
31.57000 1336.947
31.58000 1277.140
31.59000 1220.755
31.60000 1165.232
31.61000 1117.997
31.62000 1072.838
31.63000 1028.272
31.64000 987.181
31.65000 946.655
31.66000 913.925
31.67000 861.364
31.68000 817.053
31.69000 779.642
31.70000 760.013
31.71000 741.286
31.72000 719.199
31.73000 691.243
31.74000 663.181
31.75000 648.123
31.76000 609.354
31.77000 582.916
31.78000 566.890
31.79000 558.633
31.80000 550.366
31.81000 541.749
31.82000 532.958
31.83000 524.576
31.84000 516.388
31.85000 508.853
31.86000 500.887
31.87000 489.275
31.88000 476.836
31.89000 466.704
31.90000 468.713
31.91000 472.486
31.92000 475.468
31.93000 454.971
31.94000 436.908
31.95000 424.273
31.96000 424.384
31.97000 425.025
31.98000 426.751
31.99000 430.196
32.00000 433.663
32.01000 435.431
32.02000 419.851
32.03000 409.473
32.04000 407.492
32.05000 411.187
32.06000 414.563
32.07000 408.956
32.08000 399.259
32.09000 390.099
32.10000 388.817
32.11000 389.870
32.12000 390.735
32.13000 390.185
32.14000 389.345
32.15000 388.733
32.16000 389.200
32.17000 389.806
32.18000 390.275
32.19000 379.293
32.20000 369.921
32.21000 367.031
32.22000 378.008
32.23000 389.446
32.24000 395.444
32.25000 393.611
32.26000 391.716
32.27000 390.612
32.28000 390.245
32.29000 389.855
32.30000 387.845
32.31000 384.842
32.32000 382.019
32.33000 383.266
32.34000 386.202
32.35000 388.947
32.36000 384.494
32.37000 378.617
32.38000 373.597
32.39000 374.287
32.40000 376.030
32.41000 377.495
32.42000 377.766
32.43000 377.901
32.44000 378.002
32.45000 376.757
32.46000 375.717
32.47000 374.611
32.48000 373.378
32.49000 372.142
32.50000 370.002
32.51000 366.683
32.52000 363.363
32.53000 361.144
32.54000 359.852
32.55000 358.678
32.56000 363.368
32.57000 371.327
32.58000 378.840
32.59000 377.991
32.60000 373.982
32.61000 370.274
32.62000 364.894
32.63000 359.678
32.64000 355.863
32.65000 360.391
32.66000 366.300
32.67000 371.427
32.68000 373.520
32.69000 375.308
32.70000 376.619
32.71000 376.358
32.72000 376.093
32.73000 374.527
32.74000 370.657
32.75000 366.743
32.76000 368.521
32.77000 376.995
32.78000 385.457
32.79000 381.835
32.80000 369.131
32.81000 356.669
32.82000 353.218
32.83000 354.341
32.84000 355.985
32.85000 365.803
32.86000 378.435
32.87000 389.978
32.88000 387.520
32.89000 382.470
32.90000 378.214
32.91000 378.206
32.92000 378.827
32.93000 380.091
32.94000 383.623
32.95000 387.352
32.96000 390.012
32.97000 384.057
32.98000 379.235
32.99000 375.368
33.00000 373.042
33.01000 370.737
33.02000 367.996
33.03000 364.792
33.04000 361.605
33.05000 359.547
33.06000 358.280
33.07000 357.236
33.08000 362.672
33.09000 371.103
33.10000 378.526
33.11000 372.471
33.12000 362.195
33.13000 352.924
33.14000 347.922
33.15000 344.309
33.16000 341.633
33.17000 343.477
33.18000 345.916
33.19000 347.519
33.20000 346.443
33.21000 345.165
33.22000 344.281
33.23000 344.577
33.24000 344.830
33.25000 345.101
33.26000 345.398
33.27000 345.695
33.28000 343.119
33.29000 337.817
33.30000 332.559
33.31000 333.325
33.32000 337.765
33.33000 341.895
33.34000 338.757
33.35000 332.558
33.36000 327.501
33.37000 335.611
33.38000 347.470
33.39000 358.021
33.40000 349.672
33.41000 339.344
33.42000 330.871
33.43000 330.479
33.44000 331.030
33.45000 332.266
33.46000 335.504
33.47000 338.871
33.48000 341.126
33.49000 344.341
33.50000 346.746
33.51000 347.754
33.52000 346.913
33.53000 346.063
33.54000 344.518
33.55000 342.378
33.56000 340.265
33.57000 343.404
33.58000 349.365
33.59000 354.851
33.60000 351.180
33.61000 343.995
33.62000 337.140
33.63000 333.585
33.64000 330.884
33.65000 328.516
33.66000 321.740
33.67000 315.288
33.68000 311.252
33.69000 316.756
33.70000 323.237
33.71000 330.053
33.72000 337.761
33.73000 345.516
33.74000 350.538
33.75000 342.479
33.76000 336.389
33.77000 331.305
33.78000 327.426
33.79000 323.565
33.80000 323.794
33.81000 327.175
33.82000 330.501
33.83000 327.331
33.84000 321.027
33.85000 315.183
33.86000 316.768
33.87000 320.948
33.88000 325.040
33.89000 328.356
33.90000 331.491
33.91000 334.195
33.92000 332.890
33.93000 331.271
33.94000 329.009
33.95000 324.443
33.96000 319.671
33.97000 318.394
33.98000 325.573
33.99000 333.129
34.00000 337.843
34.01000 326.982
34.02000 318.990
34.03000 320.587
34.04000 332.508
34.05000 344.348
34.06000 345.185
34.07000 338.347
34.08000 331.660
34.09000 327.984
34.10000 325.814
34.11000 323.874
34.12000 325.082
34.13000 327.291
34.14000 328.854
34.15000 325.394
34.16000 320.871
34.17000 317.038
34.18000 313.369
34.19000 310.314
34.20000 308.837
34.21000 312.497
34.22000 316.554
34.23000 319.761
34.24000 321.095
34.25000 322.363
34.26000 323.123
34.27000 323.702
34.28000 324.112
34.29000 325.150
34.30000 326.795
34.31000 328.425
34.32000 328.821
34.33000 328.437
34.34000 328.064
34.35000 324.151
34.36000 318.995
34.37000 314.548
34.38000 318.484
34.39000 324.844
34.40000 330.552
34.41000 331.751
34.42000 332.090
34.43000 332.372
34.44000 325.174
34.45000 318.478
34.46000 313.615
34.47000 314.181
34.48000 315.104
34.49000 316.662
34.50000 319.495
34.51000 322.363
34.52000 324.012
34.53000 319.290
34.54000 315.966
34.55000 314.485
34.56000 314.606
34.57000 314.932
34.58000 326.700
34.59000 345.046
34.60000 362.751
34.61000 356.373
34.62000 341.538
34.63000 327.814
34.64000 325.474
34.65000 326.123
34.66000 327.020
34.67000 329.446
34.68000 332.133
34.69000 334.326
34.70000 333.031
34.71000 331.673
34.72000 328.284
34.73000 319.418
34.74000 310.248
34.75000 302.959
34.76000 299.110
34.77000 295.334
34.78000 293.260
34.79000 302.329
34.80000 308.586
34.81000 313.706
34.82000 317.936
34.83000 322.062
34.84000 321.978
34.85000 319.689
34.86000 317.499
34.87000 315.178
34.88000 312.971
34.89000 311.461
34.90000 316.219
34.91000 322.468
34.92000 327.161
34.93000 323.233
34.94000 317.982
34.95000 313.788
34.96000 317.021
34.97000 320.180
34.98000 322.084
34.99000 320.905
35.00000 319.584
35.01000 319.259
35.02000 320.588
35.03000 321.942
35.04000 322.650
35.05000 315.585
35.06000 310.813
35.07000 307.756
35.08000 305.913
35.09000 304.053
35.10000 301.606
35.11000 298.880
35.12000 296.293
35.13000 296.865
35.14000 298.332
35.15000 299.184
35.16000 295.151
35.17000 290.066
35.18000 286.440
35.19000 290.087
35.20000 294.729
35.21000 298.354
35.22000 306.698
35.23000 313.651
35.24000 318.743
35.25000 319.671
35.26000 320.444
35.27000 319.051
35.28000 314.392
35.29000 309.701
35.30000 306.292
35.31000 304.145
35.32000 302.024
35.33000 302.157
35.34000 303.740
35.35000 305.164
35.36000 302.632
35.37000 298.383
35.38000 294.389
35.39000 298.436
35.40000 304.286
35.41000 309.651
35.42000 311.597
35.43000 312.880
35.44000 313.921
35.45000 313.870
35.46000 313.686
35.47000 313.546
35.48000 312.396
35.49000 311.436
35.50000 307.996
35.51000 299.498
35.52000 290.852
35.53000 285.879
35.54000 285.930
35.55000 286.010
35.56000 295.302
35.57000 312.707
35.58000 329.737
35.59000 324.767
35.60000 306.948
35.61000 289.897
35.62000 288.546
35.63000 293.401
35.64000 297.917
35.65000 300.744
35.66000 302.889
35.67000 304.414
35.68000 302.034
35.69000 298.973
35.70000 296.536
35.71000 296.642
35.72000 297.021
35.73000 297.302
35.74000 301.718
35.75000 305.335
35.76000 308.507
35.77000 310.853
35.78000 313.180
35.79000 314.949
35.80000 316.028
35.81000 317.104
35.82000 314.546
35.83000 309.118
35.84000 303.730
35.85000 300.027
35.86000 297.218
35.87000 295.072
35.88000 304.238
35.89000 317.478
35.90000 329.650
35.91000 320.775
35.92000 308.302
35.93000 297.788
35.94000 298.307
35.95000 300.552
35.96000 301.553
35.97000 297.959
35.98000 293.936
35.99000 291.026
36.00000 302.432
36.01000 311.705
36.02000 314.353
36.03000 305.818
36.04000 297.103
36.05000 296.282
36.06000 304.258
36.07000 312.209
36.08000 312.755
36.09000 308.008
36.10000 303.275
36.11000 299.012
36.12000 294.976
36.13000 291.247
36.14000 291.959
36.15000 294.128
36.16000 296.097
36.17000 298.915
36.18000 301.568
36.19000 302.972
36.20000 298.042
36.21000 292.228
36.22000 288.455
36.23000 291.531
36.24000 295.161
36.25000 297.711
36.26000 303.274
36.27000 307.575
36.28000 305.960
36.29000 295.277
36.30000 284.495
36.31000 280.423
36.32000 283.064
36.33000 285.687
36.34000 287.189
36.35000 287.948
36.36000 288.821
36.37000 292.686
36.38000 297.868
36.39000 302.497
36.40000 300.282
36.41000 296.027
36.42000 292.215
36.43000 289.978
36.44000 288.296
36.45000 286.777
36.46000 285.997
36.47000 285.309
36.48000 283.821
36.49000 279.888
36.50000 275.786
36.51000 272.993
36.52000 274.660
36.53000 276.007
36.54000 278.563
36.55000 282.800
36.56000 287.047
36.57000 291.002
36.58000 294.693
36.59000 298.348
36.60000 299.608
36.61000 299.452
36.62000 299.255
36.63000 298.193
36.64000 296.783
36.65000 295.903
36.66000 300.713
36.67000 307.065
36.68000 312.673
36.69000 301.844
36.70000 289.979
36.71000 281.080
36.72000 284.462
36.73000 289.183
36.74000 293.687
36.75000 297.588
36.76000 301.454
36.77000 304.000
36.78000 289.676
36.79000 278.833
36.80000 277.244
36.81000 287.286
36.82000 297.346
36.83000 300.553
36.84000 298.210
36.85000 295.900
36.86000 293.039
36.87000 289.973
36.88000 287.016
36.89000 285.991
36.90000 285.673
36.91000 286.158
36.92000 294.168
36.93000 304.027
36.94000 312.597
36.95000 308.475
36.96000 303.236
36.97000 300.029
36.98000 304.446
36.99000 309.591
37.00000 310.680
37.01000 301.501
37.02000 291.819
37.03000 285.667
37.04000 281.848
37.05000 279.104
37.06000 280.129
37.07000 285.427
37.08000 290.685
37.09000 288.526
37.10000 280.938
37.11000 273.496
37.12000 275.699
37.13000 282.383
37.14000 289.069
37.15000 295.793
37.16000 302.529
37.17000 308.209
37.18000 305.171
37.19000 300.194
37.20000 295.940
37.21000 301.386
37.22000 307.138
37.23000 310.128
37.24000 303.703
37.25000 296.499
37.26000 290.454
37.27000 287.082
37.28000 283.818
37.29000 281.821
37.30000 287.843
37.31000 292.220
37.32000 293.185
37.33000 290.676
37.34000 288.172
37.35000 286.157
37.36000 284.466
37.37000 282.817
37.38000 281.604
37.39000 280.632
37.40000 279.953
37.41000 282.994
37.42000 287.162
37.43000 290.654
37.44000 289.194
37.45000 286.740
37.46000 284.680
37.47000 285.573
37.48000 286.627
37.49000 287.977
37.50000 290.239
37.51000 292.567
37.52000 293.606
37.53000 291.938
37.54000 290.184
37.55000 289.155
37.56000 281.964
37.57000 276.867
37.58000 276.192
37.59000 279.559
37.60000 282.927
37.61000 286.380
37.62000 289.884
37.63000 293.279
37.64000 289.818
37.65000 283.904
37.66000 278.451
37.67000 278.059
37.68000 279.060
37.69000 279.716
37.70000 278.117
37.71000 276.111
37.72000 274.458
37.73000 277.730
37.74000 280.873
37.75000 282.120
37.76000 278.017
37.77000 273.591
37.78000 271.157
37.79000 272.535
37.80000 274.006
37.81000 274.832
37.82000 280.457
37.83000 284.357
37.84000 282.113
37.85000 274.809
37.86000 267.686
37.87000 269.067
37.88000 275.106
37.89000 280.910
37.90000 284.977
37.91000 288.182
37.92000 290.838
37.93000 288.240
37.94000 284.330
37.95000 281.942
37.96000 288.433
37.97000 296.364
37.98000 302.765
37.99000 293.625
38.00000 284.965
38.01000 278.516
38.02000 277.750
38.03000 277.271
38.04000 280.595
38.05000 290.541
38.06000 300.607
38.07000 306.000
38.08000 290.152
38.09000 279.360
38.10000 276.237
38.11000 278.820
38.12000 281.338
38.13000 281.586
38.14000 280.703
38.15000 279.862
38.16000 284.915
38.17000 291.448
38.18000 297.682
38.19000 301.392
38.20000 304.533
38.21000 307.897
38.22000 312.435
38.23000 317.143
38.24000 320.861
38.25000 305.203
38.26000 291.317
38.27000 283.841
38.28000 291.375
38.29000 299.530
38.30000 304.767
38.31000 305.390
38.32000 305.956
38.33000 306.244
38.34000 322.148
38.35000 332.769
38.36000 338.401
38.37000 340.673
38.38000 343.213
38.39000 353.258
38.40000 366.709
38.41000 379.412
38.42000 383.569
38.43000 384.971
38.44000 386.684
38.45000 390.713
38.46000 395.214
38.47000 401.742
38.48000 417.856
38.49000 435.203
38.50000 448.586
38.51000 463.243
38.52000 474.932
38.53000 485.989
38.54000 495.697
38.55000 505.360
38.56000 516.106
38.57000 528.403
38.58000 540.710
38.59000 551.189
38.60000 559.963
38.61000 568.762
38.62000 579.257
38.63000 590.790
38.64000 602.115
38.65000 608.742
38.66000 613.426
38.67000 617.804
38.68000 611.552
38.69000 603.179
38.70000 596.957
38.71000 605.027
38.72000 615.724
38.73000 623.056
38.74000 616.002
38.75000 607.312
38.76000 600.771
38.77000 577.219
38.78000 557.966
38.79000 543.057
38.80000 536.587
38.81000 530.334
38.82000 526.256
38.83000 525.000
38.84000 523.757
38.85000 512.033
38.86000 491.592
38.87000 471.324
38.88000 459.602
38.89000 452.634
38.90000 445.544
38.91000 436.202
38.92000 426.011
38.93000 416.588
38.94000 410.235
38.95000 405.230
38.96000 398.232
38.97000 379.396
38.98000 358.607
38.99000 341.745
39.00000 340.091
39.01000 339.954
39.02000 339.854
39.03000 330.180
39.04000 322.325
39.05000 316.087
39.06000 312.711
39.07000 309.389
39.08000 303.934
39.09000 295.979
39.10000 288.041
39.11000 285.384
39.12000 286.711
39.13000 287.892
39.14000 283.682
39.15000 276.743
39.16000 270.010
39.17000 266.477
39.18000 264.043
39.19000 261.820
39.20000 263.386
39.21000 265.550
39.22000 267.461
39.23000 268.025
39.24000 268.390
39.25000 268.744
39.26000 269.054
39.27000 269.360
39.28000 269.579
39.29000 277.423
39.30000 283.650
39.31000 286.750
39.32000 284.827
39.33000 282.838
39.34000 278.462
39.35000 271.569
39.36000 264.711
39.37000 266.667
39.38000 274.563
39.39000 282.149
39.40000 280.733
39.41000 275.169
39.42000 269.924
39.43000 268.930
39.44000 269.263
39.45000 269.563
39.46000 272.960
39.47000 276.506
39.48000 278.216
39.49000 271.105
39.50000 262.836
39.51000 258.339
39.52000 265.892
39.53000 274.348
39.54000 280.194
39.55000 274.006
39.56000 269.043
39.57000 265.872
39.58000 265.315
39.59000 264.780
39.60000 264.046
39.61000 263.123
39.62000 262.208
39.63000 261.717
39.64000 261.494
39.65000 261.269
39.66000 261.010
39.67000 260.737
39.68000 260.324
39.69000 258.308
39.70000 255.837
39.71000 253.640
39.72000 255.909
39.73000 258.604
39.74000 260.026
39.75000 255.924
39.76000 251.180
39.77000 248.070
39.78000 249.710
39.79000 251.654
39.80000 252.956
39.81000 257.334
39.82000 260.642
39.83000 263.717
39.84000 266.484
39.85000 269.236
39.86000 263.850
39.87000 251.537
39.88000 239.372
39.89000 240.154
39.90000 248.041
39.91000 255.531
39.92000 255.393
39.93000 252.337
39.94000 249.473
39.95000 248.531
39.96000 248.083
39.97000 247.690
39.98000 256.061
39.99000 264.505
40.00000 269.837
40.01000 262.925
40.02000 254.765
40.03000 248.516
40.04000 247.328
40.05000 246.412
40.06000 245.819
40.07000 247.842
40.08000 249.360
40.09000 249.318
40.10000 247.418
40.11000 245.525
40.12000 246.196
40.13000 248.838
40.14000 251.436
40.15000 251.823
40.16000 251.097
40.17000 250.618
40.18000 254.091
40.19000 258.943
40.20000 262.960
40.21000 259.663
40.22000 254.658
40.23000 250.344
40.24000 252.924
40.25000 255.989
40.26000 258.222
40.27000 257.484
40.28000 256.483
40.29000 254.423
40.30000 249.809
40.31000 245.082
40.32000 242.135
40.33000 252.404
40.34000 259.941
40.35000 263.011
40.36000 261.287
40.37000 259.558
40.38000 257.503
40.39000 255.222
40.40000 252.992
40.41000 252.693
40.42000 253.274
40.43000 253.659
40.44000 251.379
40.45000 248.253
40.46000 245.495
40.47000 245.580
40.48000 246.265
40.49000 246.845
40.50000 250.144
40.51000 253.212
40.52000 255.131
40.53000 253.321
40.54000 251.226
40.55000 249.488
40.56000 248.538
40.57000 247.617
40.58000 247.065
40.59000 241.976
40.60000 238.334
40.61000 240.408
40.62000 247.984
40.63000 255.463
40.64000 255.102
40.65000 249.796
40.66000 244.639
40.67000 241.781
40.68000 239.995
40.69000 238.794
40.70000 244.465
40.71000 252.117
40.72000 258.784
40.73000 258.665
40.74000 257.254
40.75000 256.081
40.76000 253.291
40.77000 250.823
40.78000 247.449
40.79000 241.396
40.80000 235.167
40.81000 232.776
40.82000 238.068
40.83000 243.575
40.84000 246.737
40.85000 245.608
40.86000 244.805
40.87000 245.110
40.88000 246.376
40.89000 247.603
40.90000 246.690
40.91000 244.549
40.92000 242.484
40.93000 240.726
40.94000 239.183
40.95000 238.095
40.96000 241.642
40.97000 246.402
40.98000 250.602
40.99000 251.352
41.00000 251.512
41.01000 251.643
41.02000 246.728
41.03000 242.280
41.04000 239.222
41.05000 239.899
41.06000 240.783
41.07000 239.937
41.08000 235.941
41.09000 231.879
41.10000 229.650
41.11000 234.827
41.12000 238.383
41.13000 237.244
41.14000 232.438
41.15000 227.726
41.16000 226.799
41.17000 227.846
41.18000 228.849
41.19000 227.737
41.20000 226.003
41.21000 224.960
41.22000 230.103
41.23000 236.713
41.24000 242.792
41.25000 245.942
41.26000 248.644
41.27000 250.801
41.28000 251.346
41.29000 251.669
41.30000 251.089
41.31000 248.302
41.32000 245.414
41.33000 243.478
41.34000 243.121
41.35000 242.788
41.36000 242.614
41.37000 242.386
41.38000 242.248
41.39000 244.248
41.40000 247.761
41.41000 251.006
41.42000 245.869
41.43000 236.751
41.44000 228.100
41.45000 227.684
41.46000 229.746
41.47000 231.737
41.48000 233.159
41.49000 234.459
41.50000 235.085
41.51000 232.360
41.52000 229.179
41.53000 226.696
41.54000 231.835
41.55000 236.411
41.56000 239.191
41.57000 237.964
41.58000 236.589
41.59000 234.618
41.60000 231.750
41.61000 228.874
41.62000 228.797
41.63000 231.462
41.64000 234.125
41.65000 236.509
41.66000 238.714
41.67000 240.723
41.68000 237.847
41.69000 232.857
41.70000 228.169
41.71000 229.405
41.72000 232.117
41.73000 234.683
41.74000 236.229
41.75000 237.578
41.76000 238.953
41.77000 240.448
41.78000 241.958
41.79000 243.109
41.80000 240.965
41.81000 239.103
41.82000 237.794
41.83000 237.610
41.84000 237.459
41.85000 237.624
41.86000 238.220
41.87000 238.819
41.88000 236.881
41.89000 232.717
41.90000 228.583
41.91000 226.231
41.92000 224.917
41.93000 223.716
41.94000 224.801
41.95000 226.787
41.96000 228.634
41.97000 231.871
41.98000 235.126
41.99000 237.683
42.00000 235.862
42.01000 233.278
42.02000 231.752
42.03000 234.520
42.04000 237.746
42.05000 240.141
42.06000 237.750
42.07000 235.681
42.08000 232.646
42.09000 227.824
42.10000 222.963
42.11000 220.732
42.12000 221.742
42.13000 222.759
42.14000 224.460
42.15000 226.693
42.16000 228.874
42.17000 228.781
42.18000 227.485
42.19000 226.298
42.20000 226.962
42.21000 228.290
42.22000 229.511
42.23000 234.358
42.24000 239.467
42.25000 243.697
42.26000 242.991
42.27000 241.516
42.28000 240.320
42.29000 240.149
42.30000 240.073
42.31000 240.019
42.32000 237.372
42.33000 235.248
42.34000 233.810
42.35000 233.529
42.36000 233.266
42.37000 235.227
42.38000 239.658
42.39000 244.075
42.40000 242.000
42.41000 235.325
42.42000 228.735
42.43000 224.930
42.44000 222.467
42.45000 220.260
42.46000 221.712
42.47000 224.360
42.48000 226.764
42.49000 222.574
42.50000 217.604
42.51000 215.371
42.52000 226.969
42.53000 240.488
42.54000 248.281
42.55000 236.911
42.56000 223.998
42.57000 214.937
42.58000 230.632
42.59000 243.231
42.60000 249.694
42.61000 246.782
42.62000 243.769
42.63000 237.573
42.64000 228.204
42.65000 218.896
42.66000 219.168
42.67000 225.580
42.68000 231.718
42.69000 230.791
42.70000 226.761
42.71000 223.110
42.72000 224.119
42.73000 226.515
42.74000 228.660
42.75000 232.630
42.76000 236.408
42.77000 239.189
42.78000 237.415
42.79000 235.080
42.80000 232.073
42.81000 227.020
42.82000 221.826
42.83000 218.293
42.84000 221.907
42.85000 224.768
42.86000 225.637
42.87000 223.749
42.88000 221.842
42.89000 220.332
42.90000 219.176
42.91000 218.032
42.92000 218.104
42.93000 218.877
42.94000 219.605
42.95000 219.397
42.96000 218.814
42.97000 218.466
42.98000 220.627
42.99000 223.465
43.00000 225.971
43.01000 225.901
43.02000 225.448
43.03000 225.626
43.04000 228.412
43.05000 231.480
43.06000 232.427
43.07000 227.492
43.08000 222.213
43.09000 218.741
43.10000 221.764
43.11000 224.101
43.12000 225.556
43.13000 225.906
43.14000 226.252
43.15000 226.311
43.16000 226.139
43.17000 225.970
43.18000 224.118
43.19000 221.442
43.20000 219.005
43.21000 220.747
43.22000 224.012
43.23000 227.337
43.24000 231.224
43.25000 235.248
43.26000 238.744
43.27000 233.570
43.28000 227.986
43.29000 223.760
43.30000 224.616
43.31000 225.955
43.32000 226.812
43.33000 226.453
43.34000 226.035
43.35000 225.769
43.36000 225.446
43.37000 225.210
43.38000 223.955
43.39000 221.549
43.40000 219.158
43.41000 219.568
43.42000 222.022
43.43000 224.428
43.44000 229.709
43.45000 236.150
43.46000 241.985
43.47000 238.891
43.48000 232.832
43.49000 227.696
43.50000 230.150
43.51000 234.285
43.52000 237.818
43.53000 227.989
43.54000 218.113
43.55000 211.519
43.56000 216.081
43.57000 221.564
43.58000 224.352
43.59000 220.942
43.60000 217.286
43.61000 215.053
43.62000 219.162
43.63000 222.154
43.64000 223.619
43.65000 223.535
43.66000 223.448
43.67000 223.055
43.68000 222.461
43.69000 221.882
43.70000 220.117
43.71000 217.928
43.72000 216.216
43.73000 220.522
43.74000 226.645
43.75000 231.773
43.76000 229.648
43.77000 226.071
43.78000 223.069
43.79000 217.070
43.80000 211.762
43.81000 208.309
43.82000 210.592
43.83000 213.281
43.84000 214.806
43.85000 213.894
43.86000 212.905
43.87000 212.324
43.88000 210.686
43.89000 209.527
43.90000 209.082
43.91000 209.286
43.92000 209.527
43.93000 212.133
43.94000 216.160
43.95000 220.059
43.96000 219.923
43.97000 218.244
43.98000 216.725
43.99000 216.954
44.00000 217.663
44.01000 218.115
44.02000 216.898
44.03000 215.380
44.04000 214.131
44.05000 214.052
44.06000 214.095
44.07000 216.181
44.08000 224.017
44.09000 232.199
44.10000 236.686
44.11000 234.123
44.12000 231.390
44.13000 229.856
44.14000 222.287
44.15000 217.038
44.16000 217.990
44.17000 224.030
44.18000 229.965
44.19000 230.941
44.20000 229.210
44.21000 227.546
44.22000 224.946
44.23000 222.186
44.24000 219.366
44.25000 215.969
44.26000 212.429
44.27000 210.092
44.28000 214.760
44.29000 220.558
44.30000 225.236
44.31000 218.075
44.32000 211.323
44.33000 207.815
44.34000 212.621
44.35000 217.843
44.36000 222.220
44.37000 225.128
44.38000 228.010
44.39000 229.551
44.40000 224.051
44.41000 220.309
44.42000 219.235
44.43000 220.140
44.44000 221.044
44.45000 221.903
44.46000 222.740
44.47000 223.537
44.48000 227.614
44.49000 232.418
44.50000 236.005
44.51000 229.388
44.52000 220.472
44.53000 214.052
44.54000 220.680
44.55000 229.191
44.56000 235.908
44.57000 241.550
44.58000 246.003
44.59000 248.461
44.60000 246.257
44.61000 243.861
44.62000 243.137
44.63000 245.048
44.64000 246.992
44.65000 247.979
44.66000 255.831
44.67000 261.075
44.68000 264.331
44.69000 266.251
44.70000 268.291
44.71000 273.668
44.72000 280.556
44.73000 287.059
44.74000 286.341
44.75000 283.652
44.76000 281.411
44.77000 282.499
44.78000 284.264
44.79000 287.111
44.80000 295.055
44.81000 303.654
44.82000 310.283
44.83000 306.230
44.84000 302.404
44.85000 303.478
44.86000 314.975
44.87000 326.814
44.88000 332.667
44.89000 329.957
44.90000 327.183
44.91000 330.418
44.92000 339.219
44.93000 347.961
44.94000 352.716
44.95000 355.038
44.96000 357.242
44.97000 356.800
44.98000 355.266
44.99000 353.833
45.00000 357.767
45.01000 362.695
45.02000 366.997
45.03000 367.149
45.04000 366.542
45.05000 365.599
45.06000 363.229
45.07000 360.696
45.08000 358.791
45.09000 354.049
45.10000 350.203
45.11000 347.558
45.12000 347.241
45.13000 346.983
45.14000 345.013
45.15000 340.828
45.16000 336.638
45.17000 338.955
45.18000 346.679
45.19000 354.194
45.20000 351.416
45.21000 342.931
45.22000 334.497
45.23000 326.993
45.24000 319.838
45.25000 313.225
45.26000 314.473
45.27000 317.378
45.28000 319.473
45.29000 316.778
45.30000 313.294
45.31000 310.499
45.32000 310.361
45.33000 310.487
45.34000 310.579
45.35000 305.490
45.36000 301.355
45.37000 297.670
45.38000 294.778
45.39000 291.901
45.40000 290.394
45.41000 290.488
45.42000 290.583
45.43000 286.583
45.44000 279.543
45.45000 272.612
45.46000 269.668
45.47000 268.737
45.48000 268.097
45.49000 271.985
45.50000 277.421
45.51000 282.385
45.52000 279.796
45.53000 275.962
45.54000 271.695
45.55000 265.129
45.56000 258.225
45.57000 254.375
45.58000 261.232
45.59000 269.015
45.60000 274.555
45.61000 266.010
45.62000 259.044
45.63000 252.415
45.64000 246.328
45.65000 240.248
45.66000 239.041
45.67000 242.956
45.68000 246.851
45.69000 249.746
45.70000 251.932
45.71000 254.065
45.72000 254.682
45.73000 254.603
45.74000 254.117
45.75000 248.248
45.76000 240.704
45.77000 233.904
45.78000 233.972
45.79000 235.280
45.80000 236.410
45.81000 236.692
45.82000 236.862
45.83000 237.544
45.84000 239.851
45.85000 242.280
45.86000 243.957
45.87000 230.417
45.88000 219.850
45.89000 215.831
45.90000 221.330
45.91000 226.908
45.92000 227.634
45.93000 223.786
45.94000 219.971
45.95000 222.792
45.96000 229.599
45.97000 236.026
45.98000 233.676
45.99000 227.651
46.00000 222.230
46.01000 223.714
46.02000 227.154
46.03000 230.211
46.04000 227.961
46.05000 225.151
46.06000 222.319
46.07000 219.396
46.08000 216.462
46.09000 212.426
46.10000 205.195
46.11000 197.762
46.12000 192.790
46.13000 206.750
46.14000 217.472
46.15000 222.733
46.16000 220.808
46.17000 218.852
46.18000 218.736
46.19000 220.181
46.20000 221.609
46.21000 220.957
46.22000 219.180
46.23000 217.323
46.24000 213.945
46.25000 209.985
46.26000 206.522
46.27000 207.996
46.28000 210.738
46.29000 213.139
46.30000 207.021
46.31000 200.552
46.32000 195.964
46.33000 198.760
46.34000 202.305
46.35000 203.728
46.36000 199.542
46.37000 195.059
46.38000 192.162
46.39000 201.095
46.40000 207.797
46.41000 209.340
46.42000 204.752
46.43000 200.150
46.44000 195.170
46.45000 189.898
46.46000 184.716
46.47000 186.394
46.48000 191.415
46.49000 196.409
46.50000 200.974
46.51000 205.391
46.52000 208.781
46.53000 203.207
46.54000 195.546
46.55000 188.946
46.56000 193.874
46.57000 199.512
46.58000 202.976
46.59000 198.694
46.60000 193.728
46.61000 190.445
46.62000 191.217
46.63000 192.167
46.64000 192.758
46.65000 195.114
46.66000 196.829
46.67000 196.473
46.68000 193.901
46.69000 191.339
46.70000 190.087
46.71000 189.743
46.72000 189.407
46.73000 192.101
46.74000 196.038
46.75000 199.555
46.76000 197.344
46.77000 193.322
46.78000 189.832
46.79000 190.451
46.80000 191.936
46.81000 193.193
46.82000 196.124
46.83000 198.766
46.84000 200.389
46.85000 198.715
46.86000 196.789
46.87000 194.312
46.88000 190.628
46.89000 186.900
46.90000 184.670
46.91000 188.755
46.92000 191.695
46.93000 193.826
46.94000 195.181
46.95000 196.576
46.96000 201.082
46.97000 207.545
46.98000 213.823
46.99000 208.804
47.00000 199.474
47.01000 190.802
47.02000 189.824
47.03000 191.057
47.04000 192.160
47.05000 192.362
47.06000 192.393
47.07000 192.419
47.08000 192.523
47.09000 192.616
47.10000 193.049
47.11000 194.480
47.12000 195.975
47.13000 195.951
47.14000 192.892
47.15000 189.748
47.16000 187.946
47.17000 183.576
47.18000 180.517
47.19000 180.579
47.20000 183.334
47.21000 186.165
47.22000 193.167
47.23000 202.554
47.24000 211.609
47.25000 205.721
47.26000 194.737
47.27000 184.447
47.28000 181.221
47.29000 179.838
47.30000 178.912
47.31000 180.791
47.32000 183.148
47.33000 185.069
47.34000 193.730
47.35000 201.379
47.36000 205.514
47.37000 200.223
47.38000 194.414
47.39000 189.871
47.40000 187.627
47.41000 185.431
47.42000 184.229
47.43000 186.901
47.44000 188.727
47.45000 185.968
47.46000 179.640
47.47000 173.501
47.48000 174.934
47.49000 180.307
47.50000 185.449
47.51000 186.963
47.52000 187.181
47.53000 187.329
47.54000 186.838
47.55000 186.196
47.56000 185.376
47.57000 183.572
47.58000 181.618
47.59000 180.060
47.60000 183.795
47.61000 187.197
47.62000 190.404
47.63000 193.133
47.64000 195.841
47.65000 194.968
47.66000 188.179
47.67000 181.302
47.68000 177.717
47.69000 182.217
47.70000 185.248
47.71000 186.405
47.72000 186.243
47.73000 186.093
47.74000 186.353
47.75000 186.807
47.76000 187.237
47.77000 186.819
47.78000 186.181
47.79000 185.256
47.80000 182.066
47.81000 178.391
47.82000 175.420
47.83000 175.931
47.84000 176.915
47.85000 177.682
47.86000 177.643
47.87000 177.562
47.88000 178.120
47.89000 180.102
47.90000 182.137
47.91000 183.694
47.92000 184.534
47.93000 185.367
47.94000 186.215
47.95000 187.080
47.96000 187.905
47.97000 185.421
47.98000 180.821
47.99000 176.507
48.00000 179.250
48.01000 185.037
48.02000 190.473
48.03000 190.835
48.04000 189.813
48.05000 188.855
48.06000 188.339
48.07000 187.907
48.08000 186.426
48.09000 180.252
48.10000 173.513
48.11000 168.383
48.12000 170.947
48.13000 173.371
48.14000 175.739
48.15000 177.995
48.16000 180.247
48.17000 183.716
48.18000 188.836
48.19000 193.963
48.20000 195.648
48.21000 194.314
48.22000 193.004
48.23000 193.066
48.24000 193.924
48.25000 194.698
48.26000 193.764
48.27000 192.159
48.28000 190.667
48.29000 187.629
48.30000 184.518
48.31000 181.829
48.32000 181.783
48.33000 182.194
48.34000 182.465
48.35000 182.165
48.36000 181.806
48.37000 181.539
48.38000 181.029
48.39000 180.622
48.40000 178.863
48.41000 174.610
48.42000 170.303
48.43000 170.167
48.44000 175.155
48.45000 180.148
48.46000 184.727
48.47000 188.958
48.48000 193.039
48.49000 190.820
48.50000 185.274
48.51000 180.065
48.52000 180.544
48.53000 183.061
48.54000 185.373
48.55000 183.317
48.56000 180.545
48.57000 177.987
48.58000 176.624
48.59000 175.446
48.60000 174.956
48.61000 176.992
48.62000 179.263
48.63000 180.902
48.64000 177.350
48.65000 174.440
48.66000 174.450
48.67000 179.362
48.68000 184.352
48.69000 186.187
48.70000 184.529
48.71000 182.875
48.72000 179.773
48.73000 175.672
48.74000 171.690
48.75000 171.565
48.76000 173.295
48.77000 174.854
48.78000 173.980
48.79000 172.313
48.80000 170.801
48.81000 170.977
48.82000 171.457
48.83000 171.876
48.84000 171.984
48.85000 172.048
48.86000 174.476
48.87000 184.788
48.88000 195.733
48.89000 203.405
48.90000 192.547
48.91000 183.798
48.92000 176.803
48.93000 172.479
48.94000 168.184
48.95000 168.237
48.96000 172.612
48.97000 176.958
48.98000 181.530
48.99000 186.176
49.00000 190.586
49.01000 188.919
49.02000 184.589
49.03000 180.620
49.04000 181.071
49.05000 182.832
49.06000 184.409
49.07000 181.838
49.08000 178.885
49.09000 177.573
49.10000 183.723
49.11000 190.789
49.12000 194.406
49.13000 187.554
49.14000 179.982
49.15000 174.838
49.16000 174.835
49.17000 174.948
49.18000 174.048
49.19000 171.747
49.20000 169.439
49.21000 167.767
49.22000 166.663
49.23000 165.571
49.24000 164.912
49.25000 164.518
49.26000 164.244
49.27000 166.475
49.28000 169.705
49.29000 172.543
49.30000 171.222
49.31000 168.780
49.32000 166.626
49.33000 175.376
49.34000 184.581
49.35000 190.904
49.36000 185.363
49.37000 178.537
49.38000 172.934
49.39000 170.706
49.40000 168.674
49.41000 167.339
49.42000 170.712
49.43000 173.275
49.44000 174.233
49.45000 173.188
49.46000 172.136
49.47000 170.559
49.48000 168.560
49.49000 166.590
49.50000 168.412
49.51000 172.156
49.52000 175.795
49.53000 177.607
49.54000 178.755
49.55000 179.689
49.56000 178.630
49.57000 177.085
49.58000 175.743
49.59000 177.968
49.60000 180.345
49.61000 181.498
49.62000 178.079
49.63000 174.227
49.64000 170.491
49.65000 167.048
49.66000 163.619
49.67000 161.445
49.68000 158.999
49.69000 157.221
49.70000 159.664
49.71000 166.861
49.72000 174.046
49.73000 178.535
49.74000 181.061
49.75000 183.538
49.76000 181.585
49.77000 177.623
49.78000 173.835
49.79000 172.600
49.80000 172.211
49.81000 171.928
49.82000 172.513
49.83000 173.291
49.84000 173.955
49.85000 173.254
49.86000 172.501
49.87000 172.346
49.88000 174.219
49.89000 176.257
49.90000 176.794
49.91000 173.885
49.92000 170.840
49.93000 168.982
49.94000 172.026
49.95000 174.243
49.96000 173.901
49.97000 170.972
49.98000 168.071
49.99000 167.995
50.00000 169.782
50.01000 171.523
50.02000 174.349
50.03000 177.506
50.04000 180.465
50.05000 180.942
50.06000 180.672
50.07000 179.726
50.08000 173.874
50.09000 167.042
50.10000 161.312
50.11000 169.888
50.12000 178.515
50.13000 183.994
50.14000 179.773
50.15000 174.868
50.16000 173.135
50.17000 178.029
50.18000 183.131
50.19000 186.119
50.20000 177.621
50.21000 171.584
50.22000 170.221
50.23000 173.102
50.24000 175.985
50.25000 178.978
50.26000 182.038
50.27000 184.999
50.28000 184.270
50.29000 182.166
50.30000 180.432
50.31000 182.720
50.32000 186.108
50.33000 189.285
50.34000 191.089
50.35000 192.646
50.36000 193.928
50.37000 194.311
50.38000 194.545
50.39000 194.937
50.40000 195.776
50.41000 196.641
50.42000 200.100
50.43000 208.496
50.44000 217.011
50.45000 221.781
50.46000 206.953
50.47000 196.651
50.48000 196.029
50.49000 203.325
50.50000 210.578
50.51000 215.870
50.52000 220.094
50.53000 224.151
50.54000 224.808
50.55000 224.248
50.56000 223.892
50.57000 225.477
50.58000 227.544
50.59000 229.145
50.60000 228.053
50.61000 226.527
50.62000 225.297
50.63000 227.277
50.64000 229.137
50.65000 229.883
50.66000 227.783
50.67000 225.541
50.68000 223.555
50.69000 222.012
50.70000 220.478
50.71000 219.658
50.72000 211.913
50.73000 206.666
50.74000 208.359
50.75000 215.182
50.76000 221.841
50.77000 222.739
50.78000 220.781
50.79000 218.916
50.80000 213.088
50.81000 206.454
50.82000 200.958
50.83000 204.983
50.84000 211.147
50.85000 216.290
50.86000 216.116
50.87000 215.178
50.88000 214.438
50.89000 207.882
50.90000 202.231
50.91000 197.658
50.92000 195.597
50.93000 193.638
50.94000 194.299
50.95000 199.079
50.96000 203.910
50.97000 206.360
50.98000 204.532
50.99000 203.296
51.00000 200.781
51.01000 197.411
51.02000 194.049
51.03000 190.897
51.04000 187.840
51.05000 184.955
51.06000 185.128
51.07000 186.145
51.08000 186.387
51.09000 180.898
51.10000 174.246
51.11000 169.475
51.12000 173.542
51.13000 178.737
51.14000 182.739
51.15000 184.111
51.16000 185.047
51.17000 184.100
51.18000 179.161
51.19000 174.091
51.20000 171.643
51.21000 172.936
51.22000 174.256
51.23000 175.128
51.24000 175.584
51.25000 176.015
51.26000 174.790
51.27000 172.556
51.28000 170.401
51.29000 169.996
51.30000 170.311
51.31000 170.606
51.32000 170.165
51.33000 169.579
51.34000 169.746
51.35000 174.873
51.36000 180.906
51.37000 184.733
51.38000 179.186
51.39000 172.581
51.40000 167.618
51.41000 165.300
51.42000 163.614
51.43000 163.059
51.44000 164.686
51.45000 166.368
51.46000 165.892
51.47000 162.630
51.48000 159.361
51.49000 156.709
51.50000 154.575
51.51000 152.501
51.52000 153.335
51.53000 155.777
51.54000 158.429
51.55000 164.946
51.56000 172.911
51.57000 180.271
51.58000 175.947
51.59000 169.425
51.60000 163.257
51.61000 159.184
51.62000 155.455
51.63000 152.950
51.64000 155.160
51.65000 157.837
51.66000 159.796
51.67000 165.716
51.68000 170.443
51.69000 170.551
51.70000 162.543
51.71000 154.384
51.72000 152.968
51.73000 159.407
51.74000 165.839
51.75000 167.258
51.76000 164.928
51.77000 162.654
51.78000 162.460
51.79000 163.312
51.80000 164.099
51.81000 163.871
51.82000 163.296
51.83000 162.771
51.84000 164.613
51.85000 166.727
51.86000 168.285
51.87000 166.900
51.88000 165.084
51.89000 163.066
51.90000 160.339
51.91000 157.552
51.92000 155.570
51.93000 156.795
51.94000 157.831
51.95000 158.744
51.96000 159.460
51.97000 160.173
51.98000 159.687
51.99000 157.945
52.00000 156.211
52.01000 156.520
52.02000 158.198
52.03000 159.717
52.04000 156.676
52.05000 151.544
52.06000 146.998
52.07000 150.164
52.08000 155.725
52.09000 160.735
52.10000 161.871
52.11000 162.166
52.12000 162.426
52.13000 162.525
52.14000 162.602
52.15000 162.202
52.16000 160.286
52.17000 158.258
52.18000 156.859
52.19000 157.302
52.20000 157.681
52.21000 157.017
52.22000 154.842
52.23000 152.655
52.24000 153.011
52.25000 155.758
52.26000 158.483
52.27000 157.186
52.28000 153.477
52.29000 150.025
52.30000 152.510
52.31000 157.474
52.32000 161.800
52.33000 158.867
52.34000 153.886
52.35000 149.461
52.36000 154.035
52.37000 159.453
52.38000 163.890
52.39000 164.097
52.40000 163.816
52.41000 163.703
52.42000 164.074
52.43000 164.476
52.44000 164.744
52.45000 154.714
52.46000 147.081
52.47000 143.499
52.48000 145.233
52.49000 146.994
52.50000 150.645
52.51000 155.895
52.52000 161.080
52.53000 162.621
52.54000 162.129
52.55000 161.631
52.56000 161.021
52.57000 160.369
52.58000 159.582
52.59000 157.462
52.60000 154.999
52.61000 152.844
52.62000 156.437
52.63000 160.338
52.64000 162.983
52.65000 160.709
52.66000 157.939
52.67000 156.021
52.68000 156.353
52.69000 156.804
52.70000 157.095
52.71000 160.136
52.72000 162.397
52.73000 163.852
52.74000 164.351
52.75000 164.848
52.76000 165.347
52.77000 165.849
52.78000 166.342
52.79000 166.270
52.80000 165.922
52.81000 165.295
52.82000 160.246
52.83000 153.666
52.84000 147.766
52.85000 147.782
52.86000 149.172
52.87000 150.369
52.88000 154.241
52.89000 157.860
52.90000 159.918
52.91000 156.437
52.92000 152.468
52.93000 149.447
52.94000 148.700
52.95000 148.052
52.96000 147.650
52.97000 152.192
52.98000 155.512
52.99000 156.209
53.00000 154.112
53.01000 152.035
53.02000 152.698
53.03000 155.253
53.04000 157.752
53.05000 161.361
53.06000 165.317
53.07000 168.855
53.08000 166.756
53.09000 162.881
53.10000 159.155
53.11000 156.591
53.12000 154.269
53.13000 152.304
53.14000 150.720
53.15000 149.436
53.16000 149.182
53.17000 152.249
53.18000 155.569
53.19000 158.148
53.20000 159.110
53.21000 160.016
53.22000 160.557
53.23000 157.892
53.24000 155.981
53.25000 156.773
53.26000 160.151
53.27000 163.457
53.28000 161.207
53.29000 155.472
53.30000 149.902
53.31000 149.464
53.32000 151.114
53.33000 153.010
53.34000 157.772
53.35000 163.354
53.36000 167.961
53.37000 165.892
53.38000 162.560
53.39000 159.793
53.40000 155.421
53.41000 151.649
53.42000 149.093
53.43000 150.108
53.44000 151.354
53.45000 150.888
53.46000 147.013
53.47000 143.045
53.48000 140.772
53.49000 147.223
53.50000 151.760
53.51000 156.172
53.52000 160.478
53.53000 164.598
53.54000 158.739
53.55000 147.190
53.56000 136.052
53.57000 138.157
53.58000 144.946
53.59000 151.598
53.60000 156.854
53.61000 161.747
53.62000 165.655
53.63000 163.542
53.64000 160.407
53.65000 157.854
53.66000 154.652
53.67000 151.982
53.68000 150.249
53.69000 151.017
53.70000 151.923
53.71000 152.799
53.72000 153.623
53.73000 154.446
53.74000 154.896
53.75000 155.186
53.76000 155.387
53.77000 156.202
53.78000 157.494
53.79000 158.778
53.80000 159.809
53.81000 160.708
53.82000 161.568
53.83000 160.196
53.84000 158.187
53.85000 156.263
53.86000 155.097
53.87000 154.109
53.88000 153.710
53.89000 156.536
53.90000 159.853
53.91000 162.496
53.92000 158.922
53.93000 155.585
53.94000 152.032
53.95000 147.950
53.96000 143.844
53.97000 144.818
53.98000 154.162
53.99000 163.628
54.00000 168.555
54.01000 158.295
54.02000 151.396
54.03000 149.525
54.04000 151.186
54.05000 152.771
54.06000 152.046
54.07000 150.230
54.08000 148.508
54.09000 146.017
54.10000 143.495
54.11000 141.735
54.12000 145.967
54.13000 151.476
54.14000 155.827
54.15000 154.456
54.16000 152.310
54.17000 150.638
54.18000 154.301
54.19000 157.551
54.20000 158.258
54.21000 153.322
54.22000 148.181
54.23000 145.613
54.24000 146.895
54.25000 148.213
54.26000 150.171
54.27000 152.749
54.28000 155.320
54.29000 157.290
54.30000 158.878
54.31000 160.332
54.32000 158.503
54.33000 155.261
54.34000 152.217
54.35000 152.623
54.36000 153.909
54.37000 154.558
54.38000 150.771
54.39000 146.130
54.40000 143.151
54.41000 147.583
54.42000 152.903
54.43000 156.950
54.44000 156.721
54.45000 156.317
54.46000 155.131
54.47000 152.364
54.48000 149.553
54.49000 146.186
54.50000 142.068
54.51000 137.947
54.52000 141.786
54.53000 152.571
54.54000 163.167
54.55000 163.011
54.56000 156.631
54.57000 150.372
54.58000 146.552
54.59000 143.689
54.60000 141.028
54.61000 142.773
54.62000 145.397
54.63000 147.967
54.64000 150.196
54.65000 152.366
54.66000 154.402
54.67000 155.896
54.68000 157.333
54.69000 158.398
54.70000 161.341
54.71000 163.709
54.72000 163.922
54.73000 160.169
54.74000 156.331
54.75000 153.574
54.76000 152.142
54.77000 150.716
54.78000 149.673
54.79000 148.935
54.80000 148.261
54.81000 150.208
54.82000 153.535
54.83000 156.720
54.84000 157.512
54.85000 157.449
54.86000 157.391
54.87000 160.898
54.88000 164.789
54.89000 167.398
54.90000 162.852
54.91000 157.197
54.92000 151.247
54.93000 144.211
54.94000 137.076
54.95000 131.930
54.96000 141.664
54.97000 149.656
54.98000 155.943
54.99000 159.376
55.00000 162.765
55.01000 161.904
55.02000 156.352
55.03000 150.820
55.04000 151.556
55.05000 156.716
55.06000 161.695
55.07000 160.852
55.08000 157.217
55.09000 153.958
55.10000 156.027
55.11000 159.829
55.12000 163.277
55.13000 163.123
55.14000 162.299
55.15000 161.244
55.16000 159.031
55.17000 156.659
55.18000 154.896
55.19000 155.164
55.20000 155.594
55.21000 155.895
55.22000 157.083
55.23000 158.008
55.24000 159.692
55.25000 162.530
55.26000 165.381
55.27000 166.901
55.28000 167.104
55.29000 167.306
55.30000 168.019
55.31000 169.048
55.32000 170.015
55.33000 169.404
55.34000 168.102
55.35000 167.248
55.36000 171.857
55.37000 178.080
55.38000 183.648
55.39000 186.512
55.40000 188.550
55.41000 189.645
55.42000 186.467
55.43000 182.766
55.44000 181.899
55.45000 189.612
55.46000 197.911
55.47000 203.545
55.48000 196.879
55.49000 191.631
55.50000 191.812
55.51000 199.469
55.52000 207.170
55.53000 212.053
55.54000 214.429
55.55000 216.779
55.56000 218.730
55.57000 220.408
55.58000 222.319
55.59000 229.068
55.60000 237.744
55.61000 246.548
55.62000 256.715
55.63000 267.248
55.64000 276.535
55.65000 284.012
55.66000 290.184
55.67000 296.346
55.68000 302.468
55.69000 308.586
55.70000 314.630
55.71000 320.471
55.72000 326.301
55.73000 330.127
55.74000 340.182
55.75000 347.683
55.76000 355.852
55.77000 364.851
55.78000 373.850
55.79000 381.930
55.80000 389.275
55.81000 396.511
55.82000 394.701
55.83000 388.250
55.84000 382.279
55.85000 384.601
55.86000 389.930
55.87000 395.230
55.88000 400.262
55.89000 405.229
55.90000 409.540
55.91000 412.416
55.92000 414.673
55.93000 415.521
55.94000 411.128
55.95000 406.241
55.96000 401.758
55.97000 398.291
55.98000 394.873
55.99000 392.708
56.00000 384.828
56.01000 379.044
56.02000 370.115
56.03000 357.655
56.04000 345.272
56.05000 345.633
56.06000 355.239
56.07000 364.655
56.08000 359.854
56.09000 348.573
56.10000 337.549
56.11000 330.284
56.12000 324.259
56.13000 317.954
56.14000 309.358
56.15000 300.258
56.16000 292.491
56.17000 286.048
56.18000 280.780
56.19000 275.379
56.20000 269.534
56.21000 263.652
56.22000 257.891
56.23000 252.409
56.24000 246.938
56.25000 243.604
56.26000 236.167
56.27000 230.819
56.28000 228.467
56.29000 229.136
56.30000 229.746
56.31000 224.716
56.32000 215.977
56.33000 207.463
56.34000 204.981
56.35000 205.166
56.36000 205.146
56.37000 202.550
56.38000 199.182
56.39000 195.337
56.40000 188.046
56.41000 180.070
56.42000 173.384
56.43000 180.773
56.44000 188.382
56.45000 193.654
56.46000 191.748
56.47000 189.338
56.48000 186.605
56.49000 183.198
56.50000 179.770
56.51000 177.765
56.52000 176.089
56.53000 174.910
56.54000 171.651
56.55000 166.511
56.56000 161.451
56.57000 161.579
56.58000 164.803
56.59000 167.924
56.60000 168.362
56.61000 167.751
56.62000 167.118
56.63000 166.243
56.64000 165.301
56.65000 164.394
56.66000 163.709
56.67000 163.063
56.68000 162.532
56.69000 158.539
56.70000 154.944
56.71000 152.892
56.72000 155.157
56.73000 157.678
56.74000 158.021
56.75000 154.234
56.76000 150.349
56.77000 148.175
56.78000 152.671
56.79000 155.796
56.80000 156.879
56.81000 156.295
56.82000 155.719
56.83000 155.477
56.84000 155.414
56.85000 155.355
56.86000 153.333
56.87000 150.765
56.88000 148.428
56.89000 148.271
56.90000 148.653
56.91000 149.277
56.92000 151.294
56.93000 153.534
56.94000 155.339
56.95000 153.844
56.96000 152.372
56.97000 150.133
56.98000 145.939
56.99000 141.649
57.00000 138.902
57.01000 138.820
57.02000 138.783
57.03000 138.764
57.04000 135.882
57.05000 133.940
57.06000 136.114
57.07000 141.323
57.08000 146.400
57.09000 146.905
57.10000 145.151
57.11000 143.481
57.12000 146.406
57.13000 150.542
57.14000 154.115
57.15000 153.004
57.16000 150.843
57.17000 148.688
57.18000 146.560
57.19000 144.437
57.20000 142.764
57.21000 150.508
57.22000 157.349
57.23000 159.504
57.24000 150.784
57.25000 141.621
57.26000 137.486
57.27000 141.232
57.28000 145.072
57.29000 147.017
57.30000 141.710
57.31000 138.179
57.32000 136.954
57.33000 137.269
57.34000 137.666
57.35000 140.285
57.36000 143.903
57.37000 147.318
57.38000 145.548
57.39000 142.476
57.40000 139.489
57.41000 137.126
57.42000 134.889
57.43000 133.985
57.44000 139.319
57.45000 145.448
57.46000 150.167
57.47000 143.464
57.48000 137.507
57.49000 133.779
57.50000 134.767
57.51000 135.907
57.52000 137.166
57.53000 138.593
57.54000 140.021
57.55000 140.085
57.56000 138.894
57.57000 137.730
57.58000 138.453
57.59000 140.318
57.60000 142.062
57.61000 141.089
57.62000 139.004
57.63000 137.056
57.64000 140.560
57.65000 145.108
57.66000 148.892
57.67000 147.658
57.68000 145.509
57.69000 143.611
57.70000 142.774
57.71000 142.057
57.72000 141.518
57.73000 138.716
57.74000 136.418
57.75000 135.589
57.76000 137.586
57.77000 139.653
57.78000 140.897
57.79000 141.080
57.80000 141.259
57.81000 140.493
57.82000 138.950
57.83000 137.493
57.84000 140.134
57.85000 145.035
57.86000 149.455
57.87000 145.088
57.88000 137.437
57.89000 130.371
57.90000 129.609
57.91000 130.347
57.92000 131.285
57.93000 133.398
57.94000 135.702
57.95000 137.698
57.96000 138.508
57.97000 139.201
57.98000 139.707
57.99000 137.000
58.00000 134.785
58.01000 135.253
58.02000 140.422
58.03000 145.678
58.04000 148.605
58.05000 148.826
58.06000 149.043
58.07000 145.837
58.08000 140.107
58.09000 134.515
58.10000 133.948
58.11000 135.903
58.12000 138.012
58.13000 142.492
58.14000 147.778
58.15000 152.602
58.16000 150.651
58.17000 147.552
58.18000 144.166
58.19000 139.259
58.20000 134.130
58.21000 130.861
58.22000 134.076
58.23000 137.846
58.24000 140.525
58.25000 142.951
58.26000 144.791
58.27000 144.378
58.28000 140.381
58.29000 136.338
58.30000 134.953
58.31000 136.346
58.32000 137.732
58.33000 137.686
58.34000 136.680
58.35000 135.670
58.36000 134.506
58.37000 133.272
58.38000 132.034
58.39000 130.751
58.40000 129.453
58.41000 128.284
58.42000 131.250
58.43000 134.597
58.44000 137.503
58.45000 138.302
58.46000 138.829
58.47000 139.348
58.48000 139.842
58.49000 140.334
58.50000 140.673
58.51000 139.540
58.52000 138.652
58.53000 138.991
58.54000 141.104
58.55000 143.231
58.56000 145.625
58.57000 148.270
58.58000 150.892
58.59000 145.572
58.60000 135.551
58.61000 126.030
58.62000 127.910
58.63000 134.536
58.64000 140.464
58.65000 138.483
58.66000 134.276
58.67000 130.540
58.68000 131.645
58.69000 133.380
58.70000 135.185
58.71000 137.287
58.72000 139.424
58.73000 139.271
58.74000 132.516
58.75000 125.346
58.76000 120.561
58.77000 126.615
58.78000 131.309
58.79000 133.659
58.80000 132.943
58.81000 132.214
58.82000 131.621
58.83000 131.143
58.84000 130.671
58.85000 127.774
58.86000 123.630
58.87000 119.917
58.88000 124.307
58.89000 131.772
58.90000 138.217
58.91000 134.591
58.92000 128.393
58.93000 122.971
58.94000 125.931
58.95000 129.661
58.96000 132.243
58.97000 130.343
58.98000 127.992
58.99000 126.091
59.00000 125.372
59.01000 124.714
59.02000 124.290
59.03000 129.989
59.04000 134.238
59.05000 136.359
59.06000 135.968
59.07000 135.574
59.08000 135.461
59.09000 135.561
59.10000 135.660
59.11000 131.223
59.12000 124.702
59.13000 118.883
59.14000 124.145
59.15000 133.235
59.16000 141.304
59.17000 140.520
59.18000 137.688
59.19000 135.251
59.20000 136.381
59.21000 137.788
59.22000 138.543
59.23000 136.992
59.24000 135.238
59.25000 133.784
59.26000 133.049
59.27000 132.345
59.28000 131.908
59.29000 132.253
59.30000 132.509
59.31000 132.377
59.32000 131.831
59.33000 131.297
59.34000 132.074
59.35000 133.755
59.36000 135.398
59.37000 136.198
59.38000 136.588
59.39000 136.979
59.40000 137.362
59.41000 137.743
59.42000 137.788
59.43000 135.265
59.44000 132.203
59.45000 129.614
59.46000 131.558
59.47000 133.686
59.48000 134.774
59.49000 132.514
59.50000 130.001
59.51000 129.432
59.52000 133.098
59.53000 136.912
59.54000 139.189
59.55000 140.342
59.56000 141.152
59.57000 137.950
59.58000 130.922
59.59000 124.004
59.60000 125.469
59.61000 132.176
59.62000 138.690
59.63000 140.028
59.64000 139.220
59.65000 138.449
59.66000 138.091
59.67000 137.852
59.68000 137.657
59.69000 137.758
59.70000 137.915
59.71000 138.046
59.72000 133.801
59.73000 129.868
59.74000 127.362
59.75000 129.034
59.76000 130.975
59.77000 132.106
59.78000 131.628
59.79000 131.106
59.80000 130.807
59.81000 134.293
59.82000 136.737
59.83000 137.059
59.84000 135.562
59.85000 134.061
59.86000 132.329
59.87000 130.468
59.88000 128.673
59.89000 126.826
59.90000 125.072
59.91000 123.481
59.92000 123.542
59.93000 124.032
59.94000 124.655
59.95000 126.093
59.96000 127.669
59.97000 128.952
59.98000 136.808
59.99000 143.776
60.00000 146.810
60.01000 139.357
60.02000 131.335
60.03000 127.734
60.04000 132.120
60.05000 136.670
60.06000 139.155
60.07000 132.841
60.08000 128.505
60.09000 127.576
60.10000 129.285
60.11000 131.019
60.12000 133.726
60.13000 136.936
60.14000 140.007
60.15000 137.781
60.16000 133.979
60.17000 130.455
60.18000 129.385
60.19000 128.893
60.20000 128.429
60.21000 128.124
60.22000 127.842
60.23000 127.618
60.24000 130.019
60.25000 132.146
60.26000 134.705
60.27000 138.317
60.28000 141.976
60.29000 142.649
60.30000 138.417
60.31000 134.113
60.32000 131.876
60.33000 132.351
60.34000 132.674
60.35000 133.274
60.36000 134.068
60.37000 134.818
60.38000 134.236
60.39000 133.028
60.40000 131.883
60.41000 134.103
60.42000 137.138
60.43000 139.311
60.44000 134.737
60.45000 128.729
60.46000 124.076
60.47000 126.091
60.48000 129.005
60.49000 131.275
60.50000 136.797
60.51000 141.397
60.52000 142.801
60.53000 137.134
60.54000 131.211
60.55000 127.886
60.56000 128.434
60.57000 129.019
60.58000 129.657
60.59000 130.347
60.60000 131.047
60.61000 132.606
60.62000 134.712
60.63000 136.819
60.64000 138.987
60.65000 141.181
60.66000 143.241
60.67000 137.464
60.68000 130.124
60.69000 124.354
60.70000 129.497
60.71000 136.732
60.72000 142.531
60.73000 141.947
60.74000 140.601
60.75000 139.577
60.76000 136.690
60.77000 134.322
60.78000 131.126
60.79000 126.262
60.80000 121.350
60.81000 119.692
60.82000 122.431
60.83000 125.191
60.84000 126.802
60.85000 127.408
60.86000 128.067
60.87000 131.708
60.88000 137.070
60.89000 142.203
60.90000 142.750
60.91000 141.504
60.92000 140.346
60.93000 136.574
60.94000 132.551
60.95000 128.977
60.96000 128.184
60.97000 127.870
60.98000 128.365
60.99000 132.115
61.00000 136.207
61.01000 139.238
61.02000 134.991
61.03000 131.379
61.04000 130.226
61.05000 133.584
61.06000 137.039
61.07000 137.374
61.08000 133.899
61.09000 130.421
61.10000 131.218
61.11000 135.359
61.12000 139.323
61.13000 136.004
61.14000 128.860
61.15000 122.215
61.16000 123.887
61.17000 128.520
61.18000 132.774
61.19000 133.211
61.20000 132.788
61.21000 132.877
61.22000 135.823
61.23000 139.209
61.24000 140.682
61.25000 135.169
61.26000 129.014
61.27000 124.579
61.28000 131.075
61.29000 136.439
61.30000 141.100
61.31000 144.589
61.32000 148.061
61.33000 149.531
61.34000 148.801
61.35000 148.072
61.36000 147.199
61.37000 146.233
61.38000 145.236
61.39000 143.249
61.40000 140.788
61.41000 138.432
61.42000 137.563
61.43000 137.175
61.44000 136.824
61.45000 143.126
61.46000 149.952
61.47000 156.133
61.48000 159.090
61.49000 161.603
61.50000 164.676
61.51000 169.606
61.52000 174.684
61.53000 178.237
61.54000 186.977
61.55000 193.731
61.56000 203.727
61.57000 218.634
61.58000 233.590
61.59000 245.488
61.60000 254.364
61.61000 263.180
61.62000 271.269
61.63000 278.771
61.64000 286.188
61.65000 291.448
61.66000 295.768
61.67000 299.670
61.68000 298.497
61.69000 295.827
61.70000 293.440
61.71000 293.434
61.72000 293.832
61.73000 293.628
61.74000 290.702
61.75000 287.444
61.76000 281.267
61.77000 266.282
61.78000 250.696
61.79000 240.127
61.80000 219.495
61.81000 203.886
61.82000 192.534
61.83000 187.026
61.84000 181.551
61.85000 174.092
61.86000 164.874
61.87000 155.753
61.88000 157.028
61.89000 164.234
61.90000 170.832
61.91000 164.888
61.92000 153.967
61.93000 143.463
61.94000 137.347
61.95000 132.405
61.96000 128.051
61.97000 139.572
61.98000 151.900
61.99000 160.656
62.00000 154.803
62.01000 147.382
62.02000 142.089
62.03000 142.646
62.04000 143.540
62.05000 144.126
62.06000 144.984
62.07000 145.619
62.08000 145.993
62.09000 146.042
62.10000 146.084
62.11000 144.011
62.12000 140.247
62.13000 136.539
62.14000 139.808
62.15000 146.590
62.16000 152.862
62.17000 150.386
62.18000 144.746
62.19000 139.693
62.20000 140.053
62.21000 141.727
62.22000 143.179
62.23000 143.728
62.24000 144.075
62.25000 144.332
62.26000 144.260
62.27000 144.157
62.28000 143.546
62.29000 141.663
62.30000 139.720
62.31000 138.491
62.32000 131.895
62.33000 127.049
62.34000 126.391
62.35000 130.419
62.36000 134.439
62.37000 136.471
62.38000 137.068
62.39000 137.652
62.40000 138.467
62.41000 139.359
62.42000 140.092
62.43000 138.511
62.44000 136.168
62.45000 134.393
62.46000 137.236
62.47000 141.094
62.48000 144.384
62.49000 142.587
62.50000 140.473
62.51000 138.797
62.52000 138.594
62.53000 138.510
62.54000 139.742
62.55000 143.975
62.56000 148.324
62.57000 150.972
62.58000 147.525
62.59000 145.015
62.60000 143.560
62.61000 143.168
62.62000 142.787
62.63000 143.530
62.64000 145.011
62.65000 146.454
62.66000 146.500
62.67000 145.956
62.68000 145.202
62.69000 141.854
62.70000 137.728
62.71000 134.728
62.72000 139.843
62.73000 146.568
62.74000 152.202
62.75000 150.205
62.76000 147.756
62.77000 144.924
62.78000 140.920
62.79000 136.835
62.80000 135.323
62.81000 139.158
62.82000 143.159
62.83000 145.495
62.84000 141.866
62.85000 139.285
62.86000 137.073
62.87000 135.195
62.88000 133.391
62.89000 136.300
62.90000 142.013
62.91000 147.542
62.92000 143.943
62.93000 137.068
62.94000 131.106
62.95000 134.986
62.96000 141.542
62.97000 146.906
62.98000 144.604
62.99000 140.934
63.00000 137.919
63.01000 142.201
63.02000 146.376
63.03000 149.248
63.04000 148.487
63.05000 147.511
63.06000 145.543
63.07000 141.700
63.08000 137.812
63.09000 135.639
63.10000 134.408
63.11000 133.564
63.12000 135.222
63.13000 138.915
63.14000 142.610
63.15000 146.459
63.16000 150.391
63.17000 154.166
63.18000 150.451
63.19000 144.405
63.20000 139.222
63.21000 142.180
63.22000 147.146
63.23000 151.722
63.24000 154.050
63.25000 156.018
63.26000 157.603
63.27000 153.627
63.28000 149.967
63.29000 146.521
63.30000 143.615
63.31000 140.737
63.32000 140.706
63.33000 145.574
63.34000 150.527
63.35000 153.164
63.36000 145.150
63.37000 139.724
63.38000 141.225
63.39000 147.816
63.40000 154.241
63.41000 154.929
63.42000 152.792
63.43000 150.756
63.44000 150.003
63.45000 149.702
63.46000 148.897
63.47000 143.919
63.48000 138.008
63.49000 133.407
63.50000 135.585
63.51000 138.732
63.52000 141.209
63.53000 141.198
63.54000 141.022
63.55000 141.172
63.56000 142.077
63.57000 143.013
63.58000 143.278
63.59000 142.495
63.60000 141.700
63.61000 141.298
63.62000 148.112
63.63000 152.632
63.64000 153.137
63.65000 150.968
63.66000 148.796
63.67000 146.584
63.68000 144.354
63.69000 142.250
63.70000 145.825
63.71000 150.682
63.72000 154.767
63.73000 153.167
63.74000 150.421
63.75000 148.633
63.76000 151.322
63.77000 154.578
63.78000 157.083
63.79000 157.234
63.80000 157.220
63.81000 156.370
63.82000 153.755
63.83000 151.084
63.84000 151.218
63.85000 155.329
63.86000 159.467
63.87000 160.576
63.88000 158.904
63.89000 157.247
63.90000 156.540
63.91000 156.409
63.92000 156.317
63.93000 157.089
63.94000 158.216
63.95000 159.268
63.96000 157.884
63.97000 156.019
63.98000 154.274
63.99000 153.312
64.00000 152.492
64.01000 152.421
64.02000 155.513
64.03000 158.960
64.04000 161.545
64.05000 164.873
64.06000 167.508
64.07000 168.427
64.08000 166.052
64.09000 163.595
64.10000 161.945
64.11000 161.329
64.12000 160.717
64.13000 159.563
64.14000 157.965
64.15000 156.445
64.16000 158.619
64.17000 162.824
64.18000 166.638
64.19000 163.335
64.20000 157.382
64.21000 151.885
64.22000 159.336
64.23000 168.928
64.24000 175.879
64.25000 167.343
64.26000 156.286
64.27000 148.435
64.28000 152.857
64.29000 158.484
64.30000 162.595
64.31000 161.653
64.32000 160.729
64.33000 161.063
64.34000 163.594
64.35000 166.166
64.36000 167.092
64.37000 166.112
64.38000 165.133
64.39000 165.045
64.40000 165.617
64.41000 166.109
64.42000 163.710
64.43000 159.864
64.44000 156.412
64.45000 158.997
64.46000 163.629
64.47000 167.854
64.48000 167.216
64.49000 165.671
64.50000 165.548
64.51000 172.920
64.52000 181.382
64.53000 187.440
64.54000 185.144
64.55000 182.136
64.56000 179.999
64.57000 180.918
64.58000 181.714
64.59000 182.329
64.60000 182.656
64.61000 182.979
64.62000 181.202
64.63000 177.239
64.64000 173.297
64.65000 170.104
64.66000 167.453
64.67000 164.932
64.68000 166.074
64.69000 168.886
64.70000 171.683
64.71000 174.289
64.72000 176.837
64.73000 179.130
64.74000 176.517
64.75000 173.345
64.76000 171.114
64.77000 173.350
64.78000 176.164
64.79000 178.612
64.80000 179.902
64.81000 181.107
64.82000 181.937
64.83000 189.566
64.84000 195.463
64.85000 199.446
64.86000 200.670
64.87000 201.872
64.88000 201.277
64.89000 199.004
64.90000 196.751
64.91000 194.809
64.92000 193.092
64.93000 191.457
64.94000 191.687
64.95000 192.690
64.96000 193.927
64.97000 197.801
64.98000 202.414
64.99000 206.510
65.00000 202.315
65.01000 197.354
65.02000 193.747
65.03000 195.958
65.04000 198.833
65.05000 202.437
65.06000 208.139
65.07000 213.973
65.08000 217.862
65.09000 221.359
65.10000 223.940
65.11000 225.416
65.12000 225.450
65.13000 225.480
65.14000 226.824
65.15000 229.273
65.16000 231.691
65.17000 232.362
65.18000 232.066
65.19000 231.983
65.20000 235.883
65.21000 241.290
65.22000 246.444
65.23000 249.096
65.24000 251.113
65.25000 252.876
65.26000 253.088
65.27000 253.049
65.28000 253.653
65.29000 256.753
65.30000 260.105
65.31000 264.439
65.32000 271.348
65.33000 278.392
65.34000 282.928
65.35000 276.607
65.36000 271.840
65.37000 270.610
65.38000 273.543
65.39000 276.494
65.40000 281.678
65.41000 288.559
65.42000 295.320
65.43000 298.838
65.44000 300.643
65.45000 302.327
65.46000 302.094
65.47000 301.200
65.48000 300.696
65.49000 303.557
65.50000 307.195
65.51000 310.324
65.52000 316.325
65.53000 321.766
65.54000 326.597
65.55000 329.274
65.56000 331.763
65.57000 336.979
65.58000 348.704
65.59000 360.709
65.60000 368.157
65.61000 373.300
65.62000 376.978
65.63000 386.211
65.64000 401.329
65.65000 416.448
65.66000 431.604
65.67000 446.786
65.68000 461.620
65.69000 500.021
65.70000 547.247
65.71000 595.122
65.72000 651.699
65.73000 711.004
65.74000 771.069
65.75000 836.939
65.76000 904.019
65.77000 960.721
65.78000 1023.062
65.79000 1075.830
65.80000 1122.620
65.81000 1150.228
65.82000 1176.391
65.83000 1201.477
65.84000 1224.223
65.85000 1246.888
65.86000 1260.399
65.87000 1251.711
65.88000 1245.417
65.89000 1239.309
65.90000 1233.378
65.91000 1227.244
65.92000 1205.699
65.93000 1174.544
65.94000 1144.295
65.95000 1085.380
65.96000 1017.997
65.97000 950.319
65.98000 879.243
65.99000 807.198
66.00000 737.360
66.01000 682.514
66.02000 630.484
66.03000 587.317
66.04000 527.468
66.05000 476.401
66.06000 430.991
66.07000 402.093
66.08000 374.255
66.09000 355.922
66.10000 356.405
66.11000 357.398
66.12000 357.965
66.13000 349.575
66.14000 343.686
66.15000 334.688
66.16000 323.031
66.17000 311.636
66.18000 314.077
66.19000 324.361
66.20000 334.274
66.21000 336.033
66.22000 334.744
66.23000 334.104
66.24000 339.984
66.25000 347.551
66.26000 355.619
66.27000 366.739
66.28000 378.374
66.29000 387.836
66.30000 399.306
66.31000 408.838
66.32000 419.568
66.33000 433.483
66.34000 447.570
66.35000 462.658
66.36000 479.551
66.37000 496.479
66.38000 505.711
66.39000 503.034
66.40000 501.180
66.41000 499.278
66.42000 497.339
66.43000 495.379
66.44000 492.553
66.45000 489.281
66.46000 486.152
66.47000 487.533
66.48000 490.285
66.49000 491.847
66.50000 482.916
66.51000 471.526
66.52000 459.793
66.53000 446.193
66.54000 432.312
66.55000 421.260
66.56000 409.663
66.57000 400.272
66.58000 389.983
66.59000 377.514
66.60000 364.948
66.61000 353.771
66.62000 344.869
66.63000 335.999
66.64000 331.397
66.65000 339.032
66.66000 344.160
66.67000 345.622
66.68000 344.525
66.69000 343.458
66.70000 343.311
66.71000 343.596
66.72000 343.866
66.73000 340.613
66.74000 336.584
66.75000 333.093
66.76000 333.796
66.77000 335.388
66.78000 336.305
66.79000 333.905
66.80000 331.061
66.81000 328.847
66.82000 335.744
66.83000 341.795
66.84000 346.568
66.85000 348.523
66.86000 350.376
66.87000 350.181
66.88000 346.938
66.89000 343.667
66.90000 343.068
66.91000 345.051
66.92000 347.045
66.93000 349.931
66.94000 353.383
66.95000 356.669
66.96000 355.923
66.97000 353.451
66.98000 351.132
66.99000 358.081
67.00000 366.859
67.01000 374.608
67.02000 375.237
67.03000 374.506
67.04000 373.735
67.05000 372.786
67.06000 371.817
67.07000 371.080
67.08000 389.870
67.09000 405.653
67.10000 413.820
67.11000 406.682
67.12000 399.112
67.13000 396.386
67.14000 400.181
67.15000 404.010
67.16000 404.751
67.17000 402.813
67.18000 400.863
67.19000 398.292
67.20000 395.362
67.21000 392.667
67.22000 394.629
67.23000 398.405
67.24000 401.911
67.25000 398.908
67.26000 394.658
67.27000 391.374
67.28000 394.059
67.29000 397.769
67.30000 403.401
67.31000 416.741
67.32000 430.888
67.33000 441.360
67.34000 434.105
67.35000 427.710
67.36000 422.402
67.37000 419.083
67.38000 415.807
67.39000 417.517
67.40000 425.296
67.41000 433.074
67.42000 438.904
67.43000 443.184
67.44000 447.266
67.45000 443.239
67.46000 434.966
67.47000 427.327
67.48000 430.234
67.49000 436.885
67.50000 442.989
67.51000 447.655
67.52000 451.511
67.53000 454.451
67.54000 452.318
67.55000 449.405
67.56000 448.970
67.57000 457.558
67.58000 466.970
67.59000 473.747
67.60000 469.984
67.61000 466.731
67.62000 466.065
67.63000 469.703
67.64000 473.407
67.65000 478.999
67.66000 486.663
67.67000 494.297
67.68000 497.802
67.69000 498.372
67.70000 498.719
67.71000 491.994
67.72000 481.897
67.73000 473.134
67.74000 483.151
67.75000 499.238
67.76000 513.816
67.77000 506.240
67.78000 495.353
67.79000 486.921
67.80000 490.745
67.81000 496.247
67.82000 502.866
67.83000 513.176
67.84000 523.778
67.85000 531.191
67.86000 526.817
67.87000 523.180
67.88000 520.939
67.89000 520.808
67.90000 520.699
67.91000 523.413
67.92000 528.906
67.93000 534.361
67.94000 537.087
67.95000 538.042
67.96000 539.280
67.97000 547.651
67.98000 559.119
67.99000 569.620
68.00000 568.419
68.01000 563.778
68.02000 559.630
68.03000 565.815
68.04000 572.955
68.05000 578.346
68.06000 575.856
68.07000 572.408
68.08000 571.548
68.09000 578.475
68.10000 585.929
68.11000 590.979
68.12000 591.786
68.13000 592.295
68.14000 599.811
68.15000 616.918
68.16000 634.073
68.17000 640.416
68.18000 637.202
68.19000 634.021
68.20000 629.387
68.21000 624.027
68.22000 619.112
68.23000 623.326
68.24000 631.151
68.25000 638.404
68.26000 639.647
68.27000 639.284
68.28000 638.965
68.29000 651.563
68.30000 664.360
68.31000 679.198
68.32000 702.355
68.33000 726.403
68.34000 739.893
68.35000 724.459
68.36000 707.371
68.37000 696.178
68.38000 721.497
68.39000 740.710
68.40000 755.003
68.41000 763.209
68.42000 771.381
68.43000 774.128
68.44000 772.549
68.45000 770.993
68.46000 776.110
68.47000 784.515
68.48000 793.307
68.49000 808.706
68.50000 826.488
68.51000 844.499
68.52000 864.620
68.53000 885.252
68.54000 903.142
68.55000 912.894
68.56000 920.112
68.57000 933.393
68.58000 969.096
68.59000 1006.895
68.60000 1046.972
68.61000 1092.737
68.62000 1138.772
68.63000 1167.862
68.64000 1247.012
68.65000 1304.954
68.66000 1358.921
68.67000 1408.454
68.68000 1458.087
68.69000 1523.765
68.70000 1601.011
68.71000 1676.705
68.72000 1735.461
68.73000 1784.095
68.74000 1833.593
68.75000 1895.580
68.76000 1961.666
68.77000 2029.397
68.78000 2110.460
68.79000 2194.444
68.80000 2266.048
68.81000 2370.656
68.82000 2462.546
68.83000 2560.162
68.84000 2677.018
68.85000 2795.433
68.86000 2947.301
68.87000 3175.241
68.88000 3406.124
68.89000 3546.500
68.90000 4301.003
68.91000 4844.503
68.92000 5878.077
68.93000 7402.508
68.94000 8938.702
68.95000 11567.179
68.96000 14909.601
68.97000 18165.209
68.98000 22860.852
68.99000 27943.039
69.00000 33035.465
69.01000 38254.766
69.02000 43511.941
69.03000 48581.516
69.04000 52302.645
69.05000 55757.285
69.06000 58649.938
69.07000 60615.898
69.08000 62154.734
69.09000 63396.484
69.10000 63730.461
69.11000 64001.355
69.12000 64347.910
69.13000 64851.207
69.14000 65359.309
69.15000 65655.695
69.16000 66789.352
69.17000 67589.867
69.18000 67690.453
69.19000 67161.531
69.20000 66609.133
69.21000 64592.664
69.22000 61707.137
69.23000 58915.680
69.24000 55455.750
69.25000 51934.320
69.26000 48456.094
69.27000 45441.734
69.28000 42553.160
69.29000 39799.938
69.30000 37914.277
69.31000 36182.867
69.32000 34760.855
69.33000 33751.664
69.34000 32959.949
69.35000 32130.348
69.36000 31195.357
69.37000 30254.168
69.38000 29045.318
69.39000 27331.645
69.40000 25606.119
69.41000 24643.426
69.42000 20745.465
69.43000 18041.768
69.44000 15528.125
69.45000 13168.533
69.46000 10820.415
69.47000 8988.938
69.48000 7436.361
69.49000 5945.860
69.50000 4906.474
69.51000 4088.797
69.52000 3308.320
69.53000 2876.974
69.54000 2531.492
69.55000 2211.930
69.56000 2041.189
69.57000 1894.166
69.58000 1775.882
69.59000 1674.261
69.60000 1593.126
69.61000 1522.080
69.62000 1476.599
69.63000 1432.371
69.64000 1384.149
69.65000 1329.074
69.66000 1273.883
69.67000 1244.535
69.68000 1171.045
69.69000 1121.088
69.70000 1087.279
69.71000 1065.303
69.72000 1043.379
69.73000 1023.246
69.74000 1003.994
69.75000 985.668
69.76000 956.838
69.77000 926.907
69.78000 898.998
69.79000 887.796
69.80000 880.313
69.81000 872.475
69.82000 862.806
69.83000 852.875
69.84000 845.060
69.85000 833.371
69.86000 823.750
69.87000 811.897
69.88000 794.895
69.89000 777.686
69.90000 764.285
69.91000 756.818
69.92000 749.420
69.93000 745.685
69.94000 737.893
69.95000 732.672
69.96000 726.559
69.97000 719.853
69.98000 713.007
69.99000 702.378
70.00000 690.056
