20.00000 544.999
20.01000 549.184
20.02000 553.967
20.03000 557.048
20.04000 553.479
20.05000 549.239
20.06000 546.123
20.07000 555.039
20.08000 562.425
20.09000 565.984
20.10000 562.721
20.11000 559.324
20.12000 559.583
20.13000 564.170
20.14000 568.753
20.15000 567.825
20.16000 562.724
20.17000 557.824
20.18000 560.553
20.19000 567.175
20.20000 573.226
20.21000 570.222
20.22000 564.085
20.23000 558.471
20.24000 560.600
20.25000 564.089
20.26000 567.272
20.27000 568.815
20.28000 570.114
20.29000 571.060
20.30000 570.756
20.31000 570.342
20.32000 570.046
20.33000 560.902
20.34000 553.630
20.35000 551.461
20.36000 557.561
20.37000 563.776
20.38000 565.000
20.39000 560.911
20.40000 556.839
20.41000 552.452
20.42000 547.897
20.43000 543.552
20.44000 545.373
20.45000 550.060
20.46000 554.941
20.47000 562.432
20.48000 570.746
20.49000 578.253
20.50000 561.347
20.51000 541.992
20.52000 528.777
20.53000 545.351
20.54000 565.875
20.55000 581.639
20.56000 582.055
20.57000 581.307
20.58000 580.788
20.59000 565.056
20.60000 552.809
20.61000 545.395
20.62000 545.089
20.63000 544.847
20.64000 549.179
20.65000 557.882
20.66000 566.516
20.67000 560.244
20.68000 544.903
20.69000 530.463
20.70000 537.394
20.71000 553.376
20.72000 568.412
20.73000 572.445
20.74000 573.327
20.75000 574.112
20.76000 554.463
20.77000 534.039
20.78000 518.104
20.79000 521.852
20.80000 527.910
20.81000 534.344
20.82000 541.880
20.83000 549.487
20.84000 554.595
20.85000 550.552
20.86000 547.364
20.87000 547.768
20.88000 552.957
20.89000 558.172
20.90000 564.122
20.91000 570.704
20.92000 577.209
20.93000 577.716
20.94000 574.878
20.95000 572.187
20.96000 572.369
20.97000 573.660
20.98000 574.787
20.99000 574.256
21.00000 573.293
21.01000 572.449
21.02000 566.208
21.03000 560.063
21.04000 556.351
21.05000 562.300
21.06000 569.245
21.07000 574.001
21.08000 572.906
21.09000 571.493
21.10000 570.576
21.11000 561.533
21.12000 554.788
21.13000 551.575
21.14000 552.611
21.15000 553.644
21.16000 551.587
21.17000 547.134
21.18000 542.753
21.19000 542.977
21.20000 545.505
21.21000 548.233
21.22000 554.216
21.23000 561.344
21.24000 566.798
21.25000 557.400
21.26000 544.503
21.27000 533.370
21.28000 540.659
21.29000 549.218
21.30000 555.007
21.31000 550.819
21.32000 545.734
21.33000 541.647
21.34000 539.993
21.35000 538.449
21.36000 537.483
21.37000 548.208
21.38000 556.072
21.39000 562.591
21.40000 567.651
21.41000 572.696
21.42000 575.830
21.43000 577.622
21.44000 579.374
21.45000 573.939
21.46000 565.468
21.47000 557.450
21.48000 555.705
21.49000 555.967
21.50000 556.079
21.51000 555.017
21.52000 553.706
21.53000 552.593
21.54000 559.002
21.55000 565.231
21.56000 570.873
21.57000 574.600
21.58000 578.178
21.59000 580.503
21.60000 580.051
21.61000 579.497
21.62000 579.165
21.63000 597.481
21.64000 610.632
21.65000 617.590
21.66000 618.525
21.67000 619.467
21.68000 620.969
21.69000 622.829
21.70000 624.637
21.71000 637.538
21.72000 654.343
21.73000 670.494
21.74000 678.863
21.75000 684.969
21.76000 692.029
21.77000 705.740
21.78000 720.728
21.79000 733.213
21.80000 758.727
21.81000 781.159
21.82000 800.610
21.83000 811.180
21.84000 821.161
21.85000 832.894
21.86000 848.169
21.87000 863.545
21.88000 872.409
21.89000 884.596
21.90000 893.151
21.91000 908.706
21.92000 930.382
21.93000 951.902
21.94000 964.675
21.95000 972.387
21.96000 979.833
21.97000 989.756
21.98000 1000.019
21.99000 1008.654
22.00000 1000.469
22.01000 987.841
22.02000 977.309
22.03000 979.815
22.04000 984.572
22.05000 988.457
22.06000 979.246
22.07000 970.578
22.08000 958.935
22.09000 939.225
22.10000 919.062
22.11000 900.151
22.12000 883.537
22.13000 866.974
22.14000 857.850
22.15000 825.367
22.16000 802.966
22.17000 786.176
22.18000 773.812
22.19000 761.420
22.20000 747.900
22.21000 733.787
22.22000 720.268
22.23000 708.686
22.24000 698.529
22.25000 688.549
22.26000 680.182
22.27000 672.200
22.28000 665.236
22.29000 663.953
22.30000 663.547
22.31000 663.222
22.32000 642.106
22.33000 623.489
22.34000 608.850
22.35000 604.041
22.36000 599.689
22.37000 597.307
22.38000 598.218
22.39000 599.181
22.40000 599.686
22.41000 580.522
22.42000 567.570
22.43000 560.209
22.44000 556.835
22.45000 553.562
22.46000 553.533
22.47000 555.059
22.48000 556.507
22.49000 557.689
22.50000 558.701
22.51000 558.500
22.52000 548.607
22.53000 536.615
22.54000 527.019
22.55000 529.444
22.56000 533.525
22.57000 536.717
22.58000 541.972
22.59000 546.299
22.60000 547.422
22.61000 541.336
22.62000 534.977
22.63000 532.191
22.64000 534.826
22.65000 537.517
22.66000 541.255
22.67000 546.030
22.68000 550.704
22.69000 546.430
22.70000 536.368
22.71000 526.445
22.72000 520.019
22.73000 515.119
22.74000 510.511
22.75000 510.159
22.76000 510.987
22.77000 512.414
22.78000 518.104
22.79000 524.627
22.80000 529.409
22.81000 526.307
22.82000 522.241
22.83000 519.137
22.84000 515.778
22.85000 513.116
22.86000 511.543
22.87000 512.202
22.88000 512.927
22.89000 512.352
22.90000 509.988
22.91000 507.615
22.92000 507.187
22.93000 508.487
22.94000 509.785
22.95000 510.984
22.96000 512.126
22.97000 513.072
22.98000 509.954
22.99000 505.219
23.00000 500.814
23.01000 503.670
23.02000 508.011
23.03000 512.146
23.04000 514.978
23.05000 517.581
23.06000 519.740
23.07000 520.082
23.08000 520.229
23.09000 520.339
23.10000 524.272
23.11000 527.505
23.12000 527.653
23.13000 522.044
23.14000 516.305
23.15000 513.340
23.16000 513.827
23.17000 514.324
23.18000 513.124
23.19000 510.577
23.20000 508.009
23.21000 504.584
23.22000 500.699
23.23000 497.103
23.24000 498.477
23.25000 501.652
23.26000 504.572
23.27000 502.391
23.28000 499.332
23.29000 497.457
23.30000 502.293
23.31000 508.186
23.32000 510.685
23.33000 500.568
23.34000 489.262
23.35000 481.073
23.36000 488.607
23.37000 494.972
23.38000 499.424
23.39000 500.630
23.40000 501.782
23.41000 500.658
23.42000 496.983
23.43000 493.318
23.44000 496.097
23.45000 503.479
23.46000 510.667
23.47000 511.367
23.48000 508.911
23.49000 506.648
23.50000 507.202
23.51000 508.686
23.52000 510.033
23.53000 497.672
23.54000 484.081
23.55000 475.001
23.56000 488.939
23.57000 506.110
23.58000 517.882
23.59000 511.424
23.60000 503.478
23.61000 497.886
23.62000 497.321
23.63000 497.042
23.64000 496.560
23.65000 495.767
23.66000 494.970
23.67000 490.713
23.68000 482.972
23.69000 475.279
23.70000 475.321
23.71000 480.371
23.72000 485.155
23.73000 482.949
23.74000 477.646
23.75000 473.148
23.76000 478.695
23.77000 487.255
23.78000 494.930
23.79000 500.197
23.80000 504.381
23.81000 507.942
23.82000 508.633
23.83000 508.967
23.84000 506.539
23.85000 495.631
23.86000 484.128
23.87000 476.282
23.88000 480.962
23.89000 484.753
23.90000 489.299
23.91000 494.902
23.92000 500.507
23.93000 498.108
23.94000 488.471
23.95000 478.927
23.96000 477.842
23.97000 481.719
23.98000 485.446
23.99000 485.976
24.00000 485.215
24.01000 484.111
24.02000 479.294
24.03000 473.467
24.04000 468.317
24.05000 472.952
24.06000 478.466
24.07000 482.613
24.08000 481.068
24.09000 478.897
24.10000 478.116
24.11000 481.220
24.12000 484.554
24.13000 486.754
24.14000 484.330
24.15000 482.461
24.16000 482.681
24.17000 485.540
24.18000 488.415
24.19000 493.602
24.20000 500.673
24.21000 507.646
24.22000 506.203
24.23000 500.365
24.24000 494.917
24.25000 496.401
24.26000 500.434
24.27000 503.210
24.28000 494.110
24.29000 482.074
24.30000 471.602
24.31000 470.783
24.32000 471.404
24.33000 472.335
24.34000 474.436
24.35000 476.650
24.36000 480.270
24.37000 487.474
24.38000 494.855
24.39000 499.555
24.40000 494.502
24.41000 490.705
24.42000 488.896
24.43000 489.356
24.44000 489.813
24.45000 489.464
24.46000 488.522
24.47000 487.597
24.48000 488.362
24.49000 489.904
24.50000 491.386
24.51000 491.986
24.52000 492.291
24.53000 492.073
24.54000 487.502
24.55000 481.958
24.56000 477.214
24.57000 481.263
24.58000 485.739
24.59000 489.157
24.60000 488.944
24.61000 488.428
24.62000 488.200
24.63000 488.643
24.64000 489.113
24.65000 489.401
24.66000 492.358
24.67000 494.499
24.68000 493.493
24.69000 489.262
24.70000 485.053
24.71000 483.202
24.72000 482.925
24.73000 482.655
24.74000 481.619
24.75000 480.299
24.76000 478.851
24.77000 475.765
24.78000 472.179
24.79000 469.480
24.80000 473.316
24.81000 478.473
24.82000 482.807
24.83000 482.859
24.84000 482.448
24.85000 479.949
24.86000 470.937
24.87000 461.457
24.88000 458.498
24.89000 469.318
24.90000 480.582
24.91000 487.213
24.92000 475.373
24.93000 466.927
24.94000 465.296
24.95000 469.933
24.96000 474.532
24.97000 476.560
24.98000 477.030
24.99000 477.486
25.00000 473.859
25.01000 468.844
25.02000 464.490
25.03000 467.438
25.04000 472.408
25.05000 475.766
25.06000 468.539
25.07000 459.386
25.08000 451.837
25.09000 454.200
25.10000 457.062
25.11000 459.306
25.12000 459.794
25.13000 460.175
25.14000 461.543
25.15000 464.810
25.16000 468.124
25.17000 469.991
25.18000 461.329
25.19000 455.296
25.20000 453.783
25.21000 456.014
25.22000 458.190
25.23000 457.693
25.24000 455.724
25.25000 453.831
25.26000 459.575
25.27000 467.630
25.28000 474.893
25.29000 474.512
25.30000 472.210
25.31000 470.923
25.32000 475.601
25.33000 481.252
25.34000 485.818
25.35000 474.670
25.36000 464.346
25.37000 456.583
25.38000 455.441
25.39000 454.637
25.40000 457.759
25.41000 467.755
25.42000 477.876
25.43000 483.316
25.44000 465.172
25.45000 452.815
25.46000 451.926
25.47000 459.621
25.48000 467.217
25.49000 471.218
25.50000 473.417
25.51000 475.514
25.52000 476.081
25.53000 476.124
25.54000 476.258
25.55000 477.163
25.56000 478.242
25.57000 478.393
25.58000 473.639
25.59000 468.171
25.60000 463.847
25.61000 460.987
25.62000 458.790
25.63000 456.004
25.64000 451.830
25.65000 447.599
25.66000 448.419
25.67000 457.275
25.68000 466.234
25.69000 470.809
25.70000 457.919
25.71000 449.368
25.72000 452.409
25.73000 463.307
25.74000 473.920
25.75000 476.483
25.76000 475.370
25.77000 474.318
25.78000 466.361
25.79000 457.095
25.80000 449.237
25.81000 451.956
25.82000 456.848
25.83000 460.672
25.84000 459.414
25.85000 457.497
25.86000 456.017
25.87000 455.310
25.88000 454.795
25.89000 455.954
25.90000 460.705
25.91000 465.577
25.92000 468.769
25.93000 469.537
25.94000 470.285
25.95000 469.134
25.96000 466.208
25.97000 463.262
25.98000 458.923
25.99000 453.725
26.00000 448.637
26.01000 446.038
26.02000 444.475
26.03000 443.012
26.04000 447.593
26.05000 453.299
26.06000 458.355
26.07000 459.072
26.08000 458.986
26.09000 458.254
26.10000 454.741
26.11000 450.909
26.12000 448.021
26.13000 444.431
26.14000 441.585
26.15000 438.991
26.16000 436.890
26.17000 434.801
26.18000 438.707
26.19000 450.445
26.20000 462.205
26.21000 464.504
26.22000 458.849
26.23000 453.363
26.24000 456.498
26.25000 464.453
26.26000 471.951
26.27000 470.828
26.28000 466.438
26.29000 462.376
26.30000 460.829
26.31000 460.016
26.32000 459.062
26.33000 457.271
26.34000 455.340
26.35000 453.003
26.36000 449.085
26.37000 445.008
26.38000 442.015
26.39000 447.743
26.40000 452.524
26.41000 455.348
26.42000 454.693
26.43000 453.970
26.44000 454.611
26.45000 456.862
26.46000 459.111
26.47000 453.768
26.48000 442.722
26.49000 432.032
26.50000 434.739
26.51000 444.266
26.52000 453.514
26.53000 458.370
26.54000 461.711
26.55000 464.765
26.56000 464.006
26.57000 462.548
26.58000 461.405
26.59000 461.953
26.60000 462.751
26.61000 461.194
26.62000 451.307
26.63000 440.690
26.64000 433.111
26.65000 444.712
26.66000 454.194
26.67000 456.206
26.68000 446.146
26.69000 435.921
26.70000 434.608
26.71000 442.756
26.72000 450.866
26.73000 452.253
26.74000 449.047
26.75000 446.064
26.76000 449.632
26.77000 456.237
26.78000 462.336
26.79000 461.631
26.80000 458.789
26.81000 456.224
26.82000 453.323
26.83000 450.713
26.84000 448.100
26.85000 445.471
26.86000 442.839
26.87000 439.868
26.88000 435.802
26.89000 431.654
26.90000 428.780
26.91000 437.130
26.92000 443.708
26.93000 445.628
26.94000 440.716
26.95000 435.746
26.96000 438.160
26.97000 447.607
26.98000 456.979
26.99000 453.679
27.00000 442.658
27.01000 432.059
27.02000 431.415
27.03000 434.973
27.04000 438.702
27.05000 444.403
27.06000 450.667
27.07000 456.242
27.08000 452.631
27.09000 447.994
27.10000 445.268
27.11000 450.902
27.12000 457.513
27.13000 460.702
27.14000 453.877
27.15000 446.408
27.16000 441.398
27.17000 442.908
27.18000 444.161
27.19000 444.778
27.20000 444.552
27.21000 444.317
27.22000 440.845
27.23000 434.601
27.24000 428.431
27.25000 428.462
27.26000 431.928
27.27000 435.099
27.28000 432.569
27.29000 427.844
27.30000 423.830
27.31000 426.975
27.32000 431.976
27.33000 436.361
27.34000 436.563
27.35000 436.129
27.36000 435.090
27.37000 431.660
27.38000 427.983
27.39000 424.851
27.40000 423.169
27.41000 421.566
27.42000 420.527
27.43000 435.068
27.44000 445.944
27.45000 446.231
27.46000 433.813
27.47000 421.418
27.48000 420.764
27.49000 429.188
27.50000 437.474
27.51000 441.671
27.52000 443.687
27.53000 445.435
27.54000 442.834
27.55000 438.709
27.56000 434.092
27.57000 425.115
27.58000 415.115
27.59000 406.487
27.60000 414.058
27.61000 422.560
27.62000 430.208
27.63000 434.788
27.64000 439.094
27.65000 440.811
27.66000 436.248
27.67000 431.403
27.68000 428.376
27.69000 431.302
27.70000 433.475
27.71000 436.844
27.72000 441.506
27.73000 446.115
27.74000 443.930
27.75000 436.991
27.76000 430.202
27.77000 429.509
27.78000 431.596
27.79000 433.206
27.80000 428.244
27.81000 421.186
27.82000 414.999
27.83000 415.617
27.84000 417.680
27.85000 419.430
27.86000 424.395
27.87000 428.921
27.88000 431.901
27.89000 429.834
27.90000 427.376
27.91000 423.913
27.92000 418.224
27.93000 412.456
27.94000 408.991
27.95000 418.470
27.96000 425.294
27.97000 425.889
27.98000 420.448
27.99000 415.082
28.00000 415.830
28.01000 420.459
28.02000 424.958
28.03000 425.281
28.04000 423.885
28.05000 422.256
28.06000 417.863
28.07000 412.670
28.08000 408.972
28.09000 415.651
28.10000 424.317
28.11000 431.532
28.12000 430.593
28.13000 429.010
28.14000 428.490
28.15000 431.126
28.16000 433.971
28.17000 437.182
28.18000 441.130
28.19000 445.099
28.20000 447.384
28.21000 437.262
28.22000 430.136
28.23000 426.626
28.24000 426.268
28.25000 425.979
28.26000 429.627
28.27000 435.544
28.28000 441.256
28.29000 438.995
28.30000 433.933
28.31000 429.622
28.32000 433.052
28.33000 438.520
28.34000 442.025
28.35000 433.360
28.36000 422.601
28.37000 413.818
28.38000 412.330
28.39000 411.740
28.40000 411.608
28.41000 412.719
28.42000 413.900
28.43000 417.617
28.44000 425.984
28.45000 434.452
28.46000 439.109
28.47000 436.562
28.48000 434.806
28.49000 436.197
28.50000 440.060
28.51000 443.706
28.52000 438.365
28.53000 428.310
28.54000 418.680
28.55000 415.753
28.56000 415.246
28.57000 414.674
28.58000 413.504
28.59000 412.193
28.60000 411.861
28.61000 416.979
28.62000 422.935
28.63000 427.697
28.64000 422.617
28.65000 417.783
28.66000 412.884
28.67000 407.823
28.68000 402.756
28.69000 401.742
28.70000 407.486
28.71000 413.334
28.72000 416.396
28.73000 424.904
28.74000 430.607
28.75000 427.696
28.76000 418.661
28.77000 409.916
28.78000 410.419
28.79000 415.340
28.80000 420.012
28.81000 418.314
28.82000 414.844
28.83000 411.782
28.84000 411.963
28.85000 412.846
28.86000 413.853
28.87000 415.484
28.88000 417.200
28.89000 418.542
28.90000 417.872
28.91000 417.209
28.92000 416.042
28.93000 413.741
28.94000 411.398
28.95000 411.470
28.96000 415.199
28.97000 418.965
28.98000 422.463
28.99000 425.695
29.00000 428.900
29.01000 429.763
29.02000 429.115
29.03000 428.362
29.04000 424.934
29.05000 420.342
29.06000 416.026
29.07000 422.471
29.08000 431.252
29.09000 437.979
29.10000 430.187
29.11000 419.567
29.12000 411.829
29.13000 417.104
29.14000 423.962
29.15000 429.196
29.16000 415.941
29.17000 404.508
29.18000 398.143
29.19000 402.142
29.20000 406.447
29.21000 406.915
29.22000 402.120
29.23000 397.295
29.24000 395.755
29.25000 397.124
29.26000 398.536
29.27000 402.498
29.28000 407.955
29.29000 413.120
29.30000 412.268
29.31000 409.031
29.32000 406.020
29.33000 406.599
29.34000 407.988
29.35000 409.241
29.36000 409.627
29.37000 409.861
29.38000 410.142
29.39000 410.616
29.40000 411.111
29.41000 411.479
29.42000 408.788
29.43000 406.559
29.44000 406.620
29.45000 410.943
29.46000 415.362
29.47000 417.314
29.48000 416.207
29.49000 415.093
29.50000 413.054
29.51000 410.288
29.52000 407.713
29.53000 413.365
29.54000 423.401
29.55000 432.668
29.56000 428.752
29.57000 420.074
29.58000 412.093
29.59000 410.980
29.60000 411.474
29.61000 411.965
29.62000 412.444
29.63000 412.921
29.64000 412.813
29.65000 410.538
29.66000 408.060
29.67000 406.267
29.68000 407.238
29.69000 408.086
29.70000 408.748
29.71000 409.098
29.72000 409.443
29.73000 411.837
29.74000 416.522
29.75000 421.191
29.76000 422.405
29.77000 421.134
29.78000 420.008
29.79000 423.646
29.80000 429.595
29.81000 435.183
29.82000 435.529
29.83000 434.151
29.84000 432.899
29.85000 432.184
29.86000 431.657
29.87000 432.253
29.88000 438.561
29.89000 445.668
29.90000 451.813
29.91000 454.721
29.92000 457.365
29.93000 459.224
29.94000 462.694
29.95000 465.371
29.96000 463.158
29.97000 453.429
29.98000 443.618
29.99000 437.314
30.00000 434.532
30.01000 431.768
30.02000 434.712
30.03000 441.297
30.04000 447.528
30.05000 444.516
30.06000 437.419
30.07000 431.131
30.08000 434.888
30.09000 441.649
30.10000 447.708
30.11000 448.357
30.12000 447.988
30.13000 446.608
30.14000 440.584
30.15000 433.984
30.16000 429.470
30.17000 431.341
30.18000 433.657
30.19000 435.236
30.20000 439.118
30.21000 442.071
30.22000 442.363
30.23000 438.945
30.24000 435.503
30.25000 433.324
30.26000 432.283
30.27000 431.252
30.28000 426.090
30.29000 418.631
30.30000 411.593
30.31000 413.519
30.32000 419.051
30.33000 424.503
30.34000 429.073
30.35000 433.404
30.36000 437.230
30.37000 427.744
30.38000 417.506
30.39000 409.560
30.40000 411.128
30.41000 413.737
30.42000 418.549
30.43000 429.498
30.44000 440.810
30.45000 448.266
30.46000 436.366
30.47000 427.259
30.48000 422.550
30.49000 423.387
30.50000 424.246
30.51000 426.561
30.52000 430.057
30.53000 433.505
30.54000 434.100
30.55000 433.181
30.56000 432.358
30.57000 433.259
30.58000 434.792
30.59000 435.973
30.60000 433.840
30.61000 430.890
30.62000 428.325
30.63000 431.574
30.64000 435.139
30.65000 438.612
30.66000 441.736
30.67000 444.828
30.68000 446.915
30.69000 446.452
30.70000 445.864
30.71000 445.489
30.72000 446.550
30.73000 447.339
30.74000 448.788
30.75000 450.989
30.76000 453.208
30.77000 458.627
30.78000 466.396
30.79000 474.017
30.80000 473.705
30.81000 469.642
30.82000 465.921
30.83000 467.281
30.84000 470.338
30.85000 474.342
30.86000 486.197
30.87000 499.803
30.88000 511.441
30.89000 513.464
30.90000 514.014
30.91000 518.328
30.92000 535.508
30.93000 553.758
30.94000 570.322
30.95000 582.983
30.96000 595.488
30.97000 603.146
30.98000 646.083
30.99000 677.122
31.00000 713.813
31.01000 756.280
31.02000 798.800
31.03000 846.670
31.04000 898.100
31.05000 948.252
31.06000 1017.804
31.07000 1092.534
31.08000 1167.756
31.09000 1249.262
31.10000 1332.676
31.11000 1417.478
31.12000 1512.478
31.13000 1609.531
31.14000 1691.072
31.15000 1840.780
31.16000 1972.696
31.17000 2103.667
31.18000 2231.702
31.19000 2359.526
31.20000 2481.303
31.21000 2590.334
31.22000 2698.957
31.23000 2762.815
31.24000 2893.786
31.25000 2986.480
31.26000 3064.421
31.27000 3128.837
31.28000 3192.704
31.29000 3220.021
31.30000 3225.259
31.31000 3230.333
31.32000 3213.947
31.33000 3190.149
31.34000 3165.072
31.35000 3125.920
31.36000 3082.883
31.37000 3032.959
31.38000 2937.972
31.39000 2834.816
31.40000 2749.787
31.41000 2645.408
31.42000 2557.720
31.43000 2461.434
31.44000 2340.817
31.45000 2218.723
31.46000 2099.070
31.47000 1984.098
31.48000 1869.243
31.49000 1804.625
31.50000 1687.434
31.51000 1605.972
31.52000 1533.026
31.53000 1467.112
31.54000 1401.014
31.55000 1326.174
31.56000 1246.533
31.57000 1169.964
31.58000 1116.427
31.59000 1074.298
31.60000 1031.426
31.61000 981.410
31.62000 929.606
31.63000 881.621
31.64000 856.001
31.65000 834.019
31.66000 816.265
31.67000 782.868
31.68000 754.471
31.69000 728.157
31.70000 707.211
31.71000 686.537
31.72000 666.082
31.73000 646.009
31.74000 625.942
31.75000 615.175
31.76000 597.522
31.77000 585.463
31.78000 573.553
31.79000 561.755
31.80000 550.166
31.81000 546.075
31.82000 545.734
31.83000 545.408
31.84000 530.218
31.85000 511.456
31.86000 493.655
31.87000 483.978
31.88000 476.142
31.89000 467.798
31.90000 456.777
31.91000 445.367
31.92000 436.351
31.93000 443.777
31.94000 450.864
31.95000 454.193
31.96000 448.695
31.97000 442.830
31.98000 437.743
31.99000 433.889
32.00000 430.051
32.01000 428.094
32.02000 433.950
32.03000 437.812
32.04000 434.167
32.05000 425.448
32.06000 417.024
32.07000 416.888
32.08000 420.526
32.09000 423.962
32.10000 417.743
32.11000 409.302
32.12000 401.796
32.13000 401.295
32.14000 402.228
32.15000 403.074
32.16000 403.506
32.17000 403.883
32.18000 404.175
32.19000 401.427
32.20000 399.071
32.21000 396.661
32.22000 394.135
32.23000 391.605
32.24000 391.114
32.25000 393.560
32.26000 396.028
32.27000 395.347
32.28000 391.728
32.29000 388.193
32.30000 390.559
32.31000 396.545
32.32000 402.004
32.33000 395.525
32.34000 384.093
32.35000 373.403
32.36000 374.622
32.37000 378.761
32.38000 383.166
32.39000 389.345
32.40000 395.851
32.41000 400.546
32.42000 397.472
32.43000 393.512
32.44000 390.529
32.45000 386.934
32.46000 384.090
32.47000 382.076
32.48000 381.678
32.49000 381.321
32.50000 381.001
32.51000 380.727
32.52000 380.454
32.53000 378.507
32.54000 375.165
32.55000 371.982
32.56000 376.765
32.57000 385.990
32.58000 394.730
32.59000 394.408
32.60000 390.660
32.61000 387.193
32.62000 386.642
32.63000 386.812
32.64000 386.338
32.65000 382.023
32.66000 377.073
32.67000 372.752
32.68000 370.876
32.69000 369.245
32.70000 368.049
32.71000 373.021
32.72000 377.111
32.73000 381.248
32.74000 385.469
32.75000 389.690
32.76000 389.952
32.77000 385.558
32.78000 381.168
32.79000 381.983
32.80000 386.714
32.81000 391.419
32.82000 395.165
32.83000 398.425
32.84000 401.750
32.85000 406.099
32.86000 410.800
32.87000 415.097
32.88000 408.047
32.89000 399.462
32.90000 392.408
32.91000 393.546
32.92000 395.896
32.93000 397.575
32.94000 396.885
32.95000 395.989
32.96000 395.349
32.97000 391.569
32.98000 388.583
32.99000 388.542
33.00000 393.245
33.01000 398.011
33.02000 396.442
33.03000 388.168
33.04000 379.935
33.05000 370.929
33.06000 361.504
33.07000 352.442
33.08000 353.962
33.09000 360.374
33.10000 366.030
33.11000 361.578
33.12000 353.961
33.13000 347.090
33.14000 346.901
33.15000 347.957
33.16000 349.887
33.17000 356.029
33.18000 362.725
33.19000 365.572
33.20000 356.078
33.21000 345.656
33.22000 338.444
33.23000 342.804
33.24000 346.386
33.25000 349.580
33.26000 352.209
33.27000 354.832
33.28000 351.853
33.29000 343.558
33.30000 335.329
33.31000 335.092
33.32000 339.749
33.33000 344.214
33.34000 344.173
33.35000 342.235
33.36000 340.679
33.37000 343.526
33.38000 347.627
33.39000 351.274
33.40000 345.086
33.41000 338.110
33.42000 334.072
33.43000 342.831
33.44000 353.081
33.45000 359.091
33.46000 352.734
33.47000 345.585
33.48000 340.794
33.49000 339.467
33.50000 338.552
33.51000 340.227
33.52000 345.333
33.53000 350.447
33.54000 350.063
33.55000 344.985
33.56000 339.967
33.57000 338.294
33.58000 338.509
33.59000 338.837
33.60000 341.334
33.61000 344.663
33.62000 347.760
33.63000 348.540
33.64000 348.720
33.65000 348.878
33.66000 349.387
33.67000 349.875
33.68000 348.512
33.69000 339.842
33.70000 330.424
33.71000 323.818
33.72000 324.681
33.73000 325.947
33.74000 326.767
33.75000 330.482
33.76000 333.243
33.77000 335.942
33.78000 338.565
33.79000 341.170
33.80000 339.526
33.81000 334.606
33.82000 329.767
33.83000 331.128
33.84000 335.535
33.85000 339.938
33.86000 344.273
33.87000 348.586
33.88000 352.065
33.89000 348.211
33.90000 342.640
33.91000 337.836
33.92000 330.635
33.93000 324.223
33.94000 321.231
33.95000 330.491
33.96000 340.844
33.97000 347.385
33.98000 344.703
33.99000 341.610
34.00000 339.680
34.01000 340.346
34.02000 340.854
34.03000 340.074
34.04000 337.909
34.05000 335.730
34.06000 331.892
34.07000 326.896
34.08000 322.011
34.09000 322.180
34.10000 324.617
34.11000 326.965
34.12000 328.082
34.13000 328.807
34.14000 329.173
34.15000 326.743
34.16000 323.720
34.17000 321.159
34.18000 316.921
34.19000 313.181
34.20000 312.517
34.21000 321.863
34.22000 331.980
34.23000 336.001
34.24000 326.582
34.25000 316.679
34.26000 310.739
34.27000 319.440
34.28000 325.719
34.29000 333.807
34.30000 343.643
34.31000 353.344
34.32000 352.261
34.33000 344.352
34.34000 336.665
34.35000 330.972
34.36000 326.370
34.37000 322.020
34.38000 320.639
34.39000 320.117
34.40000 319.600
34.41000 319.120
34.42000 318.647
34.43000 318.253
34.44000 320.918
34.45000 323.426
34.46000 325.638
34.47000 326.976
34.48000 328.256
34.49000 327.476
34.50000 322.558
34.51000 317.524
34.52000 314.629
34.53000 317.325
34.54000 319.231
34.55000 321.092
34.56000 322.913
34.57000 324.745
34.58000 327.138
34.59000 329.855
34.60000 332.477
34.61000 329.399
34.62000 324.412
34.63000 319.533
34.64000 315.770
34.65000 312.300
34.66000 309.959
34.67000 314.596
34.68000 320.429
34.69000 325.188
34.70000 322.562
34.71000 319.783
34.72000 317.859
34.73000 318.241
34.74000 318.752
34.75000 320.847
34.76000 325.837
34.77000 330.888
34.78000 333.663
34.79000 334.074
34.80000 334.341
34.81000 331.112
34.82000 325.144
34.83000 319.345
34.84000 320.485
34.85000 325.255
34.86000 329.821
34.87000 321.482
34.88000 309.441
34.89000 299.038
34.90000 303.357
34.91000 311.179
34.92000 318.403
34.93000 322.308
34.94000 325.704
34.95000 328.417
34.96000 322.523
34.97000 317.128
34.98000 313.765
34.99000 315.395
35.00000 317.254
35.01000 318.143
35.02000 317.421
35.03000 316.675
35.04000 316.285
35.05000 312.609
35.06000 310.140
35.07000 310.425
35.08000 312.661
35.09000 314.942
35.10000 318.611
35.11000 322.942
35.12000 327.052
35.13000 320.853
35.14000 312.062
35.15000 304.205
35.16000 303.751
35.17000 304.890
35.18000 306.360
35.19000 309.478
35.20000 312.821
35.21000 315.432
35.22000 314.449
35.23000 313.437
35.24000 313.457
35.25000 315.783
35.26000 318.194
35.27000 316.429
35.28000 308.362
35.29000 300.232
35.30000 299.471
35.31000 305.954
35.32000 312.447
35.33000 319.793
35.34000 327.689
35.35000 334.955
35.36000 326.429
35.37000 311.051
35.38000 296.597
35.39000 299.460
35.40000 306.716
35.41000 313.369
35.42000 315.771
35.43000 317.348
35.44000 318.840
35.45000 319.949
35.46000 321.012
35.47000 321.822
35.48000 323.308
35.49000 324.514
35.50000 326.180
35.51000 328.783
35.52000 331.415
35.53000 330.662
35.54000 325.281
35.55000 319.876
35.56000 312.957
35.57000 304.711
35.58000 296.604
35.59000 296.665
35.60000 301.497
35.61000 306.154
35.62000 307.235
35.63000 306.903
35.64000 306.595
35.65000 302.198
35.66000 297.242
35.67000 293.811
35.68000 299.960
35.69000 307.783
35.70000 312.636
35.71000 305.397
35.72000 296.865
35.73000 290.525
35.74000 296.797
35.75000 302.233
35.76000 305.937
35.77000 306.424
35.78000 306.840
35.79000 307.033
35.80000 306.952
35.81000 306.870
35.82000 304.860
35.83000 301.328
35.84000 297.887
35.85000 298.304
35.86000 300.769
35.87000 303.061
35.88000 302.397
35.89000 300.668
35.90000 299.078
35.91000 299.738
35.92000 300.814
35.93000 301.547
35.94000 300.350
35.95000 298.851
35.96000 298.010
35.97000 299.598
35.98000 301.413
35.99000 302.726
36.00000 305.550
36.01000 307.772
36.02000 308.223
36.03000 305.687
36.04000 303.103
36.05000 300.324
36.06000 297.328
36.07000 294.344
36.08000 292.459
36.09000 291.377
36.10000 290.331
36.11000 290.476
36.12000 291.198
36.13000 291.592
36.14000 287.242
36.15000 281.336
36.16000 275.975
36.17000 287.357
36.18000 300.644
36.19000 310.714
36.20000 304.468
36.21000 295.947
36.22000 291.014
36.23000 298.123
36.24000 306.206
36.25000 311.883
36.26000 313.031
36.27000 313.768
36.28000 311.155
36.29000 303.405
36.30000 295.600
36.31000 292.475
36.32000 294.035
36.33000 295.584
36.34000 297.438
36.35000 299.461
36.36000 301.333
36.37000 299.308
36.38000 295.564
36.39000 292.137
36.40000 292.624
36.41000 294.279
36.42000 295.761
36.43000 297.832
36.44000 299.743
36.45000 301.884
36.46000 305.084
36.47000 308.414
36.48000 308.258
36.49000 297.458
36.50000 285.920
36.51000 278.064
36.52000 286.411
36.53000 293.017
36.54000 295.223
36.55000 291.315
36.56000 287.372
36.57000 289.967
36.58000 298.434
36.59000 306.816
36.60000 307.548
36.61000 303.824
36.62000 300.442
36.63000 304.298
36.64000 311.058
36.65000 316.925
36.66000 313.215
36.67000 306.912
36.68000 301.346
36.69000 296.887
36.70000 293.209
36.71000 290.706
36.72000 293.075
36.73000 295.974
36.74000 296.835
36.75000 292.033
36.76000 286.898
36.77000 283.517
36.78000 292.980
36.79000 300.173
36.80000 304.850
36.81000 306.367
36.82000 307.850
36.83000 300.809
36.84000 286.865
36.85000 273.120
36.86000 277.350
36.87000 290.874
36.88000 303.572
36.89000 301.771
36.90000 294.669
36.91000 288.324
36.92000 289.062
36.93000 291.541
36.94000 293.695
36.95000 297.433
36.96000 300.836
36.97000 303.021
36.98000 300.634
36.99000 297.810
37.00000 294.895
37.01000 291.752
37.02000 288.598
37.03000 286.593
37.04000 291.963
37.05000 295.954
37.06000 297.168
37.07000 295.235
37.08000 293.309
37.09000 293.144
37.10000 294.266
37.11000 295.366
37.12000 294.205
37.13000 292.018
37.14000 290.073
37.15000 291.722
37.16000 294.567
37.17000 297.318
37.18000 299.287
37.19000 301.081
37.20000 302.615
37.21000 293.109
37.22000 283.773
37.23000 276.396
37.24000 275.696
37.25000 275.550
37.26000 277.688
37.27000 285.097
37.28000 292.717
37.29000 297.377
37.30000 294.814
37.31000 292.919
37.32000 292.345
37.33000 293.118
37.34000 293.848
37.35000 290.357
37.36000 284.068
37.37000 277.935
37.38000 280.552
37.39000 286.785
37.40000 292.893
37.41000 297.416
37.42000 301.460
37.43000 304.651
37.44000 301.611
37.45000 297.319
37.46000 293.715
37.47000 297.546
37.48000 301.518
37.49000 303.409
37.50000 298.846
37.51000 293.824
37.52000 291.603
37.53000 295.266
37.54000 299.115
37.55000 301.376
37.56000 283.643
37.57000 271.049
37.58000 267.702
37.59000 272.807
37.60000 277.824
37.61000 277.080
37.62000 272.866
37.63000 268.785
37.64000 276.863
37.65000 289.190
37.66000 300.250
37.67000 297.420
37.68000 290.768
37.69000 284.712
37.70000 282.542
37.71000 281.073
37.72000 279.864
37.73000 287.056
37.74000 293.743
37.75000 298.440
37.76000 297.526
37.77000 296.273
37.78000 295.813
37.79000 296.870
37.80000 297.965
37.81000 298.580
37.82000 294.691
37.83000 291.986
37.84000 291.612
37.85000 293.156
37.86000 294.597
37.87000 291.209
37.88000 285.178
37.89000 279.380
37.90000 280.837
37.91000 284.725
37.92000 288.313
37.93000 289.031
37.94000 289.032
37.95000 289.969
37.96000 296.367
37.97000 303.651
37.98000 309.529
37.99000 299.132
38.00000 289.392
38.01000 285.927
38.02000 298.590
38.03000 312.066
38.04000 317.312
38.05000 308.233
38.06000 298.896
38.07000 293.893
38.08000 303.442
38.09000 309.915
38.10000 305.753
38.11000 293.679
38.12000 281.812
38.13000 277.288
38.14000 276.425
38.15000 275.603
38.16000 281.686
38.17000 289.492
38.18000 297.205
38.19000 304.138
38.20000 310.895
38.21000 315.771
38.22000 310.783
38.23000 304.366
38.24000 299.299
38.25000 299.939
38.26000 300.841
38.27000 302.353
38.28000 305.294
38.29000 308.293
38.30000 312.592
38.31000 318.946
38.32000 325.325
38.33000 328.572
38.34000 337.852
38.35000 344.054
38.36000 347.903
38.37000 350.165
38.38000 352.446
38.39000 355.263
38.40000 358.323
38.41000 361.213
38.42000 364.289
38.43000 367.163
38.44000 370.988
38.45000 381.900
38.46000 394.258
38.47000 406.241
38.48000 416.445
38.49000 426.420
38.50000 434.117
38.51000 444.119
38.52000 452.179
38.53000 456.830
38.54000 454.211
38.55000 451.351
38.56000 453.779
38.57000 463.795
38.58000 473.868
38.59000 480.665
38.60000 484.414
38.61000 488.077
38.62000 485.672
38.63000 479.555
38.64000 473.405
38.65000 466.477
38.66000 459.229
38.67000 452.452
38.68000 459.645
38.69000 469.718
38.70000 478.045
38.71000 474.767
38.72000 469.356
38.73000 462.474
38.74000 449.302
38.75000 435.415
38.76000 424.963
38.77000 424.193
38.78000 424.060
38.79000 421.429
38.80000 413.944
38.81000 406.335
38.82000 397.105
38.83000 385.769
38.84000 374.437
38.85000 364.289
38.86000 355.159
38.87000 346.096
38.88000 340.328
38.89000 336.393
38.90000 332.512
38.91000 329.628
38.92000 327.120
38.93000 324.801
38.94000 321.416
38.95000 318.133
38.96000 314.554
38.97000 309.216
38.98000 303.588
38.99000 298.861
39.00000 297.624
39.01000 296.735
39.02000 296.084
39.03000 288.694
39.04000 282.717
39.05000 280.050
39.06000 283.237
39.07000 286.534
39.08000 287.061
39.09000 284.339
39.10000 281.619
39.11000 279.386
39.12000 277.536
39.13000 275.627
39.14000 271.586
39.15000 266.466
39.16000 261.852
39.17000 265.143
39.18000 271.147
39.19000 276.632
39.20000 276.783
39.21000 275.829
39.22000 274.497
39.23000 271.147
39.24000 267.499
39.25000 265.180
39.26000 267.530
39.27000 270.287
39.28000 272.251
39.29000 270.490
39.30000 269.027
39.31000 269.073
39.32000 271.545
39.33000 274.050
39.34000 274.669
39.35000 273.300
39.36000 271.937
39.37000 269.552
39.38000 266.503
39.39000 263.636
39.40000 266.059
39.41000 270.919
39.42000 275.219
39.43000 272.067
39.44000 266.586
39.45000 261.644
39.46000 261.847
39.47000 262.964
39.48000 265.220
39.49000 272.957
39.50000 281.412
39.51000 284.842
39.52000 272.208
39.53000 258.373
39.54000 248.807
39.55000 260.109
39.56000 269.147
39.57000 272.429
39.58000 267.321
39.59000 262.143
39.60000 259.546
39.61000 259.393
39.62000 259.240
39.63000 260.622
39.64000 262.914
39.65000 265.134
39.66000 265.662
39.67000 265.481
39.68000 265.311
39.69000 265.279
39.70000 265.286
39.71000 265.292
39.72000 264.310
39.73000 263.297
39.74000 263.103
39.75000 266.460
39.76000 270.230
39.77000 272.056
39.78000 268.228
39.79000 264.040
39.80000 261.236
39.81000 262.178
39.82000 262.951
39.83000 263.572
39.84000 263.995
39.85000 264.416
39.86000 264.704
39.87000 264.879
39.88000 265.051
39.89000 264.240
39.90000 262.907
39.91000 261.659
39.92000 262.057
39.93000 263.084
39.94000 263.862
39.95000 262.153
39.96000 259.802
39.97000 257.743
39.98000 261.668
39.99000 265.898
40.00000 267.993
40.01000 261.690
40.02000 254.530
40.03000 249.790
40.04000 251.455
40.05000 253.463
40.06000 254.762
40.07000 257.197
40.08000 258.995
40.09000 259.498
40.10000 258.457
40.11000 257.407
40.12000 254.763
40.13000 250.896
40.14000 247.093
40.15000 249.808
40.16000 255.672
40.17000 261.042
40.18000 258.466
40.19000 253.122
40.20000 248.495
40.21000 250.155
40.22000 253.282
40.23000 255.978
40.24000 256.991
40.25000 257.636
40.26000 257.920
40.27000 256.918
40.28000 255.801
40.29000 254.886
40.30000 254.458
40.31000 254.053
40.32000 253.800
40.33000 259.260
40.34000 263.255
40.35000 262.788
40.36000 257.534
40.37000 252.315
40.38000 251.643
40.39000 254.133
40.40000 256.568
40.41000 257.166
40.42000 256.915
40.43000 256.549
40.44000 254.610
40.45000 252.172
40.46000 250.181
40.47000 251.656
40.48000 253.862
40.49000 255.731
40.50000 261.568
40.51000 266.903
40.52000 271.253
40.53000 272.410
40.54000 273.322
40.55000 272.391
40.56000 267.409
40.57000 262.283
40.58000 259.211
40.59000 252.133
40.60000 247.081
40.61000 245.461
40.62000 247.145
40.63000 248.764
40.64000 245.144
40.65000 238.218
40.66000 231.489
40.67000 238.499
40.68000 250.726
40.69000 261.516
40.70000 255.425
40.71000 244.468
40.72000 235.499
40.73000 240.232
40.74000 247.573
40.75000 253.677
40.76000 252.523
40.77000 250.856
40.78000 247.497
40.79000 239.137
40.80000 230.450
40.81000 226.181
40.82000 230.758
40.83000 235.583
40.84000 238.353
40.85000 247.803
40.86000 254.426
40.87000 254.840
40.88000 249.878
40.89000 244.999
40.90000 244.722
40.91000 247.083
40.92000 249.360
40.93000 250.824
40.94000 251.905
40.95000 252.838
40.96000 252.268
40.97000 251.305
40.98000 250.634
40.99000 251.761
41.00000 253.194
41.01000 254.363
41.02000 250.792
41.03000 247.469
41.04000 244.736
41.05000 243.588
41.06000 242.528
41.07000 241.704
41.08000 241.308
41.09000 240.922
41.10000 240.710
41.11000 239.013
41.12000 237.846
41.13000 237.364
41.14000 237.418
41.15000 237.522
41.16000 239.667
41.17000 242.878
41.18000 245.951
41.19000 244.833
41.20000 242.410
41.21000 240.251
41.22000 240.459
41.23000 241.228
41.24000 241.565
41.25000 239.512
41.26000 237.094
41.27000 235.164
41.28000 241.260
41.29000 246.772
41.30000 248.424
41.31000 240.619
41.32000 232.382
41.33000 228.121
41.34000 230.450
41.35000 232.878
41.36000 234.145
41.37000 234.642
41.38000 234.991
41.39000 237.047
41.40000 240.311
41.41000 243.501
41.42000 244.366
41.43000 244.127
41.44000 243.901
41.45000 240.925
41.46000 237.364
41.47000 234.427
41.48000 236.417
41.49000 239.465
41.50000 242.786
41.51000 247.466
41.52000 252.332
41.53000 256.130
41.54000 254.297
41.55000 252.483
41.56000 250.108
41.57000 246.481
41.58000 242.808
41.59000 239.800
41.60000 237.792
41.61000 235.794
41.62000 237.918
41.63000 244.082
41.64000 250.151
41.65000 248.184
41.66000 241.067
41.67000 234.367
41.68000 238.080
41.69000 246.298
41.70000 254.020
41.71000 254.189
41.72000 252.326
41.73000 250.179
41.74000 246.046
41.75000 241.528
41.76000 238.238
41.77000 240.456
41.78000 243.339
41.79000 245.536
41.80000 245.180
41.81000 244.765
41.82000 242.365
41.83000 235.931
41.84000 229.380
41.85000 227.579
41.86000 232.254
41.87000 236.965
41.88000 239.667
41.89000 240.600
41.90000 241.509
41.91000 241.037
41.92000 239.761
41.93000 238.527
41.94000 238.142
41.95000 238.092
41.96000 238.045
41.97000 240.324
41.98000 242.940
41.99000 244.752
42.00000 241.524
42.01000 237.420
42.02000 234.158
42.03000 234.311
42.04000 234.829
42.05000 235.213
42.06000 236.595
42.07000 237.713
42.08000 240.795
42.09000 247.510
42.10000 254.306
42.11000 252.306
42.12000 239.469
42.13000 226.625
42.14000 222.152
42.15000 224.315
42.16000 226.540
42.17000 231.444
42.18000 237.766
42.19000 243.851
42.20000 245.933
42.21000 246.577
42.22000 247.168
42.23000 244.228
42.24000 240.842
42.25000 237.391
42.26000 233.579
42.27000 229.710
42.28000 226.847
42.29000 227.686
42.30000 228.870
42.31000 229.725
42.32000 223.606
42.33000 218.659
42.34000 219.183
42.35000 228.910
42.36000 238.786
42.37000 242.864
42.38000 240.506
42.39000 238.153
42.40000 235.010
42.41000 231.335
42.42000 227.757
42.43000 227.319
42.44000 228.394
42.45000 229.701
42.46000 234.323
42.47000 240.029
42.48000 245.207
42.49000 237.358
42.50000 227.919
42.51000 220.470
42.52000 223.077
42.53000 227.082
42.54000 230.451
42.55000 231.692
42.56000 232.763
42.57000 233.514
42.58000 230.140
42.59000 227.466
42.60000 227.208
42.61000 230.641
42.62000 234.113
42.63000 235.450
42.64000 234.658
42.65000 233.871
42.66000 230.818
42.67000 226.359
42.68000 222.122
42.69000 223.610
42.70000 227.611
42.71000 231.662
42.72000 236.319
42.73000 241.155
42.74000 245.486
42.75000 245.766
42.76000 245.314
42.77000 244.936
42.78000 244.888
42.79000 244.882
42.80000 244.453
42.81000 242.739
42.82000 240.937
42.83000 239.711
42.84000 236.853
42.85000 234.682
42.86000 234.705
42.87000 237.766
42.88000 240.842
42.89000 238.076
42.90000 230.076
42.91000 222.158
42.92000 223.608
42.93000 230.447
42.94000 236.976
42.95000 237.007
42.96000 234.436
42.97000 232.163
42.98000 233.061
42.99000 234.816
43.00000 236.364
43.01000 239.111
43.02000 241.663
43.03000 242.437
43.04000 235.869
43.05000 228.503
43.06000 223.626
43.07000 225.647
43.08000 228.070
43.09000 229.664
43.10000 225.181
43.11000 221.776
43.12000 221.874
43.13000 226.358
43.14000 230.850
43.15000 233.151
43.16000 233.682
43.17000 234.205
43.18000 234.725
43.19000 235.228
43.20000 235.550
43.21000 232.709
43.22000 228.715
43.23000 224.861
43.24000 222.315
43.25000 220.089
43.26000 218.155
43.27000 222.314
43.28000 226.684
43.29000 229.500
43.30000 226.496
43.31000 222.938
43.32000 219.402
43.33000 215.919
43.34000 212.439
43.35000 210.230
43.36000 220.236
43.37000 227.649
43.38000 228.148
43.39000 220.834
43.40000 213.544
43.41000 211.333
43.42000 212.828
43.43000 214.294
43.44000 219.583
43.45000 226.477
43.46000 232.812
43.47000 230.894
43.48000 226.236
43.49000 222.508
43.50000 226.426
43.51000 232.039
43.52000 236.834
43.53000 234.380
43.54000 231.446
43.55000 228.309
43.56000 224.477
43.57000 220.588
43.58000 218.123
43.59000 218.933
43.60000 219.873
43.61000 220.448
43.62000 230.228
43.63000 237.299
43.64000 241.143
43.65000 241.713
43.66000 242.264
43.67000 241.059
43.68000 238.692
43.69000 236.385
43.70000 232.962
43.71000 229.221
43.72000 225.381
43.73000 220.288
43.74000 214.817
43.75000 210.341
43.76000 213.118
43.77000 217.347
43.78000 220.896
43.79000 226.054
43.80000 230.518
43.81000 233.572
43.82000 232.272
43.83000 230.663
43.84000 229.833
43.85000 230.635
43.86000 231.489
43.87000 231.990
43.88000 234.394
43.89000 236.095
43.90000 235.028
43.91000 231.440
43.92000 227.880
43.93000 226.167
43.94000 225.564
43.95000 224.981
43.96000 223.637
43.97000 222.075
43.98000 220.935
43.99000 224.395
44.00000 229.118
44.01000 233.112
44.02000 232.366
44.03000 230.767
44.04000 229.451
44.05000 228.998
44.06000 228.705
44.07000 228.771
44.08000 229.852
44.09000 230.994
44.10000 232.361
44.11000 234.159
44.12000 235.968
44.13000 236.983
44.14000 240.472
44.15000 242.886
44.16000 240.394
44.17000 233.876
44.18000 227.526
44.19000 229.068
44.20000 234.919
44.21000 240.541
44.22000 238.863
44.23000 234.763
44.24000 231.177
44.25000 232.503
44.26000 235.052
44.27000 237.447
44.28000 238.947
44.29000 240.303
44.30000 241.397
44.31000 237.854
44.32000 234.609
44.33000 232.675
44.34000 234.098
44.35000 235.690
44.36000 238.726
44.37000 244.266
44.38000 249.852
44.39000 252.840
44.40000 258.415
44.41000 262.227
44.42000 267.399
44.43000 273.581
44.44000 279.431
44.45000 273.578
44.46000 261.907
44.47000 250.785
44.48000 257.764
44.49000 269.888
44.50000 281.588
44.51000 289.728
44.52000 297.065
44.53000 303.862
44.54000 307.828
44.55000 311.386
44.56000 314.195
44.57000 320.596
44.58000 325.976
44.59000 330.066
44.60000 331.145
44.61000 332.099
44.62000 338.579
44.63000 353.772
44.64000 369.072
44.65000 376.847
44.66000 391.660
44.67000 401.569
44.68000 409.274
44.69000 415.497
44.70000 421.696
44.71000 427.191
44.72000 432.369
44.73000 437.257
44.74000 442.633
44.75000 447.701
44.76000 454.063
44.77000 470.039
44.78000 487.971
44.79000 504.232
44.80000 512.613
44.81000 519.983
44.82000 525.665
44.83000 527.668
44.84000 529.042
44.85000 531.555
44.86000 536.492
44.87000 541.508
44.88000 550.340
44.89000 564.630
44.90000 578.960
44.91000 584.609
44.92000 582.214
44.93000 579.864
44.94000 580.581
44.95000 583.169
44.96000 585.200
44.97000 574.733
44.98000 559.112
44.99000 544.513
45.00000 543.437
45.01000 545.879
45.02000 547.174
45.03000 540.871
45.04000 533.176
45.05000 525.663
45.06000 518.926
45.07000 512.278
45.08000 507.278
45.09000 486.837
45.10000 470.104
45.11000 459.228
45.12000 459.697
45.13000 460.454
45.14000 461.134
45.15000 461.714
45.16000 462.293
45.17000 453.063
45.18000 435.698
45.19000 418.518
45.20000 410.383
45.21000 407.264
45.22000 403.890
45.23000 395.798
45.24000 385.933
45.25000 376.814
45.26000 370.778
45.27000 366.058
45.28000 361.823
45.29000 360.454
45.30000 359.557
45.31000 355.702
45.32000 340.425
45.33000 324.013
45.34000 311.995
45.35000 303.160
45.36000 296.466
45.37000 294.103
45.38000 299.373
45.39000 304.786
45.40000 306.421
45.41000 303.640
45.42000 300.860
45.43000 298.214
45.44000 295.685
45.45000 293.129
45.46000 289.540
45.47000 285.431
45.48000 281.609
45.49000 282.259
45.50000 284.440
45.51000 286.431
45.52000 277.629
45.53000 267.621
45.54000 259.244
45.55000 259.545
45.56000 261.121
45.57000 262.608
45.58000 263.781
45.59000 264.926
45.60000 265.742
45.61000 255.523
45.62000 247.381
45.63000 244.563
45.64000 250.274
45.65000 256.097
45.66000 257.504
45.67000 254.269
45.68000 251.049
45.69000 245.865
45.70000 239.419
45.71000 233.333
45.72000 237.589
45.73000 246.598
45.74000 254.620
45.75000 249.568
45.76000 240.444
45.77000 232.220
45.78000 231.569
45.79000 232.372
45.80000 233.585
45.81000 236.761
45.82000 240.192
45.83000 241.283
45.84000 234.916
45.85000 227.992
45.86000 223.210
45.87000 228.246
45.88000 232.284
45.89000 234.968
45.90000 235.687
45.91000 236.388
45.92000 235.255
45.93000 232.391
45.94000 229.551
45.95000 225.317
45.96000 220.312
45.97000 215.482
45.98000 214.708
45.99000 215.632
46.00000 216.248
46.01000 213.354
46.02000 209.467
46.03000 206.012
46.04000 201.383
46.05000 197.176
46.06000 194.559
46.07000 198.827
46.08000 203.890
46.09000 206.550
46.10000 202.239
46.11000 197.486
46.12000 194.307
46.13000 204.218
46.14000 211.824
46.15000 217.117
46.16000 219.365
46.17000 221.592
46.18000 219.466
46.19000 213.648
46.20000 207.901
46.21000 205.309
46.22000 204.514
46.23000 203.424
46.24000 196.699
46.25000 187.824
46.26000 180.420
46.27000 187.659
46.28000 198.659
46.29000 208.291
46.30000 212.890
46.31000 216.112
46.32000 219.678
46.33000 224.596
46.34000 229.651
46.35000 231.197
46.36000 223.474
46.37000 215.258
46.38000 209.950
46.39000 207.650
46.40000 206.012
46.41000 205.878
46.42000 207.532
46.43000 209.184
46.44000 209.537
46.45000 208.894
46.46000 208.262
46.47000 206.586
46.48000 204.449
46.49000 202.410
46.50000 201.923
46.51000 201.976
46.52000 201.930
46.53000 201.022
46.54000 199.913
46.55000 198.958
46.56000 202.434
46.57000 205.942
46.58000 208.223
46.59000 206.131
46.60000 203.653
46.61000 201.686
46.62000 200.952
46.63000 200.271
46.64000 199.848
46.65000 201.115
46.66000 202.046
46.67000 200.493
46.68000 196.283
46.69000 192.107
46.70000 192.333
46.71000 195.612
46.72000 198.817
46.73000 195.531
46.74000 189.477
46.75000 184.044
46.76000 187.033
46.77000 192.685
46.78000 197.280
46.79000 193.706
46.80000 188.414
46.81000 183.933
46.82000 188.079
46.83000 192.514
46.84000 195.761
46.85000 195.166
46.86000 194.278
46.87000 194.136
46.88000 195.629
46.89000 197.180
46.90000 198.108
46.91000 198.871
46.92000 199.411
46.93000 198.231
46.94000 195.402
46.95000 192.615
46.96000 193.207
46.97000 195.926
46.98000 198.566
46.99000 199.993
47.00000 200.858
47.01000 201.460
47.02000 198.989
47.03000 195.634
47.04000 192.485
47.05000 190.744
47.06000 189.271
47.07000 188.046
47.08000 194.559
47.09000 200.704
47.10000 202.860
47.11000 193.274
47.12000 182.922
47.13000 178.192
47.14000 184.687
47.15000 191.493
47.16000 195.395
47.17000 188.242
47.18000 183.210
47.19000 183.104
47.20000 187.248
47.21000 191.335
47.22000 192.321
47.23000 191.534
47.24000 190.774
47.25000 190.740
47.26000 190.973
47.27000 190.979
47.28000 188.683
47.29000 185.786
47.30000 183.312
47.31000 183.435
47.32000 184.000
47.33000 184.460
47.34000 184.119
47.35000 183.773
47.36000 182.964
47.37000 180.917
47.38000 178.802
47.39000 179.101
47.40000 183.786
47.41000 188.563
47.42000 191.179
47.43000 195.091
47.44000 197.773
47.45000 198.077
47.46000 196.528
47.47000 195.016
47.48000 194.977
47.49000 195.705
47.50000 196.402
47.51000 194.410
47.52000 191.672
47.53000 188.678
47.54000 183.413
47.55000 177.611
47.56000 173.479
47.57000 178.543
47.58000 185.009
47.59000 190.167
47.60000 188.404
47.61000 186.475
47.62000 185.566
47.63000 187.144
47.64000 188.835
47.65000 189.479
47.66000 188.392
47.67000 187.279
47.68000 186.699
47.69000 187.015
47.70000 187.252
47.71000 190.519
47.72000 195.923
47.73000 201.138
47.74000 200.456
47.75000 196.982
47.76000 193.687
47.77000 191.157
47.78000 189.052
47.79000 187.394
47.80000 189.265
47.81000 191.889
47.82000 193.766
47.83000 191.938
47.84000 189.606
47.85000 187.787
47.86000 193.129
47.87000 197.834
47.88000 198.845
47.89000 191.636
47.90000 184.125
47.91000 179.391
47.92000 178.822
47.93000 178.295
47.94000 180.524
47.95000 185.446
47.96000 190.309
47.97000 190.271
47.98000 187.103
47.99000 183.980
48.00000 182.003
48.01000 180.521
48.02000 179.128
48.03000 179.603
48.04000 180.532
48.05000 181.405
48.06000 181.878
48.07000 182.274
48.08000 183.553
48.09000 188.781
48.10000 194.483
48.11000 198.825
48.12000 196.057
48.13000 193.504
48.14000 190.597
48.15000 186.972
48.16000 183.326
48.17000 181.357
48.18000 181.667
48.19000 181.990
48.20000 183.859
48.21000 187.079
48.22000 190.202
48.23000 187.702
48.24000 181.937
48.25000 176.552
48.26000 178.831
48.27000 184.125
48.28000 189.044
48.29000 187.489
48.30000 184.537
48.31000 181.595
48.32000 178.718
48.33000 175.854
48.34000 174.560
48.35000 179.628
48.36000 185.371
48.37000 189.632
48.38000 194.984
48.39000 199.190
48.40000 199.712
48.41000 193.434
48.42000 187.007
48.43000 185.673
48.44000 190.596
48.45000 195.526
48.46000 197.809
48.47000 197.996
48.48000 198.133
48.49000 196.149
48.50000 193.046
48.51000 189.837
48.52000 184.846
48.53000 179.216
48.54000 174.045
48.55000 179.548
48.56000 186.749
48.57000 193.085
48.58000 194.577
48.59000 195.317
48.60000 193.946
48.61000 184.821
48.62000 174.978
48.63000 167.872
48.64000 167.199
48.65000 166.915
48.66000 168.800
48.67000 174.327
48.68000 179.911
48.69000 183.737
48.70000 185.617
48.71000 187.489
48.72000 187.783
48.73000 186.955
48.74000 186.094
48.75000 184.172
48.76000 181.740
48.77000 179.505
48.78000 180.103
48.79000 181.623
48.80000 183.002
48.81000 184.367
48.82000 185.567
48.83000 186.529
48.84000 186.285
48.85000 185.875
48.86000 184.692
48.87000 180.933
48.88000 176.967
48.89000 174.187
48.90000 174.377
48.91000 174.606
48.92000 174.271
48.93000 173.075
48.94000 171.870
48.95000 174.143
48.96000 179.874
48.97000 185.566
48.98000 184.260
48.99000 178.500
49.00000 172.950
49.01000 172.775
49.02000 174.955
49.03000 177.023
49.04000 177.725
49.05000 178.022
49.06000 178.288
49.07000 180.050
49.08000 181.844
49.09000 182.728
49.10000 179.471
49.11000 175.705
49.12000 174.906
49.13000 183.112
49.14000 191.936
49.15000 197.932
49.16000 186.008
49.17000 176.706
49.18000 174.334
49.19000 181.532
49.20000 188.786
49.21000 190.247
49.22000 186.538
49.23000 182.866
49.24000 183.635
49.25000 186.950
49.26000 189.959
49.27000 186.588
49.28000 180.672
49.29000 174.942
49.30000 171.190
49.31000 167.970
49.32000 165.131
49.33000 172.008
49.34000 179.418
49.35000 185.126
49.36000 183.833
49.37000 181.782
49.38000 179.555
49.39000 176.841
49.40000 174.099
49.41000 172.296
49.42000 177.641
49.43000 181.697
49.44000 182.113
49.45000 177.986
49.46000 173.856
49.47000 173.632
49.48000 176.552
49.49000 179.430
49.50000 177.800
49.51000 173.870
49.52000 170.439
49.53000 175.651
49.54000 184.006
49.55000 191.180
49.56000 187.373
49.57000 180.883
49.58000 175.248
49.59000 172.547
49.60000 170.641
49.61000 168.673
49.62000 166.475
49.63000 164.256
49.64000 165.082
49.65000 173.575
49.66000 182.440
49.67000 188.060
49.68000 183.350
49.69000 179.808
49.70000 178.403
49.71000 179.405
49.72000 180.395
49.73000 179.233
49.74000 176.505
49.75000 173.830
49.76000 174.952
49.77000 177.818
49.78000 180.655
49.79000 183.080
49.80000 185.368
49.81000 187.199
49.82000 185.284
49.83000 182.541
49.84000 180.199
49.85000 179.517
49.86000 179.139
49.87000 179.691
49.88000 183.391
49.89000 187.349
49.90000 188.575
49.91000 183.534
49.92000 178.245
49.93000 175.018
49.94000 181.603
49.95000 186.391
49.96000 187.351
49.97000 184.438
49.98000 181.557
49.99000 181.746
50.00000 183.959
50.01000 186.116
50.02000 185.318
50.03000 183.303
50.04000 181.685
50.05000 185.052
50.06000 189.920
50.07000 193.591
50.08000 188.570
50.09000 181.814
50.10000 176.147
50.11000 178.341
50.12000 180.986
50.13000 183.256
50.14000 184.373
50.15000 185.408
50.16000 187.736
50.17000 192.764
50.18000 197.878
50.19000 200.872
50.20000 199.952
50.21000 199.285
50.22000 197.300
50.23000 194.120
50.24000 190.996
50.25000 191.522
50.26000 194.233
50.27000 196.858
50.28000 198.805
50.29000 200.387
50.30000 201.728
50.31000 200.460
50.32000 198.479
50.33000 196.981
50.34000 198.613
50.35000 200.806
50.36000 202.611
50.37000 207.228
50.38000 211.278
50.39000 215.978
50.40000 222.497
50.41000 229.126
50.42000 232.064
50.43000 227.981
50.44000 223.730
50.45000 221.348
50.46000 230.225
50.47000 236.400
50.48000 240.333
50.49000 242.432
50.50000 244.468
50.51000 243.592
50.52000 241.129
50.53000 238.764
50.54000 240.338
50.55000 243.173
50.56000 245.740
50.57000 245.758
50.58000 245.144
50.59000 245.040
50.60000 247.898
50.61000 251.234
50.62000 253.922
50.63000 254.374
50.64000 254.565
50.65000 254.205
50.66000 252.436
50.67000 250.596
50.68000 247.989
50.69000 244.055
50.70000 240.098
50.71000 237.984
50.72000 239.076
50.73000 239.807
50.74000 237.484
50.75000 232.904
50.76000 228.393
50.77000 226.282
50.78000 225.360
50.79000 224.482
50.80000 221.381
50.81000 217.815
50.82000 214.485
50.83000 213.127
50.84000 212.212
50.85000 211.483
50.86000 211.720
50.87000 212.095
50.88000 212.391
50.89000 211.739
50.90000 211.152
50.91000 210.398
50.92000 209.252
50.93000 208.091
50.94000 206.627
50.95000 204.686
50.96000 202.740
50.97000 201.753
50.98000 209.779
50.99000 215.071
51.00000 211.556
51.01000 202.140
51.02000 193.018
51.03000 191.993
51.04000 194.624
51.05000 197.107
51.06000 199.585
51.07000 201.855
51.08000 203.574
51.09000 201.213
51.10000 198.025
51.11000 194.600
51.12000 190.062
51.13000 185.382
51.14000 181.777
51.15000 180.814
51.16000 180.203
51.17000 181.444
51.18000 186.616
51.19000 191.915
51.20000 192.505
51.21000 186.379
51.22000 180.203
51.23000 176.630
51.24000 175.461
51.25000 174.277
51.26000 171.984
51.27000 169.018
51.28000 166.248
51.29000 167.845
51.30000 171.239
51.31000 174.409
51.32000 175.189
51.33000 175.293
51.34000 174.961
51.35000 171.751
51.36000 168.015
51.37000 164.504
51.38000 161.950
51.39000 159.504
51.40000 157.666
51.41000 166.493
51.42000 173.906
51.43000 178.818
51.44000 178.901
51.45000 178.862
51.46000 177.339
51.47000 173.903
51.48000 170.462
51.49000 166.935
51.50000 163.346
51.51000 159.803
51.52000 158.501
51.53000 158.439
51.54000 158.460
51.55000 160.030
51.56000 162.181
51.57000 164.167
51.58000 168.160
51.59000 172.196
51.60000 174.552
51.61000 166.991
51.62000 157.804
51.63000 151.325
51.64000 155.272
51.65000 160.250
51.66000 163.893
51.67000 159.142
51.68000 155.143
51.69000 153.382
51.70000 155.554
51.71000 157.799
51.72000 160.108
51.73000 162.490
51.74000 164.866
51.75000 163.637
51.76000 159.725
51.77000 155.909
51.78000 155.608
51.79000 157.075
51.80000 158.588
51.81000 160.813
51.82000 163.280
51.83000 165.533
51.84000 161.599
51.85000 156.855
51.86000 153.262
51.87000 155.777
51.88000 159.185
51.89000 162.181
51.90000 163.731
51.91000 165.158
51.92000 166.172
51.93000 168.301
51.94000 169.959
51.95000 170.705
51.96000 169.997
51.97000 169.270
51.98000 169.593
51.99000 171.018
52.00000 172.435
52.01000 170.893
52.02000 167.381
52.03000 163.847
52.04000 159.667
52.05000 155.191
52.06000 151.342
52.07000 155.760
52.08000 162.745
52.09000 169.038
52.10000 166.418
52.11000 162.506
52.12000 158.887
52.13000 156.662
52.14000 154.619
52.15000 152.898
52.16000 152.201
52.17000 151.580
52.18000 151.152
52.19000 151.955
52.20000 152.590
52.21000 152.540
52.22000 151.498
52.23000 150.449
52.24000 153.458
52.25000 160.280
52.26000 167.045
52.27000 169.605
52.28000 169.569
52.29000 169.418
52.30000 166.642
52.31000 162.769
52.32000 159.154
52.33000 158.469
52.34000 158.612
52.35000 158.739
52.36000 162.063
52.37000 165.461
52.38000 167.191
52.39000 161.720
52.40000 155.419
52.41000 151.997
52.42000 156.898
52.43000 162.325
52.44000 165.950
52.45000 160.208
52.46000 155.770
52.47000 155.261
52.48000 159.906
52.49000 164.570
52.50000 167.075
52.51000 167.754
52.52000 168.425
52.53000 163.263
52.54000 155.041
52.55000 147.342
52.56000 149.533
52.57000 155.486
52.58000 160.894
52.59000 160.899
52.60000 159.519
52.61000 158.312
52.62000 152.203
52.63000 146.264
52.64000 142.831
52.65000 149.198
52.66000 156.557
52.67000 161.549
52.68000 160.311
52.69000 158.743
52.70000 157.732
52.71000 157.473
52.72000 157.295
52.73000 155.249
52.74000 150.990
52.75000 146.753
52.76000 148.536
52.77000 154.915
52.78000 161.185
52.79000 159.936
52.80000 155.015
52.81000 150.227
52.82000 147.541
52.83000 145.583
52.84000 144.098
52.85000 146.733
52.86000 150.324
52.87000 153.416
52.88000 155.356
52.89000 156.854
52.90000 158.244
52.91000 159.249
52.92000 160.221
52.93000 160.404
52.94000 158.693
52.95000 156.900
52.96000 155.785
52.97000 157.470
52.98000 158.711
52.99000 158.959
53.00000 158.149
53.01000 157.353
53.02000 158.278
53.03000 160.394
53.04000 162.462
53.05000 162.408
53.06000 161.411
53.07000 160.563
53.08000 161.742
53.09000 163.560
53.10000 165.005
53.11000 163.585
53.12000 161.563
53.13000 159.852
53.14000 162.790
53.15000 165.765
53.16000 167.718
53.17000 166.372
53.18000 164.776
53.19000 162.356
53.20000 158.135
53.21000 153.851
53.22000 151.291
53.23000 154.111
53.24000 156.145
53.25000 156.803
53.26000 156.144
53.27000 155.468
53.28000 153.432
53.29000 150.541
53.30000 147.734
53.31000 152.857
53.32000 160.913
53.33000 168.411
53.34000 169.412
53.35000 168.550
53.36000 167.744
53.37000 167.321
53.38000 166.971
53.39000 166.680
53.40000 163.490
53.41000 160.569
53.42000 157.558
53.43000 154.280
53.44000 150.986
53.45000 149.165
53.46000 150.277
53.47000 151.470
53.48000 152.153
53.49000 158.974
53.50000 163.754
53.51000 164.624
53.52000 162.131
53.53000 159.646
53.54000 157.543
53.55000 155.659
53.56000 153.843
53.57000 152.339
53.58000 151.038
53.59000 150.298
53.60000 155.238
53.61000 161.656
53.62000 166.914
53.63000 165.084
53.64000 162.050
53.65000 159.580
53.66000 159.638
53.67000 159.899
53.68000 159.055
53.69000 155.257
53.70000 151.298
53.71000 148.852
53.72000 149.149
53.73000 149.503
53.74000 149.697
53.75000 155.331
53.76000 159.209
53.77000 162.339
53.78000 164.889
53.79000 167.340
53.80000 165.832
53.81000 162.271
53.82000 158.865
53.83000 155.197
53.84000 151.697
53.85000 148.951
53.86000 152.904
53.87000 158.438
53.88000 162.924
53.89000 161.664
53.90000 159.530
53.91000 157.829
53.92000 158.712
53.93000 159.612
53.94000 160.057
53.95000 159.394
53.96000 158.681
53.97000 158.051
53.98000 157.558
53.99000 157.067
54.00000 156.811
54.01000 149.878
54.02000 145.251
54.03000 148.610
54.04000 157.579
54.05000 166.288
54.06000 166.970
54.07000 163.861
54.08000 160.912
54.09000 158.729
54.10000 156.941
54.11000 155.004
54.12000 151.885
54.13000 148.514
54.14000 145.830
54.15000 146.543
54.16000 147.715
54.17000 148.629
54.18000 150.913
54.19000 152.818
54.20000 155.305
54.21000 159.085
54.22000 162.912
54.23000 162.475
54.24000 155.662
54.25000 148.787
54.26000 145.172
54.27000 144.727
54.28000 144.306
54.29000 145.771
54.30000 148.437
54.31000 150.936
54.32000 149.313
54.33000 145.916
54.34000 142.726
54.35000 146.001
54.36000 150.704
54.37000 155.120
54.38000 157.537
54.39000 159.570
54.40000 160.906
54.41000 159.133
54.42000 156.988
54.43000 155.357
54.44000 154.220
54.45000 153.352
54.46000 153.568
54.47000 155.976
54.48000 158.447
54.49000 158.556
54.50000 155.466
54.51000 152.361
54.52000 150.558
54.53000 149.896
54.54000 149.249
54.55000 149.422
54.56000 150.068
54.57000 150.736
54.58000 151.830
54.59000 153.092
54.60000 154.264
54.61000 151.699
54.62000 148.494
54.63000 145.856
54.64000 146.745
54.65000 148.244
54.66000 149.088
54.67000 147.291
54.68000 145.215
54.69000 143.675
54.70000 147.439
54.71000 150.594
54.72000 151.689
54.73000 148.997
54.74000 146.223
54.75000 146.432
54.76000 150.296
54.77000 154.162
54.78000 157.970
54.79000 161.715
54.80000 165.343
54.81000 164.076
54.82000 160.231
54.83000 156.539
54.84000 155.427
54.85000 155.237
54.86000 155.062
54.87000 153.078
54.88000 150.922
54.89000 149.616
54.90000 153.052
54.91000 157.222
54.92000 160.184
54.93000 158.723
54.94000 156.853
54.95000 155.504
54.96000 157.041
54.97000 158.323
54.98000 158.017
54.99000 155.057
55.00000 152.055
55.01000 153.260
55.02000 159.109
55.03000 164.936
55.04000 169.401
55.05000 172.858
55.06000 176.160
55.07000 174.479
55.08000 170.409
55.09000 166.428
55.10000 163.725
55.11000 161.437
55.12000 159.362
55.13000 162.519
55.14000 166.305
55.15000 169.136
55.16000 167.169
55.17000 164.540
55.18000 163.389
55.19000 167.157
55.20000 171.318
55.21000 174.233
55.22000 162.150
55.23000 152.583
55.24000 151.298
55.25000 162.597
55.26000 174.027
55.27000 180.072
55.28000 180.781
55.29000 181.486
55.30000 181.391
55.31000 180.788
55.32000 180.267
55.33000 181.856
55.34000 184.367
55.35000 186.892
55.36000 189.596
55.37000 192.354
55.38000 194.821
55.39000 195.663
55.40000 196.121
55.41000 197.038
55.42000 200.043
55.43000 203.303
55.44000 207.036
55.45000 212.201
55.46000 217.465
55.47000 221.038
55.48000 226.618
55.49000 230.826
55.50000 233.624
55.51000 234.482
55.52000 235.331
55.53000 240.484
55.54000 249.468
55.55000 258.359
55.56000 263.347
55.57000 265.981
55.58000 268.652
55.59000 272.106
55.60000 275.871
55.61000 280.376
55.62000 292.715
55.63000 307.157
55.64000 319.891
55.65000 329.971
55.66000 338.260
55.67000 345.658
55.68000 349.400
55.69000 352.749
55.70000 356.497
55.71000 361.346
55.72000 366.258
55.73000 369.482
55.74000 377.131
55.75000 382.832
55.76000 385.217
55.77000 383.474
55.78000 381.727
55.79000 382.569
55.80000 385.490
55.81000 388.369
55.82000 392.792
55.83000 397.887
55.84000 402.728
55.85000 403.191
55.86000 402.067
55.87000 400.515
55.88000 394.998
55.89000 388.515
55.90000 382.889
55.91000 382.157
55.92000 382.191
55.93000 380.316
55.94000 371.345
55.95000 361.704
55.96000 353.122
55.97000 347.199
55.98000 341.403
55.99000 337.733
56.00000 337.537
56.01000 337.436
56.02000 334.139
56.03000 327.255
56.04000 320.394
56.05000 317.697
56.06000 318.019
56.07000 318.336
56.08000 309.349
56.09000 296.341
56.10000 283.874
56.11000 279.307
56.12000 277.346
56.13000 275.367
56.14000 273.239
56.15000 271.078
56.16000 269.234
56.17000 257.350
56.18000 246.155
56.19000 238.332
56.20000 241.902
56.21000 246.403
56.22000 245.076
56.23000 230.419
56.24000 215.239
56.25000 205.988
56.26000 210.351
56.27000 213.579
56.28000 212.235
56.29000 206.282
56.30000 200.383
56.31000 199.577
56.32000 202.119
56.33000 204.597
56.34000 204.412
56.35000 203.110
56.36000 201.468
56.37000 195.586
56.38000 188.431
56.39000 182.468
56.40000 185.140
56.41000 189.529
56.42000 193.208
56.43000 189.170
56.44000 185.010
56.45000 180.831
56.46000 176.594
56.47000 172.353
56.48000 168.621
56.49000 165.946
56.50000 163.303
56.51000 161.758
56.52000 167.014
56.53000 170.744
56.54000 171.728
56.55000 170.227
56.56000 168.698
56.57000 165.465
56.58000 161.214
56.59000 157.099
56.60000 153.377
56.61000 150.009
56.62000 147.026
56.63000 148.211
56.64000 150.533
56.65000 152.125
56.66000 149.004
56.67000 145.039
56.68000 141.779
56.69000 145.975
56.70000 150.099
56.71000 152.739
56.72000 151.230
56.73000 149.474
56.74000 147.982
56.75000 146.991
56.76000 146.011
56.77000 145.463
56.78000 141.423
56.79000 138.627
56.80000 140.284
56.81000 145.573
56.82000 150.767
56.83000 151.643
56.84000 150.173
56.85000 148.762
56.86000 148.899
56.87000 149.560
56.88000 150.199
56.89000 150.619
56.90000 150.985
56.91000 150.845
56.92000 147.777
56.93000 144.238
56.94000 141.388
56.95000 144.068
56.96000 146.677
56.97000 148.401
56.98000 147.873
56.99000 147.234
57.00000 147.770
57.01000 150.337
57.02000 152.938
57.03000 154.326
57.04000 147.137
57.05000 142.247
57.06000 140.120
57.07000 140.028
57.08000 139.978
57.09000 141.368
57.10000 143.471
57.11000 145.473
57.12000 144.487
57.13000 142.646
57.14000 140.958
57.15000 140.551
57.16000 140.431
57.17000 140.181
57.18000 139.262
57.19000 138.247
57.20000 137.448
57.21000 140.694
57.22000 143.567
57.23000 144.714
57.24000 141.851
57.25000 138.826
57.26000 139.068
57.27000 144.432
57.28000 149.858
57.29000 152.607
57.30000 151.017
57.31000 149.949
57.32000 148.548
57.33000 146.925
57.34000 145.351
57.35000 145.121
57.36000 145.496
57.37000 145.850
57.38000 147.384
57.39000 149.119
57.40000 150.164
57.41000 146.117
57.42000 141.039
57.43000 136.260
57.44000 132.878
57.45000 129.673
57.46000 127.207
57.47000 130.121
57.48000 132.734
57.49000 135.311
57.50000 137.809
57.51000 140.305
57.52000 141.224
57.53000 139.902
57.54000 138.564
57.55000 139.537
57.56000 142.637
57.57000 145.734
57.58000 148.649
57.59000 151.455
57.60000 153.980
57.61000 150.284
57.62000 144.037
57.63000 138.203
57.64000 136.858
57.65000 136.766
57.66000 136.537
57.67000 135.406
57.68000 134.110
57.69000 134.328
57.70000 140.950
57.71000 148.293
57.72000 153.806
57.73000 152.198
57.74000 150.601
57.75000 149.231
57.76000 148.300
57.77000 147.380
57.78000 145.241
57.79000 141.534
57.80000 137.826
57.81000 135.105
57.82000 133.209
57.83000 131.367
57.84000 132.087
57.85000 134.220
57.86000 136.466
57.87000 140.775
57.88000 145.854
57.89000 150.546
57.90000 146.189
57.91000 140.241
57.92000 135.163
57.93000 135.207
57.94000 136.088
57.95000 137.145
57.96000 138.875
57.97000 140.671
57.98000 141.985
57.99000 135.288
58.00000 129.806
58.01000 127.049
58.02000 129.068
58.03000 131.175
58.04000 134.673
58.05000 139.787
58.06000 144.888
58.07000 147.252
58.08000 147.563
58.09000 147.810
58.10000 145.775
58.11000 142.595
58.12000 139.450
58.13000 136.842
58.14000 134.417
58.15000 132.204
58.16000 135.076
58.17000 138.651
58.18000 141.232
58.19000 138.562
58.20000 135.126
58.21000 132.358
58.22000 131.919
58.23000 131.679
58.24000 131.509
58.25000 136.448
58.26000 140.370
58.27000 144.063
58.28000 147.389
58.29000 150.711
58.30000 148.175
58.31000 139.520
58.32000 130.911
58.33000 129.276
58.34000 132.336
58.35000 135.431
58.36000 139.536
58.37000 144.102
58.38000 148.402
58.39000 149.215
58.40000 148.947
58.41000 148.706
58.42000 149.794
58.43000 150.988
58.44000 150.705
58.45000 143.389
58.46000 135.161
58.47000 127.931
58.48000 123.864
58.49000 120.029
58.50000 117.386
58.51000 130.206
58.52000 140.226
58.53000 145.341
58.54000 143.371
58.55000 141.344
58.56000 139.528
58.57000 137.911
58.58000 136.308
58.59000 136.006
58.60000 136.496
58.61000 136.989
58.62000 137.550
58.63000 138.139
58.64000 138.739
58.65000 139.460
58.66000 140.215
58.67000 140.885
58.68000 145.849
58.69000 150.843
58.70000 153.163
58.71000 143.972
58.72000 133.461
58.73000 126.883
58.74000 131.645
58.75000 137.120
58.76000 140.774
58.77000 139.683
58.78000 138.783
58.79000 137.811
58.80000 136.743
58.81000 135.675
58.82000 134.870
58.83000 134.287
58.84000 133.712
58.85000 136.351
58.86000 140.675
58.87000 144.748
58.88000 144.103
58.89000 141.669
58.90000 139.855
58.91000 144.174
58.92000 150.059
58.93000 155.206
58.94000 152.014
58.95000 148.090
58.96000 144.423
58.97000 141.758
58.98000 139.193
58.99000 136.364
59.00000 132.838
59.01000 129.276
59.02000 126.980
59.03000 136.466
59.04000 143.563
59.05000 145.242
59.06000 140.526
59.07000 135.814
59.08000 134.621
59.09000 136.108
59.10000 137.568
59.11000 138.723
59.12000 139.687
59.13000 140.509
59.14000 139.068
59.15000 136.844
59.16000 134.638
59.17000 132.579
59.18000 130.553
59.19000 128.810
59.20000 132.192
59.21000 135.701
59.22000 138.636
59.23000 139.540
59.24000 140.265
59.25000 140.010
59.26000 137.408
59.27000 134.705
59.28000 133.025
59.29000 131.789
59.30000 130.903
59.31000 133.190
59.32000 138.847
59.33000 144.478
59.34000 146.790
59.35000 146.815
59.36000 146.838
59.37000 145.140
59.38000 142.746
59.39000 140.719
59.40000 143.619
59.41000 148.067
59.42000 151.013
59.43000 142.435
59.44000 131.448
59.45000 122.155
59.46000 126.373
59.47000 131.397
59.48000 135.415
59.49000 136.196
59.50000 136.732
59.51000 137.074
59.52000 136.993
59.53000 136.898
59.54000 136.841
59.55000 140.332
59.56000 142.829
59.57000 141.671
59.58000 137.029
59.59000 132.417
59.60000 130.169
59.61000 129.398
59.62000 128.650
59.63000 130.988
59.64000 134.446
59.65000 137.679
59.66000 138.302
59.67000 138.178
59.68000 137.823
59.69000 135.895
59.70000 133.671
59.71000 131.824
59.72000 135.865
59.73000 139.776
59.74000 142.574
59.75000 142.118
59.76000 141.452
59.77000 140.535
59.78000 139.120
59.79000 137.691
59.80000 136.874
59.81000 139.356
59.82000 141.100
59.83000 142.343
59.84000 143.158
59.85000 143.903
59.86000 140.976
59.87000 135.961
59.88000 131.126
59.89000 130.745
59.90000 132.001
59.91000 132.910
59.92000 130.323
59.93000 126.828
59.94000 123.940
59.95000 124.750
59.96000 126.184
59.97000 127.352
59.98000 127.877
59.99000 128.252
60.00000 127.983
60.01000 125.997
60.02000 123.917
60.03000 124.610
60.04000 130.311
60.05000 136.115
60.06000 139.284
60.07000 132.693
60.08000 128.157
60.09000 125.020
60.10000 122.966
60.11000 121.000
60.12000 122.538
60.13000 125.888
60.14000 129.092
60.15000 133.987
60.16000 139.097
60.17000 142.912
60.18000 135.261
60.19000 124.914
60.20000 117.230
60.21000 124.105
60.22000 133.185
60.23000 140.418
60.24000 138.025
60.25000 135.399
60.26000 133.049
60.27000 131.372
60.28000 129.725
60.29000 129.160
60.30000 130.369
60.31000 131.604
60.32000 132.246
60.33000 129.655
60.34000 127.921
60.35000 128.488
60.36000 130.666
60.37000 132.736
60.38000 131.500
60.39000 128.706
60.40000 126.058
60.41000 127.462
60.42000 129.948
60.43000 131.526
60.44000 126.012
60.45000 118.991
60.46000 113.971
60.47000 118.805
60.48000 124.969
60.49000 129.769
60.50000 135.004
60.51000 139.200
60.52000 140.101
60.53000 133.710
60.54000 127.054
60.55000 125.229
60.56000 130.607
60.57000 136.054
60.58000 138.527
60.59000 138.117
60.60000 137.688
60.61000 135.804
60.62000 132.996
60.63000 130.350
60.64000 131.671
60.65000 134.694
60.66000 137.531
60.67000 136.489
60.68000 134.512
60.69000 132.920
60.70000 134.005
60.71000 135.602
60.72000 137.024
60.73000 137.669
60.74000 138.221
60.75000 138.640
60.76000 137.955
60.77000 137.359
60.78000 137.170
60.79000 137.803
60.80000 138.459
60.81000 136.949
60.82000 132.512
60.83000 128.062
60.84000 128.711
60.85000 133.799
60.86000 138.852
60.87000 141.951
60.88000 143.922
60.89000 145.749
60.90000 144.701
60.91000 142.529
60.92000 140.512
60.93000 138.243
60.94000 136.137
60.95000 134.277
60.96000 133.939
60.97000 133.863
60.98000 133.295
60.99000 130.749
61.00000 127.995
61.01000 125.955
61.02000 136.963
61.03000 146.074
61.04000 149.480
61.05000 142.416
61.06000 135.127
61.07000 132.110
61.08000 134.308
61.09000 136.514
61.10000 136.385
61.11000 134.429
61.12000 132.599
61.13000 135.990
61.14000 142.123
61.15000 147.836
61.16000 146.525
61.17000 142.713
61.18000 139.214
61.19000 137.599
61.20000 136.560
61.21000 136.465
61.22000 141.620
61.23000 147.585
61.24000 151.518
61.25000 148.032
61.26000 143.864
61.27000 140.860
61.28000 142.737
61.29000 144.348
61.30000 144.821
61.31000 143.397
61.32000 141.944
61.33000 140.426
61.34000 138.838
61.35000 137.257
61.36000 137.795
61.37000 139.822
61.38000 141.772
61.39000 141.276
61.40000 139.611
61.41000 138.136
61.42000 139.358
61.43000 141.453
61.44000 143.352
61.45000 144.824
61.46000 146.040
61.47000 147.666
61.48000 151.344
61.49000 155.303
61.50000 161.139
61.51000 173.201
61.52000 185.757
61.53000 194.544
61.54000 204.630
61.55000 212.292
61.56000 223.737
61.57000 240.914
61.58000 258.149
61.59000 271.814
61.60000 281.953
61.61000 292.022
61.62000 303.571
61.63000 315.882
61.64000 327.872
61.65000 331.747
61.66000 332.087
61.67000 332.728
61.68000 337.022
61.69000 342.392
61.70000 347.195
61.71000 345.871
61.72000 343.676
61.73000 341.017
61.74000 336.259
61.75000 331.245
61.76000 323.292
61.77000 306.467
61.78000 289.037
61.79000 277.218
61.80000 254.403
61.81000 237.146
61.82000 220.044
61.83000 203.154
61.84000 186.271
61.85000 175.283
61.86000 169.524
61.87000 163.825
61.88000 158.510
61.89000 153.533
61.90000 148.768
61.91000 148.350
61.92000 149.659
61.93000 151.309
61.94000 156.574
61.95000 162.805
61.96000 168.297
61.97000 161.900
61.98000 154.591
61.99000 148.671
62.00000 148.434
62.01000 148.806
62.02000 147.998
62.03000 143.945
62.04000 139.705
62.05000 136.925
62.06000 144.600
62.07000 150.418
62.08000 151.266
62.09000 145.945
62.10000 140.625
62.11000 141.763
62.12000 148.064
62.13000 154.272
62.14000 155.666
62.15000 154.528
62.16000 153.494
62.17000 154.260
62.18000 155.675
62.19000 156.457
62.20000 151.394
62.21000 144.913
62.22000 139.289
62.23000 142.580
62.24000 146.575
62.25000 149.688
62.26000 149.530
62.27000 149.064
62.28000 151.080
62.29000 159.306
62.30000 167.830
62.31000 173.222
62.32000 153.606
62.33000 139.088
62.34000 132.724
62.35000 135.483
62.36000 138.241
62.37000 139.766
62.38000 140.398
62.39000 141.017
62.40000 139.875
62.41000 137.953
62.42000 136.478
62.43000 141.505
62.44000 148.672
62.45000 154.800
62.46000 152.486
62.47000 148.317
62.48000 144.761
62.49000 147.845
62.50000 151.224
62.51000 153.346
62.52000 151.235
62.53000 148.780
62.54000 146.800
62.55000 145.905
62.56000 145.053
62.57000 144.534
62.58000 145.029
62.59000 145.390
62.60000 144.340
62.61000 141.872
62.62000 139.432
62.63000 139.600
62.64000 141.480
62.65000 143.311
62.66000 146.138
62.67000 149.255
62.68000 151.935
62.69000 149.176
62.70000 144.788
62.71000 140.961
62.72000 141.175
62.73000 142.190
62.74000 143.041
62.75000 144.356
62.76000 145.497
62.77000 147.085
62.78000 150.042
62.79000 153.095
62.80000 154.369
62.81000 151.946
62.82000 149.410
62.83000 147.928
62.84000 150.503
62.85000 152.331
62.86000 150.833
62.87000 146.332
62.88000 141.928
62.89000 143.532
62.90000 148.714
62.91000 153.728
62.92000 154.142
62.93000 152.782
62.94000 151.652
62.95000 153.000
62.96000 155.021
62.97000 156.311
62.98000 152.901
62.99000 148.651
63.00000 145.160
63.01000 147.316
63.02000 149.596
63.03000 150.880
63.04000 149.382
63.05000 147.719
63.06000 148.637
63.07000 154.434
63.08000 160.348
63.09000 163.651
63.10000 159.626
63.11000 156.820
63.12000 152.839
63.13000 147.904
63.14000 143.084
63.15000 143.449
63.16000 146.621
63.17000 149.668
63.18000 150.470
63.19000 150.450
63.20000 150.352
63.21000 149.519
63.22000 148.504
63.23000 148.162
63.24000 151.693
63.25000 155.843
63.26000 159.184
63.27000 158.350
63.28000 157.347
63.29000 156.298
63.30000 155.128
63.31000 153.953
63.32000 153.692
63.33000 155.002
63.34000 156.341
63.35000 157.053
63.36000 156.386
63.37000 155.917
63.38000 153.063
63.39000 148.455
63.40000 143.907
63.41000 141.410
63.42000 139.924
63.43000 138.509
63.44000 143.321
63.45000 149.704
63.46000 155.650
63.47000 157.979
63.48000 159.500
63.49000 160.115
63.50000 156.040
63.51000 151.296
63.52000 147.560
63.53000 152.489
63.54000 157.019
63.55000 158.828
63.56000 154.341
63.57000 149.600
63.58000 147.759
63.59000 150.450
63.60000 153.194
63.61000 154.582
63.62000 149.200
63.63000 145.646
63.64000 146.933
63.65000 151.446
63.66000 155.776
63.67000 155.158
63.68000 152.320
63.69000 149.642
63.70000 147.320
63.71000 145.292
63.72000 143.956
63.73000 147.709
63.74000 152.489
63.75000 156.033
63.76000 153.809
63.77000 150.854
63.78000 148.580
63.79000 148.230
63.80000 148.062
63.81000 149.275
63.82000 153.400
63.83000 157.618
63.84000 158.361
63.85000 154.176
63.86000 149.957
63.87000 149.974
63.88000 153.878
63.89000 157.726
63.90000 157.886
63.91000 155.817
63.92000 153.869
63.93000 154.609
63.94000 156.449
63.95000 158.166
63.96000 157.160
63.97000 155.565
63.98000 154.783
63.99000 159.327
64.00000 164.837
64.01000 168.110
64.02000 161.936
64.03000 154.704
64.04000 149.278
64.05000 156.046
64.06000 161.912
64.07000 164.925
64.08000 162.456
64.09000 159.851
64.10000 156.059
64.11000 150.743
64.12000 145.428
64.13000 146.979
64.14000 154.183
64.15000 161.291
64.16000 163.804
64.17000 163.793
64.18000 163.817
64.19000 164.505
64.20000 165.440
64.21000 166.303
64.22000 169.153
64.23000 172.155
64.24000 174.892
64.25000 176.074
64.26000 177.002
64.27000 176.266
64.28000 169.158
64.29000 161.425
64.30000 155.775
64.31000 161.038
64.32000 165.524
64.33000 170.068
64.34000 174.717
64.35000 179.367
64.36000 180.985
64.37000 179.094
64.38000 177.204
64.39000 173.080
64.40000 167.330
64.41000 161.747
64.42000 162.208
64.43000 165.693
64.44000 169.198
64.45000 173.014
64.46000 176.937
64.47000 180.514
64.48000 176.810
64.49000 172.059
64.50000 168.170
64.51000 168.812
64.52000 170.114
64.53000 171.316
64.54000 172.167
64.55000 172.988
64.56000 173.571
64.57000 176.022
64.58000 177.946
64.59000 180.315
64.60000 183.387
64.61000 186.469
64.62000 185.914
64.63000 181.575
64.64000 177.258
64.65000 174.876
64.66000 173.817
64.67000 172.872
64.68000 175.158
64.69000 178.916
64.70000 182.476
64.71000 183.458
64.72000 183.643
64.73000 183.810
64.74000 186.108
64.75000 188.505
64.76000 190.239
64.77000 188.829
64.78000 187.012
64.79000 183.846
64.80000 176.416
64.81000 168.673
64.82000 163.341
64.83000 181.707
64.84000 196.089
64.85000 204.612
64.86000 204.696
64.87000 204.712
64.88000 204.232
64.89000 203.289
64.90000 202.354
64.91000 204.980
64.92000 209.702
64.93000 214.423
64.94000 219.108
64.95000 223.779
64.96000 228.171
64.97000 229.417
64.98000 229.780
64.99000 230.102
65.00000 233.809
65.01000 237.562
65.02000 241.677
65.03000 247.340
65.04000 253.180
65.05000 255.452
65.06000 247.466
65.07000 238.839
65.08000 233.087
65.09000 240.370
65.10000 246.013
65.11000 254.928
65.12000 268.109
65.13000 281.294
65.14000 286.766
65.15000 285.753
65.16000 284.754
65.17000 286.793
65.18000 290.431
65.19000 294.192
65.20000 300.256
65.21000 307.191
65.22000 313.778
65.23000 316.937
65.24000 319.224
65.25000 321.224
65.26000 333.236
65.27000 344.947
65.28000 355.041
65.29000 358.848
65.30000 362.024
65.31000 364.055
65.32000 363.088
65.33000 361.963
65.34000 361.239
65.35000 366.324
65.36000 370.119
65.37000 374.711
65.38000 380.243
65.39000 385.753
65.40000 386.124
65.41000 382.595
65.42000 379.126
65.43000 378.179
65.44000 378.502
65.45000 379.014
65.46000 382.522
65.47000 387.061
65.48000 391.226
65.49000 392.156
65.50000 392.341
65.51000 392.501
65.52000 389.750
65.53000 387.057
65.54000 384.894
65.55000 384.605
65.56000 384.479
65.57000 385.310
65.58000 388.423
65.59000 391.634
65.60000 393.626
65.61000 407.937
65.62000 418.354
65.63000 427.954
65.64000 436.688
65.65000 445.539
65.66000 468.210
65.67000 500.380
65.68000 531.815
65.69000 577.403
65.70000 627.342
65.71000 679.674
65.72000 764.052
65.73000 858.477
65.74000 951.486
65.75000 1033.679
65.76000 1113.618
65.77000 1181.190
65.78000 1257.507
65.79000 1322.309
65.80000 1381.419
65.81000 1422.269
65.82000 1461.743
65.83000 1492.304
65.84000 1503.491
65.85000 1514.007
65.86000 1520.276
65.87000 1503.462
65.88000 1491.405
65.89000 1488.624
65.90000 1494.658
65.91000 1500.254
65.92000 1472.656
65.93000 1424.357
65.94000 1377.463
65.95000 1291.118
65.96000 1193.386
65.97000 1096.359
65.98000 1007.484
65.99000 920.932
66.00000 836.121
66.01000 763.135
66.02000 692.370
66.03000 633.660
66.04000 574.435
66.05000 525.444
66.06000 482.404
66.07000 456.740
66.08000 432.191
66.09000 410.750
66.10000 395.459
66.11000 380.334
66.12000 371.697
66.13000 359.301
66.14000 350.650
66.15000 349.681
66.16000 355.278
66.17000 360.748
66.18000 359.506
66.19000 354.460
66.20000 349.595
66.21000 355.083
66.22000 363.979
66.23000 372.585
66.24000 378.278
66.25000 383.217
66.26000 388.845
66.27000 398.656
66.28000 409.172
66.29000 417.725
66.30000 443.138
66.31000 465.293
66.32000 486.595
66.33000 505.629
66.34000 524.540
66.35000 539.673
66.36000 548.002
66.37000 556.192
66.38000 560.658
66.39000 553.809
66.40000 549.118
66.41000 551.010
66.42000 557.980
66.43000 564.739
66.44000 563.224
66.45000 557.441
66.46000 551.911
66.47000 552.133
66.48000 554.213
66.49000 554.573
66.50000 539.777
66.51000 521.429
66.52000 503.474
66.53000 487.661
66.54000 472.171
66.55000 459.840
66.56000 445.962
66.57000 434.662
66.58000 420.550
66.59000 399.628
66.60000 378.402
66.61000 365.605
66.62000 366.612
66.63000 367.818
66.64000 368.444
66.65000 356.399
66.66000 348.347
66.67000 350.839
66.68000 360.693
66.69000 370.195
66.70000 369.002
66.71000 362.786
66.72000 356.896
66.73000 359.778
66.74000 365.006
66.75000 370.024
66.76000 373.416
66.77000 376.464
66.78000 377.974
66.79000 371.936
66.80000 364.885
66.81000 359.397
66.82000 361.278
66.83000 363.229
66.84000 364.279
66.85000 363.342
66.86000 362.332
66.87000 364.061
66.88000 369.861
66.89000 375.699
66.90000 379.143
66.91000 380.274
66.92000 381.439
66.93000 385.408
66.94000 391.154
66.95000 396.671
66.96000 396.626
66.97000 394.201
66.98000 391.925
66.99000 388.142
67.00000 384.296
67.01000 381.926
67.02000 389.769
67.03000 399.563
67.04000 408.163
67.05000 411.467
67.06000 414.142
67.07000 416.173
67.08000 417.633
67.09000 418.750
67.10000 418.330
67.11000 414.820
67.12000 411.222
67.13000 408.769
67.14000 407.857
67.15000 406.954
67.16000 408.974
67.17000 413.526
67.18000 417.960
67.19000 415.793
67.20000 409.827
67.21000 404.564
67.22000 413.295
67.23000 427.482
67.24000 440.654
67.25000 445.924
67.26000 448.804
67.27000 451.601
67.28000 453.893
67.29000 456.099
67.30000 455.738
67.31000 445.077
67.32000 433.338
67.33000 424.649
67.34000 445.752
67.35000 463.412
67.36000 470.717
67.37000 459.081
67.38000 447.040
67.39000 444.495
67.40000 453.510
67.41000 462.533
67.42000 466.962
67.43000 467.783
67.44000 468.656
67.45000 471.648
67.46000 475.749
67.47000 479.818
67.48000 483.349
67.49000 486.689
67.50000 489.753
67.51000 495.692
67.52000 501.597
67.53000 505.807
67.54000 500.614
67.55000 493.976
67.56000 489.524
67.57000 493.034
67.58000 497.272
67.59000 500.323
67.60000 502.349
67.61000 503.865
67.62000 503.561
67.63000 500.231
67.64000 496.855
67.65000 494.128
67.66000 492.113
67.67000 490.107
67.68000 495.671
67.69000 506.498
67.70000 517.064
67.71000 519.344
67.72000 517.673
67.73000 516.419
67.74000 521.034
67.75000 527.547
67.76000 533.448
67.77000 540.022
67.78000 545.945
67.79000 551.142
67.80000 552.716
67.81000 553.794
67.82000 554.544
67.83000 554.208
67.84000 553.786
67.85000 553.492
67.86000 550.097
67.87000 547.444
67.88000 547.912
67.89000 553.094
67.90000 558.325
67.91000 570.248
67.92000 588.758
67.93000 607.138
67.94000 606.914
67.95000 594.910
67.96000 583.240
67.97000 579.949
67.98000 580.297
67.99000 581.074
68.00000 587.032
68.01000 594.514
68.02000 601.201
68.03000 606.873
68.04000 611.645
68.05000 617.329
68.06000 627.119
68.07000 637.408
68.08000 645.123
68.09000 645.091
68.10000 644.536
68.11000 644.159
68.12000 645.583
68.13000 646.683
68.14000 649.333
68.15000 654.104
68.16000 658.890
68.17000 666.854
68.18000 677.629
68.19000 688.290
68.20000 692.362
68.21000 692.577
68.22000 693.219
68.23000 702.621
68.24000 715.489
68.25000 727.182
68.26000 726.525
68.27000 722.572
68.28000 719.090
68.29000 731.892
68.30000 745.374
68.31000 756.300
68.32000 756.806
68.33000 756.198
68.34000 762.002
68.35000 785.374
68.36000 809.750
68.37000 825.719
68.38000 812.517
68.39000 802.332
68.40000 804.587
68.41000 822.236
68.42000 839.904
68.43000 849.846
68.44000 853.629
68.45000 857.356
68.46000 866.351
68.47000 877.793
68.48000 889.179
68.49000 899.608
68.50000 909.692
68.51000 920.805
68.52000 941.373
68.53000 964.229
68.54000 984.048
68.55000 1016.416
68.56000 1045.647
68.57000 1078.478
68.58000 1124.621
68.59000 1172.009
68.60000 1219.114
68.61000 1265.514
68.62000 1311.880
68.63000 1341.179
68.64000 1433.341
68.65000 1500.862
68.66000 1568.467
68.67000 1636.165
68.68000 1703.896
68.69000 1776.790
68.70000 1853.404
68.71000 1928.479
68.72000 2004.749
68.73000 2078.672
68.74000 2151.811
68.75000 2213.615
68.76000 2271.699
68.77000 2333.680
68.78000 2427.233
68.79000 2527.701
68.80000 2613.359
68.81000 2716.569
68.82000 2805.465
68.83000 2912.543
68.84000 3080.696
68.85000 3253.798
68.86000 3459.694
68.87000 3740.165
68.88000 4023.519
68.89000 4195.797
68.90000 5214.303
68.91000 5948.109
68.92000 7323.319
68.93000 9340.957
68.94000 11374.256
68.95000 14861.763
68.96000 19299.777
68.97000 23622.521
68.98000 29787.475
68.99000 36439.563
69.00000 43096.813
69.01000 49818.016
69.02000 56558.305
69.03000 63024.219
69.04000 67517.961
69.05000 71621.953
69.06000 75058.320
69.07000 76950.086
69.08000 78363.617
69.09000 79543.250
69.10000 80008.148
69.11000 80423.391
69.12000 80938.711
69.13000 81661.375
69.14000 82390.391
69.15000 82815.656
69.16000 83857.938
69.17000 84592.984
69.18000 84322.375
69.19000 83147.328
69.20000 81955.180
69.21000 79697.141
69.22000 76806.398
69.23000 74009.898
69.24000 69766.227
69.25000 65209.121
69.26000 60689.188
69.27000 56568.379
69.28000 52555.797
69.29000 48781.180
69.30000 46531.859
69.31000 44553.730
69.32000 42929.086
69.33000 41756.754
69.34000 40834.602
69.35000 39820.391
69.36000 38550.094
69.37000 37264.727
69.38000 35601.188
69.39000 33224.383
69.40000 30830.836
69.41000 29495.441
69.42000 25059.711
69.43000 21983.096
69.44000 18958.596
69.45000 15976.340
69.46000 13007.650
69.47000 10649.860
69.48000 8621.853
69.49000 6674.930
69.50000 5441.022
69.51000 4531.060
69.52000 3665.885
69.53000 3221.053
69.54000 2879.599
69.55000 2557.381
69.56000 2345.602
69.57000 2151.426
69.58000 1995.205
69.59000 1881.081
69.60000 1791.777
69.61000 1711.286
69.62000 1653.125
69.63000 1596.057
69.64000 1540.852
69.65000 1488.842
69.66000 1436.886
69.67000 1409.258
69.68000 1342.911
69.69000 1297.762
69.70000 1258.906
69.71000 1224.660
69.72000 1190.789
69.73000 1169.730
69.74000 1154.966
69.75000 1140.913
69.76000 1113.850
69.77000 1084.783
69.78000 1056.301
69.79000 1032.660
69.80000 1010.096
69.81000 988.444
69.82000 971.494
69.83000 955.214
69.84000 942.401
69.85000 927.842
69.86000 916.064
69.87000 900.725
69.88000 877.167
69.89000 853.280
69.90000 833.334
69.91000 819.530
69.92000 805.798
69.93000 798.865
69.94000 798.281
69.95000 797.808
69.96000 789.085
69.97000 774.883
69.98000 760.937
69.99000 753.886
70.00000 749.921
