20.00000 521.915
20.01000 530.030
20.02000 539.305
20.03000 546.461
20.04000 545.339
20.05000 543.381
20.06000 541.942
20.07000 544.412
20.08000 546.482
20.09000 547.799
20.10000 547.773
20.11000 547.721
20.12000 545.376
20.13000 540.316
20.14000 535.264
20.15000 536.107
20.16000 541.415
20.17000 546.701
20.18000 551.172
20.19000 555.228
20.20000 559.048
20.21000 559.125
20.22000 557.907
20.23000 556.793
20.24000 556.768
20.25000 556.970
20.26000 558.171
20.27000 564.751
20.28000 572.133
20.29000 577.620
20.30000 576.386
20.31000 574.560
20.32000 573.256
20.33000 551.901
20.34000 534.939
20.35000 529.590
20.36000 543.063
20.37000 556.796
20.38000 559.011
20.39000 548.960
20.40000 538.954
20.41000 539.484
20.42000 547.202
20.43000 554.638
20.44000 553.747
20.45000 548.985
20.46000 544.388
20.47000 542.039
20.48000 540.396
20.49000 538.914
20.50000 543.872
20.51000 549.416
20.52000 553.072
20.53000 547.573
20.54000 540.859
20.55000 537.523
20.56000 545.080
20.57000 553.463
20.58000 559.275
20.59000 542.978
20.60000 530.123
20.61000 526.409
20.62000 536.135
20.63000 545.981
20.64000 550.078
20.65000 548.684
20.66000 547.301
20.67000 548.765
20.68000 551.957
20.69000 554.926
20.70000 552.602
20.71000 548.036
20.72000 543.354
20.73000 537.328
20.74000 530.918
20.75000 525.210
20.76000 530.329
20.77000 536.552
20.78000 542.556
20.79000 547.595
20.80000 552.522
20.81000 556.079
20.82000 555.618
20.83000 554.896
20.84000 554.411
20.85000 547.800
20.86000 542.766
20.87000 541.596
20.88000 545.574
20.89000 549.580
20.90000 555.967
20.91000 564.398
20.92000 572.730
20.93000 571.967
20.94000 566.167
20.95000 560.361
20.96000 554.422
20.97000 548.431
20.98000 543.200
20.99000 545.653
21.00000 550.104
21.01000 554.009
21.02000 553.064
21.03000 551.546
21.04000 549.020
21.05000 542.491
21.06000 535.549
21.07000 531.566
21.08000 535.487
21.09000 539.838
21.10000 542.661
21.11000 536.312
21.12000 531.525
21.13000 529.716
21.14000 531.489
21.15000 533.258
21.16000 531.931
21.17000 528.202
21.18000 524.533
21.19000 525.121
21.20000 527.826
21.21000 530.657
21.22000 535.574
21.23000 541.224
21.24000 545.781
21.25000 540.644
21.26000 533.223
21.27000 526.817
21.28000 530.887
21.29000 535.690
21.30000 539.659
21.31000 540.618
21.32000 541.307
21.33000 541.873
21.34000 542.137
21.35000 542.388
21.36000 542.545
21.37000 540.995
21.38000 539.859
21.39000 535.654
21.40000 528.122
21.41000 520.665
21.42000 523.283
21.43000 532.975
21.44000 542.456
21.45000 541.209
21.46000 535.154
21.47000 529.948
21.48000 536.484
21.49000 546.777
21.50000 555.316
21.51000 550.103
21.52000 541.961
21.53000 535.053
21.54000 536.343
21.55000 538.355
21.56000 539.712
21.57000 538.930
21.58000 537.981
21.59000 538.733
21.60000 543.257
21.61000 547.918
21.62000 550.721
21.63000 550.880
21.64000 550.975
21.65000 547.726
21.66000 541.227
21.67000 534.794
21.68000 533.924
21.69000 536.593
21.70000 539.189
21.71000 539.323
21.72000 538.445
21.73000 537.571
21.74000 536.756
21.75000 535.958
21.76000 535.436
21.77000 536.842
21.78000 538.618
21.79000 540.098
21.80000 541.653
21.81000 542.949
21.82000 544.646
21.83000 547.536
21.84000 550.505
21.85000 557.307
21.86000 571.851
21.87000 586.617
21.88000 595.129
21.89000 575.383
21.90000 561.457
21.91000 556.309
21.92000 558.831
21.93000 561.376
21.94000 565.162
21.95000 569.666
21.96000 574.015
21.97000 571.363
21.98000 566.282
21.99000 562.115
22.00000 567.393
22.01000 575.167
22.02000 581.943
22.03000 582.521
22.04000 582.029
22.05000 581.628
22.06000 587.939
22.07000 593.683
22.08000 600.145
22.09000 608.550
22.10000 617.065
22.11000 616.987
22.12000 601.112
22.13000 584.895
22.14000 575.962
22.15000 593.470
22.16000 605.542
22.17000 606.991
22.18000 600.064
22.19000 593.249
22.20000 591.093
22.21000 591.389
22.22000 591.672
22.23000 592.898
22.24000 594.356
22.25000 595.487
22.26000 593.663
22.27000 591.133
22.28000 589.035
22.29000 589.351
22.30000 590.040
22.31000 590.591
22.32000 588.950
22.33000 587.461
22.34000 585.587
22.35000 582.763
22.36000 579.895
22.37000 576.260
22.38000 571.342
22.39000 566.404
22.40000 563.814
22.41000 569.519
22.42000 573.358
22.43000 572.792
22.44000 569.084
22.45000 565.309
22.46000 559.397
22.47000 552.461
22.48000 545.876
22.49000 545.500
22.50000 547.014
22.51000 547.824
22.52000 542.997
22.53000 536.950
22.54000 531.381
22.55000 528.210
22.56000 525.370
22.57000 523.148
22.58000 522.476
22.59000 522.039
22.60000 522.114
22.61000 523.345
22.62000 524.618
22.63000 525.449
22.64000 525.605
22.65000 525.755
22.66000 525.357
22.67000 524.417
22.68000 523.535
22.69000 527.680
22.70000 535.078
22.71000 542.103
22.72000 539.658
22.73000 533.080
22.74000 526.894
22.75000 520.632
22.76000 514.893
22.77000 510.247
22.78000 513.367
22.79000 518.004
22.80000 519.808
22.81000 508.785
22.82000 496.194
22.83000 486.580
22.84000 493.365
22.85000 499.596
22.86000 504.674
22.87000 507.390
22.88000 510.036
22.89000 510.653
22.90000 508.481
22.91000 506.293
22.92000 508.566
22.93000 514.796
22.94000 520.861
22.95000 517.095
22.96000 507.554
22.97000 498.683
22.98000 503.709
22.99000 514.260
23.00000 524.078
23.01000 514.158
23.02000 500.409
23.03000 488.410
23.04000 487.497
23.05000 488.532
23.06000 489.914
23.07000 492.718
23.08000 495.675
23.09000 497.877
23.10000 500.685
23.11000 502.897
23.12000 501.649
23.13000 493.944
23.14000 486.092
23.15000 488.245
23.16000 502.845
23.17000 517.456
23.18000 519.370
23.19000 511.142
23.20000 503.025
23.21000 499.727
23.22000 499.003
23.23000 498.433
23.24000 500.521
23.25000 503.572
23.26000 506.379
23.27000 512.701
23.28000 519.115
23.29000 523.483
23.30000 516.238
23.31000 507.165
23.32000 498.541
23.33000 491.586
23.34000 484.788
23.35000 479.864
23.36000 476.945
23.37000 474.777
23.38000 476.311
23.39000 484.130
23.40000 492.053
23.41000 496.233
23.42000 496.217
23.43000 496.198
23.44000 491.406
23.45000 483.227
23.46000 475.532
23.47000 483.919
23.48000 500.129
23.49000 514.930
23.50000 509.211
23.51000 496.725
23.52000 485.380
23.53000 484.944
23.54000 486.682
23.55000 487.420
23.56000 483.057
23.57000 477.977
23.58000 476.230
23.59000 485.731
23.60000 496.151
23.61000 503.483
23.62000 495.228
23.63000 488.511
23.64000 479.485
23.65000 466.901
23.66000 454.276
23.67000 453.757
23.68000 465.429
23.69000 477.028
23.70000 480.986
23.71000 479.939
23.72000 478.871
23.73000 477.248
23.74000 475.379
23.75000 473.750
23.76000 475.125
23.77000 477.400
23.78000 479.439
23.79000 482.944
23.80000 486.260
23.81000 489.006
23.82000 489.123
23.83000 488.913
23.84000 489.137
23.85000 490.693
23.86000 492.341
23.87000 493.466
23.88000 478.656
23.89000 467.215
23.90000 465.867
23.91000 478.629
23.92000 491.480
23.93000 494.581
23.94000 488.865
23.95000 483.206
23.96000 489.835
23.97000 503.500
23.98000 516.386
23.99000 512.599
24.00000 502.082
24.01000 491.946
24.02000 485.931
24.03000 481.040
24.04000 476.717
24.05000 486.155
24.06000 496.431
24.07000 505.311
24.08000 508.379
24.09000 510.808
24.10000 511.295
24.11000 506.354
24.12000 501.090
24.13000 497.617
24.14000 495.522
24.15000 494.001
24.16000 490.418
24.17000 484.227
24.18000 478.034
24.19000 474.548
24.20000 473.267
24.21000 472.005
24.22000 476.926
24.23000 484.968
24.24000 492.296
24.25000 486.971
24.26000 476.992
24.27000 468.946
24.28000 479.150
24.29000 493.866
24.30000 506.670
24.31000 505.448
24.32000 502.485
24.33000 499.587
24.34000 496.932
24.35000 494.300
24.36000 489.636
24.37000 479.798
24.38000 469.704
24.39000 463.276
24.40000 466.847
24.41000 469.569
24.42000 471.493
24.43000 472.505
24.44000 473.515
24.45000 474.347
24.46000 475.048
24.47000 475.736
24.48000 478.912
24.49000 483.158
24.50000 487.120
24.51000 486.825
24.52000 485.105
24.53000 482.964
24.54000 477.322
24.55000 470.896
24.56000 465.397
24.57000 466.225
24.58000 467.687
24.59000 469.296
24.60000 471.410
24.61000 473.566
24.62000 471.978
24.63000 461.707
24.64000 451.085
24.65000 444.571
24.66000 456.752
24.67000 465.636
24.68000 471.880
24.69000 475.415
24.70000 478.873
24.71000 474.306
24.72000 464.384
24.73000 454.708
24.74000 458.258
24.75000 467.333
24.76000 475.722
24.77000 475.345
24.78000 472.297
24.79000 469.914
24.80000 472.428
24.81000 475.932
24.82000 478.877
24.83000 472.387
24.84000 465.978
24.85000 463.050
24.86000 470.974
24.87000 479.678
24.88000 483.495
24.89000 476.988
24.90000 470.148
24.91000 466.121
24.92000 471.142
24.93000 474.730
24.94000 474.886
24.95000 471.885
24.96000 468.917
24.97000 468.197
24.98000 468.838
24.99000 469.460
25.00000 468.165
25.01000 466.196
25.02000 464.837
25.03000 470.214
25.04000 477.457
25.05000 483.209
25.06000 479.181
25.07000 473.373
25.08000 468.583
25.09000 469.731
25.10000 471.225
25.11000 471.661
25.12000 469.096
25.13000 466.349
25.14000 464.252
25.15000 463.408
25.16000 462.595
25.17000 462.138
25.18000 470.461
25.19000 476.255
25.20000 477.615
25.21000 475.303
25.22000 473.059
25.23000 474.119
25.24000 476.998
25.25000 479.767
25.26000 473.877
25.27000 465.327
25.28000 457.441
25.29000 455.963
25.30000 456.095
25.31000 456.410
25.32000 457.807
25.33000 459.379
25.34000 460.650
25.35000 464.662
25.36000 468.145
25.37000 470.281
25.38000 468.937
25.39000 467.415
25.40000 468.080
25.41000 472.573
25.42000 477.137
25.43000 479.589
25.44000 479.874
25.45000 480.051
25.46000 477.073
25.47000 471.733
25.48000 466.651
25.49000 470.871
25.50000 479.755
25.51000 488.227
25.52000 480.723
25.53000 468.721
25.54000 457.210
25.55000 449.856
25.56000 443.447
25.57000 439.359
25.58000 447.520
25.59000 457.466
25.60000 465.332
25.61000 462.335
25.62000 459.181
25.63000 456.711
25.64000 455.850
25.65000 455.057
25.66000 453.393
25.67000 450.341
25.68000 447.272
25.69000 445.705
25.70000 450.143
25.71000 453.076
25.72000 450.859
25.73000 445.150
25.74000 439.718
25.75000 442.099
25.76000 448.048
25.77000 453.670
25.78000 456.971
25.79000 459.343
25.80000 461.793
25.81000 464.833
25.82000 467.995
25.83000 469.819
25.84000 465.280
25.85000 459.916
25.86000 455.772
25.87000 454.143
25.88000 452.998
25.89000 454.583
25.90000 462.024
25.91000 469.661
25.92000 469.369
25.93000 457.633
25.94000 445.806
25.95000 445.380
25.96000 455.619
25.97000 465.752
25.98000 468.230
25.99000 465.998
26.00000 463.823
26.01000 462.954
26.02000 462.628
26.03000 462.323
26.04000 455.142
26.05000 446.863
26.06000 439.592
26.07000 439.063
26.08000 439.781
26.09000 440.113
26.10000 438.788
26.11000 437.274
26.12000 436.132
26.13000 445.504
26.14000 453.359
26.15000 458.518
26.16000 458.408
26.17000 458.160
26.18000 455.848
26.19000 450.839
26.20000 445.822
26.21000 446.201
26.22000 451.111
26.23000 455.895
26.24000 454.324
26.25000 449.198
26.26000 444.057
26.27000 438.607
26.28000 433.041
26.29000 427.891
26.30000 430.267
26.31000 434.127
26.32000 437.475
26.33000 437.753
26.34000 437.522
26.35000 436.554
26.36000 432.714
26.37000 428.585
26.38000 425.554
26.39000 430.899
26.40000 435.371
26.41000 440.666
26.42000 447.425
26.43000 454.212
26.44000 455.264
26.45000 449.551
26.46000 443.842
26.47000 441.031
26.48000 440.429
26.49000 439.882
26.50000 441.367
26.51000 443.888
26.52000 446.321
26.53000 447.365
26.54000 447.930
26.55000 448.446
26.56000 441.579
26.57000 433.960
26.58000 428.020
26.59000 431.096
26.60000 435.510
26.61000 439.475
26.62000 441.857
26.63000 444.100
26.64000 445.701
26.65000 448.455
26.66000 450.594
26.67000 451.470
26.68000 450.307
26.69000 449.116
26.70000 451.125
26.71000 456.528
26.72000 461.907
26.73000 458.607
26.74000 449.438
26.75000 440.572
26.76000 440.620
26.77000 444.801
26.78000 448.332
26.79000 443.125
26.80000 435.174
26.81000 427.997
26.82000 432.596
26.83000 438.797
26.84000 444.012
26.85000 444.456
26.86000 444.270
26.87000 444.805
26.88000 447.658
26.89000 450.686
26.90000 452.784
26.91000 453.564
26.92000 454.116
26.93000 451.790
26.94000 445.244
26.95000 438.662
26.96000 440.413
26.97000 450.097
26.98000 459.705
26.99000 458.381
27.00000 450.372
27.01000 442.848
27.02000 446.784
27.03000 455.560
27.04000 463.316
27.05000 459.265
27.06000 451.842
27.07000 445.236
27.08000 439.306
27.09000 434.266
27.10000 430.260
27.11000 430.778
27.12000 431.825
27.13000 433.609
27.14000 437.551
27.15000 441.633
27.16000 444.370
27.17000 442.485
27.18000 440.992
27.19000 441.766
27.20000 445.550
27.21000 449.343
27.22000 448.558
27.23000 443.852
27.24000 439.203
27.25000 435.628
27.26000 432.736
27.27000 429.876
27.28000 427.625
27.29000 425.608
27.30000 424.143
27.31000 428.248
27.32000 433.796
27.33000 438.660
27.34000 433.142
27.35000 426.898
27.36000 422.643
27.37000 426.264
27.38000 430.694
27.39000 435.209
27.40000 439.947
27.41000 444.698
27.42000 447.777
27.43000 448.364
27.44000 448.757
27.45000 444.465
27.46000 434.553
27.47000 424.677
27.48000 426.761
27.49000 438.090
27.50000 449.233
27.51000 455.102
27.52000 458.144
27.53000 460.583
27.54000 453.243
27.55000 442.475
27.56000 432.739
27.57000 432.114
27.58000 433.629
27.59000 434.936
27.60000 432.911
27.61000 430.765
27.62000 429.452
27.63000 431.131
27.64000 433.078
27.65000 434.312
27.66000 433.818
27.67000 433.247
27.68000 432.890
27.69000 423.360
27.70000 416.389
27.71000 418.499
27.72000 430.415
27.73000 442.258
27.74000 443.901
27.75000 438.406
27.76000 433.031
27.77000 427.896
27.78000 423.078
27.79000 418.709
27.80000 420.531
27.81000 424.327
27.82000 428.340
27.83000 434.042
27.84000 440.103
27.85000 445.243
27.86000 437.420
27.87000 429.397
27.88000 422.517
27.89000 419.367
27.90000 416.506
27.91000 413.739
27.92000 411.180
27.93000 408.628
27.94000 407.095
27.95000 414.837
27.96000 420.402
27.97000 423.632
27.98000 424.600
27.99000 425.530
28.00000 423.402
28.01000 419.332
28.02000 415.375
28.03000 415.530
28.04000 417.353
28.05000 418.695
28.06000 414.329
28.07000 408.308
28.08000 403.920
28.09000 410.867
28.10000 419.986
28.11000 427.577
28.12000 425.830
28.13000 423.460
28.14000 422.431
28.15000 425.386
28.16000 428.604
28.17000 430.869
28.18000 431.218
28.19000 431.513
28.20000 431.682
28.21000 423.137
28.22000 417.122
28.23000 410.070
28.24000 402.115
28.25000 394.425
28.26000 401.647
28.27000 417.467
28.28000 432.738
28.29000 434.143
28.30000 430.365
28.31000 426.575
28.32000 422.658
28.33000 418.709
28.34000 416.102
28.35000 421.816
28.36000 428.963
28.37000 434.797
28.38000 427.303
28.39000 420.028
28.40000 417.505
28.41000 427.834
28.42000 438.879
28.43000 446.197
28.44000 446.683
28.45000 447.022
28.46000 447.208
28.47000 429.993
28.48000 418.146
28.49000 416.821
28.50000 423.765
28.51000 430.617
28.52000 433.642
28.53000 434.659
28.54000 435.633
28.55000 438.228
28.56000 441.184
28.57000 444.198
28.58000 447.736
28.59000 451.399
28.60000 452.632
28.61000 440.362
28.62000 426.013
28.63000 414.543
28.64000 419.399
28.65000 424.533
28.66000 427.706
28.67000 426.051
28.68000 424.173
28.69000 421.623
28.70000 417.954
28.71000 414.267
28.72000 412.336
28.73000 420.393
28.74000 425.821
28.75000 426.943
28.76000 425.003
28.77000 423.276
28.78000 428.337
28.79000 436.639
28.80000 444.520
28.81000 443.466
28.82000 439.823
28.83000 435.981
28.84000 430.553
28.85000 424.782
28.86000 420.657
28.87000 424.760
28.88000 429.993
28.89000 434.083
28.90000 427.995
28.91000 422.491
28.92000 418.312
28.93000 417.103
28.94000 416.006
28.95000 417.849
28.96000 424.143
28.97000 430.483
28.98000 432.878
28.99000 431.382
29.00000 429.839
29.01000 424.171
29.02000 415.845
29.03000 407.871
29.04000 408.814
29.05000 413.636
29.06000 418.171
29.07000 417.537
29.08000 415.568
29.09000 414.088
29.10000 416.062
29.11000 418.708
29.12000 420.043
29.13000 415.454
29.14000 410.145
29.15000 406.094
29.16000 409.424
29.17000 412.443
29.18000 411.683
29.19000 403.197
29.20000 394.482
29.21000 390.641
29.22000 393.485
29.23000 396.367
29.24000 399.321
29.25000 402.332
29.26000 405.289
29.27000 404.968
29.28000 402.728
29.29000 400.694
29.30000 402.900
29.31000 406.788
29.32000 410.405
29.33000 409.918
29.34000 408.488
29.35000 407.637
29.36000 410.444
29.37000 413.892
29.38000 416.265
29.39000 414.246
29.40000 411.756
29.41000 409.903
29.42000 402.294
29.43000 396.118
29.44000 395.516
29.45000 405.287
29.46000 415.292
29.47000 418.692
29.48000 413.904
29.49000 409.102
29.50000 406.236
29.51000 404.923
29.52000 403.653
29.53000 404.241
29.54000 405.817
29.55000 407.203
29.56000 405.316
29.57000 402.247
29.58000 399.425
29.59000 401.053
29.60000 403.471
29.61000 405.881
29.62000 408.248
29.63000 410.609
29.64000 412.954
29.65000 415.244
29.66000 417.529
29.67000 419.182
29.68000 408.413
29.69000 399.690
29.70000 397.030
29.71000 404.633
29.72000 412.403
29.73000 413.406
29.74000 406.844
29.75000 400.300
29.76000 401.095
29.77000 407.138
29.78000 412.951
29.79000 411.168
29.80000 405.701
29.81000 400.687
29.82000 402.231
29.83000 405.932
29.84000 409.293
29.85000 409.746
29.86000 409.583
29.87000 408.808
29.88000 404.924
29.89000 400.606
29.90000 397.824
29.91000 400.214
29.92000 403.024
29.93000 405.000
29.94000 398.140
29.95000 392.684
29.96000 392.969
29.97000 402.080
29.98000 411.289
29.99000 412.456
30.00000 405.552
30.01000 398.691
30.02000 395.540
30.03000 394.830
30.04000 394.297
30.05000 398.429
30.06000 404.622
30.07000 410.374
30.08000 410.655
30.09000 409.299
30.10000 408.084
30.11000 406.697
30.12000 405.456
30.13000 404.345
30.14000 403.833
30.15000 403.395
30.16000 403.413
30.17000 404.826
30.18000 406.336
30.19000 407.365
30.20000 422.374
30.21000 433.912
30.22000 436.238
30.23000 425.725
30.24000 415.131
30.25000 410.114
30.26000 410.122
30.27000 410.130
30.28000 406.229
30.29000 400.133
30.30000 394.272
30.31000 393.401
30.32000 394.537
30.33000 396.146
30.34000 402.839
30.35000 410.914
30.36000 418.046
30.37000 406.256
30.38000 393.167
30.39000 383.269
30.40000 386.623
30.41000 391.427
30.42000 396.958
30.43000 404.513
30.44000 412.186
30.45000 417.245
30.46000 405.248
30.47000 396.109
30.48000 392.371
30.49000 395.443
30.50000 398.538
30.51000 401.979
30.52000 405.701
30.53000 409.370
30.54000 407.751
30.55000 403.399
30.56000 399.074
30.57000 395.236
30.58000 391.575
30.59000 388.370
30.60000 389.447
30.61000 391.580
30.62000 393.434
30.63000 393.017
30.64000 392.352
30.65000 394.652
30.66000 408.113
30.67000 422.645
30.68000 430.507
30.69000 421.434
30.70000 411.529
30.71000 405.227
30.72000 420.174
30.73000 431.301
30.74000 436.941
30.75000 436.342
30.76000 435.737
30.77000 435.044
30.78000 434.286
30.79000 433.543
30.80000 439.288
30.81000 447.901
30.82000 455.779
30.83000 452.710
30.84000 445.987
30.85000 440.097
30.86000 441.116
30.87000 443.676
30.88000 445.865
30.89000 455.376
30.90000 464.276
30.91000 470.811
30.92000 469.264
30.93000 467.044
30.94000 464.841
30.95000 462.675
30.96000 460.511
30.97000 459.186
30.98000 465.849
30.99000 470.687
31.00000 475.218
31.01000 479.434
31.02000 483.658
31.03000 488.654
31.04000 494.163
31.05000 499.535
31.06000 507.404
31.07000 515.988
31.08000 524.773
31.09000 536.113
31.10000 548.228
31.11000 561.403
31.12000 582.362
31.13000 604.889
31.14000 623.816
31.15000 640.818
31.16000 654.780
31.17000 668.772
31.18000 682.857
31.19000 696.949
31.20000 714.069
31.21000 737.571
31.22000 761.277
31.23000 775.214
31.24000 823.505
31.25000 857.733
31.26000 886.745
31.27000 910.977
31.28000 935.256
31.29000 962.676
31.30000 991.992
31.31000 1020.390
31.32000 1039.124
31.33000 1053.111
31.34000 1067.471
31.35000 1085.929
31.36000 1105.517
31.37000 1124.252
31.38000 1137.400
31.39000 1149.534
31.40000 1159.537
31.41000 1167.604
31.42000 1174.065
31.43000 1177.775
31.44000 1173.699
31.45000 1169.151
31.46000 1159.294
31.47000 1139.250
31.48000 1118.954
31.49000 1107.536
31.50000 1068.936
31.51000 1042.065
31.52000 1012.155
31.53000 979.734
31.54000 947.508
31.55000 924.502
31.56000 906.560
31.57000 889.311
31.58000 865.666
31.59000 841.282
31.60000 816.448
31.61000 787.286
31.62000 757.040
31.63000 729.117
31.64000 714.790
31.65000 702.675
31.66000 692.890
31.67000 660.101
31.68000 631.612
31.69000 609.777
31.70000 605.095
31.71000 601.283
31.72000 592.384
31.73000 574.606
31.74000 556.667
31.75000 547.041
31.76000 533.455
31.77000 524.183
31.78000 516.527
31.79000 510.078
31.80000 503.587
31.81000 495.628
31.82000 486.936
31.83000 478.648
31.84000 466.198
31.85000 453.342
31.86000 441.970
31.87000 443.149
31.88000 447.174
31.89000 449.605
31.90000 443.653
31.91000 436.482
31.92000 430.815
31.93000 426.649
31.94000 423.407
31.95000 419.796
31.96000 415.319
31.97000 410.806
31.98000 408.993
31.99000 411.464
32.00000 413.988
32.01000 415.276
32.02000 413.993
32.03000 413.178
32.04000 417.380
32.05000 424.973
32.06000 432.289
32.07000 431.814
32.08000 427.793
32.09000 423.995
32.10000 416.004
32.11000 407.483
32.12000 399.988
32.13000 400.180
32.14000 401.946
32.15000 402.437
32.16000 396.879
32.17000 390.539
32.18000 385.645
32.19000 387.854
32.20000 390.019
32.21000 390.534
32.22000 387.519
32.23000 384.387
32.24000 382.848
32.25000 383.599
32.26000 384.369
32.27000 386.431
32.28000 389.695
32.29000 392.902
32.30000 392.027
32.31000 388.650
32.32000 385.270
32.33000 381.839
32.34000 378.387
32.35000 375.158
32.36000 375.722
32.37000 377.200
32.38000 378.693
32.39000 380.292
32.40000 381.910
32.41000 384.288
32.42000 389.927
32.43000 395.939
32.44000 400.466
32.45000 386.890
32.46000 375.379
32.47000 367.752
32.48000 367.693
32.49000 367.829
32.50000 372.171
32.51000 381.990
32.52000 391.822
32.53000 393.679
32.54000 388.851
32.55000 384.008
32.56000 378.350
32.57000 372.238
32.58000 366.288
32.59000 363.361
32.60000 361.576
32.61000 359.926
32.62000 358.295
32.63000 356.834
32.64000 356.805
32.65000 365.309
32.66000 375.226
32.67000 383.430
32.68000 384.986
32.69000 385.876
32.70000 386.528
32.71000 375.119
32.72000 365.816
32.73000 359.946
32.74000 360.160
32.75000 360.492
32.76000 361.469
32.77000 363.206
32.78000 364.939
32.79000 366.702
32.80000 368.475
32.81000 370.267
32.82000 372.747
32.83000 375.575
32.84000 378.187
32.85000 377.405
32.86000 375.455
32.87000 373.673
32.88000 379.640
32.89000 386.527
32.90000 392.031
32.91000 390.131
32.92000 387.135
32.93000 384.560
32.94000 383.465
32.95000 382.500
32.96000 381.811
32.97000 368.240
32.98000 357.469
32.99000 353.928
33.00000 362.037
33.01000 370.302
33.02000 367.921
33.03000 354.276
33.04000 340.697
33.05000 337.832
33.06000 342.272
33.07000 346.585
33.08000 347.182
33.09000 346.063
33.10000 345.052
33.11000 345.491
33.12000 346.385
33.13000 347.192
33.14000 351.215
33.15000 355.337
33.16000 358.437
33.17000 356.609
33.18000 354.133
33.19000 350.389
33.20000 342.584
33.21000 334.474
33.22000 328.861
33.23000 330.431
33.24000 331.799
33.25000 334.232
33.26000 338.223
33.27000 342.227
33.28000 343.688
33.29000 342.735
33.30000 341.789
33.31000 338.861
33.32000 334.770
33.33000 330.949
33.34000 333.429
33.35000 338.562
33.36000 343.687
33.37000 348.717
33.38000 353.720
33.39000 358.172
33.40000 351.239
33.41000 343.365
33.42000 336.332
33.43000 332.962
33.44000 330.018
33.45000 326.409
33.46000 320.857
33.47000 315.180
33.48000 311.376
33.49000 324.698
33.50000 334.927
33.51000 340.913
33.52000 341.286
33.53000 341.629
33.54000 341.050
33.55000 339.681
33.56000 338.329
33.57000 334.683
33.58000 329.862
33.59000 325.270
33.60000 325.095
33.61000 326.614
33.62000 328.348
33.63000 332.235
33.64000 336.678
33.65000 340.571
33.66000 331.510
33.67000 321.861
33.68000 315.553
33.69000 322.430
33.70000 330.657
33.71000 337.599
33.72000 341.128
33.73000 344.474
33.74000 346.639
33.75000 342.829
33.76000 339.953
33.77000 337.266
33.78000 334.805
33.79000 332.363
33.80000 334.322
33.81000 339.672
33.82000 344.934
33.83000 339.417
33.84000 328.706
33.85000 318.676
33.86000 319.633
33.87000 324.428
33.88000 329.197
33.89000 333.735
33.90000 338.220
33.91000 342.087
33.92000 336.112
33.93000 329.786
33.94000 324.255
33.95000 321.571
33.96000 319.141
33.97000 318.026
33.98000 320.091
33.99000 322.299
34.00000 323.676
34.01000 324.492
34.02000 325.074
34.03000 322.859
34.04000 317.632
34.05000 312.495
34.06000 319.160
34.07000 334.059
34.08000 348.631
34.09000 344.843
34.10000 332.947
34.11000 322.017
34.12000 324.325
34.13000 330.843
34.14000 337.183
34.15000 342.128
34.16000 346.779
34.17000 350.721
34.18000 346.234
34.19000 341.526
34.20000 336.975
34.21000 332.932
34.22000 328.927
34.23000 324.973
34.24000 321.129
34.25000 317.288
34.26000 314.984
34.27000 317.059
34.28000 318.562
34.29000 324.402
34.30000 334.433
34.31000 344.298
34.32000 340.871
34.33000 329.033
34.34000 317.527
34.35000 315.802
34.36000 318.137
34.37000 320.550
34.38000 323.886
34.39000 327.488
34.40000 330.819
34.41000 332.270
34.42000 333.362
34.43000 334.271
34.44000 330.500
34.45000 326.917
34.46000 324.708
34.47000 326.570
34.48000 328.700
34.49000 331.726
34.50000 336.551
34.51000 341.426
34.52000 344.230
34.53000 326.670
34.54000 314.320
34.55000 309.116
34.56000 310.119
34.57000 311.155
34.58000 314.037
34.59000 317.980
34.60000 321.785
34.61000 324.423
34.62000 326.478
34.63000 328.113
34.64000 325.447
34.65000 321.651
34.66000 318.046
34.67000 315.618
34.68000 313.392
34.69000 311.576
34.70000 314.342
34.71000 316.996
34.72000 320.254
34.73000 325.139
34.74000 330.115
34.75000 328.886
34.76000 316.317
34.77000 303.506
34.78000 296.470
34.79000 308.981
34.80000 317.595
34.81000 318.205
34.82000 312.545
34.83000 307.088
34.84000 309.955
34.85000 317.176
34.86000 324.091
34.87000 323.220
34.88000 319.835
34.89000 317.051
34.90000 319.672
34.91000 323.579
34.92000 325.947
34.93000 319.791
34.94000 312.327
34.95000 306.364
34.96000 310.971
34.97000 315.472
34.98000 316.040
34.99000 306.943
35.00000 297.403
35.01000 293.664
35.02000 299.565
35.03000 305.613
35.04000 308.775
35.05000 325.894
35.06000 337.374
35.07000 333.483
35.08000 318.694
35.09000 304.383
35.10000 305.132
35.11000 313.054
35.12000 320.572
35.13000 319.245
35.14000 315.385
35.15000 311.907
35.16000 311.456
35.17000 311.655
35.18000 311.484
35.19000 309.464
35.20000 307.191
35.21000 305.416
35.22000 300.428
35.23000 296.247
35.24000 296.013
35.25000 304.615
35.26000 313.547
35.27000 317.145
35.28000 312.698
35.29000 308.170
35.30000 306.002
35.31000 306.154
35.32000 306.303
35.33000 306.212
35.34000 305.965
35.35000 305.660
35.36000 303.900
35.37000 301.510
35.38000 299.263
35.39000 295.257
35.40000 291.128
35.41000 288.338
35.42000 294.985
35.43000 303.464
35.44000 310.491
35.45000 310.982
35.46000 310.680
35.47000 310.451
35.48000 303.029
35.49000 296.801
35.50000 292.399
35.51000 291.721
35.52000 291.152
35.53000 295.624
35.54000 306.988
35.55000 318.386
35.56000 318.566
35.57000 308.849
35.58000 299.302
35.59000 299.792
35.60000 306.142
35.61000 312.178
35.62000 311.780
35.63000 308.838
35.64000 306.102
35.65000 310.527
35.66000 316.247
35.67000 321.003
35.68000 319.698
35.69000 317.336
35.70000 314.633
35.71000 310.547
35.72000 306.312
35.73000 303.165
35.74000 312.676
35.75000 320.632
35.76000 322.950
35.77000 314.802
35.78000 306.420
35.79000 299.525
35.80000 294.468
35.81000 289.425
35.82000 290.775
35.83000 297.189
35.84000 303.484
35.85000 304.704
35.86000 303.229
35.87000 301.662
35.88000 298.536
35.89000 294.848
35.90000 291.458
35.91000 299.610
35.92000 309.382
35.93000 317.139
35.94000 313.534
35.95000 308.152
35.96000 303.512
35.97000 301.614
35.98000 299.972
35.99000 298.785
36.00000 301.584
36.01000 303.877
36.02000 305.851
36.03000 307.286
36.04000 308.711
36.05000 305.493
36.06000 297.100
36.07000 288.734
36.08000 288.475
36.09000 294.006
36.10000 299.450
36.11000 302.058
36.12000 303.293
36.13000 304.180
36.14000 300.049
36.15000 294.273
36.16000 289.028
36.17000 288.308
36.18000 288.546
36.19000 289.129
36.20000 291.465
36.21000 294.045
36.22000 297.071
36.23000 301.595
36.24000 306.240
36.25000 309.503
36.26000 304.622
36.27000 300.688
36.28000 299.111
36.29000 301.145
36.30000 303.219
36.31000 302.388
36.32000 298.650
36.33000 294.937
36.34000 296.502
36.35000 301.441
36.36000 306.336
36.37000 310.106
36.38000 313.381
36.39000 316.172
36.40000 312.981
36.41000 308.005
36.42000 303.547
36.43000 304.776
36.44000 306.828
36.45000 308.103
36.46000 305.820
36.47000 303.097
36.48000 300.364
36.49000 297.599
36.50000 294.832
36.51000 292.948
36.52000 303.123
36.53000 310.999
36.54000 315.025
36.55000 313.702
36.56000 312.341
36.57000 306.872
36.58000 297.714
36.59000 288.647
36.60000 292.037
36.61000 302.585
36.62000 312.569
36.63000 310.647
36.64000 303.946
36.65000 298.051
36.66000 300.790
36.67000 305.869
36.68000 310.354
36.69000 305.585
36.70000 300.052
36.71000 295.685
36.72000 296.148
36.73000 297.137
36.74000 295.003
36.75000 284.184
36.76000 272.856
36.77000 265.396
36.78000 274.350
36.79000 281.229
36.80000 287.335
36.81000 292.468
36.82000 297.584
36.83000 297.233
36.84000 292.455
36.85000 287.745
36.86000 287.951
36.87000 290.727
36.88000 293.365
36.89000 293.592
36.90000 292.938
36.91000 292.011
36.92000 288.530
36.93000 284.421
36.94000 280.849
36.95000 284.759
36.96000 289.109
36.97000 291.842
36.98000 288.502
36.99000 284.582
37.00000 283.060
37.01000 287.608
37.02000 292.453
37.03000 295.533
37.04000 297.053
37.05000 298.139
37.06000 296.462
37.07000 291.655
37.08000 286.868
37.09000 286.149
37.10000 288.407
37.11000 290.621
37.12000 287.617
37.13000 282.255
37.14000 277.529
37.15000 282.226
37.16000 290.060
37.17000 296.740
37.18000 293.894
37.19000 288.929
37.20000 284.684
37.21000 286.660
37.22000 289.071
37.23000 290.538
37.24000 288.790
37.25000 286.774
37.26000 286.667
37.27000 290.963
37.28000 295.435
37.29000 298.170
37.30000 287.449
37.31000 279.664
37.32000 278.844
37.33000 285.117
37.34000 291.311
37.35000 289.537
37.36000 282.478
37.37000 275.596
37.38000 278.423
37.39000 285.267
37.40000 291.294
37.41000 286.971
37.42000 279.513
37.43000 273.277
37.44000 275.985
37.45000 280.490
37.46000 284.272
37.47000 279.596
37.48000 274.814
37.49000 273.103
37.50000 280.912
37.51000 289.399
37.52000 292.650
37.53000 284.900
37.54000 276.800
37.55000 272.044
37.56000 286.299
37.57000 296.438
37.58000 296.899
37.59000 288.514
37.60000 280.243
37.61000 279.514
37.62000 283.326
37.63000 287.018
37.64000 286.902
37.65000 285.324
37.66000 283.857
37.67000 283.607
37.68000 283.691
37.69000 283.910
37.70000 285.011
37.71000 286.271
37.72000 287.309
37.73000 290.000
37.74000 292.365
37.75000 293.725
37.76000 292.250
37.77000 290.605
37.78000 289.489
37.79000 289.385
37.80000 289.307
37.81000 289.262
37.82000 284.679
37.83000 281.498
37.84000 282.591
37.85000 287.204
37.86000 291.680
37.87000 289.718
37.88000 284.231
37.89000 278.957
37.90000 279.633
37.91000 282.334
37.92000 284.828
37.93000 285.337
37.94000 285.350
37.95000 286.468
37.96000 294.036
37.97000 302.649
37.98000 309.601
37.99000 295.460
38.00000 282.295
38.01000 274.310
38.02000 279.636
38.03000 285.633
38.04000 288.647
38.05000 286.467
38.06000 284.193
38.07000 282.975
38.08000 281.377
38.09000 280.278
38.10000 277.491
38.11000 273.450
38.12000 269.710
38.13000 276.702
38.14000 289.044
38.15000 300.808
38.16000 299.677
38.17000 294.587
38.18000 289.972
38.19000 289.357
38.20000 289.645
38.21000 290.149
38.22000 291.777
38.23000 293.568
38.24000 294.983
38.25000 294.405
38.26000 293.805
38.27000 292.668
38.28000 290.272
38.29000 287.825
38.30000 288.539
38.31000 294.253
38.32000 300.030
38.33000 302.970
38.34000 303.461
38.35000 303.794
38.36000 304.559
38.37000 305.614
38.38000 306.838
38.39000 312.782
38.40000 320.868
38.41000 328.504
38.42000 332.171
38.43000 334.415
38.44000 337.466
38.45000 346.542
38.46000 356.848
38.47000 365.959
38.48000 369.422
38.49000 372.158
38.50000 374.269
38.51000 385.588
38.52000 395.090
38.53000 403.169
38.54000 408.213
38.55000 413.156
38.56000 427.914
38.57000 456.752
38.58000 485.696
38.59000 503.311
38.60000 510.388
38.61000 517.509
38.62000 527.686
38.63000 539.733
38.64000 551.545
38.65000 558.077
38.66000 562.424
38.67000 566.488
38.68000 576.721
38.69000 587.576
38.70000 596.839
38.71000 595.525
38.72000 592.267
38.73000 588.305
38.74000 581.333
38.75000 574.018
38.76000 568.513
38.77000 554.766
38.78000 543.610
38.79000 531.681
38.80000 518.249
38.81000 504.778
38.82000 492.846
38.83000 482.912
38.84000 472.997
38.85000 462.472
38.86000 451.468
38.87000 440.494
38.88000 431.055
38.89000 422.468
38.90000 413.699
38.91000 401.529
38.92000 388.078
38.93000 375.641
38.94000 364.812
38.95000 355.454
38.96000 346.424
38.97000 339.342
38.98000 332.581
38.99000 326.546
39.00000 323.321
39.01000 320.377
39.02000 318.219
39.03000 317.352
39.04000 316.734
39.05000 313.851
39.06000 306.967
39.07000 300.007
39.08000 296.751
39.09000 297.837
39.10000 298.927
39.11000 293.150
39.12000 282.255
39.13000 271.565
39.14000 268.498
39.15000 269.290
39.16000 270.130
39.17000 271.717
39.18000 273.560
39.19000 275.244
39.20000 277.082
39.21000 278.747
39.22000 280.631
39.23000 283.687
39.24000 286.917
39.25000 288.330
39.26000 283.359
39.27000 277.832
39.28000 273.895
39.29000 267.279
39.30000 262.150
39.31000 260.313
39.32000 263.764
39.33000 267.286
39.34000 271.536
39.35000 276.555
39.36000 281.547
39.37000 280.271
39.38000 274.768
39.39000 269.434
39.40000 268.999
39.41000 270.820
39.42000 272.222
39.43000 268.031
39.44000 262.093
39.45000 256.739
39.46000 263.537
39.47000 271.721
39.48000 278.211
39.49000 276.558
39.50000 273.835
39.51000 273.610
39.52000 281.366
39.53000 289.719
39.54000 295.494
39.55000 282.159
39.56000 271.638
39.57000 264.576
39.58000 262.556
39.59000 260.580
39.60000 263.496
39.61000 271.040
39.62000 278.522
39.63000 280.571
39.64000 279.269
39.65000 277.768
39.66000 271.643
39.67000 263.575
39.68000 256.348
39.69000 258.770
39.70000 263.932
39.71000 268.521
39.72000 268.033
39.73000 266.785
39.74000 266.050
39.75000 267.542
39.76000 269.293
39.77000 271.078
39.78000 272.963
39.79000 274.855
39.80000 276.121
39.81000 269.748
39.82000 264.870
39.83000 262.254
39.84000 262.626
39.85000 263.011
39.86000 262.592
39.87000 261.489
39.88000 260.400
39.89000 260.614
39.90000 261.540
39.91000 262.440
39.92000 262.836
39.93000 263.038
39.94000 262.486
39.95000 254.392
39.96000 244.355
39.97000 235.562
39.98000 237.224
39.99000 240.156
40.00000 243.618
40.01000 249.163
40.02000 254.921
40.03000 258.210
40.04000 254.961
40.05000 251.361
40.06000 249.033
40.07000 252.661
40.08000 255.401
40.09000 256.370
40.10000 255.227
40.11000 254.077
40.12000 252.165
40.13000 249.669
40.14000 247.214
40.15000 252.523
40.16000 261.516
40.17000 269.737
40.18000 265.573
40.19000 257.092
40.20000 249.472
40.21000 249.394
40.22000 251.078
40.23000 252.529
40.24000 251.922
40.25000 251.146
40.26000 251.278
40.27000 254.653
40.28000 258.317
40.29000 260.425
40.30000 258.782
40.31000 256.972
40.32000 255.844
40.33000 249.770
40.34000 245.341
40.35000 243.343
40.36000 243.954
40.37000 244.544
40.38000 242.403
40.39000 238.361
40.40000 234.408
40.41000 240.014
40.42000 249.677
40.43000 258.610
40.44000 257.565
40.45000 253.356
40.46000 249.388
40.47000 247.284
40.48000 245.573
40.49000 244.123
40.50000 244.569
40.51000 245.154
40.52000 247.023
40.53000 253.058
40.54000 259.413
40.55000 261.916
40.56000 255.949
40.57000 249.681
40.58000 245.926
40.59000 248.888
40.60000 251.035
40.61000 250.537
40.62000 247.493
40.63000 244.449
40.64000 241.466
40.65000 238.521
40.66000 235.660
40.67000 236.062
40.68000 237.764
40.69000 240.068
40.70000 249.428
40.71000 260.823
40.72000 270.168
40.73000 265.383
40.74000 257.911
40.75000 251.697
40.76000 246.928
40.77000 243.124
40.78000 239.757
40.79000 237.682
40.80000 235.691
40.81000 235.094
40.82000 237.285
40.83000 239.555
40.84000 240.858
40.85000 242.195
40.86000 243.129
40.87000 243.762
40.88000 244.134
40.89000 244.464
40.90000 242.483
40.91000 239.175
40.92000 235.984
40.93000 236.072
40.94000 237.352
40.95000 238.802
40.96000 241.976
40.97000 245.601
40.98000 249.181
40.99000 252.481
41.00000 255.733
41.01000 258.384
41.02000 251.441
41.03000 244.948
41.04000 241.093
41.05000 244.330
41.06000 247.958
41.07000 249.623
41.08000 247.712
41.09000 245.725
41.10000 244.635
41.11000 248.934
41.12000 251.885
41.13000 250.871
41.14000 246.760
41.15000 242.723
41.16000 241.696
41.17000 242.239
41.18000 242.758
41.19000 238.858
41.20000 233.767
41.21000 229.603
41.22000 233.730
41.23000 239.824
41.24000 245.159
41.25000 246.304
41.26000 246.808
41.27000 247.210
41.28000 247.317
41.29000 247.381
41.30000 247.673
41.31000 248.524
41.32000 249.399
41.33000 249.679
41.34000 248.970
41.35000 248.247
41.36000 247.869
41.37000 245.038
41.38000 243.156
41.39000 245.838
41.40000 251.746
41.41000 257.415
41.42000 255.638
41.43000 250.323
41.44000 245.281
41.45000 243.635
41.46000 243.126
41.47000 241.673
41.48000 232.762
41.49000 222.250
41.50000 214.517
41.51000 220.597
41.52000 228.560
41.53000 234.775
41.54000 235.142
41.55000 235.068
41.56000 235.533
41.57000 237.202
41.58000 238.914
41.59000 241.810
41.60000 246.486
41.61000 251.179
41.62000 251.048
41.63000 246.189
41.64000 241.324
41.65000 235.912
41.66000 230.149
41.67000 224.641
41.68000 225.509
41.69000 229.135
41.70000 232.542
41.71000 235.432
41.72000 237.931
41.73000 239.695
41.74000 236.307
41.75000 231.921
41.76000 227.578
41.77000 223.423
41.78000 219.290
41.79000 216.142
41.80000 230.881
41.81000 243.432
41.82000 248.505
41.83000 238.373
41.84000 227.798
41.85000 224.553
41.86000 231.302
41.87000 238.104
41.88000 238.469
41.89000 233.173
41.90000 227.994
41.91000 229.651
41.92000 235.288
41.93000 240.716
41.94000 241.887
41.95000 241.379
41.96000 240.908
41.97000 240.340
41.98000 239.805
41.99000 238.003
42.00000 228.256
42.01000 217.127
42.02000 210.431
42.03000 221.738
42.04000 234.961
42.05000 244.780
42.06000 237.652
42.07000 231.364
42.08000 225.878
42.09000 221.874
42.10000 217.903
42.11000 218.681
42.12000 225.311
42.13000 231.944
42.14000 233.146
42.15000 230.050
42.16000 226.998
42.17000 225.790
42.18000 225.558
42.19000 225.694
42.20000 232.057
42.21000 240.658
42.22000 248.562
42.23000 246.047
42.24000 241.559
42.25000 237.380
42.26000 234.939
42.27000 232.769
42.28000 231.412
42.29000 233.048
42.30000 234.963
42.31000 236.347
42.32000 237.663
42.33000 238.669
42.34000 238.364
42.35000 235.849
42.36000 233.299
42.37000 227.599
42.38000 218.398
42.39000 209.231
42.40000 211.565
42.41000 222.063
42.42000 232.240
42.43000 232.008
42.44000 226.756
42.45000 222.367
42.46000 230.396
42.47000 242.485
42.48000 253.456
42.49000 250.923
42.50000 246.087
42.51000 240.778
42.52000 233.078
42.53000 225.047
42.54000 219.140
42.55000 220.346
42.56000 222.125
42.57000 223.373
42.58000 223.471
42.59000 223.512
42.60000 224.680
42.61000 227.571
42.62000 230.481
42.63000 229.977
42.64000 226.068
42.65000 222.184
42.66000 220.819
42.67000 221.090
42.68000 221.299
42.69000 219.938
42.70000 217.886
42.71000 216.120
42.72000 217.868
42.73000 220.660
42.74000 223.161
42.75000 227.245
42.76000 231.082
42.77000 233.506
42.78000 229.490
42.79000 224.680
42.80000 221.493
42.81000 223.242
42.82000 225.333
42.83000 226.755
42.84000 228.068
42.85000 229.047
42.86000 229.070
42.87000 227.771
42.88000 226.463
42.89000 223.878
42.90000 220.148
42.91000 216.457
42.92000 217.349
42.93000 220.875
42.94000 224.454
42.95000 229.158
42.96000 234.314
42.97000 238.275
42.98000 229.483
42.99000 217.245
43.00000 206.446
43.01000 213.623
43.02000 222.560
43.03000 230.580
43.04000 234.813
43.05000 238.633
43.06000 239.554
43.07000 232.437
43.08000 224.850
43.09000 219.859
43.10000 229.911
43.11000 237.569
43.12000 240.337
43.13000 236.979
43.14000 233.608
43.15000 232.689
43.16000 233.750
43.17000 234.795
43.18000 233.333
43.19000 230.604
43.20000 227.872
43.21000 225.104
43.22000 222.323
43.23000 220.336
43.24000 225.772
43.25000 233.026
43.26000 239.329
43.27000 235.261
43.28000 230.389
43.29000 225.599
43.30000 221.116
43.31000 216.662
43.32000 215.273
43.33000 221.619
43.34000 228.341
43.35000 232.608
43.36000 230.304
43.37000 228.551
43.38000 227.011
43.39000 225.712
43.40000 224.425
43.41000 225.186
43.42000 227.440
43.43000 229.651
43.44000 231.021
43.45000 231.944
43.46000 232.728
43.47000 231.471
43.48000 229.536
43.49000 227.743
43.50000 227.122
43.51000 226.761
43.52000 226.452
43.53000 227.084
43.54000 227.728
43.55000 227.134
43.56000 222.332
43.57000 217.182
43.58000 215.072
43.59000 219.956
43.60000 225.117
43.61000 228.270
43.62000 219.677
43.63000 213.434
43.64000 212.365
43.65000 216.547
43.66000 220.692
43.67000 221.123
43.68000 219.099
43.69000 217.127
43.70000 220.116
43.71000 225.081
43.72000 229.452
43.73000 226.310
43.74000 220.901
43.75000 216.137
43.76000 216.078
43.77000 216.960
43.78000 217.701
43.79000 220.351
43.80000 222.757
43.81000 223.838
43.82000 220.822
43.83000 217.516
43.84000 215.850
43.85000 217.620
43.86000 219.500
43.87000 220.601
43.88000 223.190
43.89000 225.020
43.90000 225.957
43.91000 226.081
43.92000 226.224
43.93000 227.550
43.94000 229.588
43.95000 231.561
43.96000 224.894
43.97000 215.270
43.98000 206.799
43.99000 210.922
44.00000 218.501
44.01000 224.166
44.02000 217.392
44.03000 208.378
44.04000 200.957
44.05000 209.616
44.06000 218.205
44.07000 222.708
44.08000 215.716
44.09000 208.034
44.10000 206.481
44.11000 216.622
44.12000 227.047
44.13000 232.896
44.14000 219.661
44.15000 210.450
44.16000 207.574
44.17000 209.895
44.18000 212.183
44.19000 212.954
44.20000 212.896
44.21000 212.840
44.22000 212.500
44.23000 212.084
44.24000 211.697
44.25000 211.604
44.26000 211.584
44.27000 211.738
44.28000 212.904
44.29000 214.234
44.30000 215.307
44.31000 211.887
44.32000 208.755
44.33000 207.494
44.34000 211.029
44.35000 214.805
44.36000 218.286
44.37000 221.255
44.38000 224.216
44.39000 225.800
44.40000 219.748
44.41000 215.641
44.42000 216.292
44.43000 220.472
44.44000 224.583
44.45000 226.217
44.46000 226.621
44.47000 227.005
44.48000 225.648
44.49000 223.846
44.50000 221.930
44.51000 219.059
44.52000 215.974
44.53000 213.835
44.54000 216.643
44.55000 220.165
44.56000 222.944
44.57000 216.412
44.58000 210.542
44.59000 208.971
44.60000 217.440
44.61000 226.322
44.62000 229.787
44.63000 224.709
44.64000 219.525
44.65000 216.891
44.66000 225.036
44.67000 230.483
44.68000 234.626
44.69000 237.893
44.70000 240.955
44.71000 238.348
44.72000 233.175
44.73000 228.290
44.74000 230.642
44.75000 234.834
44.76000 237.964
44.77000 233.191
44.78000 226.811
44.79000 221.555
44.80000 221.593
44.81000 222.311
44.82000 222.864
44.83000 234.519
44.84000 244.390
44.85000 248.002
44.86000 238.298
44.87000 228.158
44.88000 225.109
44.89000 232.206
44.90000 239.379
44.91000 239.740
44.92000 233.793
44.93000 227.902
44.94000 226.004
44.95000 226.541
44.96000 227.107
44.97000 228.345
44.98000 229.860
44.99000 231.275
45.00000 229.218
45.01000 226.472
45.02000 224.887
45.03000 230.982
45.04000 238.483
45.05000 244.369
45.06000 243.368
45.07000 241.588
45.08000 240.248
45.09000 248.671
45.10000 255.729
45.11000 258.685
45.12000 253.692
45.13000 248.497
45.14000 246.314
45.15000 248.029
45.16000 249.758
45.17000 248.121
45.18000 243.686
45.19000 239.415
45.20000 243.175
45.21000 251.387
45.22000 259.163
45.23000 258.867
45.24000 255.538
45.25000 252.461
45.26000 251.221
45.27000 250.526
45.28000 249.145
45.29000 243.710
45.30000 237.608
45.31000 233.957
45.32000 239.773
45.33000 246.530
45.34000 251.478
45.35000 247.760
45.36000 244.544
45.37000 242.408
45.38000 242.176
45.39000 241.980
45.40000 243.750
45.41000 247.818
45.42000 251.878
45.43000 253.551
45.44000 253.423
45.45000 253.371
45.46000 256.061
45.47000 260.135
45.48000 263.577
45.49000 257.185
45.50000 247.429
45.51000 238.520
45.52000 239.877
45.53000 243.168
45.54000 245.667
45.55000 243.949
45.56000 241.611
45.57000 240.437
45.58000 243.345
45.59000 246.606
45.60000 248.927
45.61000 232.706
45.62000 219.748
45.63000 216.768
45.64000 229.770
45.65000 242.983
45.66000 249.267
45.67000 248.266
45.68000 247.270
45.69000 241.610
45.70000 232.873
45.71000 224.296
45.72000 220.357
45.73000 218.548
45.74000 216.722
45.75000 214.676
45.76000 212.561
45.77000 210.655
45.78000 212.664
45.79000 215.139
45.80000 217.820
45.81000 221.491
45.82000 225.291
45.83000 227.366
45.84000 223.941
45.85000 220.106
45.86000 217.457
45.87000 216.402
45.88000 215.650
45.89000 215.447
45.90000 216.041
45.91000 216.642
45.92000 213.103
45.93000 205.662
45.94000 198.284
45.95000 198.254
45.96000 202.695
45.97000 207.058
45.98000 209.622
45.99000 211.434
46.00000 213.162
46.01000 213.946
46.02000 214.461
46.03000 214.919
46.04000 209.273
46.05000 203.387
46.06000 199.796
46.07000 206.141
46.08000 213.634
46.09000 217.464
46.10000 210.669
46.11000 203.199
46.12000 198.204
46.13000 198.826
46.14000 199.397
46.15000 199.525
46.16000 199.071
46.17000 198.618
46.18000 200.375
46.19000 204.008
46.20000 207.597
46.21000 207.899
46.22000 206.388
46.23000 204.646
46.24000 198.511
46.25000 190.700
46.26000 184.196
46.27000 190.706
46.28000 200.559
46.29000 209.187
46.30000 211.589
46.31000 212.756
46.32000 213.585
46.33000 213.093
46.34000 212.466
46.35000 210.097
46.36000 203.128
46.37000 195.914
46.38000 191.254
46.39000 190.231
46.40000 189.536
46.41000 190.636
46.42000 193.868
46.43000 197.085
46.44000 195.962
46.45000 191.514
46.46000 187.141
46.47000 189.141
46.48000 194.232
46.49000 199.147
46.50000 201.251
46.51000 202.379
46.52000 203.261
46.53000 201.991
46.54000 200.220
46.55000 198.694
46.56000 195.827
46.57000 193.226
46.58000 191.404
46.59000 192.355
46.60000 193.552
46.61000 196.151
46.62000 202.125
46.63000 208.248
46.64000 212.060
46.65000 200.244
46.66000 191.574
46.67000 191.043
46.68000 199.218
46.69000 207.327
46.70000 206.756
46.71000 200.167
46.72000 193.724
46.73000 194.890
46.74000 199.410
46.75000 203.347
46.76000 199.366
46.77000 192.881
46.78000 187.630
46.79000 191.907
46.80000 198.188
46.81000 203.506
46.82000 200.368
46.83000 196.798
46.84000 194.116
46.85000 194.311
46.86000 194.726
46.87000 194.874
46.88000 194.440
46.89000 193.984
46.90000 193.712
46.91000 201.236
46.92000 206.627
46.93000 205.127
46.94000 197.017
46.95000 188.986
46.96000 187.200
46.97000 189.343
46.98000 191.425
46.99000 191.082
47.00000 189.776
47.01000 188.536
47.02000 188.062
47.03000 187.808
47.04000 187.687
47.05000 188.474
47.06000 189.434
47.07000 190.232
47.08000 183.251
47.09000 176.716
47.10000 173.786
47.11000 181.470
47.12000 189.846
47.13000 194.516
47.14000 191.788
47.15000 188.854
47.16000 187.172
47.17000 190.539
47.18000 192.907
47.19000 192.784
47.20000 190.511
47.21000 188.317
47.22000 190.463
47.23000 195.091
47.24000 199.554
47.25000 196.490
47.26000 190.864
47.27000 185.612
47.28000 184.171
47.29000 183.723
47.30000 183.681
47.31000 186.126
47.32000 188.995
47.33000 191.332
47.34000 189.890
47.35000 188.392
47.36000 187.281
47.37000 187.209
47.38000 187.195
47.39000 188.079
47.40000 190.596
47.41000 193.147
47.42000 194.544
47.43000 193.839
47.44000 193.354
47.45000 193.641
47.46000 194.528
47.47000 195.388
47.48000 195.111
47.49000 194.244
47.50000 193.414
47.51000 190.320
47.52000 186.694
47.53000 183.127
47.54000 180.083
47.55000 177.162
47.56000 175.718
47.57000 182.405
47.58000 190.331
47.59000 196.653
47.60000 196.406
47.61000 195.726
47.62000 194.771
47.63000 193.145
47.64000 191.488
47.65000 189.485
47.66000 186.913
47.67000 184.332
47.68000 182.986
47.69000 186.222
47.70000 188.385
47.71000 187.128
47.72000 183.460
47.73000 179.943
47.74000 181.142
47.75000 184.574
47.76000 187.830
47.77000 189.348
47.78000 190.233
47.79000 191.148
47.80000 192.295
47.81000 193.492
47.82000 194.015
47.83000 191.199
47.84000 187.929
47.85000 185.378
47.86000 183.432
47.87000 181.919
47.88000 181.662
47.89000 184.201
47.90000 186.842
47.91000 185.438
47.92000 177.965
47.93000 170.433
47.94000 171.097
47.95000 179.763
47.96000 188.379
47.97000 192.852
47.98000 194.678
47.99000 196.262
48.00000 191.874
48.01000 184.908
48.02000 178.365
48.03000 181.045
48.04000 185.947
48.05000 189.914
48.06000 187.347
48.07000 183.520
48.08000 180.566
48.09000 181.520
48.10000 182.945
48.11000 184.029
48.12000 186.310
48.13000 188.167
48.14000 189.227
48.15000 188.671
48.16000 188.068
48.17000 187.188
48.18000 185.933
48.19000 184.676
48.20000 184.171
48.21000 184.325
48.22000 184.479
48.23000 184.612
48.24000 184.732
48.25000 184.917
48.26000 186.416
48.27000 188.432
48.28000 190.305
48.29000 187.529
48.30000 183.911
48.31000 180.510
48.32000 178.466
48.33000 176.657
48.34000 175.362
48.35000 176.146
48.36000 177.149
48.37000 177.894
48.38000 180.473
48.39000 182.558
48.40000 182.652
48.41000 179.076
48.42000 175.419
48.43000 177.624
48.44000 187.030
48.45000 196.438
48.46000 198.876
48.47000 195.812
48.48000 192.730
48.49000 188.920
48.50000 184.727
48.51000 180.646
48.52000 178.467
48.53000 176.968
48.54000 175.591
48.55000 172.763
48.56000 169.928
48.57000 168.499
48.58000 174.940
48.59000 182.603
48.60000 188.912
48.61000 190.251
48.62000 191.130
48.63000 191.765
48.64000 191.741
48.65000 191.699
48.66000 190.338
48.67000 186.761
48.68000 183.149
48.69000 180.919
48.70000 180.219
48.71000 179.522
48.72000 177.947
48.73000 175.764
48.74000 173.626
48.75000 172.971
48.76000 173.028
48.77000 172.994
48.78000 171.663
48.79000 169.909
48.80000 168.318
48.81000 170.780
48.82000 173.731
48.83000 176.425
48.84000 177.828
48.85000 179.052
48.86000 181.137
48.87000 186.097
48.88000 191.288
48.89000 194.927
48.90000 188.675
48.91000 183.660
48.92000 178.576
48.93000 173.388
48.94000 168.199
48.95000 168.917
48.96000 175.506
48.97000 182.051
48.98000 181.671
48.99000 176.870
49.00000 172.261
49.01000 172.610
49.02000 175.129
49.03000 177.500
49.04000 178.046
49.05000 178.051
49.06000 178.055
49.07000 176.849
49.08000 175.589
49.09000 174.637
49.10000 175.087
49.11000 175.709
49.12000 175.599
49.13000 173.267
49.14000 170.782
49.15000 169.094
49.16000 169.465
49.17000 169.788
49.18000 170.655
49.19000 172.273
49.20000 173.896
49.21000 174.948
49.22000 175.491
49.23000 176.028
49.24000 179.824
49.25000 185.416
49.26000 190.710
49.27000 189.766
49.28000 186.331
49.29000 183.044
49.30000 181.324
49.31000 180.026
49.32000 178.881
49.33000 178.199
49.34000 177.682
49.35000 177.146
49.36000 176.529
49.37000 175.904
49.38000 174.629
49.39000 171.560
49.40000 168.386
49.41000 166.301
49.42000 173.223
49.43000 178.470
49.44000 179.419
49.45000 174.999
49.46000 170.576
49.47000 171.130
49.48000 175.687
49.49000 180.178
49.50000 182.805
49.51000 184.385
49.52000 185.700
49.53000 182.427
49.54000 177.486
49.55000 173.506
49.56000 178.464
49.57000 185.606
49.58000 191.808
49.59000 185.477
49.60000 178.391
49.61000 172.934
49.62000 173.557
49.63000 174.756
49.64000 176.867
49.65000 181.275
49.66000 185.794
49.67000 188.660
49.68000 180.259
49.69000 174.026
49.70000 169.219
49.71000 166.016
49.72000 162.843
49.73000 164.257
49.74000 169.009
49.75000 173.669
49.76000 176.052
49.77000 177.278
49.78000 178.511
49.79000 179.855
49.80000 181.236
49.81000 182.334
49.82000 181.114
49.83000 179.380
49.84000 177.900
49.85000 180.481
49.86000 183.138
49.87000 184.607
49.88000 182.052
49.89000 179.166
49.90000 177.208
49.91000 177.376
49.92000 177.628
49.93000 177.782
49.94000 176.651
49.95000 175.832
49.96000 174.198
49.97000 171.739
49.98000 169.328
49.99000 171.524
50.00000 176.760
50.01000 181.862
50.02000 181.251
50.03000 178.244
50.04000 175.263
50.05000 172.611
50.06000 170.058
50.07000 168.026
50.08000 169.789
50.09000 172.307
50.10000 174.420
50.11000 172.052
50.12000 169.615
50.13000 167.520
50.14000 166.476
50.15000 165.508
50.16000 166.215
50.17000 170.427
50.18000 174.748
50.19000 177.278
50.20000 172.352
50.21000 168.847
50.22000 166.444
50.23000 165.040
50.24000 163.681
50.25000 165.236
50.26000 168.536
50.27000 171.731
50.28000 171.099
50.29000 169.035
50.30000 167.260
50.31000 168.613
50.32000 170.821
50.33000 172.557
50.34000 171.229
50.35000 169.351
50.36000 167.806
50.37000 163.110
50.38000 158.964
50.39000 158.322
50.40000 167.515
50.41000 177.296
50.42000 184.095
50.43000 185.223
50.44000 186.215
50.45000 186.770
50.46000 178.457
50.47000 172.694
50.48000 174.717
50.49000 183.110
50.50000 191.346
50.51000 192.258
50.52000 189.182
50.53000 186.227
50.54000 185.532
50.55000 185.661
50.56000 185.716
50.57000 185.054
50.58000 184.216
50.59000 182.808
50.60000 178.106
50.61000 172.873
50.62000 168.654
50.63000 170.035
50.64000 171.597
50.65000 173.059
50.66000 174.264
50.67000 175.457
50.68000 178.410
50.69000 184.409
50.70000 190.462
50.71000 193.695
50.72000 194.758
50.73000 195.466
50.74000 193.413
50.75000 189.319
50.76000 185.308
50.77000 184.222
50.78000 184.586
50.79000 184.933
50.80000 181.824
50.81000 177.867
50.82000 174.823
50.83000 179.416
50.84000 185.724
50.85000 190.959
50.86000 190.601
50.87000 189.440
50.88000 188.524
50.89000 180.155
50.90000 172.941
50.91000 167.599
50.92000 166.618
50.93000 165.814
50.94000 167.137
50.95000 171.803
50.96000 176.511
50.97000 178.899
50.98000 178.888
50.99000 178.884
51.00000 179.218
51.01000 179.779
51.02000 180.381
51.03000 182.110
51.04000 184.348
51.05000 186.460
51.06000 180.542
51.07000 172.863
51.08000 166.630
51.09000 171.103
51.10000 177.746
51.11000 182.084
51.12000 175.584
51.13000 167.700
51.14000 161.626
51.15000 165.680
51.16000 169.471
51.17000 172.084
51.18000 172.199
51.19000 172.232
51.20000 171.538
51.21000 169.805
51.22000 168.065
51.23000 167.381
51.24000 167.672
51.25000 168.024
51.26000 172.460
51.27000 179.381
51.28000 185.792
51.29000 180.868
51.30000 171.282
51.31000 162.326
51.32000 162.463
51.33000 164.880
51.34000 167.265
51.35000 169.441
51.36000 171.578
51.37000 173.679
51.38000 175.622
51.39000 177.549
51.40000 178.996
51.41000 168.037
51.42000 158.873
51.43000 154.821
51.44000 160.641
51.45000 166.711
51.46000 170.663
51.47000 171.882
51.48000 173.090
51.49000 169.560
51.50000 162.112
51.51000 154.789
51.52000 153.510
51.53000 155.573
51.54000 157.687
51.55000 160.733
51.56000 164.128
51.57000 167.264
51.58000 168.083
51.59000 168.293
51.60000 168.408
51.61000 167.969
51.62000 167.439
51.63000 167.446
51.64000 169.522
51.65000 171.804
51.66000 173.473
51.67000 162.777
51.68000 154.033
51.69000 150.410
51.70000 155.787
51.71000 161.333
51.72000 163.552
51.73000 161.896
51.74000 160.240
51.75000 160.169
51.76000 161.282
51.77000 162.419
51.78000 164.474
51.79000 166.991
51.80000 169.210
51.81000 166.820
51.82000 162.858
51.83000 159.241
51.84000 159.168
51.85000 159.821
51.86000 160.137
51.87000 158.669
51.88000 156.940
51.89000 155.251
51.90000 153.704
51.91000 152.168
51.92000 151.076
51.93000 156.172
51.94000 160.252
51.95000 163.208
51.96000 164.371
51.97000 165.509
51.98000 168.304
51.99000 172.833
52.00000 177.338
52.01000 171.393
52.02000 158.496
52.03000 145.977
52.04000 144.273
52.05000 147.524
52.06000 150.926
52.07000 156.315
52.08000 162.322
52.09000 167.734
52.10000 166.313
52.11000 163.830
52.12000 161.181
52.13000 157.741
52.14000 154.198
52.15000 151.094
52.16000 149.386
52.17000 147.783
52.18000 146.676
52.19000 153.343
52.20000 158.550
52.21000 162.452
52.22000 164.463
52.23000 166.458
52.24000 165.687
52.25000 162.317
52.26000 158.975
52.27000 156.623
52.28000 154.916
52.29000 153.273
52.30000 153.123
52.31000 153.596
52.32000 154.297
52.33000 157.586
52.34000 161.605
52.35000 165.176
52.36000 168.035
52.37000 170.400
52.38000 170.996
52.39000 163.955
52.40000 156.034
52.41000 150.632
52.42000 152.515
52.43000 154.858
52.44000 156.423
52.45000 156.455
52.46000 156.449
52.47000 155.275
52.48000 152.570
52.49000 149.862
52.50000 149.512
52.51000 151.156
52.52000 152.780
52.53000 154.112
52.54000 155.249
52.55000 156.522
52.56000 160.348
52.57000 165.147
52.58000 169.534
52.59000 169.848
52.60000 169.118
52.61000 168.479
52.62000 166.328
52.63000 164.268
52.64000 162.013
52.65000 158.992
52.66000 155.894
52.67000 153.646
52.68000 153.639
52.69000 153.751
52.70000 153.823
52.71000 154.636
52.72000 155.241
52.73000 155.970
52.74000 156.847
52.75000 157.726
52.76000 159.140
52.77000 160.962
52.78000 162.753
52.79000 158.505
52.80000 151.415
52.81000 145.156
52.82000 152.118
52.83000 163.659
52.84000 173.597
52.85000 169.586
52.86000 162.339
52.87000 156.098
52.88000 155.749
52.89000 156.197
52.90000 156.181
52.91000 154.518
52.92000 152.710
52.93000 151.414
52.94000 151.349
52.95000 151.338
52.96000 151.331
52.97000 149.300
52.98000 147.817
52.99000 148.700
53.00000 152.106
53.01000 155.490
53.02000 156.126
53.03000 154.863
53.04000 153.629
53.05000 152.307
53.06000 151.001
53.07000 150.184
53.08000 155.985
53.09000 163.872
53.10000 170.456
53.11000 167.015
53.12000 161.472
53.13000 156.781
53.14000 156.451
53.15000 156.660
53.16000 157.332
53.17000 159.503
53.18000 161.787
53.19000 161.041
53.20000 153.669
53.21000 146.064
53.22000 141.519
53.23000 146.132
53.24000 149.463
53.25000 151.934
53.26000 153.585
53.27000 155.235
53.28000 156.905
53.29000 158.588
53.30000 160.222
53.31000 156.184
53.32000 150.067
53.33000 144.567
53.34000 146.249
53.35000 149.989
53.36000 153.767
53.37000 157.800
53.38000 161.882
53.39000 165.272
53.40000 159.451
53.41000 153.742
53.42000 150.408
53.43000 154.050
53.44000 158.144
53.45000 161.948
53.46000 165.173
53.47000 168.382
53.48000 170.219
53.49000 169.786
53.50000 169.471
53.51000 166.371
53.52000 160.874
53.53000 155.467
53.54000 154.864
53.55000 157.000
53.56000 159.059
53.57000 155.902
53.58000 151.038
53.59000 147.183
53.60000 153.557
53.61000 162.592
53.62000 170.030
53.63000 167.706
53.64000 163.725
53.65000 160.483
53.66000 154.303
53.67000 149.007
53.68000 145.534
53.69000 146.938
53.70000 148.607
53.71000 149.711
53.72000 149.790
53.73000 149.847
53.74000 149.878
53.75000 153.464
53.76000 155.928
53.77000 156.958
53.78000 156.875
53.79000 156.790
53.80000 156.613
53.81000 156.388
53.82000 156.173
53.83000 152.358
53.84000 147.625
53.85000 143.458
53.86000 144.312
53.87000 146.351
53.88000 148.486
53.89000 151.146
53.90000 153.887
53.91000 156.071
53.92000 158.361
53.93000 160.216
53.94000 161.131
53.95000 159.758
53.96000 158.282
53.97000 157.647
53.98000 158.400
53.99000 159.172
54.00000 159.575
54.01000 156.861
54.02000 155.025
54.03000 153.059
54.04000 151.003
54.05000 149.042
54.06000 150.054
54.07000 152.469
54.08000 154.760
54.09000 156.628
54.10000 158.225
54.11000 159.567
54.12000 158.906
54.13000 157.817
54.14000 156.755
54.15000 155.824
54.16000 154.910
54.17000 154.198
54.18000 157.979
54.19000 161.271
54.20000 163.277
54.21000 162.432
54.22000 161.482
54.23000 160.960
54.24000 161.076
54.25000 161.198
54.26000 160.227
54.27000 158.190
54.28000 156.169
54.29000 155.392
54.30000 155.407
54.31000 155.404
54.32000 154.936
54.33000 154.269
54.34000 153.642
54.35000 152.849
54.36000 152.081
54.37000 150.943
54.38000 147.226
54.39000 143.013
54.40000 140.351
54.41000 144.609
54.42000 149.697
54.43000 153.568
54.44000 144.398
54.45000 136.500
54.46000 133.697
54.47000 141.194
54.48000 148.985
54.49000 153.792
54.50000 154.552
54.51000 155.290
54.52000 154.741
54.53000 153.068
54.54000 151.383
54.55000 149.011
54.56000 146.242
54.57000 143.691
54.58000 145.508
54.59000 149.039
54.60000 152.319
54.61000 155.694
54.62000 158.761
54.63000 160.911
54.64000 157.354
54.65000 152.810
54.66000 149.448
54.67000 150.858
54.68000 152.772
54.69000 154.190
54.70000 153.750
54.71000 153.327
54.72000 152.020
54.73000 149.087
54.74000 146.120
54.75000 145.554
54.76000 147.929
54.77000 150.307
54.78000 153.032
54.79000 156.015
54.80000 158.963
54.81000 160.417
54.82000 161.085
54.83000 161.690
54.84000 161.245
54.85000 160.424
54.86000 159.670
54.87000 158.517
54.88000 157.403
54.89000 156.681
54.90000 158.144
54.91000 159.945
54.92000 160.600
54.93000 157.055
54.94000 153.122
54.95000 150.286
54.96000 151.409
54.97000 152.411
54.98000 153.173
54.99000 153.533
55.00000 153.886
55.01000 151.235
55.02000 145.269
55.03000 139.325
55.04000 142.462
55.05000 151.989
55.06000 161.231
55.07000 161.332
55.08000 157.049
55.09000 153.006
55.10000 152.384
55.11000 152.873
55.12000 153.316
55.13000 152.900
55.14000 152.369
55.15000 152.032
55.16000 152.669
55.17000 153.441
55.18000 154.674
55.19000 157.442
55.20000 160.333
55.21000 162.358
55.22000 160.148
55.23000 158.356
55.24000 157.011
55.25000 156.346
55.26000 155.687
55.27000 155.971
55.28000 157.191
55.29000 158.402
55.30000 160.372
55.31000 162.795
55.32000 165.172
55.33000 166.370
55.34000 167.054
55.35000 167.761
55.36000 168.746
55.37000 169.814
55.38000 170.769
55.39000 168.863
55.40000 166.712
55.41000 165.234
55.42000 166.804
55.43000 168.746
55.44000 169.654
55.45000 167.433
55.46000 164.997
55.47000 163.344
55.48000 164.768
55.49000 165.899
55.50000 167.770
55.51000 170.660
55.52000 173.557
55.53000 176.378
55.54000 179.132
55.55000 181.857
55.56000 183.604
55.57000 184.749
55.58000 186.008
55.59000 189.629
55.60000 194.191
55.61000 198.328
55.62000 197.972
55.63000 196.409
55.64000 195.031
55.65000 199.668
55.66000 204.577
55.67000 209.206
55.68000 212.679
55.69000 216.028
55.70000 220.032
55.71000 225.840
55.72000 231.752
55.73000 235.633
55.74000 237.880
55.75000 239.506
55.76000 241.354
55.77000 243.477
55.78000 245.595
55.79000 245.801
55.80000 244.474
55.81000 243.165
55.82000 251.229
55.83000 263.919
55.84000 276.051
55.85000 278.546
55.86000 277.549
55.87000 277.402
55.88000 285.139
55.89000 294.795
55.90000 303.176
55.91000 303.624
55.92000 302.940
55.93000 301.081
55.94000 294.850
55.95000 288.206
55.96000 284.256
55.97000 287.067
55.98000 290.204
55.99000 292.191
56.00000 301.154
56.01000 307.738
56.02000 305.992
56.03000 294.893
56.04000 283.839
56.05000 281.209
56.06000 284.690
56.07000 288.102
56.08000 282.318
56.09000 272.442
56.10000 262.908
56.11000 258.364
56.12000 255.467
56.13000 252.363
56.14000 247.562
56.15000 242.388
56.16000 237.971
56.17000 238.170
56.18000 238.884
56.19000 237.796
56.20000 230.620
56.21000 222.947
56.22000 216.426
56.23000 212.542
56.24000 208.760
56.25000 206.456
56.26000 212.714
56.27000 217.254
56.28000 215.540
56.29000 207.520
56.30000 199.523
56.31000 193.738
56.32000 189.406
56.33000 185.186
56.34000 184.522
56.35000 185.394
56.36000 186.307
56.37000 187.741
56.38000 189.331
56.39000 190.551
56.40000 189.098
56.41000 187.112
56.42000 185.448
56.43000 174.859
56.44000 165.124
56.45000 157.817
56.46000 157.974
56.47000 158.654
56.48000 159.404
56.49000 160.300
56.50000 161.200
56.51000 161.726
56.52000 160.054
56.53000 158.867
56.54000 158.471
56.55000 158.791
56.56000 159.113
56.57000 159.590
56.58000 160.159
56.59000 160.710
56.60000 159.382
56.61000 157.410
56.62000 155.423
56.63000 153.275
56.64000 151.083
56.65000 149.202
56.66000 149.324
56.67000 149.805
56.68000 150.200
56.69000 145.865
56.70000 141.874
56.71000 140.977
56.72000 148.734
56.73000 157.006
56.74000 162.267
56.75000 161.817
56.76000 161.230
56.77000 160.901
56.78000 156.033
56.79000 152.654
56.80000 150.844
56.81000 150.313
56.82000 149.834
56.83000 151.767
56.84000 155.009
56.85000 158.123
56.86000 156.897
56.87000 154.256
56.88000 151.654
56.89000 149.426
56.90000 147.290
56.91000 145.055
56.92000 142.246
56.93000 139.344
56.94000 137.007
56.95000 140.631
56.96000 144.038
56.97000 146.270
56.98000 145.506
56.99000 144.594
57.00000 143.377
57.01000 141.635
57.02000 139.883
57.03000 138.949
57.04000 140.818
57.05000 142.101
57.06000 144.773
57.07000 148.469
57.08000 151.976
57.09000 148.926
57.10000 142.634
57.11000 136.642
57.12000 136.499
57.13000 138.182
57.14000 139.998
57.15000 142.920
57.16000 146.088
57.17000 148.904
57.18000 149.886
57.19000 150.604
57.20000 151.171
57.21000 149.328
57.22000 147.689
57.23000 145.935
57.24000 143.916
57.25000 141.885
57.26000 141.060
57.27000 142.124
57.28000 143.211
57.29000 143.761
57.30000 142.353
57.31000 141.408
57.32000 140.232
57.33000 138.900
57.34000 137.572
57.35000 136.353
57.36000 135.183
57.37000 134.078
57.38000 137.655
57.39000 142.241
57.40000 146.324
57.41000 146.695
57.42000 146.315
57.43000 145.206
57.44000 140.682
57.45000 135.722
57.46000 131.904
57.47000 135.826
57.48000 139.372
57.49000 141.285
57.50000 139.743
57.51000 138.089
57.52000 138.317
57.53000 141.221
57.54000 144.144
57.55000 144.340
57.56000 142.028
57.57000 139.699
57.58000 136.313
57.59000 132.285
57.60000 128.659
57.61000 133.915
57.62000 142.815
57.63000 151.126
57.64000 147.719
57.65000 141.684
57.66000 136.485
57.67000 136.781
57.68000 138.077
57.69000 138.855
57.70000 137.440
57.71000 135.779
57.72000 134.532
57.73000 141.963
57.74000 148.185
57.75000 150.486
57.76000 145.234
57.77000 139.794
57.78000 137.655
57.79000 139.761
57.80000 141.882
57.81000 142.607
57.82000 142.177
57.83000 141.750
57.84000 141.545
57.85000 141.462
57.86000 141.297
57.87000 139.645
57.88000 137.437
57.89000 135.397
57.90000 134.421
57.91000 133.785
57.92000 133.319
57.93000 133.852
57.94000 134.548
57.95000 135.266
57.96000 136.069
57.97000 136.879
57.98000 137.472
57.99000 142.920
58.00000 147.314
58.01000 147.030
58.02000 138.551
58.03000 129.921
58.04000 128.449
58.05000 135.289
58.06000 142.121
58.07000 144.844
58.08000 144.492
58.09000 144.049
58.10000 140.300
58.11000 134.892
58.12000 129.718
58.13000 128.156
58.14000 127.822
58.15000 127.518
58.16000 133.731
58.17000 140.559
58.18000 146.343
58.19000 146.611
58.20000 146.073
58.21000 144.594
58.22000 139.833
58.23000 134.791
58.24000 131.207
58.25000 137.510
58.26000 142.623
58.27000 144.449
58.28000 141.042
58.29000 137.568
58.30000 136.982
58.31000 139.412
58.32000 141.829
58.33000 144.079
58.34000 146.189
58.35000 148.162
58.36000 146.271
58.37000 142.614
58.38000 139.099
58.39000 137.455
58.40000 136.390
58.41000 135.431
58.42000 139.502
58.43000 143.980
58.44000 147.574
58.45000 146.958
58.46000 145.797
58.47000 143.446
58.48000 137.329
58.49000 130.934
58.50000 126.525
58.51000 134.948
58.52000 141.598
58.53000 143.942
58.54000 140.063
58.55000 136.135
58.56000 135.987
58.57000 139.379
58.58000 142.742
58.59000 144.835
58.60000 146.121
58.61000 147.301
58.62000 146.062
58.63000 143.816
58.64000 141.605
58.65000 139.782
58.66000 138.068
58.67000 136.545
58.68000 135.693
58.69000 135.061
58.70000 134.363
58.71000 133.383
58.72000 132.371
58.73000 130.993
58.74000 128.562
58.75000 126.064
58.76000 124.396
58.77000 132.477
58.78000 138.651
58.79000 140.794
58.80000 137.668
58.81000 134.522
58.82000 133.564
58.83000 134.452
58.84000 135.329
58.85000 135.999
58.86000 136.540
58.87000 137.083
58.88000 137.671
58.89000 138.275
58.90000 138.784
58.91000 138.345
58.92000 137.663
58.93000 137.066
58.94000 133.620
58.95000 130.259
58.96000 127.964
58.97000 129.818
58.98000 132.091
58.99000 134.139
59.00000 135.598
59.01000 137.026
59.02000 137.947
59.03000 137.684
59.04000 137.475
59.05000 136.425
59.06000 134.380
59.07000 132.344
59.08000 132.780
59.09000 135.097
59.10000 137.374
59.11000 136.419
59.12000 133.904
59.13000 131.716
59.14000 134.675
59.15000 139.414
59.16000 143.863
59.17000 145.812
59.18000 147.181
59.19000 148.360
59.20000 144.349
59.21000 140.299
59.22000 135.629
59.23000 128.766
59.24000 121.710
59.25000 118.877
59.26000 126.146
59.27000 133.854
59.28000 138.641
59.29000 133.547
59.30000 129.782
59.31000 130.788
59.32000 136.862
59.33000 142.907
59.34000 145.191
59.35000 144.883
59.36000 144.582
59.37000 142.524
59.38000 139.770
59.39000 137.197
59.40000 137.047
59.41000 137.659
59.42000 137.998
59.43000 136.245
59.44000 134.056
59.45000 132.204
59.46000 132.481
59.47000 132.949
59.48000 135.286
59.49000 143.637
59.50000 152.443
59.51000 155.911
59.52000 147.744
59.53000 139.171
59.54000 134.053
59.55000 138.034
59.56000 140.913
59.57000 140.103
59.58000 135.775
59.59000 131.504
59.60000 131.564
59.61000 134.331
59.62000 137.019
59.63000 137.963
59.64000 138.158
59.65000 138.396
59.66000 139.128
59.67000 140.001
59.68000 140.859
59.69000 141.610
59.70000 142.340
59.71000 142.947
59.72000 137.409
59.73000 132.237
59.74000 128.404
59.75000 128.493
59.76000 128.835
59.77000 129.189
59.78000 129.563
59.79000 129.938
59.80000 130.152
59.81000 136.130
59.82000 140.318
59.83000 140.885
59.84000 138.348
59.85000 135.869
59.86000 136.554
59.87000 139.037
59.88000 141.430
59.89000 137.440
59.90000 131.377
59.91000 125.806
59.92000 125.207
59.93000 125.899
59.94000 126.748
59.95000 128.557
59.96000 130.529
59.97000 132.133
59.98000 131.927
59.99000 131.606
60.00000 131.131
60.01000 130.243
60.02000 129.333
60.03000 127.876
60.04000 125.433
60.05000 122.970
60.06000 121.624
60.07000 129.515
60.08000 134.935
60.09000 136.834
60.10000 136.007
60.11000 135.206
60.12000 135.409
60.13000 136.132
60.14000 136.822
60.15000 135.846
60.16000 134.393
60.17000 133.240
60.18000 134.742
60.19000 136.867
60.20000 137.837
60.21000 132.489
60.22000 126.185
60.23000 121.163
60.24000 126.912
60.25000 132.328
60.26000 134.763
60.27000 129.957
60.28000 124.826
60.29000 122.355
60.30000 124.251
60.31000 126.211
60.32000 127.230
60.33000 125.969
60.34000 125.136
60.35000 126.968
60.36000 130.664
60.37000 134.320
60.38000 136.740
60.39000 138.576
60.40000 140.318
60.41000 136.898
60.42000 132.229
60.43000 128.102
60.44000 128.214
60.45000 129.227
60.46000 130.320
60.47000 131.807
60.48000 133.347
60.49000 134.547
60.50000 140.452
60.51000 145.447
60.52000 146.511
60.53000 138.879
60.54000 130.933
60.55000 126.713
60.56000 128.051
60.57000 129.441
60.58000 132.313
60.59000 136.620
60.60000 140.832
60.61000 137.227
60.62000 128.655
60.63000 120.459
60.64000 121.461
60.65000 126.409
60.66000 131.055
60.67000 131.484
60.68000 130.761
60.69000 130.428
60.70000 132.811
60.71000 135.715
60.72000 137.329
60.73000 133.207
60.74000 128.400
60.75000 124.745
60.76000 127.565
60.77000 130.120
60.78000 131.054
60.79000 128.723
60.80000 126.299
60.81000 125.538
60.82000 127.024
60.83000 128.521
60.84000 131.169
60.85000 134.815
60.86000 138.405
60.87000 138.893
60.88000 137.589
60.89000 136.256
60.90000 134.347
60.91000 132.213
60.92000 130.231
60.93000 129.321
60.94000 128.756
60.95000 128.726
60.96000 132.022
60.97000 135.889
60.98000 138.087
60.99000 133.560
61.00000 128.326
61.01000 124.449
61.02000 128.098
61.03000 131.257
61.04000 132.932
61.05000 131.885
61.06000 130.779
61.07000 131.287
61.08000 133.765
61.09000 136.243
61.10000 138.223
61.11000 139.803
61.12000 141.291
61.13000 138.980
61.14000 134.673
61.15000 130.577
61.16000 130.000
61.17000 130.675
61.18000 131.296
61.19000 133.670
61.20000 136.161
61.21000 138.426
61.22000 139.430
61.23000 140.240
61.24000 140.561
61.25000 139.094
61.26000 137.464
61.27000 136.289
61.28000 138.003
61.29000 139.419
61.30000 140.379
61.31000 140.579
61.32000 140.767
61.33000 139.617
61.34000 136.993
61.35000 134.379
61.36000 133.728
61.37000 134.465
61.38000 135.253
61.39000 137.617
61.40000 140.735
61.41000 143.578
61.42000 142.533
61.43000 140.227
61.44000 138.137
61.45000 139.162
61.46000 140.660
61.47000 141.727
61.48000 140.642
61.49000 139.261
61.50000 139.352
61.51000 144.331
61.52000 149.698
61.53000 153.453
61.54000 167.156
61.55000 177.798
61.56000 187.656
61.57000 196.327
61.58000 204.986
61.59000 213.452
61.60000 221.727
61.61000 229.946
61.62000 232.024
61.63000 230.169
61.64000 228.759
61.65000 238.606
61.66000 253.357
61.67000 266.752
61.68000 263.675
61.69000 255.741
61.70000 248.647
61.71000 254.058
61.72000 260.901
61.73000 265.505
61.74000 259.992
61.75000 253.246
61.76000 247.770
61.77000 246.128
61.78000 244.747
61.79000 243.810
61.80000 230.169
61.81000 219.715
61.82000 207.734
61.83000 193.659
61.84000 179.576
61.85000 171.042
61.86000 167.430
61.87000 163.855
61.88000 163.149
61.89000 164.102
61.90000 164.854
61.91000 161.461
61.92000 156.423
61.93000 151.806
61.94000 151.626
61.95000 152.633
61.96000 153.521
61.97000 151.550
61.98000 149.420
61.99000 146.941
62.00000 143.037
62.01000 138.979
62.02000 136.678
62.03000 139.205
62.04000 142.010
62.05000 143.849
62.06000 138.190
62.07000 133.904
62.08000 132.797
62.09000 135.634
62.10000 138.478
62.11000 139.677
62.12000 139.560
62.13000 139.446
62.14000 139.068
62.15000 138.565
62.16000 138.124
62.17000 138.745
62.18000 139.751
62.19000 140.718
62.20000 141.335
62.21000 141.868
62.22000 142.330
62.23000 145.822
62.24000 149.202
62.25000 151.100
62.26000 147.504
62.27000 143.391
62.28000 140.831
62.29000 142.155
62.30000 143.664
62.31000 144.620
62.32000 145.556
62.33000 146.234
62.34000 146.624
62.35000 146.689
62.36000 146.752
62.37000 146.470
62.38000 145.938
62.39000 145.417
62.40000 141.605
62.41000 136.399
62.42000 131.683
62.43000 134.068
62.44000 138.790
62.45000 143.092
62.46000 143.975
62.47000 144.106
62.48000 144.218
62.49000 143.838
62.50000 143.460
62.51000 143.062
62.52000 142.596
62.53000 142.125
62.54000 141.527
62.55000 140.642
62.56000 139.746
62.57000 139.201
62.58000 145.913
62.59000 150.764
62.60000 152.177
62.61000 150.133
62.62000 148.087
62.63000 145.861
62.64000 143.516
62.65000 141.231
62.66000 140.269
62.67000 139.910
62.68000 139.717
62.69000 141.602
62.70000 144.108
62.71000 146.082
62.72000 144.215
62.73000 141.587
62.74000 139.385
62.75000 139.280
62.76000 139.409
62.77000 140.128
62.78000 142.657
62.79000 145.312
62.80000 147.357
62.81000 148.138
62.82000 148.880
62.83000 149.314
62.84000 150.231
62.85000 150.877
62.86000 149.598
62.87000 146.582
62.88000 143.583
62.89000 141.609
62.90000 140.245
62.91000 138.926
62.92000 140.479
62.93000 143.039
62.94000 145.331
62.95000 144.738
62.96000 143.359
62.97000 142.334
62.98000 143.579
62.99000 145.229
63.00000 146.584
63.01000 146.926
63.02000 147.115
63.03000 147.231
63.04000 147.142
63.05000 147.041
63.06000 147.016
63.07000 147.136
63.08000 147.259
63.09000 147.328
63.10000 143.240
63.11000 140.408
63.12000 140.803
63.13000 143.820
63.14000 146.758
63.15000 146.124
63.16000 143.555
63.17000 141.088
63.18000 142.443
63.19000 145.022
63.20000 147.639
63.21000 150.608
63.22000 153.664
63.23000 155.766
63.24000 152.371
63.25000 148.096
63.26000 144.654
63.27000 143.497
63.28000 142.735
63.29000 143.435
63.30000 147.848
63.31000 152.444
63.32000 154.902
63.33000 153.681
63.34000 152.396
63.35000 151.712
63.36000 150.776
63.37000 150.130
63.38000 147.972
63.39000 144.703
63.40000 141.662
63.41000 146.473
63.42000 155.152
63.43000 163.417
63.44000 165.270
63.45000 165.003
63.46000 164.311
63.47000 160.094
63.48000 155.089
63.49000 150.210
63.50000 145.978
63.51000 141.840
63.52000 138.580
63.53000 141.775
63.54000 144.767
63.55000 146.573
63.56000 145.635
63.57000 144.587
63.58000 145.532
63.59000 149.593
63.60000 153.690
63.61000 155.762
63.62000 153.083
63.63000 151.312
63.64000 151.880
63.65000 154.005
63.66000 155.852
63.67000 150.173
63.68000 141.114
63.69000 132.569
63.70000 137.080
63.71000 144.851
63.72000 151.952
63.73000 154.135
63.74000 155.325
63.75000 156.874
63.76000 160.097
63.77000 163.531
63.78000 166.173
63.79000 162.175
63.80000 158.634
63.81000 156.217
63.82000 156.167
63.83000 156.193
63.84000 157.400
63.85000 160.281
63.86000 163.173
63.87000 164.811
63.88000 165.298
63.89000 165.782
63.90000 166.029
63.91000 166.133
63.92000 166.326
63.93000 168.506
63.94000 171.498
63.95000 174.291
63.96000 169.900
63.97000 164.120
63.98000 159.783
63.99000 164.904
64.00000 171.742
64.01000 176.086
64.02000 169.903
64.03000 162.542
64.04000 157.019
64.05000 151.439
64.06000 147.077
64.07000 146.232
64.08000 152.143
64.09000 158.222
64.10000 160.644
64.11000 158.377
64.12000 156.095
64.13000 155.145
64.14000 155.297
64.15000 155.533
64.16000 159.818
64.17000 166.328
64.18000 172.508
64.19000 172.699
64.20000 170.658
64.21000 168.773
64.22000 167.983
64.23000 167.520
64.24000 166.714
64.25000 163.895
64.26000 160.749
64.27000 158.842
64.28000 161.674
64.29000 164.971
64.30000 167.380
64.31000 161.907
64.32000 157.378
64.33000 155.286
64.34000 157.449
64.35000 159.691
64.36000 162.042
64.37000 164.518
64.38000 166.986
64.39000 170.693
64.40000 175.289
64.41000 179.642
64.42000 175.240
64.43000 166.458
64.44000 158.092
64.45000 156.096
64.46000 156.262
64.47000 156.413
64.48000 162.130
64.49000 168.321
64.50000 173.535
64.51000 173.611
64.52000 172.939
64.53000 173.076
64.54000 176.020
64.55000 179.205
64.56000 181.465
64.57000 182.003
64.58000 182.358
64.59000 180.473
64.60000 175.030
64.61000 169.543
64.62000 166.371
64.63000 165.610
64.64000 164.854
64.65000 168.571
64.66000 175.230
64.67000 181.683
64.68000 182.342
64.69000 180.360
64.70000 178.239
64.71000 174.298
64.72000 169.795
64.73000 165.741
64.74000 173.110
64.75000 181.623
64.76000 188.457
64.77000 187.316
64.78000 185.143
64.79000 183.251
64.80000 182.243
64.81000 181.299
64.82000 180.649
64.83000 181.256
64.84000 181.743
64.85000 181.781
64.86000 181.174
64.87000 180.561
64.88000 179.945
64.89000 179.325
64.90000 178.710
64.91000 178.550
64.92000 178.667
64.93000 178.861
64.94000 180.801
64.95000 183.467
64.96000 186.065
64.97000 187.912
64.98000 189.548
64.99000 191.000
65.00000 194.494
65.01000 197.850
65.02000 199.623
65.03000 194.608
65.04000 188.818
65.05000 185.404
65.06000 188.821
65.07000 192.665
65.08000 195.229
65.09000 193.649
65.10000 192.400
65.11000 193.113
65.12000 196.384
65.13000 199.656
65.14000 197.990
65.15000 192.173
65.16000 186.428
65.17000 187.971
65.18000 193.435
65.19000 198.908
65.20000 204.559
65.21000 210.276
65.22000 215.511
65.23000 215.996
65.24000 215.271
65.25000 214.638
65.26000 212.421
65.27000 210.297
65.28000 209.820
65.29000 215.746
65.30000 222.314
65.31000 226.615
65.32000 224.976
65.33000 223.026
65.34000 221.771
65.35000 214.514
65.36000 209.132
65.37000 211.147
65.38000 221.868
65.39000 232.576
65.40000 237.195
65.41000 237.191
65.42000 237.187
65.43000 237.944
65.44000 239.049
65.45000 240.344
65.46000 244.617
65.47000 249.917
65.48000 254.575
65.49000 253.686
65.50000 251.518
65.51000 249.653
65.52000 251.595
65.53000 253.717
65.54000 257.212
65.55000 265.555
65.56000 274.321
65.57000 281.824
65.58000 286.311
65.59000 290.667
65.60000 293.370
65.61000 301.178
65.62000 306.845
65.63000 313.798
65.64000 322.114
65.65000 330.450
65.66000 341.040
65.67000 353.180
65.68000 365.042
65.69000 387.548
65.70000 413.823
65.71000 441.328
65.72000 485.329
65.73000 534.501
65.74000 584.502
65.75000 640.839
65.76000 698.497
65.77000 747.234
65.78000 802.046
65.79000 848.565
65.80000 892.298
65.81000 927.096
65.82000 961.220
65.83000 992.422
65.84000 1017.271
65.85000 1041.900
65.86000 1056.582
65.87000 1045.465
65.88000 1037.427
65.89000 1033.372
65.90000 1033.102
65.91000 1032.716
65.92000 1023.577
65.93000 1008.980
65.94000 994.807
65.95000 948.232
65.96000 891.066
65.97000 834.270
65.98000 781.743
65.99000 730.433
66.00000 678.635
66.01000 623.521
66.02000 567.784
66.03000 521.542
66.04000 476.805
66.05000 439.980
66.06000 406.973
66.07000 385.112
66.08000 363.967
66.09000 347.212
66.10000 339.145
66.11000 331.313
66.12000 326.841
66.13000 312.497
66.14000 302.465
66.15000 298.770
66.16000 300.493
66.17000 302.165
66.18000 301.203
66.19000 298.748
66.20000 296.381
66.21000 302.282
66.22000 310.813
66.23000 319.164
66.24000 325.717
66.25000 331.805
66.26000 338.186
66.27000 346.349
66.28000 354.813
66.29000 361.696
66.30000 369.552
66.31000 376.047
66.32000 384.055
66.33000 396.084
66.34000 408.331
66.35000 418.464
66.36000 424.788
66.37000 431.036
66.38000 434.442
66.39000 440.637
66.40000 444.881
66.41000 445.887
66.42000 444.393
66.43000 442.876
66.44000 440.446
66.45000 437.546
66.46000 434.773
66.47000 440.762
66.48000 449.188
66.49000 456.248
66.50000 451.262
66.51000 443.452
66.52000 434.697
66.53000 420.789
66.54000 406.102
66.55000 394.411
66.56000 381.866
66.57000 371.691
66.58000 362.168
66.59000 354.224
66.60000 346.350
66.61000 341.610
66.62000 342.003
66.63000 342.470
66.64000 342.713
66.65000 331.362
66.66000 323.730
66.67000 320.109
66.68000 319.291
66.69000 318.363
66.70000 314.092
66.71000 308.252
66.72000 302.717
66.73000 308.140
66.74000 316.348
66.75000 323.629
66.76000 323.699
66.77000 322.240
66.78000 321.145
66.79000 321.835
66.80000 322.765
66.81000 323.488
66.82000 321.616
66.83000 319.965
66.84000 320.243
66.85000 324.774
66.86000 329.458
66.87000 335.941
66.88000 345.101
66.89000 354.285
66.90000 358.600
66.91000 358.207
66.92000 357.776
66.93000 354.298
66.94000 348.889
66.95000 343.671
66.96000 343.101
66.97000 344.519
66.98000 345.851
66.99000 338.382
67.00000 329.255
67.01000 322.719
67.02000 334.125
67.03000 348.958
67.04000 360.450
67.05000 357.127
67.06000 352.041
67.07000 348.178
67.08000 362.917
67.09000 375.467
67.10000 382.591
67.11000 378.808
67.12000 374.717
67.13000 370.789
67.14000 367.081
67.15000 363.377
67.16000 365.787
67.17000 373.500
67.18000 381.138
67.19000 384.566
67.20000 385.571
67.21000 386.445
67.22000 384.713
67.23000 381.966
67.24000 379.416
67.25000 372.995
67.26000 366.289
67.27000 361.945
67.28000 372.203
67.29000 384.967
67.30000 395.763
67.31000 398.659
67.32000 400.727
67.33000 402.258
67.34000 396.342
67.35000 391.431
67.36000 392.154
67.37000 403.185
67.38000 414.437
67.39000 419.775
67.40000 417.915
67.41000 416.042
67.42000 412.964
67.43000 408.963
67.44000 405.141
67.45000 408.661
67.46000 416.026
67.47000 423.435
67.48000 431.567
67.49000 439.955
67.50000 447.652
67.51000 445.984
67.52000 442.508
67.53000 438.661
67.54000 432.762
67.55000 426.547
67.56000 424.050
67.57000 435.090
67.58000 447.369
67.59000 456.209
67.60000 447.049
67.61000 439.399
67.62000 433.235
67.63000 429.544
67.64000 425.891
67.65000 431.322
67.66000 446.714
67.67000 462.047
67.68000 469.382
67.69000 471.026
67.70000 472.520
67.71000 469.276
67.72000 463.774
67.73000 459.059
67.74000 465.441
67.75000 475.411
67.76000 484.444
67.77000 488.146
67.78000 490.398
67.79000 492.502
67.80000 493.872
67.81000 495.142
67.82000 496.605
67.83000 498.705
67.84000 500.855
67.85000 502.358
67.86000 510.190
67.87000 516.286
67.88000 517.985
67.89000 513.042
67.90000 508.032
67.91000 506.615
67.92000 508.734
67.93000 510.838
67.94000 511.823
67.95000 512.083
67.96000 512.554
67.97000 518.314
67.98000 526.371
67.99000 533.715
68.00000 532.422
68.01000 528.590
68.02000 525.165
68.03000 531.134
68.04000 537.928
68.05000 544.578
68.06000 550.579
68.07000 556.501
68.08000 560.422
68.09000 558.321
68.10000 555.812
68.11000 554.112
68.12000 559.888
68.13000 564.359
68.14000 567.805
68.15000 569.849
68.16000 571.891
68.17000 580.626
68.18000 595.279
68.19000 609.777
68.20000 608.831
68.21000 599.082
68.22000 589.915
68.23000 592.682
68.24000 600.172
68.25000 608.251
68.26000 622.519
68.27000 638.440
68.28000 652.464
68.29000 649.417
68.30000 644.222
68.31000 641.563
68.32000 649.247
68.33000 658.038
68.34000 663.562
68.35000 660.139
68.36000 656.204
68.37000 653.626
68.38000 683.972
68.39000 706.821
68.40000 719.847
68.41000 720.717
68.42000 721.553
68.43000 722.141
68.44000 722.531
68.45000 722.915
68.46000 731.841
68.47000 744.905
68.48000 758.122
68.49000 773.950
68.50000 790.720
68.51000 806.906
68.52000 817.717
68.53000 827.228
68.54000 835.475
68.55000 850.684
68.56000 864.560
68.57000 879.880
68.58000 900.534
68.59000 921.688
68.60000 945.252
68.61000 974.832
68.62000 1004.699
68.63000 1023.572
68.64000 1063.483
68.65000 1092.651
68.66000 1134.001
68.67000 1188.939
68.68000 1243.912
68.69000 1302.866
68.70000 1364.690
68.71000 1425.272
68.72000 1493.805
68.73000 1563.434
68.74000 1630.598
68.75000 1662.134
68.76000 1681.978
68.77000 1703.723
68.78000 1740.873
68.79000 1781.397
68.80000 1815.947
68.81000 1911.895
68.82000 1999.833
68.83000 2083.496
68.84000 2152.797
68.85000 2220.935
68.86000 2301.800
68.87000 2411.609
68.88000 2522.536
68.89000 2589.980
68.90000 3015.965
68.91000 3322.911
68.92000 3909.095
68.93000 4774.962
68.94000 5649.911
68.95000 7368.087
68.96000 9637.420
68.97000 11847.810
68.98000 15398.178
68.99000 19346.398
69.00000 23341.213
69.01000 27913.457
69.02000 32658.063
69.03000 37269.109
69.04000 40920.145
69.05000 44381.457
69.06000 47279.699
69.07000 49396.586
69.08000 51075.852
69.09000 52460.148
69.10000 52943.172
69.11000 53363.559
69.12000 53732.535
69.13000 53995.012
69.14000 54254.223
69.15000 54405.430
69.16000 55552.641
69.17000 56363.695
69.18000 56857.605
69.19000 57066.297
69.20000 57255.855
69.21000 56253.230
69.22000 54542.922
69.23000 52888.375
69.24000 49754.516
69.25000 46233.402
69.26000 42767.289
69.27000 39891.668
69.28000 37176.176
69.29000 34593.340
69.30000 32860.801
69.31000 31279.438
69.32000 29980.664
69.33000 28965.990
69.34000 28158.225
69.35000 27417.896
69.36000 26865.156
69.37000 26323.449
69.38000 25560.738
69.39000 24381.201
69.40000 23191.877
69.41000 22528.338
69.42000 19581.154
69.43000 17535.945
69.44000 15320.507
69.45000 12967.091
69.46000 10624.931
69.47000 8789.678
69.48000 7228.070
69.49000 5728.899
69.50000 4705.763
69.51000 3911.813
69.52000 3154.050
69.53000 2735.896
69.54000 2401.266
69.55000 2093.632
69.56000 1940.997
69.57000 1813.064
69.58000 1710.138
69.59000 1599.140
69.60000 1508.480
69.61000 1430.256
69.62000 1383.541
69.63000 1338.371
69.64000 1289.101
69.65000 1232.800
69.66000 1176.377
69.67000 1146.375
69.68000 1125.011
69.69000 1110.405
69.70000 1083.619
69.71000 1047.908
69.72000 1012.417
69.73000 984.451
69.74000 960.184
69.75000 937.084
69.76000 917.503
69.77000 900.461
69.78000 882.975
69.79000 861.820
69.80000 839.849
69.81000 820.580
69.82000 815.261
69.83000 811.927
69.84000 809.303
69.85000 803.279
69.86000 798.227
69.87000 788.662
69.88000 768.677
69.89000 748.275
69.90000 731.662
69.91000 720.954
69.92000 710.316
69.93000 704.945
69.94000 698.259
69.95000 693.767
69.96000 687.252
69.97000 679.393
69.98000 671.707
69.99000 668.685
70.00000 667.751
