20.00000 547.943
20.01000 556.661
20.02000 566.625
20.03000 572.793
20.04000 564.133
20.05000 553.976
20.06000 546.512
20.07000 556.014
20.08000 564.055
20.09000 570.517
20.10000 574.163
20.11000 577.754
20.12000 576.556
20.13000 569.690
20.14000 562.833
20.15000 559.700
20.16000 559.412
20.17000 559.157
20.18000 560.137
20.19000 561.748
20.20000 562.978
20.21000 558.171
20.22000 551.273
20.23000 544.965
20.24000 546.599
20.25000 549.688
20.26000 552.657
20.27000 554.983
20.28000 557.213
20.29000 559.451
20.30000 561.718
20.31000 563.987
20.32000 565.609
20.33000 565.246
20.34000 564.902
20.35000 561.816
20.36000 554.284
20.37000 546.690
20.38000 547.627
20.39000 557.649
20.40000 567.624
20.41000 568.301
20.42000 562.618
20.43000 557.142
20.44000 557.786
20.45000 561.275
20.46000 564.132
20.47000 558.472
20.48000 550.129
20.49000 542.596
20.50000 543.098
20.51000 545.018
20.52000 547.050
20.53000 549.621
20.54000 552.263
20.55000 553.088
20.56000 548.052
20.57000 542.571
20.58000 538.771
20.59000 546.551
20.60000 552.714
20.61000 551.773
20.62000 540.382
20.63000 528.899
20.64000 526.929
20.65000 534.047
20.66000 541.109
20.67000 542.172
20.68000 539.521
20.69000 537.211
20.70000 542.984
20.71000 552.180
20.72000 560.486
20.73000 558.446
20.74000 553.444
20.75000 548.989
20.76000 548.898
20.77000 549.535
20.78000 549.313
20.79000 545.329
20.80000 540.903
20.81000 537.691
20.82000 538.039
20.83000 538.618
20.84000 539.006
20.85000 538.976
20.86000 538.945
20.87000 537.297
20.88000 533.497
20.89000 529.697
20.90000 533.700
20.91000 544.409
20.92000 554.992
20.93000 553.161
20.94000 544.477
20.95000 536.050
20.96000 532.620
20.97000 531.119
20.98000 529.965
20.99000 532.335
21.00000 535.621
21.01000 538.503
21.02000 545.883
21.03000 552.876
21.04000 558.609
21.05000 559.346
21.06000 559.567
21.07000 557.896
21.08000 551.172
21.09000 544.173
21.10000 539.632
21.11000 540.052
21.12000 540.435
21.13000 537.961
21.14000 532.051
21.15000 526.176
21.16000 531.022
21.17000 544.183
21.18000 557.129
21.19000 553.299
21.20000 541.177
21.21000 530.098
21.22000 536.005
21.23000 547.881
21.24000 557.959
21.25000 552.081
21.26000 542.443
21.27000 534.123
21.28000 540.840
21.29000 548.478
21.30000 553.640
21.31000 549.885
21.32000 545.326
21.33000 541.992
21.34000 541.638
21.35000 541.418
21.36000 541.281
21.37000 545.062
21.38000 547.832
21.39000 545.319
21.40000 537.081
21.41000 528.888
21.42000 527.107
21.43000 529.826
21.44000 532.486
21.45000 532.417
21.46000 531.115
21.47000 530.205
21.48000 534.725
21.49000 540.981
21.50000 546.180
21.51000 543.095
21.52000 538.244
21.53000 534.129
21.54000 536.383
21.55000 538.995
21.56000 542.792
21.57000 550.470
21.58000 558.450
21.59000 564.653
21.60000 566.917
21.61000 569.037
21.62000 570.312
21.63000 551.159
21.64000 537.401
21.65000 533.036
21.66000 537.804
21.67000 542.572
21.68000 547.377
21.69000 552.206
21.70000 556.901
21.71000 557.780
21.72000 557.056
21.73000 556.209
21.74000 553.896
21.75000 551.156
21.76000 549.683
21.77000 557.031
21.78000 566.073
21.79000 573.605
21.80000 576.293
21.81000 578.039
21.82000 576.567
21.83000 565.511
21.84000 553.817
21.85000 550.664
21.86000 564.755
21.87000 579.341
21.88000 587.749
21.89000 581.005
21.90000 576.235
21.91000 581.074
21.92000 594.310
21.93000 607.438
21.94000 614.402
21.95000 617.801
21.96000 621.082
21.97000 630.640
21.98000 641.960
21.99000 652.420
22.00000 653.989
22.01000 653.209
22.02000 652.925
22.03000 655.719
22.04000 659.044
22.05000 661.761
22.06000 659.343
22.07000 656.921
22.08000 654.372
22.09000 651.479
22.10000 648.567
22.11000 647.148
22.12000 648.472
22.13000 649.855
22.14000 650.617
22.15000 642.257
22.16000 636.499
22.17000 635.610
22.18000 638.560
22.19000 641.420
22.20000 640.475
22.21000 637.528
22.22000 634.706
22.23000 628.495
22.24000 621.575
22.25000 615.344
22.26000 615.363
22.27000 616.878
22.28000 618.328
22.29000 619.419
22.30000 620.454
22.31000 621.281
22.32000 610.406
22.33000 600.744
22.34000 593.596
22.35000 592.659
22.36000 592.010
22.37000 594.625
22.38000 602.695
22.39000 610.849
22.40000 615.127
22.41000 607.915
22.42000 602.984
22.43000 592.209
22.44000 577.265
22.45000 562.844
22.46000 565.158
22.47000 575.489
22.48000 585.298
22.49000 576.703
22.50000 563.250
22.51000 550.863
22.52000 547.003
22.53000 544.990
22.54000 543.070
22.55000 541.622
22.56000 540.240
22.57000 539.158
22.58000 545.474
22.59000 550.986
22.60000 554.558
22.61000 553.761
22.62000 552.799
22.63000 548.488
22.64000 539.095
22.65000 529.649
22.66000 522.883
22.67000 518.768
22.68000 514.721
22.69000 516.600
22.70000 522.313
22.71000 527.933
22.72000 531.225
22.73000 533.501
22.74000 535.641
22.75000 533.729
22.76000 530.890
22.77000 527.633
22.78000 521.413
22.79000 514.614
22.80000 510.113
22.81000 516.017
22.82000 523.193
22.83000 528.673
22.84000 524.247
22.85000 520.225
22.86000 514.902
22.87000 506.911
22.88000 498.840
22.89000 496.142
22.90000 500.836
22.91000 505.574
22.92000 502.793
22.93000 493.342
22.94000 484.076
22.95000 485.967
22.96000 494.410
22.97000 502.585
22.98000 505.203
22.99000 505.611
23.00000 505.991
23.01000 507.008
23.02000 508.082
23.03000 508.640
23.04000 505.940
23.05000 502.667
23.06000 499.768
23.07000 498.405
23.08000 497.208
23.09000 496.316
23.10000 504.843
23.11000 511.900
23.12000 513.696
23.13000 505.672
23.14000 497.424
23.15000 490.198
23.16000 484.242
23.17000 478.299
23.18000 481.370
23.19000 491.621
23.20000 501.685
23.21000 503.612
23.22000 501.193
23.23000 499.050
23.24000 501.683
23.25000 506.044
23.26000 510.057
23.27000 513.361
23.28000 516.159
23.29000 518.961
23.30000 521.777
23.31000 524.595
23.32000 524.399
23.33000 512.999
23.34000 500.544
23.35000 491.521
23.36000 498.514
23.37000 504.475
23.38000 506.567
23.39000 502.092
23.40000 497.508
23.41000 496.676
23.42000 500.053
23.43000 503.421
23.44000 502.325
23.45000 498.033
23.46000 493.808
23.47000 491.806
23.48000 490.885
23.49000 490.019
23.50000 489.949
23.51000 490.140
23.52000 490.314
23.53000 494.526
23.54000 499.034
23.55000 503.626
23.56000 508.649
23.57000 513.731
23.58000 515.322
23.59000 505.125
23.60000 493.965
23.61000 486.112
23.62000 484.271
23.63000 483.054
23.64000 485.167
23.65000 492.413
23.66000 499.717
23.67000 501.315
23.68000 497.168
23.69000 493.047
23.70000 493.033
23.71000 495.678
23.72000 498.240
23.73000 498.577
23.74000 497.930
23.75000 497.330
23.76000 497.316
23.77000 497.479
23.78000 497.624
23.79000 486.936
23.80000 475.718
23.81000 467.386
23.82000 472.344
23.83000 478.959
23.84000 482.595
23.85000 477.087
23.86000 470.937
23.87000 466.743
23.88000 482.805
23.89000 495.284
23.90000 498.219
23.91000 487.810
23.92000 477.315
23.93000 473.281
23.94000 475.087
23.95000 476.875
23.96000 480.586
23.97000 485.342
23.98000 489.826
23.99000 488.488
24.00000 484.801
24.01000 481.284
24.02000 479.605
24.03000 478.426
24.04000 477.385
24.05000 480.666
24.06000 484.168
24.07000 486.559
24.08000 484.326
24.09000 481.585
24.10000 480.292
24.11000 483.048
24.12000 486.044
24.13000 488.021
24.14000 477.978
24.15000 470.363
24.16000 468.351
24.17000 473.427
24.18000 478.525
24.19000 482.908
24.20000 486.708
24.21000 490.454
24.22000 491.121
24.23000 490.146
24.24000 488.953
24.25000 483.887
24.26000 477.397
24.27000 471.857
24.28000 475.292
24.29000 480.947
24.30000 485.866
24.31000 489.780
24.32000 492.984
24.33000 495.028
24.34000 492.699
24.35000 489.948
24.36000 486.910
24.37000 483.141
24.38000 479.335
24.39000 476.911
24.40000 475.186
24.41000 473.941
24.42000 471.712
24.43000 468.360
24.44000 465.002
24.45000 460.646
24.46000 455.554
24.47000 450.560
24.48000 453.718
24.49000 460.641
24.50000 467.519
24.51000 473.719
24.52000 479.693
24.53000 484.130
24.54000 475.791
24.55000 464.594
24.56000 455.012
24.57000 459.473
24.58000 464.932
24.59000 470.713
24.60000 477.598
24.61000 484.576
24.62000 487.809
24.63000 482.357
24.64000 476.553
24.65000 472.995
24.66000 470.128
24.67000 468.080
24.68000 470.287
24.69000 476.855
24.70000 483.367
24.71000 484.077
24.72000 480.915
24.73000 477.830
24.74000 473.956
24.75000 469.915
24.76000 466.446
24.77000 470.288
24.78000 476.355
24.79000 482.268
24.80000 487.037
24.81000 491.575
24.82000 495.389
24.83000 485.323
24.84000 475.462
24.85000 468.768
24.86000 471.942
24.87000 475.826
24.88000 477.158
24.89000 473.098
24.90000 468.864
24.91000 466.372
24.92000 458.376
24.93000 452.711
24.94000 458.472
24.95000 474.741
24.96000 490.763
24.97000 490.034
24.98000 479.159
24.99000 468.622
25.00000 469.121
25.01000 473.873
25.02000 478.440
25.03000 480.957
25.04000 482.908
25.05000 483.362
25.06000 473.992
25.07000 462.835
25.08000 453.633
25.09000 453.432
25.10000 454.099
25.11000 455.066
25.12000 456.883
25.13000 458.753
25.14000 458.668
25.15000 454.824
25.16000 450.886
25.17000 448.667
25.18000 457.859
25.19000 464.261
25.20000 465.241
25.21000 461.728
25.22000 458.331
25.23000 460.437
25.24000 465.576
25.25000 470.517
25.26000 472.971
25.27000 474.401
25.28000 475.240
25.29000 470.386
25.30000 464.102
25.31000 459.084
25.32000 461.507
25.33000 465.144
25.34000 468.083
25.35000 466.304
25.36000 464.480
25.37000 461.205
25.38000 454.181
25.39000 446.966
25.40000 445.807
25.41000 455.249
25.42000 464.886
25.43000 470.065
25.44000 475.845
25.45000 479.787
25.46000 482.400
25.47000 484.019
25.48000 485.476
25.49000 481.075
25.50000 473.738
25.51000 466.740
25.52000 463.202
25.53000 461.011
25.54000 459.119
25.55000 459.770
25.56000 461.000
25.57000 462.346
25.58000 464.310
25.59000 466.363
25.60000 467.987
25.61000 465.086
25.62000 462.444
25.63000 462.380
25.64000 468.386
25.65000 474.646
25.66000 478.267
25.67000 477.689
25.68000 477.058
25.69000 476.735
25.70000 463.170
25.71000 454.139
25.72000 453.726
25.73000 459.156
25.74000 464.161
25.75000 457.138
25.76000 444.623
25.77000 432.798
25.78000 434.265
25.79000 439.388
25.80000 444.721
25.81000 451.638
25.82000 458.881
25.83000 464.225
25.84000 460.539
25.85000 455.682
25.86000 451.930
25.87000 456.679
25.88000 460.943
25.89000 465.999
25.90000 472.751
25.91000 479.560
25.92000 476.947
25.93000 460.735
25.94000 444.415
25.95000 441.030
25.96000 449.749
25.97000 458.398
25.98000 462.053
25.99000 462.635
26.00000 463.185
26.01000 462.998
26.02000 462.504
26.03000 462.043
26.04000 461.301
26.05000 460.556
26.06000 459.507
26.07000 456.432
26.08000 452.981
26.09000 450.244
26.10000 450.577
26.11000 451.261
26.12000 451.777
26.13000 451.290
26.14000 450.859
26.15000 450.660
26.16000 450.912
26.17000 451.177
26.18000 451.288
26.19000 451.198
26.20000 451.107
26.21000 452.153
26.22000 454.152
26.23000 456.203
26.24000 460.946
26.25000 467.195
26.26000 472.854
26.27000 467.431
26.28000 457.808
26.29000 448.905
26.30000 444.455
26.31000 441.477
26.32000 438.811
26.33000 438.007
26.34000 437.512
26.35000 436.539
26.36000 433.703
26.37000 430.679
26.38000 428.460
26.39000 441.976
26.40000 453.063
26.41000 460.835
26.42000 462.714
26.43000 464.478
26.44000 464.535
26.45000 462.577
26.46000 460.622
26.47000 457.090
26.48000 452.389
26.49000 447.767
26.50000 446.118
26.51000 445.983
26.52000 445.678
26.53000 442.695
26.54000 438.788
26.55000 435.216
26.56000 434.998
26.57000 435.493
26.58000 435.000
26.59000 429.193
26.60000 422.598
26.61000 417.794
26.62000 419.324
26.63000 421.408
26.64000 422.896
26.65000 438.597
26.66000 451.043
26.67000 455.915
26.68000 448.549
26.69000 441.017
26.70000 437.568
26.71000 438.455
26.72000 439.339
26.73000 438.105
26.74000 435.444
26.75000 432.822
26.76000 431.319
26.77000 430.336
26.78000 429.792
26.79000 435.160
26.80000 442.385
26.81000 448.906
26.82000 442.330
26.83000 434.150
26.84000 429.089
26.85000 439.120
26.86000 451.145
26.87000 457.936
26.88000 447.904
26.89000 436.600
26.90000 428.770
26.91000 430.812
26.92000 432.607
26.93000 434.006
26.94000 434.826
26.95000 435.640
26.96000 435.691
26.97000 435.015
26.98000 434.344
26.99000 437.276
27.00000 442.367
27.01000 447.108
27.02000 443.612
27.03000 436.638
27.04000 430.535
27.05000 434.528
27.06000 441.403
27.07000 447.523
27.08000 448.908
27.09000 449.338
27.10000 449.556
27.11000 448.850
27.12000 448.036
27.13000 446.848
27.14000 444.562
27.15000 442.205
27.16000 440.625
27.17000 432.817
27.18000 426.895
27.19000 427.419
27.20000 436.505
27.21000 445.624
27.22000 449.176
27.23000 447.960
27.24000 446.759
27.25000 440.013
27.26000 430.362
27.27000 421.230
27.28000 422.149
27.29000 426.935
27.30000 431.429
27.31000 432.990
27.32000 433.791
27.33000 434.494
27.34000 429.463
27.35000 424.312
27.36000 419.865
27.37000 418.206
27.38000 416.834
27.39000 417.526
27.40000 423.713
27.41000 430.197
27.42000 434.400
27.43000 422.947
27.44000 414.329
27.45000 413.264
27.46000 421.260
27.47000 429.249
27.48000 431.255
27.49000 428.634
27.50000 426.056
27.51000 427.324
27.52000 430.475
27.53000 433.420
27.54000 433.032
27.55000 431.475
27.56000 430.047
27.57000 429.747
27.58000 429.712
27.59000 429.682
27.60000 419.624
27.61000 409.803
27.62000 405.010
27.63000 418.275
27.64000 433.158
27.65000 441.419
27.66000 433.610
27.67000 425.081
27.68000 419.753
27.69000 416.749
27.70000 414.606
27.71000 412.907
27.72000 411.687
27.73000 410.504
27.74000 414.086
27.75000 421.004
27.76000 427.770
27.77000 428.924
27.78000 427.498
27.79000 425.849
27.80000 421.141
27.81000 415.458
27.82000 410.671
27.83000 412.891
27.84000 416.598
27.85000 419.742
27.86000 424.099
27.87000 427.888
27.88000 429.913
27.89000 426.179
27.90000 421.998
27.91000 420.690
27.92000 425.732
27.93000 431.004
27.94000 434.171
27.95000 417.188
27.96000 404.983
27.97000 405.056
27.98000 417.028
27.99000 428.902
28.00000 432.782
28.01000 431.588
28.02000 430.427
28.03000 424.912
28.04000 417.895
28.05000 411.703
28.06000 415.284
28.07000 421.700
28.08000 426.896
28.09000 423.626
28.10000 418.735
28.11000 414.663
28.12000 420.937
28.13000 427.156
28.14000 430.819
28.15000 426.895
28.16000 422.468
28.17000 417.479
28.18000 411.356
28.19000 405.200
28.20000 401.657
28.21000 410.732
28.22000 417.131
28.23000 423.764
28.24000 430.601
28.25000 437.216
28.26000 431.341
28.27000 418.263
28.28000 405.639
28.29000 406.291
28.30000 411.788
28.31000 416.364
28.32000 411.458
28.33000 404.057
28.34000 398.689
28.35000 405.933
28.36000 415.346
28.37000 423.030
28.38000 423.251
28.39000 422.791
28.40000 421.038
28.41000 415.788
28.42000 410.343
28.43000 408.648
28.44000 413.826
28.45000 419.152
28.46000 422.081
28.47000 417.277
28.48000 413.954
28.49000 410.118
28.50000 405.880
28.51000 401.802
28.52000 404.360
28.53000 410.401
28.54000 416.185
28.55000 419.900
28.56000 422.678
28.57000 425.112
28.58000 424.443
28.59000 423.034
28.60000 422.393
28.61000 426.022
28.62000 430.309
28.63000 433.736
28.64000 431.910
28.65000 430.045
28.66000 426.637
28.67000 419.428
28.68000 412.044
28.69000 407.093
28.70000 406.198
28.71000 405.365
28.72000 404.929
28.73000 411.072
28.74000 415.191
28.75000 413.168
28.76000 406.778
28.77000 400.533
28.78000 398.874
28.79000 399.407
28.80000 399.913
28.81000 402.377
28.82000 405.236
28.83000 407.451
28.84000 404.543
28.85000 400.530
28.86000 397.514
28.87000 399.489
28.88000 402.150
28.89000 404.229
28.90000 411.268
28.91000 417.200
28.92000 418.833
28.93000 410.820
28.94000 402.444
28.95000 398.118
28.96000 399.919
28.97000 401.782
28.98000 401.319
28.99000 398.561
29.00000 395.842
29.01000 396.546
29.02000 399.457
29.03000 402.296
29.04000 403.300
29.05000 403.505
29.06000 403.698
29.07000 406.489
29.08000 409.736
29.09000 411.736
29.10000 404.916
29.11000 396.377
29.12000 389.139
29.13000 387.772
29.14000 387.119
29.15000 386.621
29.16000 402.634
29.17000 416.136
29.18000 421.737
29.19000 411.189
29.20000 400.162
29.21000 397.291
29.22000 405.606
29.23000 413.984
29.24000 417.139
29.25000 415.670
29.26000 414.138
29.27000 408.900
29.28000 401.491
29.29000 394.233
29.30000 390.065
29.31000 387.122
29.32000 384.384
29.33000 386.605
29.34000 389.810
29.35000 393.450
29.36000 399.841
29.37000 406.714
29.38000 412.323
29.39000 412.768
29.40000 412.659
29.41000 412.578
29.42000 406.760
29.43000 401.977
29.44000 399.590
29.45000 401.660
29.46000 403.831
29.47000 403.302
29.48000 399.425
29.49000 395.546
29.50000 399.474
29.51000 409.596
29.52000 419.367
29.53000 413.958
29.54000 400.464
29.55000 387.819
29.56000 389.747
29.57000 396.938
29.58000 403.551
29.59000 400.532
29.60000 395.748
29.61000 392.143
29.62000 395.201
29.63000 399.305
29.64000 402.540
29.65000 402.551
29.66000 402.260
29.67000 402.049
29.68000 395.669
29.69000 390.545
29.70000 390.233
29.71000 398.067
29.72000 406.035
29.73000 409.373
29.74000 407.536
29.75000 405.703
29.76000 404.827
29.77000 404.646
29.78000 404.593
29.79000 408.766
29.80000 414.987
29.81000 420.724
29.82000 419.434
29.83000 415.832
29.84000 412.561
29.85000 411.743
29.86000 411.496
29.87000 410.777
29.88000 407.657
29.89000 404.201
29.90000 403.017
29.91000 409.477
29.92000 416.558
29.93000 421.536
29.94000 414.917
29.95000 409.561
29.96000 405.287
29.97000 402.676
29.98000 400.082
29.99000 397.824
30.00000 395.901
30.01000 393.991
30.02000 392.780
30.03000 392.039
30.04000 391.661
30.05000 400.807
30.06000 414.159
30.07000 426.198
30.08000 421.909
30.09000 412.736
30.10000 404.516
30.11000 404.668
30.12000 406.249
30.13000 408.324
30.14000 412.671
30.15000 417.299
30.16000 419.007
30.17000 411.771
30.18000 403.912
30.19000 398.556
30.20000 405.972
30.21000 411.808
30.22000 413.552
30.23000 409.593
30.24000 405.599
30.25000 406.256
30.26000 411.103
30.27000 415.903
30.28000 412.542
30.29000 404.502
30.30000 397.005
30.31000 401.069
30.32000 409.785
30.33000 417.334
30.34000 412.316
30.35000 403.882
30.36000 396.433
30.37000 399.899
30.38000 404.571
30.39000 406.958
30.40000 399.860
30.41000 391.723
30.42000 385.929
30.43000 386.665
30.44000 387.787
30.45000 388.526
30.46000 392.069
30.47000 394.729
30.48000 394.965
30.49000 392.145
30.50000 389.324
30.51000 389.988
30.52000 393.483
30.53000 396.928
30.54000 395.079
30.55000 390.500
30.56000 386.401
30.57000 390.761
30.58000 398.223
30.59000 405.127
30.60000 406.783
30.61000 407.145
30.62000 407.460
30.63000 407.093
30.64000 406.688
30.65000 405.521
30.66000 401.485
30.67000 397.175
30.68000 395.798
30.69000 401.872
30.70000 408.312
30.71000 412.409
30.72000 412.294
30.73000 412.158
30.74000 413.009
30.75000 414.984
30.76000 416.966
30.77000 420.110
30.78000 424.108
30.79000 428.029
30.80000 422.563
30.81000 412.843
30.82000 403.852
30.83000 405.706
30.84000 411.181
30.85000 416.266
30.86000 418.121
30.87000 419.255
30.88000 420.225
30.89000 423.986
30.90000 427.492
30.91000 429.536
30.92000 426.580
30.93000 423.208
30.94000 424.148
30.95000 435.063
30.96000 446.379
30.97000 453.309
30.98000 464.986
30.99000 473.386
31.00000 481.669
31.01000 489.830
31.02000 498.002
31.03000 507.154
31.04000 516.957
31.05000 526.517
31.06000 541.568
31.07000 558.294
31.08000 575.651
31.09000 601.045
31.10000 628.881
31.11000 655.768
31.12000 675.692
31.13000 694.212
31.14000 709.773
31.15000 736.164
31.16000 759.295
31.17000 787.816
31.18000 833.097
31.19000 879.576
31.20000 925.492
31.21000 970.221
31.22000 1014.912
31.23000 1041.185
31.24000 1100.204
31.25000 1141.990
31.26000 1183.156
31.27000 1223.753
31.28000 1264.347
31.29000 1304.739
31.30000 1345.011
31.31000 1384.020
31.32000 1420.344
31.33000 1453.672
31.34000 1485.781
31.35000 1504.468
31.36000 1519.450
31.37000 1533.207
31.38000 1538.948
31.39000 1543.235
31.40000 1546.769
31.41000 1545.761
31.42000 1544.513
31.43000 1536.725
31.44000 1510.427
31.45000 1483.006
31.46000 1453.214
31.47000 1418.873
31.48000 1384.419
31.49000 1365.035
31.50000 1326.048
31.51000 1298.918
31.52000 1264.333
31.53000 1223.591
31.54000 1182.749
31.55000 1137.120
31.56000 1088.862
31.57000 1042.467
31.58000 996.970
31.59000 954.656
31.60000 911.927
31.61000 865.203
31.62000 817.480
31.63000 772.469
31.64000 743.349
31.65000 716.812
31.66000 695.380
31.67000 676.090
31.68000 660.579
31.69000 643.510
31.70000 622.424
31.71000 601.135
31.72000 582.124
31.73000 567.090
31.74000 552.128
31.75000 544.100
31.76000 541.210
31.77000 539.204
31.78000 530.155
31.79000 515.850
31.80000 501.739
31.81000 494.590
31.82000 490.920
31.83000 487.421
31.84000 480.309
31.85000 472.577
31.86000 464.537
31.87000 453.907
31.88000 442.689
31.89000 432.991
31.90000 431.287
31.91000 430.745
31.92000 430.317
31.93000 424.851
31.94000 420.118
31.95000 417.163
31.96000 418.384
31.97000 419.780
31.98000 417.126
31.99000 408.052
32.00000 398.896
32.01000 394.229
32.02000 408.319
32.03000 417.665
32.04000 414.958
32.05000 404.104
32.06000 393.514
32.07000 390.315
32.08000 390.480
32.09000 390.636
32.10000 387.050
32.11000 382.699
32.12000 378.823
32.13000 378.511
32.14000 378.928
32.15000 378.919
32.16000 376.886
32.17000 374.591
32.18000 372.819
32.19000 383.497
32.20000 392.687
32.21000 398.455
32.22000 396.903
32.23000 395.107
32.24000 392.816
32.25000 389.814
32.26000 386.806
32.27000 386.180
32.28000 387.774
32.29000 389.321
32.30000 387.510
32.31000 383.639
32.32000 379.692
32.33000 374.024
32.34000 367.642
32.35000 361.673
32.36000 366.713
32.37000 374.093
32.38000 379.595
32.39000 372.588
32.40000 363.274
32.41000 356.764
32.42000 362.277
32.43000 369.163
32.44000 374.349
32.45000 368.465
32.46000 363.318
32.47000 359.844
32.48000 359.627
32.49000 359.495
32.50000 363.604
32.51000 373.239
32.52000 382.887
32.53000 382.396
32.54000 373.416
32.55000 364.643
32.56000 366.280
32.57000 373.723
32.58000 380.535
32.59000 375.557
32.60000 366.123
32.61000 357.398
32.62000 354.555
32.63000 353.346
32.64000 352.200
32.65000 351.432
32.66000 350.726
32.67000 351.534
32.68000 358.222
32.69000 365.499
32.70000 370.837
32.71000 368.369
32.72000 366.146
32.73000 364.439
32.74000 363.648
32.75000 362.874
32.76000 361.748
32.77000 360.208
32.78000 358.671
32.79000 360.831
32.80000 365.760
32.81000 370.600
32.82000 372.078
32.83000 371.849
32.84000 371.461
32.85000 368.567
32.86000 364.810
32.87000 361.377
32.88000 368.184
32.89000 376.325
32.90000 382.953
32.91000 381.476
32.92000 378.800
32.93000 374.823
32.94000 366.259
32.95000 357.295
32.96000 350.902
32.97000 355.762
32.98000 359.836
32.99000 363.275
33.00000 365.691
33.01000 368.094
33.02000 367.558
33.03000 363.912
33.04000 360.285
33.05000 358.022
33.06000 356.712
33.07000 355.297
33.08000 350.817
33.09000 344.920
33.10000 339.251
33.11000 336.622
33.12000 334.945
33.13000 333.433
33.14000 341.115
33.15000 349.544
33.16000 354.465
33.17000 342.466
33.18000 328.240
33.19000 318.397
33.20000 322.606
33.21000 327.871
33.22000 331.515
33.23000 335.604
33.24000 338.691
33.25000 339.929
33.26000 338.465
33.27000 336.977
33.28000 336.953
33.29000 338.318
33.30000 339.673
33.31000 347.651
33.32000 359.539
33.33000 370.483
33.34000 359.296
33.35000 338.791
33.36000 320.023
33.37000 321.276
33.38000 328.231
33.39000 334.417
33.40000 331.387
33.41000 327.254
33.42000 324.844
33.43000 329.940
33.44000 335.911
33.45000 339.492
33.46000 336.105
33.47000 332.271
33.48000 329.702
33.49000 332.431
33.50000 334.562
33.51000 335.334
33.52000 334.307
33.53000 333.271
33.54000 331.824
33.55000 330.026
33.56000 328.249
33.57000 332.182
33.58000 339.168
33.59000 345.829
33.60000 346.224
33.61000 344.216
33.62000 342.137
33.63000 339.357
33.64000 336.394
33.65000 333.798
33.66000 335.132
33.67000 336.846
33.68000 338.206
33.69000 338.171
33.70000 337.993
33.71000 338.140
33.72000 339.152
33.73000 340.211
33.74000 340.897
33.75000 332.797
33.76000 326.741
33.77000 323.957
33.78000 325.086
33.79000 326.218
33.80000 326.327
33.81000 325.648
33.82000 324.980
33.83000 329.597
33.84000 336.698
33.85000 343.087
33.86000 337.998
33.87000 328.898
33.88000 320.741
33.89000 320.891
33.90000 322.985
33.91000 324.791
33.92000 331.775
33.93000 338.359
33.94000 343.656
33.95000 344.340
33.96000 344.612
33.97000 342.202
33.98000 333.301
33.99000 324.111
34.00000 318.376
34.01000 311.616
34.02000 306.730
34.03000 310.091
34.04000 322.329
34.05000 334.504
34.06000 338.085
34.07000 335.671
34.08000 333.310
34.09000 331.635
34.10000 330.339
34.11000 328.760
34.12000 323.310
34.13000 316.631
34.14000 312.025
34.15000 323.553
34.16000 338.497
34.17000 351.164
34.18000 339.088
34.19000 326.185
34.20000 318.136
34.21000 325.880
34.22000 334.841
34.23000 337.783
34.24000 327.452
34.25000 316.645
34.26000 310.162
34.27000 308.686
34.28000 307.671
34.29000 306.776
34.30000 305.997
34.31000 305.300
34.32000 311.187
34.33000 321.243
34.34000 331.016
34.35000 328.857
34.36000 321.957
34.37000 315.569
34.38000 315.221
34.39000 316.619
34.40000 317.506
34.41000 314.851
34.42000 311.520
34.43000 308.749
34.44000 316.037
34.45000 323.060
34.46000 327.282
34.47000 323.208
34.48000 318.588
34.49000 315.267
34.50000 314.554
34.51000 313.914
34.52000 313.546
34.53000 302.069
34.54000 294.012
34.55000 295.642
34.56000 305.685
34.57000 315.669
34.58000 322.342
34.59000 327.112
34.60000 331.715
34.61000 326.650
34.62000 318.337
34.63000 310.991
34.64000 313.566
34.65000 318.746
34.66000 322.404
34.67000 316.662
34.68000 309.308
34.69000 303.308
34.70000 312.043
34.71000 320.447
34.72000 326.980
34.73000 328.466
34.74000 329.672
34.75000 326.420
34.76000 315.020
34.77000 303.447
34.78000 297.090
34.79000 301.470
34.80000 304.501
34.81000 307.344
34.82000 310.039
34.83000 312.660
34.84000 312.244
34.85000 310.241
34.86000 308.323
34.87000 311.597
34.88000 316.367
34.89000 320.436
34.90000 318.208
34.91000 314.481
34.92000 311.398
34.93000 311.882
34.94000 312.914
34.95000 313.738
34.96000 317.939
34.97000 321.581
34.98000 322.687
34.99000 317.561
35.00000 312.149
35.01000 307.561
35.02000 304.343
35.03000 301.146
35.04000 299.474
35.05000 304.865
35.06000 308.503
35.07000 310.350
35.08000 310.926
35.09000 311.468
35.10000 310.946
35.11000 309.918
35.12000 308.943
35.13000 307.827
35.14000 306.756
35.15000 305.564
35.16000 303.410
35.17000 301.050
35.18000 300.693
35.19000 310.325
35.20000 321.324
35.21000 329.914
35.22000 318.782
35.23000 308.658
35.24000 300.950
35.25000 298.648
35.26000 296.547
35.27000 299.365
35.28000 309.606
35.29000 319.921
35.30000 322.113
35.31000 316.319
35.32000 310.552
35.33000 307.135
35.34000 305.229
35.35000 303.363
35.36000 302.496
35.37000 302.062
35.38000 301.654
35.39000 303.471
35.40000 305.725
35.41000 308.309
35.42000 313.210
35.43000 318.560
35.44000 320.226
35.45000 305.309
35.46000 288.382
35.47000 275.475
35.48000 285.394
35.49000 294.422
35.50000 298.522
35.51000 292.576
35.52000 286.336
35.53000 284.955
35.54000 290.220
35.55000 295.522
35.56000 297.736
35.57000 297.223
35.58000 296.708
35.59000 296.003
35.60000 295.187
35.61000 294.414
35.62000 294.541
35.63000 295.024
35.64000 295.472
35.65000 295.017
35.66000 294.388
35.67000 294.047
35.68000 295.517
35.69000 297.302
35.70000 298.987
35.71000 300.264
35.72000 301.498
35.73000 302.415
35.74000 297.440
35.75000 293.311
35.76000 292.151
35.77000 296.504
35.78000 300.980
35.79000 301.516
35.80000 297.182
35.81000 292.842
35.82000 293.138
35.83000 297.110
35.84000 301.005
35.85000 301.659
35.86000 300.590
35.87000 299.394
35.88000 296.008
35.89000 291.834
35.90000 287.997
35.91000 291.665
35.92000 296.561
35.93000 300.723
35.94000 300.744
35.95000 300.117
35.96000 299.818
35.97000 300.730
35.98000 301.756
35.99000 302.498
36.00000 297.609
36.01000 293.652
36.02000 291.705
36.03000 293.151
36.04000 294.652
36.05000 296.221
36.06000 297.866
36.07000 299.504
36.08000 298.829
36.09000 296.507
36.10000 294.282
36.11000 295.247
36.12000 297.753
36.13000 300.067
36.14000 299.601
36.15000 298.224
36.16000 296.973
36.17000 297.471
36.18000 298.249
36.19000 298.992
36.20000 299.555
36.21000 300.093
36.22000 297.902
36.23000 286.549
36.24000 274.455
36.25000 265.960
36.26000 273.433
36.27000 279.558
36.28000 283.695
36.29000 284.784
36.30000 285.840
36.31000 285.631
36.32000 284.156
36.33000 282.691
36.34000 284.144
36.35000 287.453
36.36000 290.588
36.37000 289.187
36.38000 285.788
36.39000 282.971
36.40000 287.350
36.41000 293.876
36.42000 299.721
36.43000 301.056
36.44000 301.444
36.45000 300.905
36.46000 296.124
36.47000 290.820
36.48000 285.105
36.49000 278.139
36.50000 271.085
36.51000 266.284
36.52000 279.622
36.53000 290.000
36.54000 294.842
36.55000 291.992
36.56000 289.095
36.57000 291.297
36.58000 298.081
36.59000 304.797
36.60000 305.246
36.61000 302.049
36.62000 298.821
36.63000 294.943
36.64000 290.804
36.65000 286.967
36.66000 286.375
36.67000 286.661
36.68000 286.914
36.69000 288.084
36.70000 289.235
36.71000 291.095
36.72000 295.888
36.73000 301.001
36.74000 302.868
36.75000 295.717
36.76000 288.037
36.77000 282.979
36.78000 284.131
36.79000 285.086
36.80000 287.334
36.81000 291.206
36.82000 295.071
36.83000 294.308
36.84000 289.798
36.85000 285.352
36.86000 293.011
36.87000 306.790
36.88000 319.397
36.89000 311.444
36.90000 295.974
36.91000 282.150
36.92000 283.749
36.93000 289.137
36.94000 293.821
36.95000 295.927
36.96000 297.372
36.97000 298.531
36.98000 298.611
36.99000 298.588
37.00000 299.580
37.01000 303.140
37.02000 306.825
37.03000 309.167
37.04000 309.782
37.05000 310.206
37.06000 309.856
37.07000 308.628
37.08000 307.377
37.09000 302.396
37.10000 294.685
37.11000 287.122
37.12000 286.104
37.13000 288.217
37.14000 290.161
37.15000 289.611
37.16000 288.230
37.17000 287.153
37.18000 288.584
37.19000 290.572
37.20000 292.272
37.21000 294.181
37.22000 295.815
37.23000 296.128
37.24000 291.935
37.25000 287.370
37.26000 284.419
37.27000 285.195
37.28000 286.120
37.29000 286.686
37.30000 286.889
37.31000 287.032
37.32000 288.759
37.33000 292.100
37.34000 295.401
37.35000 294.724
37.36000 291.409
37.37000 288.177
37.38000 287.521
37.39000 287.995
37.40000 288.420
37.41000 288.215
37.42000 287.821
37.43000 287.308
37.44000 285.933
37.45000 284.384
37.46000 283.084
37.47000 283.376
37.48000 283.786
37.49000 283.488
37.50000 280.994
37.51000 278.344
37.52000 276.376
37.53000 275.843
37.54000 275.355
37.55000 275.069
37.56000 276.552
37.57000 277.608
37.58000 281.363
37.59000 287.585
37.60000 293.669
37.61000 290.642
37.62000 282.129
37.63000 273.884
37.64000 271.304
37.65000 271.047
37.66000 270.993
37.67000 273.174
37.68000 275.970
37.69000 278.077
37.70000 275.692
37.71000 272.495
37.72000 269.862
37.73000 280.288
37.74000 290.064
37.75000 296.114
37.76000 291.652
37.77000 286.555
37.78000 285.240
37.79000 291.160
37.80000 297.258
37.81000 300.685
37.82000 294.335
37.83000 289.913
37.84000 288.626
37.85000 289.920
37.86000 291.240
37.87000 293.784
37.88000 296.997
37.89000 300.086
37.90000 298.442
37.91000 295.256
37.92000 291.701
37.93000 284.600
37.94000 276.613
37.95000 270.587
37.96000 276.001
37.97000 283.270
37.98000 289.137
37.99000 292.108
38.00000 294.293
38.01000 295.911
38.02000 296.071
38.03000 296.157
38.04000 294.884
38.05000 291.244
38.06000 287.561
38.07000 285.588
38.08000 289.159
38.09000 291.590
38.10000 292.132
38.11000 291.268
38.12000 290.448
38.13000 291.153
38.14000 292.618
38.15000 294.015
38.16000 291.101
38.17000 287.048
38.18000 283.640
38.19000 285.666
38.20000 288.921
38.21000 292.656
38.22000 298.911
38.23000 305.532
38.24000 310.760
38.25000 302.220
38.26000 294.428
38.27000 289.561
38.28000 291.542
38.29000 293.806
38.30000 297.085
38.31000 301.969
38.32000 306.872
38.33000 309.368
38.34000 314.003
38.35000 317.097
38.36000 318.658
38.37000 319.187
38.38000 320.034
38.39000 329.759
38.40000 343.515
38.41000 356.506
38.42000 371.346
38.43000 385.485
38.44000 398.699
38.45000 405.017
38.46000 409.927
38.47000 416.017
38.48000 427.693
38.49000 440.087
38.50000 449.650
38.51000 465.516
38.52000 478.454
38.53000 493.777
38.54000 514.189
38.55000 534.768
38.56000 553.463
38.57000 569.453
38.58000 585.420
38.59000 608.541
38.60000 638.301
38.61000 667.935
38.62000 688.694
38.63000 704.026
38.64000 719.365
38.65000 734.858
38.66000 750.414
38.67000 764.957
38.68000 779.261
38.69000 792.186
38.70000 803.097
38.71000 800.641
38.72000 795.728
38.73000 791.231
38.74000 788.515
38.75000 786.002
38.76000 784.111
38.77000 773.026
38.78000 763.907
38.79000 755.130
38.80000 747.019
38.81000 738.926
38.82000 726.483
38.83000 708.392
38.84000 690.297
38.85000 667.732
38.86000 641.498
38.87000 615.294
38.88000 590.603
38.89000 566.753
38.90000 543.364
38.91000 528.552
38.92000 516.972
38.93000 506.266
38.94000 490.110
38.95000 474.362
38.96000 458.211
38.97000 439.666
38.98000 420.726
38.99000 402.734
39.00000 388.409
39.01000 374.450
39.02000 364.219
39.03000 359.301
39.04000 355.717
39.05000 349.698
39.06000 339.379
39.07000 328.978
39.08000 321.265
39.09000 316.705
39.10000 312.161
39.11000 311.282
39.12000 313.159
39.13000 314.978
39.14000 314.603
39.15000 313.118
39.16000 311.405
39.17000 306.137
39.18000 299.648
39.19000 293.720
39.20000 285.551
39.21000 277.839
39.22000 271.455
39.23000 272.151
39.24000 273.892
39.25000 276.107
39.26000 279.985
39.27000 284.009
39.28000 286.875
39.29000 278.240
39.30000 271.283
39.31000 267.541
39.32000 268.961
39.33000 270.451
39.34000 268.475
39.35000 262.844
39.36000 257.241
39.37000 258.254
39.38000 263.729
39.39000 268.938
39.40000 266.408
39.41000 260.311
39.42000 254.991
39.43000 260.022
39.44000 268.285
39.45000 275.736
39.46000 273.633
39.47000 270.044
39.48000 267.319
39.49000 268.743
39.50000 270.711
39.51000 271.167
39.52000 266.790
39.53000 262.051
39.54000 258.774
39.55000 255.732
39.56000 253.451
39.57000 255.104
39.58000 262.491
39.59000 269.927
39.60000 271.936
39.61000 268.811
39.62000 265.712
39.63000 263.259
39.64000 261.244
39.65000 259.369
39.66000 260.726
39.67000 263.442
39.68000 266.050
39.69000 267.432
39.70000 268.465
39.71000 269.383
39.72000 267.401
39.73000 265.209
39.74000 263.630
39.75000 264.712
39.76000 266.103
39.77000 266.953
39.78000 266.228
39.79000 265.402
39.80000 264.849
39.81000 254.003
39.82000 245.754
39.83000 246.255
39.84000 258.306
39.85000 270.392
39.86000 270.870
39.87000 261.465
39.88000 252.174
39.89000 253.211
39.90000 259.908
39.91000 266.366
39.92000 268.260
39.93000 268.406
39.94000 268.342
39.95000 266.176
39.96000 263.468
39.97000 261.096
39.98000 258.297
39.99000 255.835
40.00000 253.885
40.01000 253.952
40.02000 254.224
40.03000 254.561
40.04000 255.071
40.05000 255.591
40.06000 255.926
40.07000 254.501
40.08000 253.432
40.09000 251.094
40.10000 247.242
40.11000 243.418
40.12000 246.730
40.13000 255.527
40.14000 264.177
40.15000 270.679
40.16000 275.899
40.17000 280.647
40.18000 277.803
40.19000 272.314
40.20000 266.827
40.21000 261.351
40.22000 255.877
40.23000 251.160
40.24000 253.630
40.25000 256.640
40.26000 257.016
40.27000 247.985
40.28000 238.118
40.29000 232.406
40.30000 236.721
40.31000 241.480
40.32000 244.445
40.33000 243.843
40.34000 243.372
40.35000 243.737
40.36000 244.997
40.37000 246.273
40.38000 249.465
40.39000 253.990
40.40000 258.415
40.41000 256.442
40.42000 251.679
40.43000 247.448
40.44000 250.468
40.45000 255.789
40.46000 260.242
40.47000 257.972
40.48000 254.284
40.49000 251.159
40.50000 250.310
40.51000 249.854
40.52000 248.562
40.53000 244.556
40.54000 240.341
40.55000 238.027
40.56000 239.891
40.57000 241.904
40.58000 243.110
40.59000 245.724
40.60000 247.589
40.61000 250.797
40.62000 255.298
40.63000 259.725
40.64000 258.249
40.65000 253.047
40.66000 247.993
40.67000 249.069
40.68000 252.575
40.69000 255.409
40.70000 250.342
40.71000 242.998
40.72000 236.670
40.73000 237.346
40.74000 239.355
40.75000 241.026
40.76000 241.586
40.77000 241.941
40.78000 242.751
40.79000 244.906
40.80000 247.148
40.81000 248.415
40.82000 247.728
40.83000 246.987
40.84000 246.561
40.85000 248.291
40.86000 249.499
40.87000 243.435
40.88000 231.076
40.89000 218.959
40.90000 220.149
40.91000 228.970
40.92000 237.480
40.93000 247.605
40.94000 257.725
40.95000 266.144
40.96000 257.188
40.97000 243.684
40.98000 232.644
40.99000 236.776
41.00000 243.502
41.01000 248.985
41.02000 246.450
41.03000 243.695
41.04000 242.033
41.05000 243.306
41.06000 244.742
41.07000 245.784
41.08000 246.109
41.09000 246.420
41.10000 246.590
41.11000 241.116
41.12000 237.363
41.13000 239.400
41.14000 245.958
41.15000 252.403
41.16000 254.264
41.17000 253.733
41.18000 253.224
41.19000 249.670
41.20000 245.354
41.21000 241.202
41.22000 238.511
41.23000 236.168
41.24000 235.279
41.25000 242.427
41.26000 250.805
41.27000 257.493
41.28000 249.041
41.29000 241.105
41.30000 236.490
41.31000 240.005
41.32000 243.893
41.33000 243.706
41.34000 236.769
41.35000 229.730
41.36000 226.055
41.37000 231.294
41.38000 234.841
41.39000 238.373
41.40000 241.893
41.41000 245.313
41.42000 245.584
41.43000 244.359
41.44000 243.197
41.45000 239.152
41.46000 234.565
41.47000 230.440
41.48000 229.965
41.49000 230.273
41.50000 230.959
41.51000 233.520
41.52000 236.337
41.53000 238.535
41.54000 240.765
41.55000 242.545
41.56000 243.132
41.57000 241.058
41.58000 238.886
41.59000 237.360
41.60000 236.806
41.61000 236.263
41.62000 235.405
41.63000 234.241
41.64000 233.065
41.65000 230.837
41.66000 227.935
41.67000 225.205
41.68000 226.762
41.69000 230.173
41.70000 233.378
41.71000 231.642
41.72000 228.737
41.73000 226.593
41.74000 229.789
41.75000 234.019
41.76000 237.845
41.77000 239.857
41.78000 241.651
41.79000 243.017
41.80000 244.881
41.81000 246.375
41.82000 246.906
41.83000 245.479
41.84000 243.996
41.85000 242.680
41.86000 241.592
41.87000 240.507
41.88000 234.854
41.89000 225.194
41.90000 215.736
41.91000 217.963
41.92000 226.996
41.93000 235.568
41.94000 234.754
41.95000 230.240
41.96000 226.043
41.97000 226.526
41.98000 228.085
41.99000 229.319
42.00000 228.509
42.01000 227.345
42.02000 225.867
42.03000 223.118
42.04000 220.233
42.05000 218.091
42.06000 221.720
42.07000 224.795
42.08000 226.942
42.09000 227.373
42.10000 227.767
42.11000 227.266
42.12000 225.664
42.13000 224.062
42.14000 225.405
42.15000 229.070
42.16000 232.668
42.17000 233.425
42.18000 232.679
42.19000 232.008
42.20000 232.626
42.21000 233.708
42.22000 234.702
42.23000 233.696
42.24000 232.367
42.25000 231.071
42.26000 229.955
42.27000 228.868
42.28000 228.321
42.29000 229.769
42.30000 231.401
42.31000 232.581
42.32000 235.374
42.33000 237.575
42.34000 237.404
42.35000 233.243
42.36000 229.018
42.37000 227.040
42.38000 227.556
42.39000 228.071
42.40000 227.894
42.41000 227.225
42.42000 226.527
42.43000 224.885
42.44000 222.787
42.45000 221.100
42.46000 225.304
42.47000 231.435
42.48000 236.999
42.49000 238.706
42.50000 239.471
42.51000 238.328
42.52000 227.545
42.53000 215.423
42.54000 207.667
42.55000 214.527
42.56000 222.564
42.57000 228.203
42.58000 227.222
42.59000 226.287
42.60000 225.099
42.61000 223.526
42.62000 221.949
42.63000 222.778
42.64000 226.008
42.65000 229.217
42.66000 232.417
42.67000 235.564
42.68000 238.386
42.69000 232.831
42.70000 223.596
42.71000 215.042
42.72000 214.878
42.73000 217.208
42.74000 219.294
42.75000 218.326
42.76000 216.956
42.77000 216.202
42.78000 218.258
42.79000 220.660
42.80000 221.928
42.81000 219.746
42.82000 217.326
42.83000 215.680
42.84000 213.935
42.85000 212.629
42.86000 213.122
42.87000 216.105
42.88000 219.102
42.89000 219.349
42.90000 217.133
42.91000 214.940
42.92000 217.636
42.93000 223.102
42.94000 228.194
42.95000 225.452
42.96000 219.573
42.97000 214.103
42.98000 212.996
42.99000 213.069
43.00000 213.133
43.01000 208.861
43.02000 204.514
43.03000 202.487
43.04000 210.035
43.05000 218.623
43.06000 225.993
43.07000 229.989
43.08000 233.787
43.09000 236.286
43.10000 237.365
43.11000 238.135
43.12000 237.430
43.13000 234.877
43.14000 232.315
43.15000 228.498
43.16000 223.668
43.17000 218.907
43.18000 222.501
43.19000 230.352
43.20000 237.756
43.21000 237.353
43.22000 234.103
43.23000 230.952
43.24000 228.717
43.25000 226.706
43.26000 224.959
43.27000 223.608
43.28000 222.509
43.29000 221.612
43.30000 221.476
43.31000 221.412
43.32000 222.011
43.33000 224.287
43.34000 226.645
43.35000 228.141
43.36000 222.343
43.37000 218.043
43.38000 219.041
43.39000 226.023
43.40000 232.952
43.41000 230.148
43.42000 220.242
43.43000 210.528
43.44000 208.988
43.45000 211.359
43.46000 213.731
43.47000 216.115
43.48000 218.503
43.49000 220.839
43.50000 222.755
43.51000 224.577
43.52000 226.134
43.53000 224.094
43.54000 221.945
43.55000 220.471
43.56000 221.286
43.57000 222.290
43.58000 223.498
43.59000 225.171
43.60000 226.863
43.61000 227.897
43.62000 228.294
43.63000 228.573
43.64000 223.392
43.65000 212.671
43.66000 202.073
43.67000 203.605
43.68000 213.159
43.69000 222.473
43.70000 227.833
43.71000 231.266
43.72000 234.392
43.73000 233.638
43.74000 231.713
43.75000 229.732
43.76000 227.347
43.77000 224.882
43.78000 222.813
43.79000 225.970
43.80000 229.146
43.81000 231.026
43.82000 228.898
43.83000 226.486
43.84000 224.276
43.85000 222.490
43.86000 220.717
43.87000 219.677
43.88000 223.209
43.89000 225.719
43.90000 226.240
43.91000 224.949
43.92000 223.693
43.93000 224.686
43.94000 227.029
43.95000 229.298
43.96000 224.230
43.97000 216.618
43.98000 209.849
43.99000 212.287
44.00000 217.251
44.01000 221.583
44.02000 221.808
44.03000 221.293
44.04000 220.869
44.05000 219.772
44.06000 218.808
44.07000 218.903
44.08000 221.980
44.09000 225.237
44.10000 226.053
44.11000 222.215
44.12000 218.263
44.13000 216.046
44.14000 220.211
44.15000 223.108
44.16000 222.805
44.17000 219.876
44.18000 216.957
44.19000 214.513
44.20000 212.327
44.21000 210.227
44.22000 215.270
44.23000 222.468
44.24000 229.357
44.25000 233.297
44.26000 236.504
44.27000 238.419
44.28000 232.822
44.29000 226.011
44.30000 220.518
44.31000 217.906
44.32000 216.012
44.33000 215.806
44.34000 219.929
44.35000 224.269
44.36000 224.358
44.37000 217.067
44.38000 209.644
44.39000 205.673
44.40000 211.302
44.41000 215.138
44.42000 216.963
44.43000 217.298
44.44000 217.623
44.45000 217.620
44.46000 217.454
44.47000 217.296
44.48000 217.181
44.49000 217.087
44.50000 216.838
44.51000 215.285
44.52000 213.439
44.53000 212.184
44.54000 214.020
44.55000 216.301
44.56000 218.102
44.57000 225.248
44.58000 231.344
44.59000 233.283
44.60000 225.518
44.61000 217.354
44.62000 214.387
44.63000 219.615
44.64000 224.944
44.65000 227.652
44.66000 231.982
44.67000 234.881
44.68000 237.318
44.69000 239.445
44.70000 241.512
44.71000 241.918
44.72000 241.573
44.73000 241.246
44.74000 239.841
44.75000 238.249
44.76000 237.022
44.77000 238.504
44.78000 240.538
44.79000 241.042
44.80000 234.337
44.81000 226.708
44.82000 220.826
44.83000 227.978
44.84000 234.393
44.85000 240.069
44.86000 244.171
44.87000 248.221
44.88000 250.245
44.89000 249.374
44.90000 248.480
44.91000 252.278
44.92000 260.421
44.93000 268.480
44.94000 270.706
44.95000 269.374
44.96000 268.148
44.97000 269.295
44.98000 271.421
44.99000 273.408
45.00000 273.996
45.01000 274.176
45.02000 274.263
45.03000 273.734
45.04000 273.092
45.05000 273.224
45.06000 276.649
45.07000 280.447
45.08000 283.303
45.09000 282.981
45.10000 282.576
45.11000 284.387
45.12000 290.492
45.13000 296.706
45.14000 297.928
45.15000 292.687
45.16000 287.426
45.17000 287.260
45.18000 291.333
45.19000 295.285
45.20000 293.323
45.21000 288.082
45.22000 282.771
45.23000 276.167
45.24000 269.077
45.25000 262.524
45.26000 267.941
45.27000 275.521
45.28000 281.252
45.29000 276.039
45.30000 269.025
45.31000 264.974
45.32000 272.361
45.33000 280.884
45.34000 287.126
45.35000 282.973
45.36000 279.352
45.37000 276.882
45.38000 276.444
45.39000 276.043
45.40000 274.071
45.41000 270.262
45.42000 266.461
45.43000 264.759
45.44000 264.641
45.45000 264.466
45.46000 262.233
45.47000 258.962
45.48000 256.045
45.49000 258.642
45.50000 263.124
45.51000 267.218
45.52000 266.116
45.53000 264.080
45.54000 261.517
45.55000 256.144
45.56000 250.359
45.57000 246.211
45.58000 247.806
45.59000 249.897
45.60000 251.386
45.61000 252.822
45.62000 253.914
45.63000 254.312
45.64000 253.597
45.65000 252.868
45.66000 251.640
45.67000 249.889
45.68000 248.147
45.69000 247.085
45.70000 246.495
45.71000 245.868
45.72000 244.181
45.73000 242.008
45.74000 240.046
45.75000 240.872
45.76000 242.567
45.77000 244.095
45.78000 243.290
45.79000 242.161
45.80000 241.409
45.81000 242.473
45.82000 243.774
45.83000 242.546
45.84000 233.258
45.85000 223.370
45.86000 216.541
45.87000 228.280
45.88000 237.579
45.89000 241.098
45.90000 236.215
45.91000 231.262
45.92000 226.375
45.93000 221.549
45.94000 216.763
45.95000 218.932
45.96000 225.291
45.97000 231.217
45.98000 227.125
45.99000 218.839
46.00000 211.298
46.01000 212.289
46.02000 215.695
46.03000 218.723
46.04000 216.714
46.05000 214.157
46.06000 212.384
46.07000 214.002
46.08000 216.013
46.09000 217.040
46.10000 215.214
46.11000 213.206
46.12000 211.864
46.13000 216.149
46.14000 219.436
46.15000 218.403
46.16000 211.683
46.17000 204.948
46.18000 204.240
46.19000 208.648
46.20000 213.002
46.21000 214.828
46.22000 215.219
46.23000 215.394
46.24000 211.434
46.25000 205.898
46.26000 200.945
46.27000 201.793
46.28000 204.132
46.29000 206.180
46.30000 204.480
46.31000 202.485
46.32000 201.074
46.33000 201.955
46.34000 203.068
46.35000 202.664
46.36000 198.253
46.37000 193.628
46.38000 190.640
46.39000 199.383
46.40000 205.944
46.41000 207.399
46.42000 202.786
46.43000 198.175
46.44000 196.415
46.45000 196.839
46.46000 197.255
46.47000 198.306
46.48000 199.637
46.49000 200.890
46.50000 200.924
46.51000 200.534
46.52000 200.179
46.53000 200.130
46.54000 200.154
46.55000 200.174
46.56000 203.166
46.57000 206.080
46.58000 207.170
46.59000 201.768
46.60000 195.791
46.61000 192.334
46.62000 194.940
46.63000 197.813
46.64000 199.601
46.65000 197.585
46.66000 196.095
46.67000 195.340
46.68000 195.374
46.69000 195.415
46.70000 196.250
46.71000 197.638
46.72000 198.994
46.73000 198.938
46.74000 198.253
46.75000 197.607
46.76000 197.504
46.77000 197.572
46.78000 197.576
46.79000 197.094
46.80000 196.509
46.81000 196.013
46.82000 202.397
46.83000 208.509
46.84000 211.879
46.85000 206.372
46.86000 200.188
46.87000 195.609
46.88000 194.551
46.89000 193.618
46.90000 193.060
46.91000 198.119
46.92000 201.746
46.93000 201.232
46.94000 196.745
46.95000 192.294
46.96000 190.584
46.97000 190.599
46.98000 190.614
46.99000 186.620
47.00000 181.207
47.01000 176.561
47.02000 180.887
47.03000 187.794
47.04000 193.877
47.05000 194.314
47.06000 193.679
47.07000 193.151
47.08000 197.999
47.09000 202.534
47.10000 204.282
47.11000 197.823
47.12000 190.829
47.13000 187.038
47.14000 189.642
47.15000 192.423
47.16000 194.018
47.17000 192.143
47.18000 190.820
47.19000 188.680
47.20000 185.837
47.21000 183.094
47.22000 185.822
47.23000 191.680
47.24000 197.329
47.25000 198.136
47.26000 197.131
47.27000 195.942
47.28000 192.896
47.29000 189.365
47.30000 187.299
47.31000 194.217
47.32000 202.665
47.33000 209.549
47.34000 202.746
47.35000 196.025
47.36000 191.161
47.37000 191.278
47.38000 191.668
47.39000 191.694
47.40000 191.061
47.41000 190.413
47.42000 190.058
47.43000 182.974
47.44000 178.107
47.45000 176.957
47.46000 178.702
47.47000 180.400
47.48000 180.209
47.49000 179.035
47.50000 177.911
47.51000 177.928
47.52000 178.319
47.53000 179.055
47.54000 182.875
47.55000 187.424
47.56000 190.660
47.57000 186.674
47.58000 181.587
47.59000 177.529
47.60000 184.450
47.61000 190.839
47.62000 194.444
47.63000 191.246
47.64000 187.739
47.65000 185.294
47.66000 184.603
47.67000 183.938
47.68000 183.592
47.69000 181.479
47.70000 180.063
47.71000 180.267
47.72000 181.614
47.73000 182.952
47.74000 184.019
47.75000 184.957
47.76000 185.847
47.77000 186.722
47.78000 187.524
47.79000 187.965
47.80000 185.567
47.81000 182.560
47.82000 180.550
47.83000 183.476
47.84000 187.073
47.85000 189.878
47.86000 192.564
47.87000 194.698
47.88000 194.809
47.89000 190.417
47.90000 185.859
47.91000 182.410
47.92000 180.624
47.93000 178.855
47.94000 179.110
47.95000 181.342
47.96000 183.550
47.97000 183.717
47.98000 182.579
47.99000 181.515
48.00000 182.284
48.01000 183.844
48.02000 185.309
48.03000 180.860
48.04000 175.226
48.05000 170.781
48.06000 174.657
48.07000 180.139
48.08000 184.012
48.09000 180.689
48.10000 176.500
48.11000 173.311
48.12000 180.113
48.13000 185.993
48.14000 188.755
48.15000 185.197
48.16000 181.455
48.17000 178.820
48.18000 177.688
48.19000 176.566
48.20000 177.916
48.21000 181.431
48.22000 184.872
48.23000 184.100
48.24000 180.882
48.25000 177.858
48.26000 178.776
48.27000 181.242
48.28000 183.534
48.29000 183.971
48.30000 183.920
48.31000 183.297
48.32000 179.094
48.33000 174.271
48.34000 171.356
48.35000 176.172
48.36000 181.807
48.37000 185.988
48.38000 180.457
48.39000 175.734
48.40000 173.943
48.41000 177.564
48.42000 181.304
48.43000 182.636
48.44000 181.012
48.45000 179.382
48.46000 179.505
48.47000 181.007
48.48000 182.538
48.49000 185.274
48.50000 188.647
48.51000 191.945
48.52000 193.972
48.53000 195.543
48.54000 196.988
48.55000 187.743
48.56000 177.198
48.57000 168.169
48.58000 167.621
48.59000 168.390
48.60000 170.546
48.61000 177.791
48.62000 185.508
48.63000 191.078
48.64000 185.619
48.65000 181.037
48.66000 178.299
48.67000 178.656
48.68000 179.061
48.69000 178.687
48.70000 177.449
48.71000 176.215
48.72000 176.524
48.73000 177.926
48.74000 179.215
48.75000 176.862
48.76000 172.757
48.77000 168.913
48.78000 168.801
48.79000 169.906
48.80000 170.908
48.81000 170.337
48.82000 169.531
48.83000 169.132
48.84000 170.786
48.85000 172.724
48.86000 173.864
48.87000 172.338
48.88000 170.598
48.89000 169.378
48.90000 175.015
48.91000 179.478
48.92000 181.006
48.93000 178.063
48.94000 175.072
48.95000 172.876
48.96000 171.469
48.97000 170.072
48.98000 172.391
48.99000 177.051
49.00000 181.513
49.01000 180.902
49.02000 178.070
49.03000 175.125
49.04000 170.809
49.05000 166.087
49.06000 161.861
49.07000 164.020
49.08000 166.997
49.09000 169.894
49.10000 172.427
49.11000 174.916
49.12000 176.341
49.13000 174.540
49.14000 172.517
49.15000 171.143
49.16000 173.557
49.17000 175.443
49.18000 175.210
49.19000 172.049
49.20000 168.873
49.21000 169.452
49.22000 173.383
49.23000 177.274
49.24000 176.181
49.25000 172.237
49.26000 168.634
49.27000 172.138
49.28000 178.479
49.29000 183.945
49.30000 180.108
49.31000 173.767
49.32000 168.173
49.33000 170.947
49.34000 174.612
49.35000 176.851
49.36000 173.224
49.37000 168.961
49.38000 166.952
49.39000 171.170
49.40000 175.750
49.41000 178.760
49.42000 177.191
49.43000 175.959
49.44000 175.369
49.45000 175.581
49.46000 175.801
49.47000 177.905
49.48000 181.526
49.49000 185.094
49.50000 182.926
49.51000 177.835
49.52000 172.776
49.53000 168.289
49.54000 164.010
49.55000 160.258
49.56000 161.413
49.57000 163.765
49.58000 165.809
49.59000 168.467
49.60000 170.815
49.61000 173.099
49.62000 175.144
49.63000 177.166
49.64000 177.065
49.65000 171.620
49.66000 165.918
49.67000 162.302
49.68000 165.825
49.69000 168.468
49.70000 170.205
49.71000 170.923
49.72000 171.628
49.73000 170.439
49.74000 167.872
49.75000 165.355
49.76000 168.069
49.77000 173.139
49.78000 177.915
49.79000 178.365
49.80000 177.384
49.81000 176.398
49.82000 175.380
49.83000 174.355
49.84000 173.480
49.85000 172.326
49.86000 171.321
49.87000 170.948
49.88000 172.713
49.89000 174.654
49.90000 175.383
49.91000 173.335
49.92000 171.177
49.93000 169.861
49.94000 166.551
49.95000 164.169
49.96000 163.925
49.97000 165.845
49.98000 167.754
49.99000 168.661
50.00000 168.908
50.01000 169.148
50.02000 170.545
50.03000 172.370
50.04000 174.049
50.05000 173.909
50.06000 173.221
50.07000 172.704
50.08000 173.432
50.09000 174.408
50.10000 175.227
50.11000 178.574
50.12000 181.623
50.13000 182.902
50.14000 178.727
50.15000 174.168
50.16000 171.113
50.17000 171.199
50.18000 171.385
50.19000 171.493
50.20000 170.377
50.21000 169.586
50.22000 170.306
50.23000 172.399
50.24000 174.502
50.25000 177.290
50.26000 180.489
50.27000 183.585
50.28000 184.762
50.29000 185.139
50.30000 185.227
50.31000 182.185
50.32000 178.286
50.33000 175.522
50.34000 180.104
50.35000 186.005
50.36000 190.861
50.37000 188.619
50.38000 186.132
50.39000 184.490
50.40000 185.222
50.41000 186.095
50.42000 188.057
50.43000 192.091
50.44000 196.175
50.45000 198.463
50.46000 195.836
50.47000 194.004
50.48000 192.668
50.49000 191.738
50.50000 190.808
50.51000 189.877
50.52000 188.945
50.53000 188.050
50.54000 193.893
50.55000 201.690
50.56000 208.714
50.57000 208.399
50.58000 206.262
50.59000 204.111
50.60000 201.884
50.61000 199.644
50.62000 197.838
50.63000 200.035
50.64000 202.133
50.65000 203.010
50.66000 200.769
50.67000 198.373
50.68000 196.350
50.69000 194.973
50.70000 193.608
50.71000 192.879
50.72000 202.252
50.73000 208.639
50.74000 213.261
50.75000 216.577
50.76000 219.671
50.77000 215.033
50.78000 206.561
50.79000 198.491
50.80000 196.589
50.81000 196.747
50.82000 196.576
50.83000 193.657
50.84000 190.120
50.85000 187.386
50.86000 188.833
50.87000 190.881
50.88000 192.496
50.89000 191.456
50.90000 190.443
50.91000 190.985
50.92000 195.145
50.93000 199.453
50.94000 198.688
50.95000 189.947
50.96000 181.109
50.97000 176.626
50.98000 175.841
50.99000 175.316
51.00000 174.815
51.01000 174.331
51.02000 174.040
51.03000 179.088
51.04000 186.545
51.05000 193.584
51.06000 192.841
51.07000 189.977
51.08000 187.017
51.09000 183.347
51.10000 179.533
51.11000 176.392
51.12000 176.417
51.13000 176.846
51.14000 177.177
51.15000 181.292
51.16000 184.767
51.17000 184.585
51.18000 176.645
51.19000 168.451
51.20000 165.053
51.21000 168.495
51.22000 171.988
51.23000 172.759
51.24000 171.018
51.25000 169.340
51.26000 172.047
51.27000 177.421
51.28000 182.493
51.29000 180.846
51.30000 176.436
51.31000 172.315
51.32000 167.726
51.33000 163.444
51.34000 160.226
51.35000 164.023
51.36000 169.100
51.37000 172.133
51.38000 166.478
51.39000 159.842
51.40000 154.856
51.41000 154.648
51.42000 154.715
51.43000 156.203
51.44000 160.435
51.45000 164.736
51.46000 165.677
51.47000 162.282
51.48000 158.874
51.49000 156.423
51.50000 154.774
51.51000 153.141
51.52000 152.271
51.53000 151.822
51.54000 151.525
51.55000 154.019
51.56000 157.560
51.57000 160.832
51.58000 163.690
51.59000 166.161
51.60000 167.666
51.61000 163.465
51.62000 158.329
51.63000 156.256
51.64000 165.975
51.65000 176.860
51.66000 184.826
51.67000 176.075
51.68000 168.659
51.69000 163.038
51.70000 160.573
51.71000 158.167
51.72000 155.058
51.73000 151.129
51.74000 147.211
51.75000 149.753
51.76000 157.098
51.77000 164.303
51.78000 166.358
51.79000 165.823
51.80000 165.117
51.81000 161.786
51.82000 157.558
51.83000 153.699
51.84000 153.357
51.85000 153.767
51.86000 154.349
51.87000 155.849
51.88000 157.483
51.89000 158.881
51.90000 159.453
51.91000 159.955
51.92000 160.311
51.93000 161.918
51.94000 163.181
51.95000 163.193
51.96000 161.206
51.97000 159.192
51.98000 156.219
51.99000 152.238
52.00000 148.279
52.01000 152.612
52.02000 162.465
52.03000 171.949
52.04000 170.858
52.05000 164.922
52.06000 159.295
52.07000 157.755
52.08000 157.484
52.09000 157.239
52.10000 159.656
52.11000 162.258
52.12000 164.627
52.13000 165.881
52.14000 166.989
52.15000 167.164
52.16000 164.374
52.17000 161.363
52.18000 159.285
52.19000 160.338
52.20000 161.208
52.21000 161.893
52.22000 162.308
52.23000 162.720
52.24000 161.073
52.25000 157.491
52.26000 153.939
52.27000 152.192
52.28000 151.570
52.29000 151.073
52.30000 153.441
52.31000 157.004
52.32000 160.335
52.33000 161.020
52.34000 160.958
52.35000 160.903
52.36000 164.087
52.37000 167.370
52.38000 169.457
52.39000 166.380
52.40000 162.708
52.41000 159.890
52.42000 159.538
52.43000 159.342
52.44000 159.211
52.45000 160.094
52.46000 160.768
52.47000 159.963
52.48000 157.218
52.49000 154.466
52.50000 152.438
52.51000 151.023
52.52000 149.625
52.53000 152.355
52.54000 157.272
52.55000 161.832
52.56000 159.621
52.57000 154.835
52.58000 150.490
52.59000 150.527
52.60000 151.685
52.61000 152.698
52.62000 152.860
52.63000 152.877
52.64000 153.125
52.65000 154.280
52.66000 155.526
52.67000 157.883
52.68000 163.164
52.69000 168.600
52.70000 172.108
52.71000 166.396
52.72000 162.091
52.73000 161.770
52.74000 166.168
52.75000 170.555
52.76000 170.627
52.77000 167.402
52.78000 164.232
52.79000 162.276
52.80000 160.986
52.81000 159.693
52.82000 158.376
52.83000 157.050
52.84000 156.178
52.85000 159.255
52.86000 163.248
52.87000 166.686
52.88000 162.028
52.89000 157.059
52.90000 153.660
52.91000 155.840
52.92000 158.512
52.93000 161.563
52.94000 165.523
52.95000 169.522
52.96000 172.010
52.97000 161.239
52.98000 153.350
52.99000 148.484
53.00000 146.839
53.01000 145.211
53.02000 145.621
53.03000 147.441
53.04000 149.219
53.05000 154.290
53.06000 160.617
53.07000 166.209
53.08000 161.854
53.09000 154.363
53.10000 148.126
53.11000 151.535
53.12000 156.968
53.13000 161.565
53.14000 167.733
53.15000 173.070
53.16000 175.943
53.17000 170.867
53.18000 165.186
53.19000 161.241
53.20000 161.088
53.21000 161.069
53.22000 161.058
53.23000 157.478
53.24000 154.916
53.25000 153.772
53.26000 153.986
53.27000 154.201
53.28000 154.520
53.29000 154.906
53.30000 155.280
53.31000 155.178
53.32000 154.890
53.33000 154.625
53.34000 154.632
53.35000 154.718
53.36000 155.079
53.37000 157.326
53.38000 159.930
53.39000 162.093
53.40000 160.518
53.41000 158.852
53.42000 158.238
53.43000 160.709
53.44000 163.381
53.45000 165.202
53.46000 165.327
53.47000 165.406
53.48000 165.452
53.49000 161.159
53.50000 158.148
53.51000 157.165
53.52000 157.925
53.53000 158.666
53.54000 158.368
53.55000 157.479
53.56000 156.620
53.57000 157.464
53.58000 158.875
53.59000 160.249
53.60000 161.248
53.61000 162.149
53.62000 162.065
53.63000 155.958
53.64000 148.827
53.65000 143.021
53.66000 150.808
53.67000 158.317
53.68000 163.360
53.69000 161.808
53.70000 159.897
53.71000 159.003
53.72000 159.950
53.73000 160.935
53.74000 161.474
53.75000 154.407
53.76000 149.562
53.77000 150.735
53.78000 156.580
53.79000 162.224
53.80000 159.829
53.81000 153.266
53.82000 146.986
53.83000 148.030
53.84000 151.401
53.85000 154.137
53.86000 151.231
53.87000 146.994
53.88000 143.751
53.89000 145.967
53.90000 149.013
53.91000 151.441
53.92000 151.471
53.93000 151.321
53.94000 151.620
53.95000 153.009
53.96000 154.447
53.97000 156.239
53.98000 158.612
53.99000 160.994
54.00000 162.233
54.01000 162.664
54.02000 162.965
54.03000 164.460
54.04000 166.794
54.05000 168.952
54.06000 165.647
54.07000 159.763
54.08000 154.183
54.09000 152.930
54.10000 153.052
54.11000 153.433
54.12000 155.844
54.13000 158.689
54.14000 160.817
54.15000 159.405
54.16000 157.514
54.17000 156.041
54.18000 151.120
54.19000 146.986
54.20000 144.694
54.21000 146.493
54.22000 148.441
54.23000 149.385
54.24000 148.828
54.25000 148.256
54.26000 148.845
54.27000 150.563
54.28000 152.278
54.29000 153.770
54.30000 155.120
54.31000 156.224
54.32000 151.303
54.33000 143.788
54.34000 136.732
54.35000 144.462
54.36000 155.438
54.37000 164.686
54.38000 161.888
54.39000 156.774
54.40000 152.788
54.41000 153.832
54.42000 155.479
54.43000 156.732
54.44000 151.692
54.45000 147.398
54.46000 144.641
54.47000 144.990
54.48000 145.428
54.49000 147.766
54.50000 152.678
54.51000 157.601
54.52000 158.842
54.53000 156.866
54.54000 154.940
54.55000 155.859
54.56000 158.425
54.57000 160.709
54.58000 157.313
54.59000 151.691
54.60000 146.468
54.61000 145.585
54.62000 145.823
54.63000 146.551
54.64000 150.326
54.65000 154.628
54.66000 157.113
54.67000 152.263
54.68000 146.638
54.69000 142.467
54.70000 142.909
54.71000 143.453
54.72000 145.611
54.73000 150.737
54.74000 155.928
54.75000 158.102
54.76000 156.583
54.77000 155.058
54.78000 154.321
54.79000 154.208
54.80000 154.044
54.81000 151.728
54.82000 148.278
54.83000 144.953
54.84000 143.707
54.85000 143.203
54.86000 142.740
54.87000 141.647
54.88000 140.537
54.89000 139.957
54.90000 142.336
54.91000 145.173
54.92000 148.299
54.93000 152.480
54.94000 156.759
54.95000 159.845
54.96000 153.651
54.97000 148.573
54.98000 146.700
54.99000 150.191
55.00000 153.766
55.01000 156.153
55.02000 157.229
55.03000 158.300
55.04000 157.724
55.05000 155.990
55.06000 154.229
55.07000 151.615
55.08000 148.592
55.09000 145.858
55.10000 147.246
55.11000 149.973
55.12000 152.446
55.13000 153.573
55.14000 154.310
55.15000 155.319
55.16000 157.697
55.17000 160.263
55.18000 161.724
55.19000 159.507
55.20000 156.996
55.21000 155.238
55.22000 153.794
55.23000 152.712
55.24000 153.802
55.25000 158.195
55.26000 162.622
55.27000 165.704
55.28000 167.455
55.29000 169.193
55.30000 168.400
55.31000 166.006
55.32000 163.717
55.33000 164.130
55.34000 165.721
55.35000 166.896
55.36000 162.971
55.37000 157.540
55.38000 152.680
55.39000 158.924
55.40000 166.264
55.41000 171.406
55.42000 166.589
55.43000 160.553
55.44000 156.961
55.45000 160.763
55.46000 165.071
55.47000 167.995
55.48000 175.819
55.49000 181.765
55.50000 187.791
55.51000 193.926
55.52000 200.061
55.53000 205.062
55.54000 209.053
55.55000 213.003
55.56000 215.309
55.57000 216.618
55.58000 218.052
55.59000 222.068
55.60000 227.111
55.61000 231.962
55.62000 234.771
55.63000 237.031
55.64000 239.024
55.65000 251.151
55.66000 263.143
55.67000 273.915
55.68000 279.684
55.69000 284.913
55.70000 290.352
55.71000 296.371
55.72000 302.424
55.73000 306.397
55.74000 319.650
55.75000 329.557
55.76000 337.248
55.77000 342.179
55.78000 347.122
55.79000 358.488
55.80000 375.009
55.81000 391.287
55.82000 397.403
55.83000 398.066
55.84000 398.700
55.85000 398.833
55.86000 398.786
55.87000 400.130
55.88000 414.362
55.89000 431.733
55.90000 446.810
55.91000 442.511
55.92000 436.246
55.93000 431.628
55.94000 433.137
55.95000 435.223
55.96000 437.578
55.97000 440.609
55.98000 443.672
55.99000 445.612
56.00000 449.452
56.01000 452.259
56.02000 451.505
56.03000 446.754
56.04000 441.968
56.05000 431.947
56.06000 418.130
56.07000 404.586
56.08000 398.613
56.09000 396.411
56.10000 393.953
56.11000 387.745
56.12000 380.301
56.13000 372.369
56.14000 360.456
56.15000 347.666
56.16000 336.750
56.17000 331.007
56.18000 326.784
56.19000 320.977
56.20000 309.817
56.21000 298.219
56.22000 290.577
56.23000 291.979
56.24000 293.737
56.25000 294.808
56.26000 282.460
56.27000 273.528
56.28000 265.463
56.29000 258.271
56.30000 251.121
56.31000 247.844
56.32000 247.114
56.33000 246.403
56.34000 242.042
56.35000 236.337
56.36000 230.370
56.37000 221.121
56.38000 210.887
56.39000 201.880
56.40000 201.758
56.41000 203.404
56.42000 204.783
56.43000 199.902
56.44000 195.191
56.45000 191.464
56.46000 190.758
56.47000 190.264
56.48000 188.379
56.49000 183.596
56.50000 178.722
56.51000 175.872
56.52000 179.056
56.53000 181.323
56.54000 179.618
56.55000 174.318
56.56000 169.080
56.57000 167.788
56.58000 168.851
56.59000 169.881
56.60000 167.360
56.61000 163.621
56.62000 160.114
56.63000 159.112
56.64000 158.793
56.65000 158.236
56.66000 156.144
56.67000 153.778
56.68000 151.832
56.69000 161.549
56.70000 170.590
56.71000 175.638
56.72000 169.513
56.73000 162.725
56.74000 157.004
56.75000 153.309
56.76000 149.662
56.77000 147.621
56.78000 151.143
56.79000 153.593
56.80000 155.368
56.81000 156.590
56.82000 157.774
56.83000 157.160
56.84000 155.570
56.85000 154.043
56.86000 150.998
56.87000 147.627
56.88000 144.356
56.89000 142.035
56.90000 139.948
56.91000 138.889
56.92000 143.760
56.93000 149.583
56.94000 154.273
56.95000 153.277
56.96000 152.024
56.97000 150.678
56.98000 149.098
56.99000 147.506
57.00000 147.753
57.01000 151.174
57.02000 154.650
57.03000 156.504
57.04000 148.226
57.05000 142.609
57.06000 142.310
57.07000 145.932
57.08000 149.425
57.09000 148.446
57.10000 145.257
57.11000 142.220
57.12000 138.394
57.13000 134.604
57.14000 131.621
57.15000 135.351
57.16000 140.585
57.17000 144.477
57.18000 141.403
57.19000 137.331
57.20000 134.122
57.21000 135.427
57.22000 136.775
57.23000 137.554
57.24000 137.008
57.25000 136.408
57.26000 137.006
57.27000 139.481
57.28000 141.979
57.29000 143.244
57.30000 142.418
57.31000 141.880
57.32000 142.990
57.33000 145.200
57.34000 147.348
57.35000 147.785
57.36000 147.451
57.37000 147.137
57.38000 147.079
57.39000 147.098
57.40000 146.627
57.41000 142.541
57.42000 137.724
57.43000 134.043
57.44000 135.687
57.45000 138.008
57.46000 139.795
57.47000 138.847
57.48000 137.940
57.49000 137.943
57.50000 139.871
57.51000 141.862
57.52000 143.832
57.53000 145.775
57.54000 147.717
57.55000 146.549
57.56000 142.520
57.57000 138.507
57.58000 135.623
57.59000 133.423
57.60000 131.521
57.61000 136.199
57.62000 143.574
57.63000 150.463
57.64000 146.213
57.65000 139.561
57.66000 134.115
57.67000 136.604
57.68000 140.538
57.69000 143.590
57.70000 142.908
57.71000 141.807
57.72000 140.980
57.73000 146.024
57.74000 150.247
57.75000 150.573
57.76000 143.397
57.77000 136.032
57.78000 130.515
57.79000 127.375
57.80000 124.248
57.81000 126.314
57.82000 132.668
57.83000 138.929
57.84000 140.782
57.85000 140.205
57.86000 139.676
57.87000 140.045
57.88000 140.750
57.89000 141.400
57.90000 139.845
57.91000 137.953
57.92000 136.035
57.93000 133.968
57.94000 131.876
57.95000 130.177
57.96000 129.982
57.97000 129.936
57.98000 129.902
57.99000 136.485
58.00000 141.824
58.01000 143.731
58.02000 139.623
58.03000 135.404
58.04000 136.679
58.05000 144.332
58.06000 151.973
58.07000 152.433
58.08000 147.549
58.09000 142.671
58.10000 137.991
58.11000 133.410
58.12000 129.305
58.13000 132.506
58.14000 138.193
58.15000 143.383
58.16000 143.154
58.17000 141.856
58.18000 140.943
58.19000 142.060
58.20000 143.474
58.21000 144.133
58.22000 142.163
58.23000 139.967
58.24000 138.406
58.25000 136.695
58.26000 135.387
58.27000 134.848
58.28000 135.535
58.29000 136.238
58.30000 135.359
58.31000 132.830
58.32000 130.315
58.33000 131.876
58.34000 136.151
58.35000 140.270
58.36000 139.972
58.37000 137.654
58.38000 135.336
58.39000 133.008
58.40000 130.678
58.41000 128.579
58.42000 130.013
58.43000 131.907
58.44000 133.488
58.45000 133.579
58.46000 133.477
58.47000 134.112
58.48000 137.083
58.49000 140.225
58.50000 142.392
58.51000 134.782
58.52000 128.819
58.53000 126.839
58.54000 130.611
58.55000 134.429
58.56000 134.771
58.57000 131.857
58.58000 128.967
58.59000 128.464
58.60000 129.412
58.61000 130.427
58.62000 132.945
58.63000 136.091
58.64000 138.536
58.65000 133.044
58.66000 125.320
58.67000 118.460
58.68000 124.986
58.69000 132.794
58.70000 138.639
58.71000 136.036
58.72000 132.464
58.73000 130.968
58.74000 135.459
58.75000 140.325
58.76000 143.573
58.77000 143.357
58.78000 143.131
58.79000 142.654
58.80000 141.851
58.81000 141.047
58.82000 140.316
58.83000 139.647
58.84000 138.986
58.85000 137.328
58.86000 135.170
58.87000 133.226
58.88000 135.323
58.89000 138.954
58.90000 141.947
58.91000 138.650
58.92000 133.747
58.93000 129.458
58.94000 130.785
58.95000 132.723
58.96000 133.993
58.97000 132.660
58.98000 131.065
58.99000 130.103
59.00000 130.803
59.01000 131.590
59.02000 132.098
59.03000 134.657
59.04000 136.555
59.05000 137.721
59.06000 138.022
59.07000 138.322
59.08000 138.435
59.09000 138.407
59.10000 138.380
59.11000 136.719
59.12000 134.312
59.13000 132.092
59.14000 132.855
59.15000 134.648
59.16000 136.122
59.17000 134.837
59.18000 132.914
59.19000 131.258
59.20000 130.376
59.21000 129.726
59.22000 130.328
59.23000 135.362
59.24000 140.785
59.25000 143.601
59.26000 140.183
59.27000 136.494
59.28000 134.203
59.29000 127.946
59.30000 123.404
59.31000 123.461
59.32000 128.406
59.33000 133.328
59.34000 135.399
59.35000 135.503
59.36000 135.604
59.37000 135.574
59.38000 135.487
59.39000 135.299
59.40000 133.749
59.41000 131.771
59.42000 130.041
59.43000 130.217
59.44000 130.791
59.45000 131.276
59.46000 129.806
59.47000 128.359
59.48000 127.076
59.49000 126.316
59.50000 125.596
59.51000 125.250
59.52000 125.719
59.53000 126.216
59.54000 126.512
59.55000 126.194
59.56000 125.964
59.57000 125.303
59.58000 124.231
59.59000 123.188
59.60000 124.378
59.61000 126.964
59.62000 129.476
59.63000 129.830
59.64000 129.301
59.65000 128.861
59.66000 129.459
59.67000 130.354
59.68000 131.238
59.69000 132.048
59.70000 132.845
59.71000 133.506
59.72000 135.794
59.73000 137.843
59.74000 138.894
59.75000 137.023
59.76000 134.964
59.77000 133.164
59.78000 131.878
59.79000 130.606
59.80000 129.879
59.81000 126.307
59.82000 123.808
59.83000 124.826
59.84000 128.860
59.85000 132.798
59.86000 131.654
59.87000 127.622
59.88000 123.735
59.89000 124.112
59.90000 126.010
59.91000 127.902
59.92000 129.727
59.93000 131.533
59.94000 132.985
59.95000 132.274
59.96000 131.197
59.97000 130.321
59.98000 130.477
59.99000 130.691
60.00000 130.575
60.01000 129.578
60.02000 128.533
60.03000 130.060
60.04000 136.232
60.05000 142.499
60.06000 145.921
60.07000 136.727
60.08000 130.404
60.09000 126.632
60.10000 124.834
60.11000 123.123
60.12000 124.836
60.13000 128.320
60.14000 131.652
60.15000 130.202
60.16000 127.290
60.17000 124.751
60.18000 125.511
60.19000 127.045
60.20000 128.473
60.21000 129.318
60.22000 130.073
60.23000 130.676
60.24000 132.035
60.25000 133.186
60.26000 133.802
60.27000 133.118
60.28000 132.375
60.29000 130.890
60.30000 128.187
60.31000 125.465
60.32000 124.051
60.33000 128.334
60.34000 131.222
60.35000 133.300
60.36000 134.812
60.37000 136.322
60.38000 137.799
60.39000 139.261
60.40000 140.647
60.41000 138.893
60.42000 136.353
60.43000 133.893
60.44000 132.069
60.45000 130.379
60.46000 128.630
60.47000 126.585
60.48000 124.501
60.49000 122.878
60.50000 125.925
60.51000 128.640
60.52000 129.430
60.53000 125.960
60.54000 122.336
60.55000 121.843
60.56000 126.018
60.57000 130.238
60.58000 130.953
60.59000 128.271
60.60000 125.646
60.61000 127.740
60.62000 132.832
60.63000 137.731
60.64000 137.911
60.65000 136.067
60.66000 134.335
60.67000 132.780
60.68000 131.410
60.69000 129.974
60.70000 128.085
60.71000 126.110
60.72000 124.656
60.73000 125.522
60.74000 126.665
60.75000 127.534
60.76000 128.461
60.77000 129.194
60.78000 130.048
60.79000 131.147
60.80000 132.254
60.81000 132.751
60.82000 132.424
60.83000 132.093
60.84000 132.236
60.85000 132.790
60.86000 133.311
60.87000 131.947
60.88000 129.494
60.89000 127.343
60.90000 131.208
60.91000 137.426
60.92000 143.200
60.93000 141.869
60.94000 138.981
60.95000 135.581
60.96000 129.009
60.97000 121.891
60.98000 117.148
60.99000 121.968
61.00000 127.793
61.01000 132.109
61.02000 133.193
61.03000 133.895
61.04000 133.628
61.05000 131.585
61.06000 129.504
61.07000 129.590
61.08000 132.320
61.09000 135.051
61.10000 136.457
61.11000 136.819
61.12000 137.163
61.13000 136.727
61.14000 135.881
61.15000 135.125
61.16000 135.873
61.17000 137.156
61.18000 138.334
61.19000 136.462
61.20000 134.143
61.21000 131.966
61.22000 130.582
61.23000 129.320
61.24000 128.246
61.25000 127.855
61.26000 127.528
61.27000 127.292
61.28000 131.888
61.29000 135.580
61.30000 137.657
61.31000 137.039
61.32000 136.378
61.33000 138.287
61.34000 143.022
61.35000 147.739
61.36000 146.222
61.37000 140.327
61.38000 134.585
61.39000 133.738
61.40000 135.231
61.41000 136.480
61.42000 134.273
61.43000 130.945
61.44000 127.928
61.45000 132.366
61.46000 137.701
61.47000 143.720
61.48000 153.166
61.49000 163.082
61.50000 170.146
61.51000 167.750
61.52000 164.603
61.53000 162.400
61.54000 179.581
61.55000 193.121
61.56000 204.172
61.57000 211.453
61.58000 218.695
61.59000 227.247
61.60000 237.093
61.61000 246.871
61.62000 252.703
61.63000 255.939
61.64000 259.164
61.65000 262.130
61.66000 264.984
61.67000 267.696
61.68000 268.690
61.69000 269.177
61.70000 269.613
61.71000 271.356
61.72000 273.098
61.73000 274.246
61.74000 272.707
61.75000 270.841
61.76000 266.421
61.77000 254.290
61.78000 241.634
61.79000 233.051
61.80000 216.984
61.81000 204.837
61.82000 193.551
61.83000 183.448
61.84000 173.354
61.85000 165.476
61.86000 159.563
61.87000 153.712
61.88000 154.418
61.89000 158.866
61.90000 162.834
61.91000 156.892
61.92000 147.017
61.93000 138.106
61.94000 139.347
61.95000 143.306
61.96000 146.795
61.97000 145.474
61.98000 143.609
61.99000 141.808
62.00000 140.265
62.01000 138.750
62.02000 137.253
62.03000 135.804
62.04000 134.357
62.05000 133.408
62.06000 141.489
62.07000 147.581
62.08000 149.221
62.09000 145.333
62.10000 141.445
62.11000 142.210
62.12000 146.699
62.13000 151.121
62.14000 148.122
62.15000 141.374
62.16000 134.944
62.17000 133.971
62.18000 134.970
62.19000 136.154
62.20000 139.037
62.21000 142.333
62.22000 145.192
62.23000 141.235
62.24000 136.953
62.25000 134.303
62.26000 137.702
62.27000 141.669
62.28000 144.205
62.29000 143.160
62.30000 141.943
62.31000 141.174
62.32000 142.953
62.33000 144.273
62.34000 144.496
62.35000 143.490
62.36000 142.477
62.37000 140.400
62.38000 137.554
62.39000 134.764
62.40000 133.059
62.41000 131.924
62.42000 131.008
62.43000 133.266
62.44000 136.569
62.45000 139.682
62.46000 141.245
62.47000 142.469
62.48000 143.513
62.49000 140.827
62.50000 138.127
62.51000 135.976
62.52000 135.673
62.53000 135.521
62.54000 136.391
62.55000 139.589
62.56000 142.878
62.57000 144.880
62.58000 141.962
62.59000 139.839
62.60000 139.987
62.61000 142.417
62.62000 144.852
62.63000 147.744
62.64000 150.936
62.65000 154.046
62.66000 154.935
62.67000 154.847
62.68000 154.446
62.69000 150.151
62.70000 144.689
62.71000 139.954
62.72000 140.455
62.73000 141.994
62.74000 143.284
62.75000 140.528
62.76000 137.818
62.77000 136.255
62.78000 138.208
62.79000 140.407
62.80000 143.213
62.81000 147.279
62.82000 151.384
62.83000 153.781
62.84000 148.920
62.85000 145.468
62.86000 144.207
62.87000 144.924
62.88000 145.613
62.89000 144.568
62.90000 142.491
62.91000 140.482
62.92000 140.385
62.93000 141.022
62.94000 141.744
62.95000 143.375
62.96000 145.254
62.97000 146.780
62.98000 146.038
62.99000 144.891
63.00000 143.949
63.01000 139.945
63.02000 136.381
63.03000 136.228
63.04000 145.594
63.05000 155.523
63.06000 160.098
63.07000 154.547
63.08000 148.757
63.09000 145.522
63.10000 148.879
63.11000 151.209
63.12000 149.989
63.13000 145.883
63.14000 141.793
63.15000 138.401
63.16000 135.387
63.17000 132.493
63.18000 137.082
63.19000 143.945
63.20000 150.231
63.21000 151.082
63.22000 150.591
63.23000 149.631
63.24000 145.969
63.25000 141.875
63.26000 138.578
63.27000 142.565
63.28000 146.368
63.29000 148.189
63.30000 144.976
63.31000 141.514
63.32000 140.746
63.33000 144.611
63.34000 148.557
63.35000 150.659
63.36000 150.815
63.37000 150.928
63.38000 152.292
63.39000 154.577
63.40000 156.725
63.41000 154.181
63.42000 149.324
63.43000 144.700
63.44000 143.346
63.45000 143.105
63.46000 143.553
63.47000 149.722
63.48000 157.168
63.49000 162.182
63.50000 154.601
63.51000 145.223
63.52000 137.837
63.53000 139.225
63.54000 140.923
63.55000 142.514
63.56000 143.859
63.57000 145.194
63.58000 146.640
63.59000 148.260
63.60000 149.882
63.61000 150.703
63.62000 149.929
63.63000 149.391
63.64000 146.821
63.65000 142.896
63.66000 139.171
63.67000 140.866
63.68000 144.994
63.69000 148.889
63.70000 148.828
63.71000 147.670
63.72000 146.868
63.73000 148.682
63.74000 151.023
63.75000 152.196
63.76000 147.913
63.77000 142.937
63.78000 139.110
63.79000 141.530
63.80000 143.800
63.81000 144.984
63.82000 143.880
63.83000 142.703
63.84000 143.187
63.85000 146.027
63.86000 148.883
63.87000 152.874
63.88000 157.903
63.89000 162.860
63.90000 162.955
63.91000 160.111
63.92000 157.272
63.93000 154.544
63.94000 151.861
63.95000 149.356
63.96000 152.830
63.97000 157.477
63.98000 161.658
63.99000 162.790
64.00000 163.368
64.01000 164.405
64.02000 167.380
64.03000 170.573
64.04000 172.968
64.05000 163.737
64.06000 155.974
64.07000 150.345
64.08000 148.816
64.09000 147.389
64.10000 147.809
64.11000 150.598
64.12000 153.393
64.13000 157.159
64.14000 161.714
64.15000 166.238
64.16000 169.268
64.17000 171.476
64.18000 173.399
64.19000 170.114
64.20000 164.890
64.21000 160.066
64.22000 162.773
64.23000 166.893
64.24000 170.035
64.25000 167.441
64.26000 163.914
64.27000 160.710
64.28000 158.745
64.29000 156.901
64.30000 155.554
64.31000 157.204
64.32000 158.593
64.33000 156.736
64.34000 149.210
64.35000 141.580
64.36000 141.548
64.37000 150.311
64.38000 159.061
64.39000 162.494
64.40000 161.961
64.41000 161.425
64.42000 160.780
64.43000 160.081
64.44000 159.593
64.45000 162.342
64.46000 166.190
64.47000 169.700
64.48000 170.961
64.49000 171.627
64.50000 172.054
64.51000 171.222
64.52000 170.207
64.53000 169.971
64.54000 172.445
64.55000 175.150
64.56000 177.070
64.57000 176.124
64.58000 175.314
64.59000 174.234
64.60000 172.726
64.61000 171.214
64.62000 169.104
64.63000 166.373
64.64000 163.656
64.65000 164.342
64.66000 167.291
64.67000 170.241
64.68000 173.188
64.69000 176.135
64.70000 178.726
64.71000 176.670
64.72000 173.180
64.73000 170.038
64.74000 171.182
64.75000 172.956
64.76000 174.745
64.77000 176.604
64.78000 178.472
64.79000 180.054
64.80000 180.730
64.81000 181.339
64.82000 181.759
64.83000 183.496
64.84000 184.833
64.85000 186.494
64.86000 188.622
64.87000 190.753
64.88000 189.670
64.89000 185.587
64.90000 181.538
64.91000 180.494
64.92000 181.278
64.93000 182.144
64.94000 184.838
64.95000 188.291
64.96000 191.773
64.97000 195.576
64.98000 199.469
64.99000 202.924
65.00000 202.179
65.01000 200.862
65.02000 199.809
65.03000 199.890
65.04000 200.101
65.05000 199.757
65.06000 197.815
65.07000 195.775
65.08000 194.414
65.09000 192.405
65.10000 190.905
65.11000 192.325
65.12000 197.552
65.13000 202.789
65.14000 204.973
65.15000 204.591
65.16000 204.214
65.17000 208.745
65.18000 215.828
65.19000 222.687
65.20000 225.354
65.21000 226.436
65.22000 227.205
65.23000 224.894
65.24000 221.799
65.25000 219.092
65.26000 220.846
65.27000 222.981
65.28000 225.045
65.29000 226.833
65.30000 228.594
65.31000 231.118
65.32000 235.639
65.33000 240.265
65.34000 243.244
65.35000 243.547
65.36000 243.731
65.37000 244.519
65.38000 246.019
65.39000 247.521
65.40000 249.255
65.41000 251.164
65.42000 253.039
65.43000 257.389
65.44000 262.806
65.45000 268.049
65.46000 270.552
65.47000 272.112
65.48000 273.982
65.49000 278.533
65.50000 283.702
65.51000 288.148
65.52000 291.368
65.53000 293.939
65.54000 296.879
65.55000 301.118
65.56000 305.470
65.57000 308.202
65.58000 307.067
65.59000 305.765
65.60000 304.957
65.61000 314.715
65.62000 321.839
65.63000 335.193
65.64000 355.145
65.65000 375.055
65.66000 389.789
65.67000 400.965
65.68000 411.886
65.69000 451.666
65.70000 502.559
65.71000 553.683
65.72000 607.911
65.73000 663.111
65.74000 718.189
65.75000 772.323
65.76000 826.261
65.77000 871.854
65.78000 932.764
65.79000 985.403
65.80000 1029.331
65.81000 1045.318
65.82000 1059.199
65.83000 1069.847
65.84000 1073.468
65.85000 1076.844
65.86000 1078.857
65.87000 1081.645
65.88000 1083.626
65.89000 1088.800
65.90000 1097.005
65.91000 1104.818
65.92000 1082.873
65.93000 1042.369
65.94000 1003.044
65.95000 941.921
65.96000 875.188
65.97000 809.134
65.98000 750.916
65.99000 694.931
66.00000 638.257
66.01000 576.906
66.02000 514.677
66.03000 463.048
66.04000 441.404
66.05000 426.407
66.06000 409.629
66.07000 387.651
66.08000 365.339
66.09000 348.933
66.10000 344.221
66.11000 339.824
66.12000 337.314
66.13000 327.355
66.14000 320.383
66.15000 315.347
66.16000 311.965
66.17000 308.619
66.18000 307.184
66.19000 306.833
66.20000 306.493
66.21000 311.554
66.22000 318.261
66.23000 324.985
66.24000 331.888
66.25000 338.838
66.26000 345.688
66.27000 351.932
66.28000 358.075
66.29000 363.071
66.30000 384.911
66.31000 404.148
66.32000 418.821
66.33000 421.355
66.34000 423.235
66.35000 427.663
66.36000 436.682
66.37000 445.794
66.38000 450.763
66.39000 448.269
66.40000 446.568
66.41000 449.996
66.42000 457.380
66.43000 464.577
66.44000 464.413
66.45000 460.453
66.46000 456.666
66.47000 448.764
66.48000 440.069
66.49000 431.915
66.50000 428.523
66.51000 426.247
66.52000 422.395
66.53000 409.948
66.54000 396.204
66.55000 385.262
66.56000 372.209
66.57000 361.534
66.58000 351.606
66.59000 343.489
66.60000 335.453
66.61000 329.507
66.62000 326.985
66.63000 324.512
66.64000 323.229
66.65000 319.244
66.66000 316.577
66.67000 316.857
66.68000 319.195
66.69000 321.494
66.70000 322.580
66.71000 323.098
66.72000 323.589
66.73000 327.306
66.74000 331.676
66.75000 335.001
66.76000 330.187
66.77000 323.648
66.78000 318.714
66.79000 321.653
66.80000 325.651
66.81000 328.762
66.82000 327.691
66.83000 326.581
66.84000 327.323
66.85000 332.148
66.86000 337.121
66.87000 338.888
66.88000 335.889
66.89000 332.845
66.90000 330.631
66.91000 329.218
66.92000 327.893
66.93000 333.718
66.94000 344.071
66.95000 353.946
66.96000 352.189
66.97000 345.457
66.98000 339.139
66.99000 340.050
67.00000 342.787
67.01000 346.156
67.02000 353.901
67.03000 362.481
67.04000 369.411
67.05000 369.024
67.06000 367.767
67.07000 366.811
67.08000 366.994
67.09000 367.196
67.10000 366.575
67.11000 364.297
67.12000 361.973
67.13000 365.346
67.14000 376.390
67.15000 387.468
67.16000 389.046
67.17000 382.377
67.18000 375.879
67.19000 378.901
67.20000 387.401
67.21000 395.502
67.22000 395.632
67.23000 392.657
67.24000 389.894
67.25000 395.452
67.26000 402.435
67.27000 407.790
67.28000 403.083
67.29000 396.648
67.30000 393.405
67.31000 402.973
67.32000 413.883
67.33000 421.958
67.34000 411.379
67.35000 402.366
67.36000 399.885
67.37000 409.354
67.38000 419.079
67.39000 425.216
67.40000 426.987
67.41000 428.745
67.42000 426.652
67.43000 421.566
67.44000 416.525
67.45000 413.298
67.46000 411.021
67.47000 409.280
67.48000 416.458
67.49000 426.801
67.50000 436.292
67.51000 437.223
67.52000 436.235
67.53000 435.137
67.54000 433.433
67.55000 431.637
67.56000 430.712
67.57000 432.960
67.58000 435.499
67.59000 437.327
67.60000 430.744
67.61000 425.405
67.62000 424.766
67.63000 431.945
67.64000 439.243
67.65000 442.214
67.66000 440.443
67.67000 438.677
67.68000 439.919
67.69000 443.263
67.70000 446.716
67.71000 453.641
67.72000 462.222
67.73000 470.514
67.74000 474.755
67.75000 477.685
67.76000 480.341
67.77000 476.047
67.78000 470.941
67.79000 468.804
67.80000 481.487
67.81000 496.199
67.82000 507.738
67.83000 508.777
67.84000 508.986
67.85000 509.132
67.86000 505.562
67.87000 502.759
67.88000 504.054
67.89000 511.537
67.90000 519.082
67.91000 526.688
67.92000 534.352
67.93000 541.963
67.94000 541.781
67.95000 536.665
67.96000 531.674
67.97000 529.807
67.98000 529.296
67.99000 529.209
68.00000 534.240
68.01000 540.776
68.02000 546.619
68.03000 538.463
68.04000 528.983
68.05000 521.792
68.06000 524.913
68.07000 529.286
68.08000 534.141
68.09000 540.444
68.10000 546.845
68.11000 551.182
68.12000 575.890
68.13000 594.756
68.14000 601.525
68.15000 591.738
68.16000 581.860
68.17000 580.125
68.18000 585.589
68.19000 590.996
68.20000 592.264
68.21000 591.139
68.22000 590.312
68.23000 595.578
68.24000 603.255
68.25000 611.198
68.26000 621.932
68.27000 633.411
68.28000 643.523
68.29000 642.250
68.30000 639.439
68.31000 639.391
68.32000 650.608
68.33000 663.030
68.34000 674.214
68.35000 682.006
68.36000 689.603
68.37000 694.580
68.38000 707.163
68.39000 716.538
68.40000 721.862
68.41000 722.175
68.42000 722.503
68.43000 732.051
68.44000 748.951
68.45000 765.597
68.46000 774.377
68.47000 778.837
68.48000 783.356
68.49000 788.882
68.50000 794.770
68.51000 801.564
68.52000 816.687
68.53000 833.826
68.54000 848.688
68.55000 869.680
68.56000 888.371
68.57000 910.513
68.58000 945.418
68.59000 981.517
68.60000 1018.439
68.61000 1057.416
68.62000 1096.490
68.63000 1121.181
68.64000 1169.196
68.65000 1204.262
68.66000 1250.882
68.67000 1310.388
68.68000 1369.895
68.69000 1428.083
68.70000 1485.319
68.71000 1541.406
68.72000 1597.069
68.73000 1650.417
68.74000 1704.080
68.75000 1762.292
68.76000 1821.995
68.77000 1882.557
68.78000 1950.070
68.79000 2019.104
68.80000 2077.963
68.81000 2170.898
68.82000 2253.091
68.83000 2350.927
68.84000 2501.312
68.85000 2655.957
68.86000 2826.288
68.87000 3032.295
68.88000 3239.682
68.89000 3365.772
68.90000 4109.296
68.91000 4644.984
68.92000 5655.337
68.93000 7141.114
68.94000 8637.906
68.95000 11157.476
68.96000 14345.561
68.97000 17450.840
68.98000 21788.477
68.99000 26442.039
69.00000 31088.605
69.01000 35648.504
69.02000 40182.527
69.03000 44527.844
69.04000 47516.730
69.05000 50237.559
69.06000 52515.770
69.07000 53848.563
69.08000 54859.141
69.09000 55656.516
69.10000 55802.449
69.11000 55903.113
69.12000 56171.816
69.13000 56788.621
69.14000 57416.098
69.15000 57782.121
69.16000 58702.891
69.17000 59352.391
69.18000 59257.461
69.19000 58493.023
69.20000 57707.656
69.21000 55617.457
69.22000 52752.715
69.23000 49981.371
69.24000 46945.629
69.25000 43978.148
69.26000 41047.961
69.27000 38518.191
69.28000 36097.000
69.29000 33807.746
69.30000 32364.203
69.31000 31071.021
69.32000 30008.930
69.33000 29194.316
69.34000 28547.557
69.35000 27867.697
69.36000 27095.770
69.37000 26318.426
69.38000 25200.961
69.39000 23442.012
69.40000 21668.000
69.41000 20678.254
69.42000 17133.676
69.43000 14675.690
69.44000 12519.263
69.45000 10607.264
69.46000 8704.038
69.47000 7195.870
69.48000 5900.967
69.49000 4657.838
69.50000 3867.686
69.51000 3283.741
69.52000 2725.939
69.53000 2413.497
69.54000 2161.398
69.55000 1928.093
69.56000 1802.687
69.57000 1694.478
69.58000 1607.421
69.59000 1541.002
69.60000 1488.729
69.61000 1433.980
69.62000 1372.954
69.63000 1311.620
69.64000 1259.050
69.65000 1221.512
69.66000 1184.232
69.67000 1164.409
69.68000 1120.495
69.69000 1090.604
69.70000 1063.439
69.71000 1038.271
69.72000 1012.931
69.73000 981.708
69.74000 947.593
69.75000 915.120
69.76000 900.271
69.77000 891.960
69.78000 884.347
69.79000 882.492
69.80000 881.918
69.81000 877.308
69.82000 851.862
69.83000 823.452
69.84000 801.094
69.85000 792.513
69.86000 786.555
69.87000 776.502
69.88000 756.999
69.89000 737.117
69.90000 720.373
69.91000 708.522
69.92000 696.728
69.93000 690.774
69.94000 693.800
69.95000 695.751
69.96000 690.453
69.97000 680.341
69.98000 670.438
69.99000 666.143
70.00000 664.358
