20.00000 554.673
20.01000 563.695
20.02000 574.006
20.03000 580.558
20.04000 572.421
20.05000 562.800
20.06000 555.731
20.07000 554.964
20.08000 554.629
20.09000 557.796
20.10000 567.209
20.11000 576.744
20.12000 579.177
20.13000 573.206
20.14000 567.235
20.15000 558.246
20.16000 547.025
20.17000 536.113
20.18000 536.954
20.19000 543.793
20.20000 550.364
20.21000 552.697
20.22000 553.563
20.23000 554.355
20.24000 558.370
20.25000 562.603
20.26000 565.745
20.27000 563.012
20.28000 559.403
20.29000 556.595
20.30000 556.627
20.31000 556.908
20.32000 557.108
20.33000 549.136
20.34000 542.780
20.35000 545.295
20.36000 562.187
20.37000 579.277
20.38000 580.230
20.39000 563.997
20.40000 547.838
20.41000 545.317
20.42000 552.140
20.43000 558.946
20.44000 565.244
20.45000 571.305
20.46000 576.690
20.47000 572.945
20.48000 566.325
20.49000 560.348
20.50000 554.222
20.51000 548.811
20.52000 545.525
20.53000 552.548
20.54000 560.938
20.55000 565.285
20.56000 556.601
20.57000 546.927
20.58000 540.220
20.59000 538.469
20.60000 537.283
20.61000 540.824
20.62000 551.318
20.63000 561.874
20.64000 562.542
20.65000 553.765
20.66000 545.056
20.67000 544.014
20.68000 547.711
20.69000 551.099
20.70000 547.162
20.71000 540.123
20.72000 533.471
20.73000 531.315
20.74000 530.448
20.75000 529.675
20.76000 537.256
20.77000 545.213
20.78000 551.785
20.79000 552.287
20.80000 552.077
20.81000 551.032
20.82000 547.541
20.83000 543.892
20.84000 541.441
20.85000 543.408
20.86000 544.958
20.87000 545.984
20.88000 546.311
20.89000 546.630
20.90000 544.061
20.91000 539.009
20.92000 534.017
20.93000 534.475
20.94000 537.951
20.95000 541.503
20.96000 546.557
20.97000 552.191
20.98000 557.072
20.99000 554.345
21.00000 549.640
21.01000 545.513
21.02000 546.926
21.03000 548.946
21.04000 549.352
21.05000 543.347
21.06000 536.681
21.07000 534.029
21.08000 542.101
21.09000 550.757
21.10000 556.373
21.11000 556.244
21.12000 556.063
21.13000 557.259
21.14000 560.111
21.15000 562.933
21.16000 557.308
21.17000 545.130
21.18000 533.150
21.19000 532.505
21.20000 537.565
21.21000 542.232
21.22000 540.490
21.23000 536.498
21.24000 533.219
21.25000 536.281
21.26000 540.836
21.27000 544.768
21.28000 542.692
21.29000 540.155
21.30000 536.719
21.31000 530.041
21.32000 523.072
21.33000 519.637
21.34000 524.804
21.35000 530.358
21.36000 533.832
21.37000 533.577
21.38000 533.354
21.39000 531.509
21.40000 527.906
21.41000 524.359
21.42000 528.263
21.43000 537.395
21.44000 546.331
21.45000 546.398
21.46000 542.447
21.47000 538.466
21.48000 534.072
21.49000 529.546
21.50000 525.515
21.51000 525.360
21.52000 526.032
21.53000 526.601
21.54000 531.075
21.55000 535.269
21.56000 538.877
21.57000 540.565
21.58000 542.104
21.59000 540.875
21.60000 533.506
21.61000 525.914
21.62000 521.348
21.63000 524.984
21.64000 527.625
21.65000 530.652
21.66000 534.054
21.67000 537.452
21.68000 540.518
21.69000 543.372
21.70000 546.147
21.71000 548.817
21.72000 551.312
21.73000 553.328
21.74000 549.634
21.75000 544.279
21.76000 539.519
21.77000 538.907
21.78000 539.090
21.79000 539.243
21.80000 552.421
21.81000 564.631
21.82000 574.302
21.83000 576.406
21.84000 578.008
21.85000 578.329
21.86000 576.066
21.87000 573.729
21.88000 572.382
21.89000 590.205
21.90000 602.752
21.91000 609.629
21.92000 611.550
21.93000 613.543
21.94000 619.586
21.95000 627.972
21.96000 636.068
21.97000 635.847
21.98000 632.570
21.99000 629.578
22.00000 629.528
22.01000 630.254
22.02000 631.977
22.03000 639.894
22.04000 648.880
22.05000 656.220
22.06000 663.065
22.07000 668.625
22.08000 669.258
22.09000 656.529
22.10000 643.051
22.11000 637.258
22.12000 645.590
22.13000 654.228
22.14000 658.987
22.15000 669.671
22.16000 677.003
22.17000 672.824
22.18000 659.571
22.19000 646.586
22.20000 644.710
22.21000 648.680
22.22000 652.482
22.23000 649.098
22.24000 643.550
22.25000 638.683
22.26000 639.985
22.27000 642.765
22.28000 644.735
22.29000 642.195
22.30000 638.959
22.31000 636.370
22.32000 628.971
22.33000 622.632
22.34000 618.410
22.35000 619.418
22.36000 620.669
22.37000 618.081
22.38000 609.079
22.39000 599.976
22.40000 595.202
22.41000 581.981
22.42000 573.049
22.43000 568.289
22.44000 566.506
22.45000 564.882
22.46000 568.377
22.47000 574.324
22.48000 579.971
22.49000 574.350
22.50000 565.783
22.51000 557.519
22.52000 551.683
22.53000 546.373
22.54000 541.602
22.55000 539.537
22.56000 537.845
22.57000 536.522
22.58000 528.464
22.59000 521.602
22.60000 518.973
22.61000 525.871
22.62000 533.128
22.63000 536.224
22.64000 533.003
22.65000 529.717
22.66000 530.056
22.67000 533.982
22.68000 537.844
22.69000 536.117
22.70000 530.776
22.71000 525.589
22.72000 524.313
22.73000 524.743
22.74000 525.147
22.75000 526.120
22.76000 527.162
22.77000 527.512
22.78000 522.948
22.79000 517.425
22.80000 511.987
22.81000 506.933
22.82000 501.925
22.83000 498.102
22.84000 496.732
22.85000 495.785
22.86000 495.100
22.87000 494.955
22.88000 494.826
22.89000 495.218
22.90000 496.327
22.91000 497.439
22.92000 504.563
22.93000 517.016
22.94000 529.252
22.95000 528.549
22.96000 520.246
22.97000 512.449
22.98000 515.131
22.99000 521.979
23.00000 528.353
23.01000 525.362
23.02000 520.388
23.03000 515.877
23.04000 514.284
23.05000 513.205
23.06000 511.914
23.07000 509.756
23.08000 507.505
23.09000 505.829
23.10000 515.122
23.11000 522.846
23.12000 526.288
23.13000 521.738
23.14000 517.007
23.15000 512.868
23.16000 509.465
23.17000 506.070
23.18000 500.639
23.19000 493.608
23.20000 486.688
23.21000 484.661
23.22000 485.249
23.23000 486.199
23.24000 493.414
23.25000 502.897
23.26000 511.622
23.27000 494.329
23.28000 473.218
23.29000 457.264
23.30000 470.564
23.31000 488.469
23.32000 503.068
23.33000 505.381
23.34000 506.537
23.35000 507.375
23.36000 505.653
23.37000 504.237
23.38000 501.301
23.39000 495.784
23.40000 490.224
23.41000 488.029
23.42000 489.606
23.43000 491.180
23.44000 493.808
23.45000 497.169
23.46000 500.523
23.47000 503.627
23.48000 506.609
23.49000 509.011
23.50000 502.967
23.51000 494.138
23.52000 486.115
23.53000 486.805
23.54000 489.110
23.55000 492.183
23.56000 499.179
23.57000 506.725
23.58000 511.203
23.59000 505.323
23.60000 498.596
23.61000 493.863
23.62000 492.831
23.63000 492.158
23.64000 491.489
23.65000 490.827
23.66000 490.165
23.67000 487.250
23.68000 482.063
23.69000 476.910
23.70000 476.032
23.71000 477.936
23.72000 479.880
23.73000 482.878
23.74000 486.342
23.75000 489.794
23.76000 493.087
23.77000 496.332
23.78000 499.241
23.79000 489.431
23.80000 478.652
23.81000 471.673
23.82000 482.188
23.83000 494.884
23.84000 503.297
23.85000 498.560
23.86000 492.902
23.87000 489.042
23.88000 490.364
23.89000 491.472
23.90000 493.722
23.91000 497.569
23.92000 501.423
23.93000 499.075
23.94000 491.119
23.95000 483.241
23.96000 478.042
23.97000 474.516
23.98000 471.191
23.99000 472.156
24.00000 474.854
24.01000 477.558
24.02000 480.327
24.03000 483.115
24.04000 485.578
24.05000 484.725
24.06000 483.476
24.07000 482.187
24.08000 480.730
24.09000 479.254
24.10000 478.119
24.11000 477.937
24.12000 477.811
24.13000 477.728
24.14000 487.345
24.15000 494.605
24.16000 497.397
24.17000 494.538
24.18000 491.641
24.19000 481.298
24.20000 464.887
24.21000 448.705
24.22000 453.366
24.23000 468.881
24.24000 483.896
24.25000 490.034
24.26000 492.908
24.27000 495.144
24.28000 491.353
24.29000 486.073
24.30000 481.479
24.31000 480.005
24.32000 479.174
24.33000 479.517
24.34000 484.287
24.35000 489.485
24.36000 493.724
24.37000 495.524
24.38000 497.204
24.39000 498.274
24.40000 493.478
24.41000 489.917
24.42000 485.966
24.43000 481.569
24.44000 477.183
24.45000 474.751
24.46000 473.759
24.47000 472.786
24.48000 473.492
24.49000 474.971
24.50000 476.424
24.51000 477.471
24.52000 478.383
24.53000 478.938
24.54000 476.526
24.55000 473.450
24.56000 470.818
24.57000 469.271
24.58000 468.098
24.59000 467.449
24.60000 468.601
24.61000 469.904
24.62000 471.326
24.63000 473.025
24.64000 474.736
24.65000 475.785
24.66000 484.398
24.67000 490.633
24.68000 488.556
24.69000 477.959
24.70000 467.430
24.71000 463.891
24.72000 465.017
24.73000 466.115
24.74000 469.522
24.75000 473.768
24.76000 477.559
24.77000 475.534
24.78000 471.738
24.79000 468.854
24.80000 472.692
24.81000 477.887
24.82000 482.255
24.83000 483.765
24.84000 484.720
24.85000 483.517
24.86000 475.583
24.87000 467.165
24.88000 463.892
24.89000 471.487
24.90000 479.434
24.91000 484.112
24.92000 480.748
24.93000 478.332
24.94000 475.355
24.95000 471.862
24.96000 468.405
24.97000 467.365
24.98000 467.790
24.99000 468.202
25.00000 464.619
25.01000 459.678
25.02000 454.895
25.03000 451.846
25.04000 449.279
25.05000 447.689
25.06000 452.521
25.07000 458.522
25.08000 463.471
25.09000 464.615
25.10000 465.204
25.11000 464.938
25.12000 462.244
25.13000 459.401
25.14000 459.256
25.15000 464.302
25.16000 469.478
25.17000 472.393
25.18000 461.036
25.19000 453.138
25.20000 457.416
25.21000 471.783
25.22000 485.907
25.23000 488.398
25.24000 484.483
25.25000 480.717
25.26000 475.374
25.27000 469.814
25.28000 464.439
25.29000 460.840
25.30000 457.688
25.31000 454.662
25.32000 452.377
25.33000 450.213
25.34000 448.464
25.35000 456.190
25.36000 463.232
25.37000 466.209
25.38000 458.679
25.39000 450.614
25.40000 445.841
25.41000 446.833
25.42000 447.932
25.43000 448.522
25.44000 450.919
25.45000 452.546
25.46000 451.915
25.47000 449.595
25.48000 447.391
25.49000 449.368
25.50000 453.441
25.51000 457.326
25.52000 457.283
25.53000 456.004
25.54000 454.627
25.55000 452.414
25.56000 450.012
25.57000 448.488
25.58000 451.602
25.59000 455.392
25.60000 458.389
25.61000 456.455
25.62000 454.562
25.63000 454.751
25.64000 459.843
25.65000 465.139
25.66000 465.743
25.67000 458.879
25.68000 451.921
25.69000 448.368
25.70000 452.616
25.71000 455.460
25.72000 457.366
25.73000 458.636
25.74000 459.775
25.75000 457.231
25.76000 453.005
25.77000 449.011
25.78000 450.964
25.79000 454.445
25.80000 457.597
25.81000 458.264
25.82000 458.422
25.83000 459.828
25.84000 467.174
25.85000 475.289
25.86000 481.560
25.87000 475.136
25.88000 469.298
25.89000 463.910
25.90000 459.488
25.91000 455.098
25.92000 452.665
25.93000 453.055
25.94000 453.468
25.95000 453.514
25.96000 453.216
25.97000 452.958
25.98000 455.588
25.99000 459.995
26.00000 463.998
26.01000 458.758
26.02000 449.674
26.03000 441.176
26.04000 440.745
26.05000 442.413
26.06000 444.332
26.07000 447.930
26.08000 451.838
26.09000 454.199
26.10000 449.907
26.11000 444.853
26.12000 441.043
26.13000 439.094
26.14000 437.658
26.15000 437.980
26.16000 441.736
26.17000 445.582
26.18000 448.555
26.19000 450.388
26.20000 452.215
26.21000 451.579
26.22000 448.875
26.23000 446.194
26.24000 444.643
26.25000 443.725
26.26000 442.996
26.27000 445.810
26.28000 449.968
26.29000 453.815
26.30000 454.167
26.31000 453.682
26.32000 452.805
26.33000 449.585
26.34000 445.974
26.35000 444.794
26.36000 453.081
26.37000 462.320
26.38000 469.104
26.39000 460.220
26.40000 452.717
26.41000 445.956
26.42000 440.512
26.43000 435.095
26.44000 435.164
26.45000 441.707
26.46000 448.244
26.47000 446.683
26.48000 439.011
26.49000 431.493
26.50000 429.740
26.51000 430.922
26.52000 432.226
26.53000 435.453
26.54000 439.344
26.55000 442.901
26.56000 448.009
26.57000 452.866
26.58000 455.616
26.59000 447.049
26.60000 436.802
26.61000 428.263
26.62000 425.767
26.63000 423.801
26.64000 422.397
26.65000 435.727
26.66000 446.382
26.67000 449.615
26.68000 440.855
26.69000 431.932
26.70000 427.219
26.71000 426.975
26.72000 426.733
26.73000 425.624
26.74000 423.936
26.75000 422.372
26.76000 424.424
26.77000 428.153
26.78000 431.516
26.79000 429.965
26.80000 426.871
26.81000 424.078
26.82000 428.190
26.83000 433.071
26.84000 437.562
26.85000 440.171
26.86000 442.532
26.87000 445.649
26.88000 451.199
26.89000 456.934
26.90000 460.906
26.91000 458.452
26.92000 456.437
26.93000 458.051
26.94000 464.988
26.95000 471.970
26.96000 469.825
26.97000 458.989
26.98000 448.239
26.99000 445.840
27.00000 448.611
27.01000 451.046
27.02000 445.570
27.03000 436.752
27.04000 428.908
27.05000 432.330
27.06000 438.970
27.07000 444.880
27.08000 437.349
27.09000 428.612
27.10000 421.399
27.11000 420.851
27.12000 421.081
27.13000 420.367
27.14000 416.887
27.15000 413.230
27.16000 410.777
27.17000 432.319
27.18000 448.796
27.19000 455.021
27.20000 447.632
27.21000 440.181
27.22000 434.763
27.23000 431.087
27.24000 427.454
27.25000 434.979
27.26000 448.498
27.27000 461.298
27.28000 460.170
27.29000 453.684
27.30000 447.171
27.31000 440.391
27.32000 433.542
27.33000 427.538
27.34000 429.627
27.35000 432.596
27.36000 432.083
27.37000 417.788
27.38000 402.076
27.39000 391.617
27.40000 395.149
27.41000 399.438
27.42000 402.218
27.43000 416.296
27.44000 426.770
27.45000 433.150
27.46000 434.621
27.47000 436.066
27.48000 433.228
27.49000 427.081
27.50000 421.034
27.51000 420.673
27.52000 423.166
27.53000 425.436
27.54000 424.083
27.55000 421.462
27.56000 419.448
27.57000 422.813
27.58000 427.441
27.59000 431.434
27.60000 433.865
27.61000 435.728
27.62000 435.865
27.63000 429.810
27.64000 423.199
27.65000 420.261
27.66000 426.235
27.67000 432.608
27.68000 436.589
27.69000 435.772
27.70000 435.133
27.71000 431.454
27.72000 424.492
27.73000 417.607
27.74000 421.065
27.75000 431.759
27.76000 442.221
27.77000 442.175
27.78000 437.387
27.79000 432.895
27.80000 432.488
27.81000 433.384
27.82000 433.783
27.83000 430.306
27.84000 426.006
27.85000 422.359
27.86000 419.378
27.87000 416.954
27.88000 416.020
27.89000 419.947
27.90000 424.250
27.91000 427.395
27.92000 427.980
27.93000 428.473
27.94000 428.769
27.95000 422.312
27.96000 417.677
27.97000 417.977
27.98000 423.059
27.99000 428.125
28.00000 431.860
28.01000 434.751
28.02000 437.562
28.03000 437.128
28.04000 435.394
28.05000 433.525
28.06000 430.065
28.07000 426.143
28.08000 422.531
28.09000 421.068
28.10000 420.017
28.11000 419.143
28.12000 426.610
28.13000 433.620
28.14000 437.944
28.15000 434.298
28.16000 430.123
28.17000 426.458
28.18000 423.817
28.19000 421.206
28.20000 419.703
28.21000 427.218
28.22000 432.505
28.23000 432.109
28.24000 426.764
28.25000 421.481
28.26000 419.758
28.27000 420.088
28.28000 420.407
28.29000 423.060
28.30000 426.418
28.31000 429.120
28.32000 425.068
28.33000 419.236
28.34000 414.906
28.35000 419.881
28.36000 426.458
28.37000 431.826
28.38000 422.622
28.39000 413.841
28.40000 406.863
28.41000 404.762
28.42000 402.932
28.43000 402.902
28.44000 406.168
28.45000 409.506
28.46000 411.342
28.47000 414.771
28.48000 417.127
28.49000 417.106
28.50000 415.216
28.51000 413.343
28.52000 412.201
28.53000 411.441
28.54000 410.714
28.55000 406.039
28.56000 400.371
28.57000 396.312
28.58000 406.780
28.59000 420.714
28.60000 431.894
28.61000 427.765
28.62000 421.278
28.63000 416.092
28.64000 418.203
28.65000 420.450
28.66000 421.061
28.67000 417.641
28.68000 414.035
28.69000 408.415
28.70000 399.437
28.71000 390.407
28.72000 385.678
28.73000 403.094
28.74000 414.828
28.75000 417.131
28.76000 412.728
28.77000 408.460
28.78000 408.499
28.79000 410.595
28.80000 412.585
28.81000 415.360
28.82000 418.155
28.83000 420.274
28.84000 417.013
28.85000 412.591
28.86000 409.714
28.87000 414.565
28.88000 420.478
28.89000 425.098
28.90000 421.950
28.91000 418.946
28.92000 416.861
28.93000 416.840
28.94000 416.897
28.95000 415.817
28.96000 413.015
28.97000 410.196
28.98000 407.140
28.99000 403.850
29.00000 400.547
29.01000 396.126
29.02000 390.984
29.03000 386.188
29.04000 390.109
29.05000 397.825
29.06000 405.079
29.07000 408.211
29.08000 409.963
29.09000 411.896
29.10000 415.108
29.11000 418.569
29.12000 420.582
29.13000 416.050
29.14000 410.722
29.15000 406.657
29.16000 408.184
29.17000 409.686
29.18000 409.994
29.19000 407.857
29.20000 405.648
29.21000 405.094
29.22000 406.810
29.23000 408.538
29.24000 406.639
29.25000 401.532
29.26000 396.449
29.27000 392.756
29.28000 389.876
29.29000 387.295
29.30000 390.836
29.31000 396.804
29.32000 402.356
29.33000 402.533
29.34000 401.395
29.35000 399.693
29.36000 394.443
29.37000 388.570
29.38000 384.931
29.39000 390.416
29.40000 396.880
29.41000 401.688
29.42000 411.186
29.43000 418.784
29.44000 420.941
29.45000 412.972
29.46000 404.775
29.47000 399.172
29.48000 396.786
29.49000 394.413
29.50000 395.611
29.51000 399.645
29.52000 403.674
29.53000 407.511
29.54000 411.246
29.55000 414.728
29.56000 413.880
29.57000 411.468
29.58000 409.249
29.59000 403.136
29.60000 396.830
29.61000 392.295
29.62000 397.773
29.63000 404.821
29.64000 410.674
29.65000 412.097
29.66000 413.104
29.67000 413.832
29.68000 410.672
29.69000 408.103
29.70000 406.414
29.71000 406.214
29.72000 406.039
29.73000 405.509
29.74000 404.583
29.75000 403.660
29.76000 402.482
29.77000 401.132
29.78000 399.968
29.79000 404.939
29.80000 412.884
29.81000 420.492
29.82000 423.206
29.83000 424.310
29.84000 425.312
29.85000 414.862
29.86000 403.409
29.87000 393.857
29.88000 393.977
29.89000 395.449
29.90000 396.788
29.91000 397.678
29.92000 398.532
29.93000 399.132
29.94000 396.522
29.95000 394.451
29.96000 398.754
29.97000 412.858
29.98000 427.070
29.99000 429.126
30.00000 418.978
30.01000 408.895
30.02000 405.264
30.03000 405.849
30.04000 406.469
30.05000 408.013
30.06000 409.966
30.07000 412.149
30.08000 417.195
30.09000 423.099
30.10000 428.389
30.11000 427.735
30.12000 426.135
30.13000 423.670
30.14000 417.235
30.15000 410.306
30.16000 405.587
30.17000 407.635
30.18000 410.155
30.19000 411.872
30.20000 409.951
30.21000 408.432
30.22000 407.852
30.23000 408.581
30.24000 409.320
30.25000 410.188
30.26000 411.173
30.27000 412.148
30.28000 405.908
30.29000 395.600
30.30000 385.857
30.31000 388.107
30.32000 395.185
30.33000 401.406
30.34000 398.403
30.35000 392.894
30.36000 388.028
30.37000 395.121
30.38000 403.085
30.39000 410.100
30.40000 413.176
30.41000 415.822
30.42000 416.948
30.43000 413.840
30.44000 410.482
30.45000 408.268
30.46000 406.660
30.47000 405.485
30.48000 406.749
30.49000 411.088
30.50000 415.418
30.51000 412.723
30.52000 404.320
30.53000 396.036
30.54000 395.467
30.55000 398.969
30.56000 402.498
30.57000 406.513
30.58000 410.706
30.59000 414.659
30.60000 416.351
30.61000 417.486
30.62000 418.474
30.63000 417.344
30.64000 416.092
30.65000 415.800
30.66000 419.121
30.67000 422.787
30.68000 424.188
30.69000 419.835
30.70000 415.199
30.71000 412.249
30.72000 413.961
30.73000 415.264
30.74000 416.756
30.75000 418.465
30.76000 420.154
30.77000 418.598
30.78000 414.660
30.79000 410.796
30.80000 415.718
30.81000 424.628
30.82000 433.085
30.83000 434.798
30.84000 434.259
30.85000 434.497
30.86000 441.168
30.87000 449.274
30.88000 456.208
30.89000 452.225
30.90000 447.554
30.91000 445.490
30.92000 452.336
30.93000 459.924
30.94000 466.752
30.95000 471.820
30.96000 476.817
30.97000 479.878
30.98000 490.129
30.99000 497.529
31.00000 510.584
31.01000 529.417
31.02000 548.174
31.03000 559.299
31.04000 565.344
31.05000 571.240
31.06000 588.907
31.07000 610.821
31.08000 633.218
31.09000 661.765
31.10000 692.181
31.11000 723.824
31.12000 764.479
31.13000 806.949
31.14000 842.631
31.15000 880.565
31.16000 912.407
31.17000 947.667
31.18000 993.553
31.19000 1040.199
31.20000 1089.187
31.21000 1143.110
31.22000 1197.191
31.23000 1228.985
31.24000 1286.322
31.25000 1326.890
31.26000 1377.006
31.27000 1435.877
31.28000 1494.705
31.29000 1550.675
31.30000 1604.917
31.31000 1657.460
31.32000 1693.883
31.33000 1722.112
31.34000 1749.623
31.35000 1769.223
31.36000 1786.640
31.37000 1802.964
31.38000 1812.139
31.39000 1820.017
31.40000 1826.511
31.41000 1806.133
31.42000 1786.889
31.43000 1768.033
31.44000 1750.276
31.45000 1732.585
31.46000 1706.339
31.47000 1663.678
31.48000 1620.612
31.49000 1596.383
31.50000 1539.078
31.51000 1499.211
31.52000 1457.235
31.53000 1413.518
31.54000 1369.592
31.55000 1315.698
31.56000 1256.330
31.57000 1199.252
31.58000 1138.873
31.59000 1081.151
31.60000 1025.174
31.61000 985.979
31.62000 950.985
31.63000 915.300
31.64000 875.564
31.65000 835.170
31.66000 802.546
31.67000 760.348
31.68000 725.280
31.69000 696.294
31.70000 682.979
31.71000 670.460
31.72000 654.001
31.73000 630.665
31.74000 607.203
31.75000 594.614
31.76000 583.077
31.77000 575.170
31.78000 561.184
31.79000 542.663
31.80000 524.126
31.81000 505.040
31.82000 485.678
31.83000 467.219
31.84000 466.732
31.85000 471.932
31.86000 476.078
31.87000 471.317
31.88000 464.536
31.89000 457.806
31.90000 451.344
31.91000 444.921
31.92000 439.846
31.93000 437.993
31.94000 436.725
31.95000 433.021
31.96000 423.596
31.97000 413.933
31.98000 408.582
31.99000 410.074
32.00000 411.651
32.01000 412.455
32.02000 410.703
32.03000 409.532
32.04000 408.794
32.05000 408.349
32.06000 407.746
32.07000 402.713
32.08000 395.663
32.09000 389.002
32.10000 388.090
32.11000 388.880
32.12000 389.968
32.13000 393.286
32.14000 397.061
32.15000 399.338
32.16000 394.511
32.17000 388.766
32.18000 384.331
32.19000 381.899
32.20000 380.088
32.21000 379.372
32.22000 380.998
32.23000 382.703
32.24000 382.693
32.25000 380.216
32.26000 377.719
32.27000 379.615
32.28000 385.607
32.29000 391.527
32.30000 392.328
32.31000 389.988
32.32000 387.489
32.33000 381.372
32.34000 373.754
32.35000 366.630
32.36000 366.101
32.37000 367.300
32.38000 368.580
32.39000 370.401
32.40000 372.322
32.41000 374.202
32.42000 375.902
32.43000 377.582
32.44000 378.847
32.45000 382.465
32.46000 385.412
32.47000 385.415
32.48000 379.684
32.49000 373.806
32.50000 370.928
32.51000 371.959
32.52000 373.005
32.53000 372.908
32.54000 371.853
32.55000 370.775
32.56000 368.521
32.57000 365.611
32.58000 362.747
32.59000 360.744
32.60000 359.067
32.61000 357.515
32.62000 357.698
32.63000 358.260
32.64000 359.546
32.65000 365.158
32.66000 371.486
32.67000 374.418
32.68000 364.158
32.69000 352.576
32.70000 344.080
32.71000 353.688
32.72000 361.842
32.73000 365.016
32.74000 359.360
32.75000 353.535
32.76000 353.830
32.77000 361.321
32.78000 368.803
32.79000 373.470
32.80000 375.985
32.81000 378.461
32.82000 379.461
32.83000 379.711
32.84000 380.001
32.85000 380.916
32.86000 382.046
32.87000 383.079
32.88000 383.950
32.89000 384.690
32.90000 384.228
32.91000 377.334
32.92000 369.488
32.93000 362.953
32.94000 361.042
32.95000 359.533
32.96000 358.458
32.97000 362.028
32.98000 364.903
32.99000 364.309
33.00000 358.124
33.01000 351.865
33.02000 351.964
33.03000 358.793
33.04000 365.589
33.05000 366.254
33.06000 362.749
33.07000 359.201
33.08000 354.379
33.09000 348.969
33.10000 343.751
33.11000 341.109
33.12000 339.274
33.13000 337.619
33.14000 343.343
33.15000 349.720
33.16000 354.216
33.17000 349.638
33.18000 343.866
33.19000 338.484
33.20000 334.355
33.21000 330.321
33.22000 327.529
33.23000 327.973
33.24000 328.391
33.25000 331.385
33.26000 338.145
33.27000 344.936
33.28000 345.429
33.29000 339.944
33.30000 334.504
33.31000 334.774
33.32000 338.534
33.33000 342.327
33.34000 346.905
33.35000 351.813
33.36000 355.611
33.37000 346.616
33.38000 333.979
33.39000 322.736
33.40000 331.188
33.41000 341.735
33.42000 349.451
33.43000 344.831
33.44000 338.774
33.45000 333.551
33.46000 330.764
33.47000 328.133
33.48000 326.370
33.49000 332.529
33.50000 337.257
33.51000 335.515
33.52000 325.207
33.53000 314.874
33.54000 314.427
33.55000 322.423
33.56000 330.323
33.57000 333.385
33.58000 333.699
33.59000 333.892
33.60000 331.741
33.61000 328.690
33.62000 325.741
33.63000 323.807
33.64000 322.136
33.65000 320.671
33.66000 328.318
33.67000 336.197
33.68000 342.991
33.69000 345.501
33.70000 347.573
33.71000 347.633
33.72000 342.347
33.73000 336.772
33.74000 333.163
33.75000 335.896
33.76000 337.989
33.77000 336.946
33.78000 332.151
33.79000 327.377
33.80000 329.206
33.81000 336.125
33.82000 342.930
33.83000 342.343
33.84000 338.091
33.85000 333.814
33.86000 329.133
33.87000 324.311
33.88000 320.271
33.89000 323.122
33.90000 327.587
33.91000 331.437
33.92000 324.974
33.93000 318.174
33.94000 314.373
33.95000 321.314
33.96000 329.213
33.97000 333.909
33.98000 330.854
33.99000 327.453
34.00000 325.331
34.01000 330.461
34.02000 334.235
34.03000 331.935
34.04000 323.093
34.05000 314.299
34.06000 311.810
34.07000 313.722
34.08000 315.592
34.09000 318.844
34.10000 322.586
34.11000 326.050
34.12000 325.699
34.13000 324.135
34.14000 321.751
34.15000 312.997
34.16000 302.894
34.17000 294.331
34.18000 306.772
34.19000 319.561
34.20000 327.001
34.21000 317.035
34.22000 305.726
34.23000 300.230
34.24000 307.545
34.25000 315.321
34.26000 319.985
34.27000 310.895
34.28000 304.347
34.29000 303.961
34.30000 309.528
34.31000 315.070
34.32000 318.610
34.33000 320.883
34.34000 323.092
34.35000 325.363
34.36000 327.547
34.37000 329.405
34.38000 327.417
34.39000 324.317
34.40000 321.331
34.41000 319.134
34.42000 317.087
34.43000 315.385
34.44000 316.680
34.45000 318.047
34.46000 318.580
34.47000 316.642
34.48000 314.540
34.49000 316.054
34.50000 324.828
34.51000 333.806
34.52000 338.968
34.53000 330.611
34.54000 324.714
34.55000 319.041
34.56000 313.561
34.57000 308.177
34.58000 308.095
34.59000 311.061
34.60000 313.923
34.61000 322.160
34.62000 331.886
34.63000 340.487
34.64000 337.564
34.65000 331.615
34.66000 325.840
34.67000 321.137
34.68000 316.617
34.69000 312.930
34.70000 317.387
34.71000 321.729
34.72000 324.902
34.73000 324.921
34.74000 324.764
34.75000 324.267
34.76000 323.146
34.77000 322.012
34.78000 321.389
34.79000 318.838
34.80000 317.078
34.81000 315.129
34.82000 313.033
34.83000 311.036
34.84000 313.119
34.85000 317.337
34.86000 321.376
34.87000 321.077
34.88000 319.363
34.89000 318.233
34.90000 322.356
34.91000 327.728
34.92000 330.824
34.93000 321.313
34.94000 309.866
34.95000 300.723
34.96000 299.667
34.97000 299.412
34.98000 300.161
34.99000 303.380
35.00000 306.712
35.01000 308.126
35.02000 306.350
35.03000 304.526
35.04000 303.573
35.05000 313.637
35.06000 320.392
35.07000 318.837
35.08000 311.389
35.09000 304.236
35.10000 306.356
35.11000 312.894
35.12000 319.098
35.13000 319.045
35.14000 317.133
35.15000 315.170
35.16000 312.814
35.17000 310.372
35.18000 309.006
35.19000 312.999
35.20000 317.725
35.21000 321.416
35.22000 313.586
35.23000 306.613
35.24000 301.010
35.25000 298.469
35.26000 296.043
35.27000 297.441
35.28000 304.612
35.29000 311.840
35.30000 314.236
35.31000 311.881
35.32000 309.555
35.33000 309.785
35.34000 311.658
35.35000 313.446
35.36000 313.133
35.37000 311.907
35.38000 310.755
35.39000 308.780
35.40000 306.756
35.41000 304.965
35.42000 304.819
35.43000 304.992
35.44000 305.139
35.45000 305.171
35.46000 305.188
35.47000 305.202
35.48000 304.262
35.49000 303.471
35.50000 302.396
35.51000 300.742
35.52000 299.072
35.53000 300.354
35.54000 305.673
35.55000 311.013
35.56000 310.524
35.57000 304.895
35.58000 299.368
35.59000 299.893
35.60000 303.950
35.61000 307.814
35.62000 307.706
35.63000 306.029
35.64000 304.469
35.65000 315.140
35.66000 327.722
35.67000 338.154
35.68000 335.074
35.69000 329.634
35.70000 321.963
35.71000 305.196
35.72000 287.458
35.73000 274.275
35.74000 281.438
35.75000 287.910
35.76000 295.389
35.77000 304.736
35.78000 314.125
35.79000 316.838
35.80000 311.297
35.81000 305.743
35.82000 300.943
35.83000 296.761
35.84000 292.704
35.85000 294.046
35.86000 298.255
35.87000 302.326
35.88000 304.051
35.89000 304.932
35.90000 305.741
35.91000 308.378
35.92000 311.128
35.93000 312.817
35.94000 308.531
35.95000 303.310
35.96000 298.012
35.97000 292.428
35.98000 286.817
35.99000 282.759
36.00000 294.051
36.01000 303.275
36.02000 306.939
36.03000 301.221
36.04000 295.350
36.05000 290.230
36.06000 285.945
36.07000 281.677
36.08000 285.650
36.09000 295.468
36.10000 305.098
36.11000 308.551
36.12000 309.016
36.13000 309.348
36.14000 307.756
36.15000 305.533
36.16000 303.514
36.17000 301.641
36.18000 300.016
36.19000 298.335
36.20000 296.371
36.21000 294.368
36.22000 293.857
36.23000 298.358
36.24000 303.265
36.25000 306.711
36.26000 295.761
36.27000 287.049
36.28000 284.025
36.29000 289.719
36.30000 295.508
36.31000 297.177
36.32000 294.725
36.33000 292.288
36.34000 287.638
36.35000 281.633
36.36000 276.033
36.37000 280.961
36.38000 290.528
36.39000 299.324
36.40000 298.581
36.41000 294.994
36.42000 291.780
36.43000 293.174
36.44000 295.186
36.45000 295.393
36.46000 287.340
36.47000 278.264
36.48000 273.291
36.49000 280.840
36.50000 289.257
36.51000 294.988
36.52000 290.975
36.53000 287.754
36.54000 289.957
36.55000 299.695
36.56000 309.478
36.57000 312.294
36.58000 308.852
36.59000 305.444
36.60000 301.005
36.61000 296.062
36.62000 291.452
36.63000 293.860
36.64000 299.085
36.65000 303.921
36.66000 304.580
36.67000 304.107
36.68000 303.690
36.69000 292.110
36.70000 280.406
36.71000 271.456
36.72000 273.906
36.73000 277.601
36.74000 280.207
36.75000 279.788
36.76000 279.191
36.77000 278.798
36.78000 293.971
36.79000 305.417
36.80000 311.557
36.81000 311.029
36.82000 310.462
36.83000 303.271
36.84000 290.715
36.85000 278.339
36.86000 283.985
36.87000 298.909
36.88000 313.022
36.89000 312.899
36.90000 307.571
36.91000 302.054
36.92000 294.764
36.93000 287.039
36.94000 280.324
36.95000 291.412
36.96000 303.287
36.97000 312.251
36.98000 310.289
36.99000 307.284
37.00000 304.621
37.01000 302.825
37.02000 301.071
37.03000 299.957
37.04000 291.613
37.05000 285.463
37.06000 283.071
37.07000 284.938
37.08000 286.799
37.09000 287.215
37.10000 286.571
37.11000 285.939
37.12000 284.275
37.13000 282.184
37.14000 280.282
37.15000 281.186
37.16000 283.024
37.17000 284.840
37.18000 286.480
37.19000 288.080
37.20000 289.447
37.21000 285.931
37.22000 282.382
37.23000 282.584
37.24000 295.570
37.25000 309.616
37.26000 316.432
37.27000 306.575
37.28000 296.051
37.29000 289.613
37.30000 283.720
37.31000 279.507
37.32000 279.445
37.33000 283.609
37.34000 287.712
37.35000 285.667
37.36000 279.544
37.37000 273.573
37.38000 279.536
37.39000 290.324
37.40000 300.145
37.41000 297.718
37.42000 291.581
37.43000 285.650
37.44000 281.235
37.45000 277.124
37.46000 273.672
37.47000 280.275
37.48000 286.830
37.49000 290.646
37.50000 285.968
37.51000 280.686
37.52000 279.213
37.53000 285.746
37.54000 292.534
37.55000 296.520
37.56000 292.712
37.57000 289.990
37.58000 288.624
37.59000 288.497
37.60000 288.364
37.61000 287.776
37.62000 286.915
37.63000 286.080
37.64000 281.406
37.65000 275.504
37.66000 270.504
37.67000 275.387
37.68000 282.990
37.69000 289.086
37.70000 285.354
37.71000 279.845
37.72000 275.307
37.73000 277.813
37.74000 280.520
37.75000 283.212
37.76000 285.862
37.77000 288.510
37.78000 290.212
37.79000 290.102
37.80000 289.948
37.81000 289.861
37.82000 290.568
37.83000 291.060
37.84000 291.637
37.85000 292.284
37.86000 292.792
37.87000 286.712
37.88000 277.026
37.89000 267.715
37.90000 272.343
37.91000 281.524
37.92000 290.015
37.93000 291.908
37.94000 292.153
37.95000 292.000
37.96000 289.524
37.97000 286.671
37.98000 284.368
37.99000 287.260
38.00000 290.023
38.01000 291.681
38.02000 290.500
38.03000 289.176
38.04000 287.809
38.05000 286.368
38.06000 284.925
38.07000 284.152
38.08000 283.077
38.09000 282.347
38.10000 282.268
38.11000 282.674
38.12000 283.046
38.13000 282.227
38.14000 280.814
38.15000 279.467
38.16000 286.065
38.17000 294.673
38.18000 302.652
38.19000 305.329
38.20000 306.808
38.21000 308.002
38.22000 307.707
38.23000 307.196
38.24000 306.792
38.25000 311.025
38.26000 314.737
38.27000 316.696
38.28000 314.550
38.29000 312.235
38.30000 310.424
38.31000 309.411
38.32000 308.408
38.33000 307.897
38.34000 314.591
38.35000 319.102
38.36000 325.875
38.37000 334.172
38.38000 342.378
38.39000 348.015
38.40000 352.486
38.41000 356.709
38.42000 366.357
38.43000 376.742
38.44000 386.172
38.45000 388.486
38.46000 389.346
38.47000 393.560
38.48000 413.630
38.49000 435.739
38.50000 452.798
38.51000 469.648
38.52000 482.989
38.53000 499.416
38.54000 522.422
38.55000 545.646
38.56000 569.204
38.57000 593.240
38.58000 617.275
38.59000 634.280
38.60000 644.743
38.61000 655.324
38.62000 674.123
38.63000 697.950
38.64000 721.248
38.65000 732.632
38.66000 739.089
38.67000 745.125
38.68000 750.498
38.69000 755.208
38.70000 758.825
38.71000 755.183
38.72000 750.205
38.73000 747.643
38.74000 755.404
38.75000 764.339
38.76000 771.064
38.77000 742.399
38.78000 718.253
38.79000 704.675
38.80000 711.627
38.81000 719.105
38.82000 708.322
38.83000 673.826
38.84000 639.268
38.85000 616.732
38.86000 604.293
38.87000 591.896
38.88000 581.575
38.89000 572.408
38.90000 562.445
38.91000 537.671
38.92000 507.315
38.93000 479.249
38.94000 455.079
38.95000 434.263
38.96000 415.263
38.97000 407.052
38.98000 400.621
38.99000 393.170
39.00000 381.770
39.01000 369.975
39.02000 361.330
39.03000 350.375
39.04000 341.821
39.05000 333.976
39.06000 327.382
39.07000 320.811
39.08000 316.965
39.09000 316.311
39.10000 315.663
39.11000 312.889
39.12000 308.537
39.13000 304.202
39.14000 300.487
39.15000 297.086
39.16000 293.643
39.17000 289.544
39.18000 285.219
39.19000 281.268
39.20000 274.483
39.21000 267.879
39.22000 262.802
39.23000 265.874
39.24000 270.146
39.25000 274.199
39.26000 277.477
39.27000 280.687
39.28000 282.975
39.29000 282.716
39.30000 282.436
39.31000 279.179
39.32000 271.139
39.33000 263.036
39.34000 255.975
39.35000 250.013
39.36000 244.083
39.37000 244.239
39.38000 248.512
39.39000 252.811
39.40000 257.863
39.41000 263.261
39.42000 268.476
39.43000 271.248
39.44000 273.257
39.45000 275.070
39.46000 273.119
39.47000 270.721
39.48000 268.824
39.49000 269.330
39.50000 270.152
39.51000 271.083
39.52000 272.361
39.53000 273.666
39.54000 274.568
39.55000 263.213
39.56000 254.358
39.57000 250.664
39.58000 254.494
39.59000 258.387
39.60000 264.029
39.61000 271.324
39.62000 278.559
39.63000 275.296
39.64000 265.686
39.65000 256.484
39.66000 256.774
39.67000 261.049
39.68000 264.892
39.69000 263.783
39.70000 261.267
39.71000 259.030
39.72000 256.027
39.73000 253.296
39.74000 251.270
39.75000 252.306
39.76000 253.698
39.77000 254.796
39.78000 255.043
39.79000 255.235
39.80000 255.364
39.81000 262.897
39.82000 268.631
39.83000 271.546
39.84000 270.738
39.85000 269.910
39.86000 266.980
39.87000 262.263
39.88000 257.603
39.89000 256.996
39.90000 258.635
39.91000 260.132
39.92000 258.914
39.93000 256.658
39.94000 254.656
39.95000 255.207
39.96000 256.415
39.97000 257.474
39.98000 252.474
39.99000 247.312
40.00000 244.136
40.01000 248.774
40.02000 254.209
40.03000 258.488
40.04000 259.706
40.05000 260.759
40.06000 261.440
40.07000 258.894
40.08000 256.985
40.09000 253.905
40.10000 249.431
40.11000 244.974
40.12000 245.335
40.13000 249.398
40.14000 253.394
40.15000 253.644
40.16000 252.027
40.17000 250.680
40.18000 253.695
40.19000 258.228
40.20000 262.352
40.21000 262.878
40.22000 262.564
40.23000 262.293
40.24000 259.010
40.25000 255.844
40.26000 252.138
40.27000 246.510
40.28000 240.711
40.29000 237.653
40.30000 241.208
40.31000 245.055
40.32000 247.453
40.33000 248.511
40.34000 249.260
40.35000 251.962
40.36000 256.761
40.37000 261.512
40.38000 260.176
40.39000 254.606
40.40000 249.159
40.41000 251.046
40.42000 256.144
40.43000 260.477
40.44000 254.354
40.45000 244.917
40.46000 237.231
40.47000 243.130
40.48000 251.896
40.49000 259.322
40.50000 254.037
40.51000 248.186
40.52000 243.799
40.53000 244.164
40.54000 244.893
40.55000 246.704
40.56000 250.889
40.57000 255.160
40.58000 257.718
40.59000 250.518
40.60000 245.342
40.61000 243.578
40.62000 245.099
40.63000 246.551
40.64000 242.517
40.65000 235.022
40.66000 227.738
40.67000 226.626
40.68000 228.069
40.69000 229.628
40.70000 232.558
40.71000 235.882
40.72000 238.876
40.73000 239.593
40.74000 239.877
40.75000 240.113
40.76000 236.875
40.77000 233.855
40.78000 232.106
40.79000 234.110
40.80000 236.359
40.81000 236.743
40.82000 233.392
40.83000 229.937
40.84000 227.953
40.85000 238.281
40.86000 245.543
40.87000 250.089
40.88000 252.281
40.89000 254.339
40.90000 248.986
40.91000 239.383
40.92000 230.117
40.93000 233.943
40.94000 242.329
40.95000 250.240
40.96000 253.311
40.97000 255.115
40.98000 255.985
40.99000 251.104
41.00000 245.240
41.01000 240.459
41.02000 246.529
41.03000 252.416
41.04000 255.004
41.05000 248.725
41.06000 241.956
41.07000 238.282
41.08000 240.249
41.09000 242.335
41.10000 243.479
41.11000 243.282
41.12000 243.146
41.13000 243.328
41.14000 243.761
41.15000 244.150
41.16000 242.806
41.17000 240.557
41.18000 238.405
41.19000 237.850
41.20000 237.858
41.21000 237.732
41.22000 236.391
41.23000 234.762
41.24000 233.203
41.25000 232.030
41.26000 230.915
41.27000 230.025
41.28000 227.896
41.29000 226.086
41.30000 226.931
41.31000 234.279
41.32000 241.925
41.33000 246.351
41.34000 245.444
41.35000 244.457
41.36000 243.941
41.37000 241.311
41.38000 239.540
41.39000 239.092
41.40000 239.580
41.41000 240.107
41.42000 241.873
41.43000 244.229
41.44000 246.464
41.45000 247.751
41.46000 248.656
41.47000 249.017
41.48000 245.071
41.49000 240.201
41.50000 236.083
41.51000 235.706
41.52000 235.839
41.53000 235.942
41.54000 240.914
41.55000 245.184
41.56000 247.094
41.57000 243.739
41.58000 240.190
41.59000 238.382
41.60000 239.196
41.61000 240.036
41.62000 241.277
41.63000 242.910
41.64000 244.511
41.65000 243.323
41.66000 240.348
41.67000 237.313
41.68000 232.785
41.69000 227.610
41.70000 222.748
41.71000 223.101
41.72000 224.818
41.73000 226.965
41.74000 232.135
41.75000 237.891
41.76000 242.149
41.77000 239.683
41.78000 236.406
41.79000 233.909
41.80000 232.246
41.81000 230.982
41.82000 231.407
41.83000 235.267
41.84000 239.227
41.85000 241.765
41.86000 242.362
41.87000 242.947
41.88000 242.859
41.89000 242.180
41.90000 241.463
41.91000 238.600
41.92000 234.486
41.93000 230.627
41.94000 231.970
41.95000 235.363
41.96000 238.518
41.97000 238.788
41.98000 238.339
41.99000 237.999
42.00000 238.344
42.01000 238.807
42.02000 239.063
42.03000 238.471
42.04000 237.790
42.05000 237.284
42.06000 233.832
42.07000 231.020
42.08000 227.756
42.09000 223.658
42.10000 219.542
42.11000 220.374
42.12000 227.303
42.13000 234.237
42.14000 235.134
42.15000 231.258
42.16000 227.461
42.17000 227.077
42.18000 228.500
42.19000 229.861
42.20000 230.155
42.21000 230.067
42.22000 229.986
42.23000 227.545
42.24000 224.857
42.25000 222.533
42.26000 222.255
42.27000 222.294
42.28000 223.328
42.29000 228.021
42.30000 233.054
42.31000 236.690
42.32000 236.106
42.33000 235.505
42.34000 234.008
42.35000 231.001
42.36000 227.970
42.37000 225.169
42.38000 222.623
42.39000 220.086
42.40000 221.189
42.41000 224.872
42.42000 228.610
42.43000 234.126
42.44000 240.501
42.45000 246.348
42.46000 244.628
42.47000 240.433
42.48000 236.626
42.49000 234.575
42.50000 233.103
42.51000 231.702
42.52000 230.660
42.53000 229.668
42.54000 228.894
42.55000 228.855
42.56000 228.875
42.57000 228.888
42.58000 228.616
42.59000 228.402
42.60000 228.475
42.61000 228.984
42.62000 229.498
42.63000 227.868
42.64000 224.100
42.65000 220.357
42.66000 218.169
42.67000 217.010
42.68000 215.966
42.69000 217.906
42.70000 221.157
42.71000 224.622
42.72000 230.721
42.73000 237.605
42.74000 243.768
42.75000 240.446
42.76000 235.918
42.77000 231.716
42.78000 229.006
42.79000 226.478
42.80000 224.661
42.81000 225.005
42.82000 225.499
42.83000 225.834
42.84000 225.630
42.85000 225.465
42.86000 226.526
42.87000 229.282
42.88000 232.049
42.89000 232.853
42.90000 231.901
42.91000 230.959
42.92000 230.400
42.93000 230.075
42.94000 229.816
42.95000 230.942
42.96000 232.622
42.97000 233.800
42.98000 229.607
42.99000 223.963
43.00000 218.982
43.01000 216.779
43.02000 215.303
43.03000 214.296
43.04000 215.229
43.05000 216.373
43.06000 219.027
43.07000 225.866
43.08000 232.950
43.09000 237.610
43.10000 229.633
43.11000 223.544
43.12000 220.000
43.13000 219.646
43.14000 219.303
43.15000 219.160
43.16000 219.179
43.17000 219.197
43.18000 223.614
43.19000 230.199
43.20000 236.190
43.21000 231.808
43.22000 223.644
43.23000 216.667
43.24000 220.773
43.25000 227.594
43.26000 233.520
43.27000 229.331
43.28000 224.390
43.29000 220.395
43.30000 219.936
43.31000 219.814
43.32000 220.690
43.33000 224.087
43.34000 227.607
43.35000 229.842
43.36000 227.009
43.37000 224.890
43.38000 224.588
43.39000 226.338
43.40000 228.062
43.41000 225.304
43.42000 219.275
43.43000 213.362
43.44000 214.551
43.45000 219.043
43.46000 223.278
43.47000 223.726
43.48000 222.917
43.49000 222.149
43.50000 221.726
43.51000 221.380
43.52000 221.084
43.53000 215.212
43.54000 209.599
43.55000 205.982
43.56000 209.149
43.57000 212.875
43.58000 216.471
43.59000 219.767
43.60000 223.052
43.61000 225.059
43.62000 225.297
43.63000 225.453
43.64000 222.703
43.65000 217.002
43.66000 211.388
43.67000 214.228
43.68000 222.660
43.69000 230.880
43.70000 231.452
43.71000 228.742
43.72000 226.054
43.73000 223.619
43.74000 221.262
43.75000 219.520
43.76000 222.267
43.77000 225.913
43.78000 228.972
43.79000 228.881
43.80000 228.475
43.81000 226.931
43.82000 221.865
43.83000 216.551
43.84000 213.328
43.85000 214.487
43.86000 215.784
43.87000 216.545
43.88000 228.404
43.89000 236.809
43.90000 236.707
43.91000 228.854
43.92000 221.114
43.93000 220.726
43.94000 224.753
43.95000 228.652
43.96000 224.059
43.97000 216.453
43.98000 209.153
43.99000 205.185
44.00000 202.131
44.01000 199.903
44.02000 203.032
44.03000 207.127
44.04000 210.498
44.05000 212.006
44.06000 213.076
44.07000 214.354
44.08000 216.216
44.09000 218.112
44.10000 219.171
44.11000 218.631
44.12000 218.053
44.13000 217.728
44.14000 213.381
44.15000 210.366
44.16000 210.922
44.17000 214.410
44.18000 217.851
44.19000 219.066
44.20000 219.065
44.21000 219.064
44.22000 219.872
44.23000 220.909
44.24000 221.923
44.25000 222.710
44.26000 223.441
44.27000 224.661
44.28000 228.728
44.29000 233.254
44.30000 236.905
44.31000 229.390
44.32000 222.403
44.33000 217.053
44.34000 215.898
44.35000 214.953
44.36000 214.688
44.37000 215.602
44.38000 216.537
44.39000 217.038
44.40000 216.322
44.41000 215.848
44.42000 218.154
44.43000 222.523
44.44000 226.752
44.45000 226.061
44.46000 222.923
44.47000 219.933
44.48000 217.298
44.49000 214.967
44.50000 213.079
44.51000 214.909
44.52000 217.576
44.53000 220.133
44.54000 222.113
44.55000 224.010
44.56000 225.506
44.57000 226.322
44.58000 226.930
44.59000 227.125
44.60000 226.353
44.61000 225.543
44.62000 226.466
44.63000 230.125
44.64000 233.817
44.65000 235.693
44.66000 235.973
44.67000 236.135
44.68000 233.459
44.69000 228.876
44.70000 224.606
44.71000 228.981
44.72000 237.269
44.73000 245.094
44.74000 242.753
44.75000 237.746
44.76000 233.454
44.77000 234.474
44.78000 236.574
44.79000 239.314
44.80000 245.065
44.81000 251.203
44.82000 255.934
44.83000 257.155
44.84000 257.919
44.85000 258.591
44.86000 259.067
44.87000 259.535
44.88000 258.328
44.89000 254.723
44.90000 251.100
44.91000 257.234
44.92000 272.402
44.93000 287.352
44.94000 287.132
44.95000 277.660
44.96000 268.794
44.97000 273.520
44.98000 283.850
44.99000 293.505
45.00000 296.752
45.01000 298.078
45.02000 299.161
45.03000 298.638
45.04000 297.819
45.05000 298.247
45.06000 303.987
45.07000 310.329
45.08000 315.098
45.09000 304.173
45.10000 294.870
45.11000 289.240
45.12000 290.725
45.13000 292.392
45.14000 291.328
45.15000 286.730
45.16000 282.122
45.17000 285.334
45.18000 295.042
45.19000 304.601
45.20000 306.842
45.21000 305.025
45.22000 302.984
45.23000 296.812
45.24000 289.088
45.25000 281.949
45.26000 285.489
45.27000 291.089
45.28000 295.508
45.29000 292.926
45.30000 289.193
45.31000 285.562
45.32000 282.327
45.33000 279.132
45.34000 276.792
45.35000 273.152
45.36000 270.290
45.37000 270.371
45.38000 275.638
45.39000 281.002
45.40000 285.552
45.41000 289.150
45.42000 292.737
45.43000 292.542
45.44000 289.518
45.45000 286.439
45.46000 281.357
45.47000 275.263
45.48000 269.632
45.49000 271.198
45.50000 275.227
45.51000 278.906
45.52000 270.087
45.53000 259.719
45.54000 251.408
45.55000 254.035
45.56000 258.269
45.57000 259.532
45.58000 250.376
45.59000 240.321
45.60000 233.162
45.61000 238.257
45.62000 242.535
45.63000 244.999
45.64000 244.556
45.65000 244.075
45.66000 246.708
45.67000 252.616
45.68000 258.494
45.69000 257.359
45.70000 251.509
45.71000 245.735
45.72000 242.149
45.73000 239.569
45.74000 237.245
45.75000 238.312
45.76000 240.435
45.77000 242.350
45.78000 241.988
45.79000 241.258
45.80000 240.566
45.81000 240.056
45.82000 239.570
45.83000 237.534
45.84000 230.561
45.85000 223.219
45.86000 218.149
45.87000 233.999
45.88000 246.450
45.89000 250.261
45.90000 241.515
45.91000 232.665
45.92000 226.920
45.93000 224.103
45.94000 221.310
45.95000 222.620
45.96000 226.401
45.97000 230.033
45.98000 230.229
45.99000 228.987
46.00000 227.800
46.01000 227.256
46.02000 226.893
46.03000 226.571
46.04000 225.418
46.05000 224.282
46.06000 223.601
46.07000 224.885
46.08000 226.397
46.09000 226.450
46.10000 222.275
46.11000 217.831
46.12000 214.859
46.13000 213.113
46.14000 211.843
46.15000 210.438
46.16000 208.858
46.17000 207.280
46.18000 207.940
46.19000 210.499
46.20000 213.028
46.21000 207.445
46.22000 197.553
46.23000 188.290
46.24000 191.015
46.25000 198.313
46.26000 204.960
46.27000 205.135
46.28000 203.647
46.29000 202.344
46.30000 206.346
46.31000 210.539
46.32000 213.882
46.33000 213.894
46.34000 213.567
46.35000 212.806
46.36000 210.899
46.37000 208.931
46.38000 207.660
46.39000 198.420
46.40000 191.550
46.41000 189.963
46.42000 194.655
46.43000 199.350
46.44000 202.346
46.45000 204.039
46.46000 205.704
46.47000 203.722
46.48000 199.998
46.49000 196.549
46.50000 197.473
46.51000 199.917
46.52000 201.885
46.53000 199.688
46.54000 196.521
46.55000 193.794
46.56000 192.653
46.57000 191.888
46.58000 192.451
46.59000 197.744
46.60000 203.456
46.61000 206.213
46.62000 201.860
46.63000 197.195
46.64000 194.290
46.65000 196.552
46.66000 198.234
46.67000 199.752
46.68000 201.095
46.69000 202.409
46.70000 200.054
46.71000 195.154
46.72000 190.363
46.73000 190.535
46.74000 192.921
46.75000 195.047
46.76000 193.640
46.77000 191.116
46.78000 189.024
46.79000 190.260
46.80000 192.196
46.81000 193.836
46.82000 195.325
46.83000 196.555
46.84000 196.871
46.85000 194.227
46.86000 191.357
46.87000 189.044
46.88000 187.955
46.89000 186.909
46.90000 186.283
46.91000 194.822
46.92000 200.941
46.93000 202.545
46.94000 199.816
46.95000 197.113
46.96000 196.501
46.97000 197.204
46.98000 197.887
46.99000 198.175
47.00000 198.290
47.01000 197.935
47.02000 192.102
47.03000 184.694
47.04000 178.149
47.05000 177.527
47.06000 178.029
47.07000 178.445
47.08000 180.843
47.09000 183.020
47.10000 185.795
47.11000 190.335
47.12000 194.989
47.13000 196.367
47.14000 191.205
47.15000 185.862
47.16000 182.798
47.17000 184.217
47.18000 185.223
47.19000 185.211
47.20000 184.318
47.21000 183.442
47.22000 183.440
47.23000 183.937
47.24000 184.417
47.25000 186.602
47.26000 189.279
47.27000 191.824
47.28000 193.039
47.29000 193.906
47.30000 195.287
47.31000 199.829
47.32000 204.909
47.33000 209.048
47.34000 200.946
47.35000 193.287
47.36000 187.725
47.37000 187.782
47.38000 188.148
47.39000 188.966
47.40000 190.608
47.41000 192.266
47.42000 193.175
47.43000 189.108
47.44000 186.315
47.45000 186.457
47.46000 188.883
47.47000 191.243
47.48000 190.958
47.49000 189.295
47.50000 187.704
47.51000 184.189
47.52000 180.282
47.53000 176.904
47.54000 178.246
47.55000 180.705
47.56000 182.863
47.57000 183.369
47.58000 183.623
47.59000 183.825
47.60000 183.618
47.61000 183.421
47.62000 184.885
47.63000 190.406
47.64000 196.110
47.65000 199.496
47.66000 199.052
47.67000 198.551
47.68000 198.289
47.69000 189.330
47.70000 183.297
47.71000 180.903
47.72000 181.074
47.73000 181.347
47.74000 184.799
47.75000 189.756
47.76000 194.458
47.77000 192.945
47.78000 189.711
47.79000 186.654
47.80000 184.987
47.81000 183.616
47.82000 182.543
47.83000 182.937
47.84000 183.530
47.85000 183.993
47.86000 187.363
47.87000 190.230
47.88000 189.919
47.89000 182.534
47.90000 174.888
47.91000 172.831
47.92000 179.156
47.93000 185.562
47.94000 186.901
47.95000 183.291
47.96000 179.747
47.97000 181.756
47.98000 187.314
47.99000 192.764
48.00000 195.510
48.01000 197.091
48.02000 198.575
48.03000 192.903
48.04000 185.823
48.05000 179.597
48.06000 179.352
48.07000 180.260
48.08000 181.447
48.09000 183.880
48.10000 186.464
48.11000 188.431
48.12000 181.600
48.13000 175.760
48.14000 174.126
48.15000 181.015
48.16000 188.150
48.17000 190.536
48.18000 186.466
48.19000 182.362
48.20000 181.335
48.21000 183.004
48.22000 184.717
48.23000 188.887
48.24000 194.484
48.25000 199.668
48.26000 196.497
48.27000 190.042
48.28000 184.042
48.29000 179.976
48.30000 176.768
48.31000 174.256
48.32000 176.088
48.33000 178.674
48.34000 180.338
48.35000 178.271
48.36000 175.809
48.37000 173.982
48.38000 176.070
48.39000 177.863
48.40000 176.656
48.41000 169.911
48.42000 163.044
48.43000 162.490
48.44000 169.690
48.45000 176.897
48.46000 182.340
48.47000 186.367
48.48000 190.319
48.49000 191.127
48.50000 190.275
48.51000 189.197
48.52000 184.319
48.53000 178.081
48.54000 172.350
48.55000 179.484
48.56000 188.612
48.57000 196.342
48.58000 196.246
48.59000 194.934
48.60000 192.609
48.61000 186.567
48.62000 180.181
48.63000 175.570
48.64000 178.939
48.65000 181.809
48.66000 182.813
48.67000 180.683
48.68000 178.504
48.69000 176.274
48.70000 173.988
48.71000 171.711
48.72000 172.637
48.73000 175.827
48.74000 178.895
48.75000 178.015
48.76000 175.238
48.77000 172.396
48.78000 168.633
48.79000 164.570
48.80000 160.884
48.81000 172.139
48.82000 184.939
48.83000 195.034
48.84000 191.500
48.85000 186.079
48.86000 182.375
48.87000 184.401
48.88000 186.886
48.89000 188.629
48.90000 180.912
48.91000 174.801
48.92000 172.005
48.93000 174.262
48.94000 176.572
48.95000 178.828
48.96000 181.029
48.97000 183.216
48.98000 181.381
48.99000 177.004
49.00000 172.704
49.01000 170.387
49.02000 168.938
49.03000 167.652
49.04000 168.343
49.05000 169.622
49.06000 170.766
49.07000 170.617
49.08000 170.264
49.09000 170.210
49.10000 171.510
49.11000 172.976
49.12000 176.122
49.13000 184.367
49.14000 192.963
49.15000 198.804
49.16000 188.232
49.17000 179.972
49.18000 172.973
49.19000 167.713
49.20000 162.468
49.21000 162.719
49.22000 167.876
49.23000 172.980
49.24000 175.910
49.25000 177.521
49.26000 178.915
49.27000 175.781
49.28000 170.839
49.29000 166.169
49.30000 164.393
49.31000 163.396
49.32000 162.516
49.33000 167.838
49.34000 173.372
49.35000 178.501
49.36000 181.969
49.37000 185.257
49.38000 185.766
49.39000 178.595
49.40000 170.977
49.41000 165.971
49.42000 167.738
49.43000 169.152
49.44000 168.686
49.45000 165.871
49.46000 163.052
49.47000 161.229
49.48000 160.208
49.49000 159.202
49.50000 161.019
49.51000 164.253
49.52000 167.317
49.53000 167.421
49.54000 166.448
49.55000 165.642
49.56000 166.381
49.57000 167.497
49.58000 168.466
49.59000 167.656
49.60000 166.726
49.61000 167.018
49.62000 171.865
49.63000 177.143
49.64000 180.672
49.65000 179.800
49.66000 178.715
49.67000 178.027
49.68000 174.336
49.69000 171.622
49.70000 173.368
49.71000 180.138
49.72000 186.855
49.73000 184.335
49.74000 175.092
49.75000 166.030
49.76000 168.359
49.77000 175.956
49.78000 183.106
49.79000 183.688
49.80000 182.096
49.81000 180.209
49.82000 175.905
49.83000 171.065
49.84000 166.933
49.85000 169.902
49.86000 173.247
49.87000 176.312
49.88000 178.428
49.89000 180.466
49.90000 181.187
49.91000 178.887
49.92000 176.469
49.93000 174.993
49.94000 177.477
49.95000 179.286
49.96000 178.432
49.97000 174.886
49.98000 171.352
49.99000 169.032
50.00000 167.512
50.01000 166.031
50.02000 169.626
50.03000 175.210
50.04000 180.519
50.05000 182.368
50.06000 183.176
50.07000 184.062
50.08000 185.520
50.09000 187.092
50.10000 188.411
50.11000 179.779
50.12000 171.559
50.13000 166.149
50.14000 169.396
50.15000 173.253
50.16000 176.566
50.17000 178.742
50.18000 180.883
50.19000 182.136
50.20000 183.235
50.21000 184.007
50.22000 182.250
50.23000 178.197
50.24000 174.184
50.25000 172.822
50.26000 173.046
50.27000 173.263
50.28000 175.923
50.29000 179.372
50.30000 182.581
50.31000 183.182
50.32000 183.068
50.33000 182.695
50.34000 180.642
50.35000 178.286
50.36000 176.348
50.37000 178.478
50.38000 180.599
50.39000 183.472
50.40000 188.454
50.41000 193.562
50.42000 198.179
50.43000 201.861
50.44000 205.521
50.45000 207.571
50.46000 198.386
50.47000 192.010
50.48000 192.678
50.49000 199.109
50.50000 205.399
50.51000 205.150
50.52000 201.342
50.53000 197.683
50.54000 197.120
50.55000 197.662
50.56000 198.514
50.57000 202.309
50.58000 206.834
50.59000 211.140
50.60000 214.176
50.61000 217.007
50.62000 219.290
50.63000 225.338
50.64000 230.546
50.65000 231.596
50.66000 222.024
50.67000 211.923
50.68000 205.103
50.69000 203.963
50.70000 202.923
50.71000 202.368
50.72000 201.627
50.73000 201.120
50.74000 200.360
50.75000 199.413
50.76000 198.455
50.77000 197.142
50.78000 195.652
50.79000 194.232
50.80000 197.153
50.81000 201.210
50.82000 204.234
50.83000 198.614
50.84000 191.051
50.85000 185.165
50.86000 188.011
50.87000 192.113
50.88000 195.347
50.89000 195.476
50.90000 195.369
50.91000 193.070
50.92000 185.668
50.93000 178.057
50.94000 176.457
50.95000 184.306
50.96000 192.271
50.97000 196.312
50.98000 193.104
50.99000 190.945
51.00000 187.661
51.01000 183.624
51.02000 179.783
51.03000 181.357
51.04000 185.374
51.05000 189.166
51.06000 184.197
51.07000 177.183
51.08000 171.794
51.09000 178.434
51.10000 187.515
51.11000 194.704
51.12000 193.005
51.13000 190.169
51.14000 187.985
51.15000 181.906
51.16000 176.868
51.17000 174.087
51.18000 176.091
51.19000 178.251
51.20000 178.679
51.21000 176.638
51.22000 174.579
51.23000 171.126
51.24000 166.389
51.25000 161.727
51.26000 162.182
51.27000 165.750
51.28000 169.111
51.29000 167.861
51.30000 164.716
51.31000 161.777
51.32000 164.596
51.33000 168.605
51.34000 171.970
51.35000 171.085
51.36000 169.424
51.37000 167.746
51.38000 165.998
51.39000 164.242
51.40000 162.923
51.41000 163.399
51.42000 163.858
51.43000 165.275
51.44000 168.541
51.45000 171.854
51.46000 171.210
51.47000 165.458
51.48000 159.693
51.49000 156.595
51.50000 155.720
51.51000 154.898
51.52000 156.643
51.53000 159.808
51.54000 162.889
51.55000 164.423
51.56000 165.378
51.57000 166.260
51.58000 163.938
51.59000 161.130
51.60000 158.169
51.61000 154.313
51.62000 150.310
51.63000 148.664
51.64000 156.096
51.65000 164.425
51.66000 170.520
51.67000 163.938
51.68000 158.355
51.69000 156.305
51.70000 160.462
51.71000 164.734
51.72000 167.887
51.73000 169.734
51.74000 171.574
51.75000 169.930
51.76000 165.699
51.77000 161.521
51.78000 159.292
51.79000 158.044
51.80000 156.999
51.81000 159.120
51.82000 162.321
51.83000 165.243
51.84000 164.919
51.85000 163.974
51.86000 163.236
51.87000 163.589
51.88000 164.103
51.89000 164.451
51.90000 164.223
51.91000 163.946
51.92000 163.749
51.93000 164.763
51.94000 165.574
51.95000 166.067
51.96000 166.051
51.97000 166.028
51.98000 165.943
51.99000 165.793
52.00000 165.643
52.01000 162.981
52.02000 158.662
52.03000 154.450
52.04000 153.284
52.05000 153.514
52.06000 153.704
52.07000 153.376
52.08000 152.886
52.09000 152.445
52.10000 154.486
52.11000 156.727
52.12000 158.382
52.13000 157.236
52.14000 155.727
52.15000 155.916
52.16000 161.504
52.17000 167.493
52.18000 171.625
52.19000 164.160
52.20000 158.256
52.21000 154.924
52.22000 155.319
52.23000 155.745
52.24000 152.744
52.25000 146.524
52.26000 140.357
52.27000 143.813
52.28000 153.038
52.29000 161.808
52.30000 160.090
52.31000 153.994
52.32000 148.326
52.33000 147.540
52.34000 148.131
52.35000 148.656
52.36000 153.421
52.37000 158.236
52.38000 162.411
52.39000 163.823
52.40000 164.917
52.41000 164.606
52.42000 160.233
52.43000 155.604
52.44000 152.512
52.45000 158.052
52.46000 162.326
52.47000 163.112
52.48000 159.324
52.49000 155.520
52.50000 154.140
52.51000 154.812
52.52000 155.476
52.53000 155.376
52.54000 154.860
52.55000 154.413
52.56000 155.258
52.57000 156.594
52.58000 157.596
52.59000 155.287
52.60000 152.130
52.61000 149.367
52.62000 146.147
52.63000 143.321
52.64000 141.242
52.65000 142.086
52.66000 143.226
52.67000 145.072
52.68000 148.776
52.69000 152.579
52.70000 155.033
52.71000 155.898
52.72000 156.508
52.73000 156.219
52.74000 154.867
52.75000 153.512
52.76000 152.191
52.77000 150.895
52.78000 149.621
52.79000 151.583
52.80000 155.078
52.81000 158.308
52.82000 157.323
52.83000 154.878
52.84000 152.844
52.85000 154.380
52.86000 156.745
52.87000 158.781
52.88000 150.444
52.89000 142.069
52.90000 137.424
52.91000 146.015
52.92000 155.772
52.93000 160.938
52.94000 155.086
52.95000 148.753
52.96000 144.815
52.97000 143.448
52.98000 142.490
52.99000 145.955
53.00000 154.135
53.01000 162.263
53.02000 163.824
53.03000 160.843
53.04000 157.929
53.05000 156.476
53.06000 155.735
53.07000 155.209
53.08000 157.602
53.09000 160.915
53.10000 163.569
53.11000 161.148
53.12000 157.664
53.13000 154.715
53.14000 158.894
53.15000 163.185
53.16000 164.918
53.17000 158.403
53.18000 151.260
53.19000 148.293
53.20000 154.454
53.21000 160.937
53.22000 164.812
53.23000 164.910
53.24000 164.955
53.25000 163.856
53.26000 161.662
53.27000 159.458
53.28000 156.472
53.29000 152.996
53.30000 149.620
53.31000 151.126
53.32000 154.521
53.33000 157.482
53.34000 155.376
53.35000 151.819
53.36000 148.600
53.37000 147.699
53.38000 147.236
53.39000 146.851
53.40000 146.920
53.41000 147.020
53.42000 147.422
53.43000 148.706
53.44000 150.048
53.45000 151.219
53.46000 152.050
53.47000 152.871
53.48000 153.341
53.49000 156.555
53.50000 158.812
53.51000 162.831
53.52000 168.367
53.53000 173.744
53.54000 170.587
53.55000 162.566
53.56000 154.830
53.57000 156.746
53.58000 162.054
53.59000 166.658
53.60000 164.131
53.61000 159.747
53.62000 156.150
53.63000 157.360
53.64000 159.387
53.65000 161.037
53.66000 156.543
53.67000 152.353
53.68000 149.673
53.69000 151.030
53.70000 152.608
53.71000 152.777
53.72000 150.396
53.73000 147.962
53.74000 146.631
53.75000 145.513
53.76000 144.755
53.77000 146.463
53.78000 150.085
53.79000 153.631
53.80000 154.178
53.81000 153.168
53.82000 152.202
53.83000 152.105
53.84000 152.301
53.85000 152.598
53.86000 153.806
53.87000 155.228
53.88000 156.318
53.89000 155.592
53.90000 154.590
53.91000 153.791
53.92000 152.992
53.93000 152.347
53.94000 152.137
53.95000 152.987
53.96000 153.886
53.97000 153.178
53.98000 149.824
53.99000 146.431
54.00000 144.666
54.01000 149.454
54.02000 152.676
54.03000 153.839
54.04000 153.556
54.05000 153.234
54.06000 151.746
54.07000 149.706
54.08000 147.772
54.09000 149.667
54.10000 152.544
54.11000 154.856
54.12000 152.740
54.13000 149.679
54.14000 147.653
54.15000 150.737
54.16000 154.512
54.17000 157.455
54.18000 155.741
54.19000 154.086
54.20000 152.423
54.21000 150.742
54.22000 149.059
54.23000 148.392
54.24000 149.242
54.25000 150.106
54.26000 151.078
54.27000 152.155
54.28000 153.180
54.29000 149.935
54.30000 143.968
54.31000 138.411
54.32000 142.933
54.33000 151.791
54.34000 160.109
54.35000 158.822
54.36000 155.099
54.37000 152.073
54.38000 153.912
54.39000 156.687
54.40000 158.393
54.41000 155.326
54.42000 151.687
54.43000 148.918
54.44000 149.821
54.45000 150.724
54.46000 151.148
54.47000 150.602
54.48000 150.029
54.49000 150.142
54.50000 151.186
54.51000 152.234
54.52000 154.658
54.53000 158.279
54.54000 161.764
54.55000 157.481
54.56000 148.702
54.57000 140.190
54.58000 137.049
54.59000 136.014
54.60000 135.052
54.61000 141.318
54.62000 148.695
54.63000 155.148
54.64000 155.853
54.65000 155.564
54.66000 154.906
54.67000 152.760
54.68000 150.456
54.69000 148.749
54.70000 150.751
54.71000 152.467
54.72000 152.918
54.73000 151.040
54.74000 149.112
54.75000 149.208
54.76000 151.784
54.77000 154.361
54.78000 157.095
54.79000 159.938
54.80000 162.643
54.81000 159.570
54.82000 153.453
54.83000 147.601
54.84000 146.195
54.85000 146.376
54.86000 146.543
54.87000 149.946
54.88000 153.675
54.89000 156.926
54.90000 157.513
54.91000 157.687
54.92000 157.008
54.93000 153.202
54.94000 149.108
54.95000 146.155
54.96000 152.607
54.97000 157.889
54.98000 160.042
54.99000 156.962
55.00000 153.800
55.01000 153.057
55.02000 154.986
55.03000 156.909
55.04000 156.158
55.05000 153.524
55.06000 151.125
55.07000 156.267
55.08000 165.025
55.09000 173.048
55.10000 170.614
55.11000 164.781
55.12000 159.491
55.13000 156.559
55.14000 154.422
55.15000 152.195
55.16000 149.512
55.17000 146.766
55.18000 145.995
55.19000 151.793
55.20000 158.117
55.21000 162.546
55.22000 160.315
55.23000 158.437
55.24000 159.382
55.25000 164.616
55.26000 169.895
55.27000 168.853
55.28000 161.549
55.29000 154.295
55.30000 154.714
55.31000 160.016
55.32000 165.205
55.33000 167.499
55.34000 168.527
55.35000 169.460
55.36000 169.218
55.37000 168.630
55.38000 168.103
55.39000 166.627
55.40000 165.177
55.41000 164.810
55.42000 169.351
55.43000 174.493
55.44000 179.054
55.45000 181.859
55.46000 184.543
55.47000 186.366
55.48000 190.718
55.49000 194.022
55.50000 196.572
55.51000 198.085
55.52000 199.593
55.53000 202.669
55.54000 207.140
55.55000 211.564
55.56000 212.669
55.57000 211.840
55.58000 211.281
55.59000 216.300
55.60000 223.540
55.61000 230.949
55.62000 240.157
55.63000 249.848
55.64000 258.392
55.65000 267.360
55.66000 275.156
55.67000 282.895
55.68000 290.399
55.69000 297.877
55.70000 305.401
55.71000 313.051
55.72000 320.709
55.73000 325.736
55.74000 328.920
55.75000 331.232
55.76000 338.333
55.77000 351.398
55.78000 364.479
55.79000 376.838
55.80000 388.619
55.81000 400.227
55.82000 407.705
55.83000 412.820
55.84000 418.123
55.85000 426.671
55.86000 436.396
55.87000 444.951
55.88000 442.671
55.89000 437.753
55.90000 433.484
55.91000 441.015
55.92000 449.017
55.93000 452.959
55.94000 441.799
55.95000 429.215
55.96000 424.573
55.97000 439.867
55.98000 456.120
55.99000 466.414
56.00000 451.375
56.01000 440.164
56.02000 433.742
56.03000 432.697
56.04000 431.618
56.05000 424.350
56.06000 412.592
56.07000 401.066
56.08000 392.184
56.09000 384.874
56.10000 377.396
56.11000 367.457
56.12000 356.706
56.13000 345.714
56.14000 332.752
56.15000 319.356
56.16000 307.922
56.17000 308.852
56.18000 311.097
56.19000 310.366
56.20000 299.576
56.21000 287.964
56.22000 279.209
56.23000 276.990
56.24000 275.027
56.25000 273.830
56.26000 261.285
56.27000 252.229
56.28000 245.134
56.29000 240.016
56.30000 234.875
56.31000 227.607
56.32000 218.941
56.33000 210.496
56.34000 207.610
56.35000 207.208
56.36000 206.906
56.37000 207.857
56.38000 209.185
56.39000 209.767
56.40000 204.956
56.41000 199.072
56.42000 194.139
56.43000 190.687
56.44000 187.968
56.45000 184.621
56.46000 179.342
56.47000 173.928
56.48000 172.085
56.49000 177.680
56.50000 183.507
56.51000 186.915
56.52000 180.681
56.53000 176.249
56.54000 173.673
56.55000 172.778
56.56000 171.876
56.57000 170.515
56.58000 168.879
56.59000 167.295
56.60000 163.103
56.61000 158.144
56.62000 153.613
56.63000 153.711
56.64000 155.070
56.65000 156.175
56.66000 155.637
56.67000 154.805
56.68000 154.121
56.69000 152.553
56.70000 151.184
56.71000 150.589
56.72000 152.160
56.73000 153.859
56.74000 156.886
56.75000 162.433
56.76000 168.039
56.77000 171.176
56.78000 159.631
56.79000 151.614
56.80000 150.010
56.81000 153.637
56.82000 157.269
56.83000 161.114
56.84000 165.075
56.85000 168.880
56.86000 164.368
56.87000 157.281
56.88000 150.626
56.89000 148.064
56.90000 146.514
56.91000 144.770
56.92000 141.903
56.93000 138.855
56.94000 136.400
56.95000 138.149
56.96000 139.897
56.97000 141.018
56.98000 140.540
56.99000 139.982
57.00000 140.210
57.01000 141.793
57.02000 143.400
57.03000 144.257
57.04000 140.529
57.05000 138.003
57.06000 138.544
57.07000 141.345
57.08000 144.181
57.09000 148.251
57.10000 152.930
57.11000 157.387
57.12000 154.228
57.13000 148.937
57.14000 144.161
57.15000 143.672
57.16000 144.142
57.17000 144.835
57.18000 146.691
57.19000 148.714
57.20000 150.308
57.21000 147.716
57.22000 145.358
57.23000 144.210
57.24000 145.870
57.25000 147.645
57.26000 147.038
57.27000 142.701
57.28000 138.318
57.29000 136.098
57.30000 134.589
57.31000 133.612
57.32000 136.085
57.33000 140.862
57.34000 145.557
57.35000 147.990
57.36000 149.405
57.37000 150.740
57.38000 146.705
57.39000 141.505
57.40000 136.777
57.41000 135.542
57.42000 135.014
57.43000 134.754
57.44000 135.755
57.45000 136.916
57.46000 137.810
57.47000 139.631
57.48000 141.125
57.49000 141.644
57.50000 140.101
57.51000 138.492
57.52000 138.984
57.53000 142.462
57.54000 145.962
57.55000 144.900
57.56000 139.640
57.57000 134.455
57.58000 134.275
57.59000 137.130
57.60000 139.932
57.61000 141.564
57.62000 142.716
57.63000 143.792
57.64000 144.745
57.65000 145.577
57.66000 146.145
57.67000 144.976
57.68000 143.491
57.69000 141.879
57.70000 139.727
57.71000 137.515
57.72000 135.854
57.73000 135.154
57.74000 134.653
57.75000 135.812
57.76000 140.169
57.77000 144.606
57.78000 145.000
57.79000 140.194
57.80000 135.373
57.81000 135.285
57.82000 139.112
57.83000 142.920
57.84000 145.846
57.85000 148.286
57.86000 150.546
57.87000 149.494
57.88000 147.205
57.89000 145.091
57.90000 139.332
57.91000 133.342
57.92000 128.870
57.93000 133.320
57.94000 139.228
57.95000 143.900
57.96000 143.832
57.97000 143.296
57.98000 142.904
57.99000 143.334
58.00000 143.698
58.01000 143.142
58.02000 140.976
58.03000 138.780
58.04000 140.629
58.05000 147.176
58.06000 153.711
58.07000 153.399
58.08000 147.995
58.09000 142.648
58.10000 139.339
58.11000 137.052
58.12000 135.146
58.13000 139.090
58.14000 145.025
58.15000 150.440
58.16000 146.191
58.17000 140.470
58.18000 135.663
58.19000 135.682
58.20000 136.406
58.21000 136.625
58.22000 135.089
58.23000 133.402
58.24000 132.204
58.25000 129.672
58.26000 127.703
58.27000 128.211
58.28000 132.665
58.29000 137.168
58.30000 139.489
58.31000 139.529
58.32000 139.569
58.33000 140.097
58.34000 140.945
58.35000 141.697
58.36000 139.713
58.37000 136.478
58.38000 133.532
58.39000 134.388
58.40000 136.420
58.41000 138.250
58.42000 139.694
58.43000 140.892
58.44000 141.709
58.45000 140.716
58.46000 139.489
58.47000 138.962
58.48000 140.655
58.49000 142.512
58.50000 143.792
58.51000 138.913
58.52000 135.093
58.53000 132.512
58.54000 131.721
58.55000 130.945
58.56000 131.669
58.57000 133.799
58.58000 135.911
58.59000 134.144
58.60000 130.068
58.61000 126.051
58.62000 123.398
58.63000 121.313
58.64000 119.673
58.65000 123.077
58.66000 127.899
58.67000 132.182
58.68000 135.045
58.69000 137.301
58.70000 138.779
58.71000 136.912
58.72000 134.661
58.73000 133.493
58.74000 135.447
58.75000 137.596
58.76000 139.031
58.77000 135.584
58.78000 132.937
58.79000 131.230
58.80000 130.755
58.81000 130.288
58.82000 131.384
58.83000 133.799
58.84000 136.184
58.85000 136.938
58.86000 136.783
58.87000 136.642
58.88000 136.765
58.89000 136.987
58.90000 136.981
58.91000 134.719
58.92000 131.880
58.93000 129.397
58.94000 132.202
58.95000 135.359
58.96000 137.025
58.97000 132.876
58.98000 128.143
58.99000 126.741
59.00000 134.088
59.01000 141.897
59.02000 146.931
59.03000 144.099
59.04000 141.918
59.05000 137.490
59.06000 130.408
59.07000 123.345
59.08000 121.552
59.09000 123.771
59.10000 125.953
59.11000 129.421
59.12000 133.406
59.13000 137.018
59.14000 134.739
59.15000 130.426
59.16000 126.726
59.17000 128.340
59.18000 131.183
59.19000 133.630
59.20000 134.722
59.21000 135.477
59.22000 135.429
59.23000 132.541
59.24000 129.404
59.25000 126.925
59.26000 126.021
59.27000 125.185
59.28000 124.666
59.29000 128.500
59.30000 131.303
59.31000 134.442
59.32000 137.939
59.33000 141.399
59.34000 140.355
59.35000 136.205
59.36000 132.150
59.37000 133.799
59.38000 137.914
59.39000 141.803
59.40000 142.646
59.41000 142.533
59.42000 142.215
59.43000 140.339
59.44000 138.136
59.45000 136.273
59.46000 132.855
59.47000 129.824
59.48000 127.901
59.49000 129.549
59.50000 131.466
59.51000 131.697
59.52000 128.249
59.53000 124.672
59.54000 122.538
59.55000 122.942
59.56000 123.244
59.57000 124.563
59.58000 126.850
59.59000 129.134
59.60000 131.136
59.61000 132.961
59.62000 134.734
59.63000 130.594
59.64000 124.292
59.65000 118.648
59.66000 120.650
59.67000 124.837
59.68000 128.389
59.69000 127.614
59.70000 126.024
59.71000 124.703
59.72000 128.452
59.73000 132.041
59.74000 134.321
59.75000 132.767
59.76000 130.966
59.77000 129.747
59.78000 129.685
59.79000 129.655
59.80000 129.638
59.81000 130.599
59.82000 131.272
59.83000 131.325
59.84000 130.846
59.85000 130.362
59.86000 129.677
59.87000 128.876
59.88000 128.103
59.89000 131.381
59.90000 135.931
59.91000 140.286
59.92000 142.688
59.93000 144.583
59.94000 145.308
59.95000 138.902
59.96000 131.288
59.97000 125.093
59.98000 125.548
59.99000 126.479
60.00000 128.326
60.01000 132.615
60.02000 137.036
60.03000 138.101
60.04000 133.101
60.05000 127.977
60.06000 125.178
60.07000 129.208
60.08000 131.974
60.09000 131.825
60.10000 129.420
60.11000 127.100
60.12000 128.111
60.13000 130.846
60.14000 133.461
60.15000 129.492
60.16000 123.647
60.17000 118.543
60.18000 120.006
60.19000 123.012
60.20000 126.654
60.21000 133.767
60.22000 141.406
60.23000 147.491
60.24000 141.557
60.25000 135.900
60.26000 133.085
60.27000 137.172
60.28000 141.568
60.29000 143.386
60.30000 140.969
60.31000 138.491
60.32000 137.203
60.33000 130.114
60.34000 125.358
60.35000 125.004
60.36000 127.732
60.37000 130.403
60.38000 131.335
60.39000 131.448
60.40000 131.554
60.41000 131.227
60.42000 130.798
60.43000 130.680
60.44000 132.991
60.45000 135.819
60.46000 138.543
60.47000 140.758
60.48000 142.904
60.49000 144.576
60.50000 138.655
60.51000 133.470
60.52000 130.303
60.53000 131.602
60.54000 133.063
60.55000 133.569
60.56000 132.652
60.57000 131.721
60.58000 128.450
60.59000 122.911
60.60000 117.443
60.61000 117.831
60.62000 121.941
60.63000 125.952
60.64000 127.568
60.65000 128.156
60.66000 128.709
60.67000 129.475
60.68000 130.230
60.69000 131.042
60.70000 132.245
60.71000 133.523
60.72000 135.017
60.73000 137.464
60.74000 140.026
60.75000 141.974
60.76000 137.834
60.77000 134.261
60.78000 132.116
60.79000 132.849
60.80000 133.664
60.81000 135.145
60.82000 137.528
60.83000 139.913
60.84000 141.143
60.85000 141.365
60.86000 141.566
60.87000 140.635
60.88000 139.050
60.89000 137.483
60.90000 136.270
60.91000 135.195
60.92000 134.197
60.93000 134.179
60.94000 134.396
60.95000 134.444
60.96000 133.441
60.97000 132.258
60.98000 131.294
60.99000 131.214
61.00000 131.226
61.01000 131.236
61.02000 134.454
61.03000 137.092
61.04000 138.072
61.05000 136.011
61.06000 133.884
61.07000 132.456
61.08000 131.879
61.09000 131.306
61.10000 132.745
61.11000 135.754
61.12000 138.729
61.13000 140.322
61.14000 141.189
61.15000 141.862
61.16000 139.272
61.17000 135.521
61.18000 132.078
61.19000 131.455
61.20000 131.500
61.21000 131.426
61.22000 130.693
61.23000 129.858
61.24000 129.634
61.25000 131.641
61.26000 133.853
61.27000 135.447
61.28000 134.503
61.29000 133.690
61.30000 134.345
61.31000 137.450
61.32000 140.592
61.33000 141.199
61.34000 139.015
61.35000 136.840
61.36000 138.577
61.37000 143.056
61.38000 147.305
61.39000 144.259
61.40000 137.725
61.41000 131.801
61.42000 134.508
61.43000 140.012
61.44000 145.002
61.45000 144.709
61.46000 143.443
61.47000 143.130
61.48000 147.585
61.49000 152.695
61.50000 158.070
61.51000 164.323
61.52000 170.646
61.53000 175.070
61.54000 187.647
61.55000 197.387
61.56000 207.367
61.57000 217.711
61.58000 228.058
61.59000 237.171
61.60000 245.067
61.61000 252.908
61.62000 257.534
61.63000 260.046
61.64000 262.589
61.65000 265.940
61.66000 269.643
61.67000 273.295
61.68000 276.341
61.69000 279.209
61.70000 281.773
61.71000 278.302
61.72000 274.250
61.73000 269.738
61.74000 263.149
61.75000 256.307
61.76000 249.647
61.77000 243.536
61.78000 237.463
61.79000 233.344
61.80000 212.732
61.81000 196.995
61.82000 186.662
61.83000 183.746
61.84000 180.872
61.85000 174.055
61.86000 163.741
61.87000 153.535
61.88000 149.276
61.89000 148.520
61.90000 147.820
61.91000 148.256
61.92000 149.143
61.93000 150.157
61.94000 152.511
61.95000 155.224
61.96000 157.615
61.97000 154.004
61.98000 149.986
61.99000 146.412
62.00000 144.656
62.01000 143.095
62.02000 142.333
62.03000 143.764
62.04000 145.321
62.05000 146.342
62.06000 138.927
62.07000 133.334
62.08000 132.407
62.09000 137.272
62.10000 142.139
62.11000 142.462
62.12000 139.151
62.13000 135.889
62.14000 135.239
62.15000 135.960
62.16000 136.565
62.17000 135.179
62.18000 133.073
62.19000 131.492
62.20000 134.758
62.21000 139.200
62.22000 143.054
62.23000 139.825
62.24000 136.129
62.25000 133.629
62.26000 135.568
62.27000 137.924
62.28000 139.222
62.29000 137.873
62.30000 136.397
62.31000 135.464
62.32000 139.980
62.33000 143.318
62.34000 145.305
62.35000 145.779
62.36000 146.241
62.37000 144.997
62.38000 142.520
62.39000 140.092
62.40000 141.040
62.41000 143.529
62.42000 145.768
62.43000 144.381
62.44000 141.801
62.45000 139.804
62.46000 142.547
62.47000 146.331
62.48000 149.559
62.49000 144.253
62.50000 138.781
62.51000 135.734
62.52000 140.856
62.53000 146.644
62.54000 150.855
62.55000 151.468
62.56000 151.941
62.57000 152.228
62.58000 150.884
62.59000 149.911
62.60000 147.684
62.61000 144.196
62.62000 140.750
62.63000 141.150
62.64000 144.073
62.65000 146.920
62.66000 147.105
62.67000 146.160
62.68000 145.294
62.69000 145.414
62.70000 145.830
62.71000 146.298
62.72000 147.142
62.73000 148.061
62.74000 148.831
62.75000 146.116
62.76000 143.499
62.77000 142.396
62.78000 145.933
62.79000 149.794
62.80000 151.485
62.81000 148.665
62.82000 145.706
62.83000 143.978
62.84000 137.206
62.85000 132.423
62.86000 133.873
62.87000 140.948
62.88000 147.912
62.89000 147.862
62.90000 143.636
62.91000 139.548
62.92000 137.399
62.93000 136.107
62.94000 135.195
62.95000 138.378
62.96000 142.675
62.97000 146.380
62.98000 146.278
62.99000 145.497
63.00000 144.854
63.01000 144.484
63.02000 144.204
63.03000 144.667
63.04000 147.206
63.05000 149.867
63.06000 150.859
63.07000 148.696
63.08000 146.458
63.09000 145.208
63.10000 139.445
63.11000 135.454
63.12000 134.898
63.13000 137.135
63.14000 139.371
63.15000 141.559
63.16000 143.722
63.17000 145.799
63.18000 148.979
63.19000 152.332
63.20000 155.104
63.21000 152.401
63.22000 148.347
63.23000 145.278
63.24000 147.881
63.25000 151.391
63.26000 154.217
63.27000 151.584
63.28000 149.023
63.29000 147.805
63.30000 149.999
63.31000 152.363
63.32000 153.645
63.33000 153.070
63.34000 152.461
63.35000 152.137
63.36000 145.833
63.37000 141.569
63.38000 143.170
63.39000 149.081
63.40000 154.799
63.41000 153.863
63.42000 149.647
63.43000 145.633
63.44000 145.570
63.45000 146.733
63.46000 147.897
63.47000 149.056
63.48000 150.213
63.49000 151.121
63.50000 150.731
63.51000 150.156
63.52000 149.703
63.53000 144.958
63.54000 140.869
63.55000 139.179
63.56000 143.042
63.57000 147.128
63.58000 148.995
63.59000 147.392
63.60000 145.748
63.61000 144.917
63.62000 149.073
63.63000 151.840
63.64000 153.063
63.65000 153.260
63.66000 153.407
63.67000 152.216
63.68000 150.425
63.69000 148.735
63.70000 147.394
63.71000 146.262
63.72000 145.908
63.73000 151.278
63.74000 157.802
63.75000 162.166
63.76000 156.445
63.77000 149.446
63.78000 144.062
63.79000 143.769
63.80000 143.825
63.81000 144.396
63.82000 146.051
63.83000 147.741
63.84000 150.191
63.85000 153.718
63.86000 157.253
63.87000 158.416
63.88000 157.404
63.89000 156.431
63.90000 158.057
63.91000 161.254
63.92000 164.342
63.93000 165.049
63.94000 164.781
63.95000 164.531
63.96000 157.240
63.97000 148.868
63.98000 142.450
63.99000 148.839
64.00000 157.552
64.01000 164.610
64.02000 164.677
64.03000 163.963
64.04000 163.426
64.05000 159.445
64.06000 156.171
64.07000 154.246
64.08000 154.914
64.09000 155.646
64.10000 156.907
64.11000 158.848
64.12000 160.790
64.13000 160.455
64.14000 158.247
64.15000 156.049
64.16000 154.368
64.17000 152.972
64.18000 151.662
64.19000 151.934
64.20000 152.794
64.21000 153.588
64.22000 157.693
64.23000 162.118
64.24000 166.066
64.25000 167.221
64.26000 167.921
64.27000 167.575
64.28000 163.226
64.29000 158.484
64.30000 155.019
64.31000 154.835
64.32000 154.821
64.33000 155.765
64.34000 158.381
64.35000 161.028
64.36000 162.010
64.37000 161.065
64.38000 160.121
64.39000 160.812
64.40000 162.711
64.41000 164.575
64.42000 165.162
64.43000 165.112
64.44000 165.047
64.45000 164.760
64.46000 164.397
64.47000 164.066
64.48000 163.926
64.49000 163.840
64.50000 164.020
64.51000 165.607
64.52000 167.399
64.53000 168.963
64.54000 169.741
64.55000 170.451
64.56000 170.956
64.57000 169.305
64.58000 167.980
64.59000 164.977
64.60000 159.310
64.61000 153.610
64.62000 154.975
64.63000 163.694
64.64000 172.367
64.65000 175.035
64.66000 173.659
64.67000 172.285
64.68000 171.006
64.69000 169.769
64.70000 168.750
64.71000 170.569
64.72000 173.265
64.73000 175.692
64.74000 177.466
64.75000 178.904
64.76000 179.989
64.77000 179.399
64.78000 178.593
64.79000 178.801
64.80000 182.215
64.81000 185.865
64.82000 188.378
64.83000 178.183
64.84000 170.210
64.85000 167.080
64.86000 170.925
64.87000 174.826
64.88000 178.189
64.89000 181.051
64.90000 183.888
64.91000 185.272
64.92000 185.755
64.93000 186.138
64.94000 184.264
64.95000 181.452
64.96000 178.928
64.97000 179.649
64.98000 181.281
64.99000 182.729
65.00000 188.160
65.01000 193.504
65.02000 198.250
65.03000 200.426
65.04000 202.309
65.05000 203.172
65.06000 201.103
65.07000 198.851
65.08000 197.350
65.09000 201.306
65.10000 204.341
65.11000 207.408
65.12000 210.519
65.13000 213.629
65.14000 216.397
65.15000 218.877
65.16000 221.325
65.17000 222.764
65.18000 223.616
65.19000 224.276
65.20000 221.342
65.21000 217.050
65.22000 213.546
65.23000 217.801
65.24000 224.031
65.25000 229.479
65.26000 234.606
65.27000 238.953
65.28000 242.287
65.29000 241.683
65.30000 240.684
65.31000 241.288
65.32000 246.092
65.33000 251.117
65.34000 254.352
65.35000 251.126
65.36000 248.680
65.37000 250.484
65.38000 257.289
65.39000 264.089
65.40000 267.841
65.41000 269.279
65.42000 270.692
65.43000 271.172
65.44000 271.178
65.45000 271.443
65.46000 275.769
65.47000 281.494
65.48000 287.097
65.49000 291.643
65.50000 295.945
65.51000 299.646
65.52000 298.754
65.53000 297.423
65.54000 298.142
65.55000 306.098
65.56000 314.685
65.57000 319.984
65.58000 317.438
65.59000 314.553
65.60000 312.763
65.61000 334.610
65.62000 350.560
65.63000 363.759
65.64000 374.045
65.65000 384.360
65.66000 398.216
65.67000 414.506
65.68000 430.424
65.69000 465.336
65.70000 507.193
65.71000 549.883
65.72000 603.744
65.73000 661.107
65.74000 718.202
65.75000 773.252
65.76000 827.876
65.77000 874.048
65.78000 928.106
65.79000 974.192
65.80000 1015.737
65.81000 1042.711
65.82000 1068.587
65.83000 1088.893
65.84000 1097.092
65.85000 1104.872
65.86000 1109.510
65.87000 1125.390
65.88000 1136.714
65.89000 1142.027
65.90000 1141.627
65.91000 1140.789
65.92000 1106.716
65.93000 1051.915
65.94000 998.709
65.95000 950.526
65.96000 906.805
65.97000 861.524
65.98000 798.237
65.99000 729.819
66.00000 663.481
66.01000 611.274
66.02000 561.721
66.03000 520.610
66.04000 476.589
66.05000 439.930
66.06000 407.889
66.07000 389.330
66.08000 371.636
66.09000 355.549
66.10000 342.642
66.11000 329.820
66.12000 322.498
66.13000 324.401
66.14000 325.754
66.15000 323.050
66.16000 316.879
66.17000 310.820
66.18000 310.692
66.19000 313.927
66.20000 317.045
66.21000 317.556
66.22000 317.096
66.23000 317.302
66.24000 324.200
66.25000 332.829
66.26000 341.613
66.27000 351.336
66.28000 361.217
66.29000 369.253
66.30000 384.594
66.31000 397.729
66.32000 410.557
66.33000 422.574
66.34000 434.546
66.35000 440.021
66.36000 433.787
66.37000 427.315
66.38000 423.786
66.39000 442.891
66.40000 456.003
66.41000 460.198
66.42000 457.514
66.43000 454.932
66.44000 456.394
66.45000 459.941
66.46000 463.332
66.47000 457.131
66.48000 448.239
66.49000 440.075
66.50000 438.339
66.51000 438.110
66.52000 435.288
66.53000 418.335
66.54000 399.249
66.55000 384.055
66.56000 371.240
66.57000 361.079
66.58000 351.990
66.59000 345.501
66.60000 339.127
66.61000 330.395
66.62000 317.802
66.63000 305.153
66.64000 298.591
66.65000 312.633
66.66000 322.088
66.67000 327.911
66.68000 331.198
66.69000 334.296
66.70000 331.682
66.71000 326.386
66.72000 321.367
66.73000 322.817
66.74000 326.051
66.75000 328.415
66.76000 324.008
66.77000 318.166
66.78000 313.388
66.79000 313.834
66.80000 314.983
66.81000 315.876
66.82000 320.375
66.83000 324.178
66.84000 325.859
66.85000 322.859
66.86000 319.691
66.87000 324.111
66.88000 339.814
66.89000 355.622
66.90000 357.827
66.91000 346.880
66.92000 336.004
66.93000 330.942
66.94000 329.562
66.95000 328.511
66.96000 335.458
66.97000 345.828
66.98000 355.559
66.99000 360.197
67.00000 363.080
67.01000 365.109
67.02000 361.222
67.03000 356.204
67.04000 354.346
67.05000 366.493
67.06000 380.307
67.07000 390.799
67.08000 376.908
67.09000 364.724
67.10000 354.385
67.11000 347.754
67.12000 341.229
67.13000 343.770
67.14000 358.521
67.15000 373.329
67.16000 379.327
67.17000 377.671
67.18000 376.113
67.19000 380.059
67.20000 387.174
67.21000 393.726
67.22000 389.089
67.23000 380.089
67.24000 371.734
67.25000 384.640
67.26000 401.314
67.27000 415.623
67.28000 415.317
67.29000 412.501
67.30000 408.556
67.31000 400.079
67.32000 391.128
67.33000 384.503
67.34000 392.931
67.35000 400.120
67.36000 405.727
67.37000 408.439
67.38000 411.089
67.39000 412.156
67.40000 411.298
67.41000 410.437
67.42000 413.610
67.43000 419.915
67.44000 425.964
67.45000 421.509
67.46000 411.553
67.47000 402.370
67.48000 406.012
67.49000 414.209
67.50000 421.731
67.51000 429.802
67.52000 437.114
67.53000 442.708
67.54000 438.772
67.55000 433.371
67.56000 429.437
67.57000 430.845
67.58000 432.742
67.59000 434.108
67.60000 445.581
67.61000 454.724
67.62000 459.479
67.63000 456.933
67.64000 454.276
67.65000 455.482
67.66000 460.924
67.67000 466.345
67.68000 467.845
67.69000 466.574
67.70000 465.429
67.71000 468.249
67.72000 472.960
67.73000 477.737
67.74000 483.449
67.75000 489.462
67.76000 494.912
67.77000 493.073
67.78000 490.068
67.79000 486.851
67.80000 482.574
67.81000 478.152
67.82000 477.846
67.83000 491.151
67.84000 505.534
67.85000 515.590
67.86000 515.997
67.87000 516.033
67.88000 512.947
67.89000 505.148
67.90000 497.301
67.91000 499.953
67.92000 512.935
67.93000 525.827
67.94000 529.092
67.95000 526.207
67.96000 523.715
67.97000 531.060
67.98000 542.679
67.99000 553.574
68.00000 555.724
68.01000 555.303
68.02000 554.926
68.03000 551.955
68.04000 548.927
68.05000 546.339
68.06000 545.742
68.07000 545.386
68.08000 546.105
68.09000 550.061
68.10000 554.236
68.11000 557.064
68.12000 561.787
68.13000 565.349
68.14000 574.462
68.15000 591.173
68.16000 607.915
68.17000 610.681
68.18000 601.091
68.19000 591.602
68.20000 594.680
68.21000 604.870
68.22000 614.556
68.23000 613.930
68.24000 609.223
68.25000 605.897
68.26000 617.075
68.27000 632.125
68.28000 645.382
68.29000 640.162
68.30000 632.883
68.31000 628.120
68.32000 633.610
68.33000 640.198
68.34000 647.791
68.35000 658.137
68.36000 668.642
68.37000 675.523
68.38000 697.205
68.39000 713.388
68.40000 722.935
68.41000 724.272
68.42000 725.600
68.43000 731.302
68.44000 740.490
68.45000 749.540
68.46000 751.095
68.47000 748.738
68.48000 747.427
68.49000 763.984
68.50000 786.982
68.51000 808.497
68.52000 816.382
68.53000 820.969
68.54000 824.946
68.55000 849.822
68.56000 873.787
68.57000 900.531
68.58000 937.550
68.59000 975.530
68.60000 1010.411
68.61000 1037.557
68.62000 1064.336
68.63000 1081.258
68.64000 1151.270
68.65000 1202.627
68.66000 1255.231
68.67000 1309.228
68.68000 1363.247
68.69000 1420.618
68.70000 1480.405
68.71000 1538.990
68.72000 1589.316
68.73000 1633.882
68.74000 1678.888
68.75000 1730.255
68.76000 1783.709
68.77000 1840.040
68.78000 1919.679
68.79000 2004.422
68.80000 2076.673
68.81000 2162.611
68.82000 2236.524
68.83000 2322.108
68.84000 2446.903
68.85000 2574.875
68.86000 2722.945
68.87000 2916.715
68.88000 3112.253
68.89000 3231.139
68.90000 3857.149
68.91000 4308.072
68.92000 5216.496
68.93000 6583.152
68.94000 7960.542
68.95000 10334.521
68.96000 13359.900
68.97000 16306.699
68.98000 20539.154
68.99000 25114.840
69.00000 29694.740
69.01000 34326.875
69.02000 38974.605
69.03000 43457.488
69.04000 46755.480
69.05000 49819.313
69.06000 52384.730
69.07000 53960.594
69.08000 55168.684
69.09000 56136.664
69.10000 56370.973
69.11000 56554.297
69.12000 56839.332
69.13000 57335.063
69.14000 57837.258
69.15000 58130.203
69.16000 59337.805
69.17000 60190.637
69.18000 60275.785
69.19000 59670.520
69.20000 59044.965
69.21000 57155.059
69.22000 54514.641
69.23000 51960.301
69.24000 48767.789
69.25000 45510.426
69.26000 42305.379
69.27000 39662.035
69.28000 37171.004
69.29000 34805.840
69.30000 33247.430
69.31000 31832.457
69.32000 30670.338
69.33000 29802.965
69.34000 29117.117
69.35000 28407.373
69.36000 27631.152
69.37000 26851.023
69.38000 25796.949
69.39000 24226.205
69.40000 22643.330
69.41000 21760.221
69.42000 18289.867
69.43000 15882.810
69.44000 13640.761
69.45000 11532.460
69.46000 9434.756
69.47000 7814.210
69.48000 6451.249
69.49000 5142.782
69.50000 4258.186
69.51000 3575.951
69.52000 2925.343
69.53000 2571.554
69.54000 2290.763
69.55000 2031.767
69.56000 1897.897
69.57000 1783.969
69.58000 1692.311
69.59000 1584.818
69.60000 1496.400
69.61000 1420.736
69.62000 1377.392
69.63000 1335.632
69.64000 1291.917
69.65000 1244.849
69.66000 1197.724
69.67000 1172.665
69.68000 1122.151
69.69000 1087.811
69.70000 1063.604
69.71000 1046.822
69.72000 1029.827
69.73000 1005.538
69.74000 977.664
69.75000 951.132
69.76000 927.019
69.77000 905.442
69.78000 884.382
69.79000 867.602
69.80000 851.774
69.81000 835.445
69.82000 816.530
69.83000 797.248
69.84000 782.073
69.85000 772.133
69.86000 764.517
69.87000 759.716
69.88000 761.409
69.89000 763.363
69.90000 759.304
69.91000 745.877
69.92000 732.340
69.93000 725.506
69.94000 712.011
69.95000 702.966
69.96000 692.058
69.97000 679.913
69.98000 667.993
69.99000 662.173
70.00000 659.082
