20.00000 549.181
20.01000 551.091
20.02000 553.275
20.03000 555.709
20.04000 559.123
20.05000 562.637
20.06000 565.218
20.07000 572.535
20.08000 578.386
20.09000 577.753
20.10000 565.560
20.11000 553.140
20.12000 547.560
20.13000 550.075
20.14000 552.598
20.15000 557.912
20.16000 565.308
20.17000 572.323
20.18000 564.875
20.19000 550.045
20.20000 536.053
20.21000 535.364
20.22000 539.281
20.23000 542.863
20.24000 545.047
20.25000 546.701
20.26000 548.496
20.27000 551.046
20.28000 553.708
20.29000 555.349
20.30000 553.366
20.31000 551.065
20.32000 549.421
20.33000 555.428
20.34000 560.267
20.35000 563.913
20.36000 565.629
20.37000 567.318
20.38000 563.916
20.39000 555.092
20.40000 546.309
20.41000 542.586
20.42000 542.361
20.43000 542.189
20.44000 543.576
20.45000 545.687
20.46000 548.008
20.47000 553.166
20.48000 559.218
20.49000 564.682
20.50000 556.862
20.51000 547.544
20.52000 540.735
20.53000 546.107
20.54000 553.095
20.55000 558.501
20.56000 558.808
20.57000 558.727
20.58000 558.671
20.59000 549.432
20.60000 542.234
20.61000 541.090
20.62000 548.850
20.63000 556.688
20.64000 560.615
20.65000 560.806
20.66000 560.994
20.67000 561.028
20.68000 560.965
20.69000 560.897
20.70000 560.689
20.71000 560.423
20.72000 559.371
20.73000 549.186
20.74000 536.386
20.75000 524.989
20.76000 526.255
20.77000 529.433
20.78000 533.498
20.79000 541.453
20.80000 549.864
20.81000 554.143
20.82000 546.302
20.83000 537.676
20.84000 531.883
20.85000 535.787
20.86000 538.884
20.87000 540.670
20.88000 540.711
20.89000 540.749
20.90000 545.515
20.91000 554.344
20.92000 563.069
20.93000 563.949
20.94000 560.449
20.95000 556.793
20.96000 550.109
20.97000 542.257
20.98000 535.324
20.99000 537.693
21.00000 542.480
21.01000 546.679
21.02000 545.249
21.03000 543.200
21.04000 541.555
21.05000 541.511
21.06000 541.633
21.07000 541.012
21.08000 538.405
21.09000 535.690
21.10000 533.928
21.11000 537.047
21.12000 539.404
21.13000 543.494
21.14000 549.669
21.15000 555.818
21.16000 554.237
21.17000 546.662
21.18000 539.210
21.19000 530.284
21.20000 520.905
21.21000 512.719
21.22000 523.979
21.23000 542.071
21.24000 557.763
21.25000 552.155
21.26000 541.530
21.27000 532.358
21.28000 535.263
21.29000 539.284
21.30000 542.239
21.31000 541.351
21.32000 540.118
21.33000 537.546
21.34000 531.716
21.35000 525.739
21.36000 522.000
21.37000 525.005
21.38000 527.244
21.39000 529.881
21.40000 532.948
21.41000 535.999
21.42000 536.979
21.43000 536.505
21.44000 536.041
21.45000 535.121
21.46000 534.032
21.47000 532.862
21.48000 530.570
21.49000 527.918
21.50000 526.428
21.51000 534.045
21.52000 543.602
21.53000 551.712
21.54000 558.065
21.55000 563.194
21.56000 564.837
21.57000 555.068
21.58000 544.411
21.59000 539.112
21.60000 545.692
21.61000 552.704
21.62000 556.921
21.63000 556.341
21.64000 555.896
21.65000 555.100
21.66000 553.964
21.67000 552.803
21.68000 549.587
21.69000 545.064
21.70000 540.666
21.71000 538.180
21.72000 536.597
21.73000 535.748
21.74000 543.636
21.75000 554.065
21.76000 563.899
21.77000 569.600
21.78000 574.506
21.79000 578.593
21.80000 573.239
21.81000 567.866
21.82000 563.103
21.83000 560.160
21.84000 557.338
21.85000 558.967
21.86000 569.585
21.87000 580.460
21.88000 586.730
21.89000 580.105
21.90000 575.423
21.91000 577.542
21.92000 585.603
21.93000 593.511
21.94000 592.748
21.95000 586.971
21.96000 581.392
21.97000 580.564
21.98000 581.537
21.99000 582.458
22.00000 582.846
22.01000 583.093
22.02000 585.048
22.03000 597.618
22.04000 612.021
22.05000 623.785
22.06000 623.781
22.07000 622.761
22.08000 620.733
22.09000 615.967
22.10000 611.048
22.11000 610.354
22.12000 617.430
22.13000 624.673
22.14000 628.664
22.15000 634.812
22.16000 639.020
22.17000 633.655
22.18000 620.744
22.19000 608.139
22.20000 608.238
22.21000 615.022
22.22000 621.520
22.23000 621.040
22.24000 618.271
22.25000 615.577
22.26000 613.561
22.27000 611.708
22.28000 609.345
22.29000 604.132
22.30000 598.479
22.31000 593.958
22.32000 600.220
22.33000 606.086
22.34000 606.780
22.35000 594.699
22.36000 582.024
22.37000 576.798
22.38000 584.021
22.39000 591.439
22.40000 595.330
22.41000 583.748
22.42000 575.935
22.43000 574.004
22.44000 576.266
22.45000 578.404
22.46000 576.561
22.47000 572.813
22.48000 569.253
22.49000 564.530
22.50000 559.822
22.51000 555.323
22.52000 552.492
22.53000 550.023
22.54000 548.563
22.55000 552.170
22.56000 556.475
22.57000 559.842
22.58000 543.136
22.59000 528.522
22.60000 518.313
22.61000 518.019
22.62000 518.100
22.63000 520.900
22.64000 527.828
22.65000 534.799
22.66000 535.137
22.67000 528.911
22.68000 522.687
22.69000 516.603
22.70000 510.611
22.71000 505.012
22.72000 509.402
22.73000 518.150
22.74000 526.378
22.75000 529.456
22.76000 530.877
22.77000 531.695
22.78000 528.230
22.79000 523.929
22.80000 519.461
22.81000 514.239
22.82000 508.925
22.83000 504.867
22.84000 505.803
22.85000 506.809
22.86000 508.734
22.87000 512.539
22.88000 516.401
22.89000 517.238
22.90000 513.914
22.91000 510.567
22.92000 508.715
22.93000 508.194
22.94000 507.691
22.95000 508.243
22.96000 509.416
22.97000 510.461
22.98000 508.853
22.99000 506.191
23.00000 503.714
23.01000 502.486
23.02000 501.679
23.03000 502.151
23.04000 510.724
23.05000 520.720
23.06000 527.499
23.07000 521.096
23.08000 513.274
23.09000 507.452
23.10000 502.736
23.11000 499.116
23.12000 495.985
23.13000 493.767
23.14000 491.569
23.15000 490.399
23.16000 490.506
23.17000 490.617
23.18000 491.450
23.19000 492.855
23.20000 494.176
23.21000 491.873
23.22000 487.634
23.23000 483.772
23.24000 486.426
23.25000 491.439
23.26000 496.050
23.27000 500.520
23.28000 504.484
23.29000 508.156
23.30000 510.171
23.31000 511.925
23.32000 511.869
23.33000 505.082
23.34000 497.662
23.35000 492.286
23.36000 495.217
23.37000 497.775
23.38000 499.785
23.39000 500.867
23.40000 501.933
23.41000 498.659
23.42000 490.515
23.43000 482.398
23.44000 483.550
23.45000 491.351
23.46000 498.923
23.47000 498.849
23.48000 495.056
23.49000 492.010
23.50000 499.839
23.51000 511.255
23.52000 521.627
23.53000 509.969
23.54000 495.381
23.55000 483.936
23.56000 488.528
23.57000 495.374
23.58000 500.016
23.59000 497.223
23.60000 493.823
23.61000 491.431
23.62000 490.951
23.63000 490.644
23.64000 489.647
23.65000 487.585
23.66000 485.511
23.67000 490.426
23.68000 502.381
23.69000 514.260
23.70000 510.351
23.71000 496.275
23.72000 482.852
23.73000 486.615
23.74000 497.992
23.75000 507.456
23.76000 493.032
23.77000 471.443
23.78000 452.087
23.79000 453.585
23.80000 458.513
23.81000 463.491
23.82000 468.703
23.83000 473.943
23.84000 480.017
23.85000 488.648
23.86000 497.458
23.87000 503.468
23.88000 490.803
23.89000 480.900
23.90000 476.624
23.91000 480.214
23.92000 483.854
23.93000 485.141
23.94000 484.299
23.95000 483.465
23.96000 482.707
23.97000 482.008
23.98000 481.192
23.99000 477.866
24.00000 473.527
24.01000 469.585
24.02000 469.935
24.03000 471.454
24.04000 472.796
24.05000 479.844
24.06000 486.812
24.07000 491.819
24.08000 488.660
24.09000 484.604
24.10000 481.153
24.11000 479.394
24.12000 477.736
24.13000 476.641
24.14000 480.896
24.15000 484.127
24.16000 481.905
24.17000 472.786
24.18000 463.665
24.19000 462.676
24.20000 468.312
24.21000 473.870
24.22000 477.244
24.23000 479.373
24.24000 481.641
24.25000 486.385
24.26000 492.040
24.27000 497.196
24.28000 497.635
24.29000 496.908
24.30000 496.275
24.31000 489.817
24.32000 483.508
24.33000 478.336
24.34000 477.454
24.35000 476.986
24.36000 476.932
24.37000 477.935
24.38000 478.991
24.39000 479.663
24.40000 477.385
24.41000 475.691
24.42000 473.076
24.43000 469.408
24.44000 465.782
24.45000 469.545
24.46000 478.753
24.47000 487.785
24.48000 481.932
24.49000 469.209
24.50000 457.601
24.51000 462.700
24.52000 473.392
24.53000 482.086
24.54000 474.162
24.55000 462.519
24.56000 452.556
24.57000 462.179
24.58000 472.660
24.59000 481.086
24.60000 482.461
24.61000 483.247
24.62000 483.037
24.63000 480.518
24.64000 477.905
24.65000 476.303
24.66000 475.681
24.67000 475.243
24.68000 473.913
24.69000 471.668
24.70000 469.456
24.71000 470.694
24.72000 474.233
24.73000 477.686
24.74000 483.112
24.75000 489.143
24.76000 494.598
24.77000 492.671
24.78000 488.495
24.79000 484.088
24.80000 477.976
24.81000 471.519
24.82000 466.091
24.83000 463.933
24.84000 462.481
24.85000 461.362
24.86000 461.279
24.87000 461.272
24.88000 463.515
24.89000 470.514
24.90000 477.667
24.91000 481.878
24.92000 464.080
24.93000 451.413
24.94000 447.328
24.95000 451.138
24.96000 454.918
24.97000 456.731
24.98000 457.352
24.99000 457.954
25.00000 456.486
25.01000 454.294
25.02000 452.339
25.03000 453.000
25.04000 454.385
25.05000 456.246
25.06000 461.234
25.07000 466.791
25.08000 471.373
25.09000 469.467
25.10000 467.299
25.11000 464.698
25.12000 460.874
25.13000 456.975
25.14000 455.852
25.15000 460.069
25.16000 464.420
25.17000 466.871
25.18000 462.509
25.19000 459.468
25.20000 459.420
25.21000 461.851
25.22000 464.249
25.23000 465.036
25.24000 464.937
25.25000 464.841
25.26000 463.483
25.27000 461.769
25.28000 460.457
25.29000 463.034
25.30000 466.588
25.31000 469.027
25.32000 464.917
25.33000 459.738
25.34000 455.553
25.35000 453.583
25.36000 452.159
25.37000 453.533
25.38000 462.142
25.39000 471.120
25.40000 474.019
25.41000 466.275
25.42000 458.334
25.43000 454.067
25.44000 453.535
25.45000 453.181
25.46000 453.980
25.47000 455.643
25.48000 457.402
25.49000 462.699
25.50000 469.769
25.51000 476.512
25.52000 477.843
25.53000 477.370
25.54000 476.696
25.55000 474.309
25.56000 471.533
25.57000 467.532
25.58000 457.066
25.59000 445.657
25.60000 436.635
25.61000 442.268
25.62000 447.800
25.63000 450.357
25.64000 445.908
25.65000 441.165
25.66000 443.928
25.67000 458.631
25.68000 473.486
25.69000 481.071
25.70000 472.028
25.71000 465.957
25.72000 460.082
25.73000 454.341
25.74000 448.749
25.75000 447.380
25.76000 447.939
25.77000 448.468
25.78000 448.868
25.79000 449.199
25.80000 449.529
25.81000 449.847
25.82000 450.163
25.83000 450.132
25.84000 448.458
25.85000 446.571
25.86000 445.113
25.87000 454.470
25.88000 462.524
25.89000 466.434
25.90000 461.457
25.91000 456.182
25.92000 452.370
25.93000 450.670
25.94000 448.986
25.95000 448.669
25.96000 449.630
25.97000 450.550
25.98000 448.545
25.99000 444.739
26.00000 441.398
26.01000 448.643
26.02000 460.291
26.03000 471.187
26.04000 466.296
26.05000 457.821
26.06000 450.575
26.07000 451.553
26.08000 454.051
26.09000 455.606
26.10000 453.100
26.11000 450.129
26.12000 447.889
26.13000 441.525
26.14000 436.339
26.15000 433.936
26.16000 436.970
26.17000 440.145
26.18000 441.978
26.19000 442.058
26.20000 442.130
26.21000 447.301
26.22000 456.744
26.23000 465.890
26.24000 460.080
26.25000 445.904
26.26000 432.565
26.27000 434.975
26.28000 443.354
26.29000 451.106
26.30000 451.876
26.31000 450.968
26.32000 449.741
26.33000 446.608
26.34000 443.157
26.35000 441.161
26.36000 444.828
26.37000 449.065
26.38000 452.176
26.39000 447.668
26.40000 443.875
26.41000 438.434
26.42000 430.064
26.43000 421.637
26.44000 422.414
26.45000 434.050
26.46000 445.675
26.47000 451.608
26.48000 453.200
26.49000 454.693
26.50000 452.420
26.51000 448.229
26.52000 444.091
26.53000 440.767
26.54000 437.724
26.55000 434.942
26.56000 433.598
26.57000 432.700
26.58000 432.226
26.59000 434.031
26.60000 436.176
26.61000 437.911
26.62000 438.198
26.63000 438.358
26.64000 438.473
26.65000 445.120
26.66000 450.406
26.67000 449.448
26.68000 438.399
26.69000 427.213
26.70000 424.114
26.71000 429.602
26.72000 435.065
26.73000 437.616
26.74000 438.156
26.75000 438.638
26.76000 437.425
26.77000 435.427
26.78000 433.803
26.79000 437.207
26.80000 442.191
26.81000 446.689
26.82000 446.801
26.83000 446.095
26.84000 445.225
26.85000 443.558
26.86000 441.786
26.87000 440.733
26.88000 441.990
26.89000 443.421
26.90000 444.413
26.91000 443.961
26.92000 443.583
26.93000 440.731
26.94000 434.253
26.95000 427.743
26.96000 425.905
26.97000 428.517
26.98000 431.107
26.99000 429.960
27.00000 426.540
27.01000 423.208
27.02000 421.939
27.03000 421.541
27.04000 421.850
27.05000 430.338
27.06000 441.162
27.07000 450.796
27.08000 452.907
27.09000 453.510
27.10000 453.092
27.11000 448.212
27.12000 442.810
27.13000 438.357
27.14000 436.680
27.15000 435.182
27.16000 434.177
27.17000 434.549
27.18000 434.853
27.19000 435.027
27.20000 435.027
27.21000 435.030
27.22000 437.030
27.23000 440.739
27.24000 444.404
27.25000 439.346
27.26000 429.580
27.27000 420.400
27.28000 422.573
27.29000 429.113
27.30000 435.292
27.31000 437.831
27.32000 439.427
27.33000 440.827
27.34000 442.422
27.35000 443.819
27.36000 445.422
27.37000 447.840
27.38000 450.342
27.39000 449.996
27.40000 442.063
27.41000 433.719
27.42000 428.312
27.43000 419.208
27.44000 412.490
27.45000 409.229
27.46000 410.115
27.47000 411.028
27.48000 416.533
27.49000 425.589
27.50000 434.496
27.51000 432.713
27.52000 425.644
27.53000 418.933
27.54000 418.050
27.55000 419.208
27.56000 420.263
27.57000 420.407
27.58000 420.337
27.59000 420.277
27.60000 414.888
27.61000 409.633
27.62000 408.386
27.63000 421.532
27.64000 435.969
27.65000 443.447
27.66000 434.040
27.67000 423.878
27.68000 417.529
27.69000 423.748
27.70000 428.366
27.71000 427.142
27.72000 419.607
27.73000 412.120
27.74000 411.325
27.75000 415.211
27.76000 419.013
27.77000 420.290
27.78000 420.375
27.79000 420.856
27.80000 426.780
27.81000 434.441
27.82000 440.725
27.83000 436.262
27.84000 429.517
27.85000 423.796
27.86000 419.775
27.87000 416.596
27.88000 415.254
27.89000 419.907
27.90000 425.024
27.91000 429.470
27.92000 432.434
27.93000 435.343
27.94000 437.091
27.95000 439.178
27.96000 440.664
27.97000 444.488
27.98000 450.580
27.99000 456.518
28.00000 450.001
28.01000 435.577
28.02000 421.556
28.03000 419.208
28.04000 421.734
28.05000 423.806
28.06000 420.495
28.07000 415.623
28.08000 411.221
28.09000 410.075
28.10000 409.553
28.11000 409.119
28.12000 416.127
28.13000 422.668
28.14000 428.098
28.15000 430.230
28.16000 432.145
28.17000 433.063
28.18000 431.974
28.19000 430.828
28.20000 430.168
28.21000 413.489
28.22000 401.766
28.23000 398.914
28.24000 403.790
28.25000 408.715
28.26000 416.384
28.27000 425.635
28.28000 434.564
28.29000 431.432
28.30000 424.045
28.31000 416.980
28.32000 413.222
28.33000 410.336
28.34000 407.659
28.35000 406.289
28.36000 405.143
28.37000 404.208
28.38000 405.964
28.39000 407.631
28.40000 409.458
28.41000 411.718
28.42000 414.002
28.43000 416.404
28.44000 419.021
28.45000 421.642
28.46000 423.084
28.47000 413.414
28.48000 406.766
28.49000 408.712
28.50000 417.413
28.51000 425.893
28.52000 425.259
28.53000 419.844
28.54000 414.657
28.55000 415.336
28.56000 417.915
28.57000 420.727
28.58000 425.654
28.59000 431.085
28.60000 435.260
28.61000 432.451
28.62000 428.566
28.63000 425.460
28.64000 422.545
28.65000 420.203
28.66000 417.727
28.67000 414.916
28.68000 412.090
28.69000 411.238
28.70000 413.674
28.71000 416.160
28.72000 417.462
28.73000 426.410
28.74000 432.415
28.75000 430.395
28.76000 422.668
28.77000 415.189
28.78000 415.597
28.79000 419.774
28.80000 423.738
28.81000 420.917
28.82000 416.286
28.83000 412.153
28.84000 411.983
28.85000 412.669
28.86000 413.067
28.87000 412.025
28.88000 410.787
28.89000 409.819
28.90000 416.053
28.91000 421.484
28.92000 422.015
28.93000 411.546
28.94000 400.665
28.95000 396.990
28.96000 404.219
28.97000 411.560
28.98000 410.358
28.99000 400.731
29.00000 391.201
29.01000 390.233
29.02000 394.785
29.03000 399.248
29.04000 401.473
29.05000 402.725
29.06000 403.902
29.07000 405.214
29.08000 406.448
29.09000 406.662
29.10000 399.666
29.11000 391.265
29.12000 385.819
29.13000 393.714
29.14000 403.233
29.15000 410.496
29.16000 406.766
29.17000 403.238
29.18000 403.088
29.19000 409.846
29.20000 416.808
29.21000 416.736
29.22000 407.018
29.23000 397.245
29.24000 390.334
29.25000 385.962
29.26000 381.715
29.27000 384.800
29.28000 392.181
29.29000 399.416
29.30000 403.647
29.31000 406.687
29.32000 409.516
29.33000 407.749
29.34000 405.042
29.35000 403.007
29.36000 405.210
29.37000 408.155
29.38000 409.713
29.39000 405.603
29.40000 400.886
29.41000 397.378
29.42000 397.917
29.43000 398.516
29.44000 398.448
29.45000 397.138
29.46000 395.800
29.47000 395.488
29.48000 396.449
29.49000 397.411
29.50000 398.677
29.51000 400.178
29.52000 401.674
29.53000 402.902
29.54000 403.989
29.55000 404.904
29.56000 402.869
29.57000 399.769
29.58000 396.918
29.59000 391.552
29.60000 386.213
29.61000 382.108
29.62000 384.982
29.63000 388.950
29.64000 393.102
29.65000 397.935
29.66000 402.832
29.67000 406.376
29.68000 399.902
29.69000 394.564
29.70000 392.705
29.71000 396.732
29.72000 400.856
29.73000 402.432
29.74000 401.159
29.75000 399.889
29.76000 399.162
29.77000 398.831
29.78000 398.389
29.79000 394.268
29.80000 388.363
29.81000 382.963
29.82000 384.890
29.83000 389.226
29.84000 393.165
29.85000 396.972
29.86000 400.311
29.87000 403.064
29.88000 402.839
29.89000 402.198
29.90000 402.211
29.91000 404.425
29.92000 406.818
29.93000 408.500
29.94000 404.665
29.95000 401.598
29.96000 398.562
29.97000 395.574
29.98000 392.586
29.99000 394.291
30.00000 400.706
30.01000 407.081
30.02000 411.233
30.03000 413.892
30.04000 416.402
30.05000 415.032
30.06000 411.947
30.07000 409.036
30.08000 408.288
30.09000 408.186
30.10000 408.095
30.11000 410.282
30.12000 412.587
30.13000 414.498
30.14000 414.603
30.15000 414.484
30.16000 414.529
30.17000 415.078
30.18000 415.661
30.19000 416.059
30.20000 414.016
30.21000 412.432
30.22000 409.122
30.23000 403.405
30.24000 397.674
30.25000 395.527
30.26000 396.611
30.27000 397.684
30.28000 398.551
30.29000 399.280
30.30000 400.074
30.31000 402.259
30.32000 405.005
30.33000 407.795
30.34000 411.062
30.35000 414.459
30.36000 417.460
30.37000 412.791
30.38000 407.580
30.39000 403.595
30.40000 404.702
30.41000 406.365
30.42000 406.809
30.43000 403.851
30.44000 400.692
30.45000 398.609
30.46000 398.235
30.47000 397.989
30.48000 396.320
30.49000 392.856
30.50000 389.397
30.51000 389.931
30.52000 393.707
30.53000 397.430
30.54000 401.066
30.55000 404.552
30.56000 407.798
30.57000 406.804
30.58000 404.256
30.59000 401.789
30.60000 400.080
30.61000 398.558
30.62000 397.235
30.63000 395.399
30.64000 393.762
30.65000 393.332
30.66000 397.441
30.67000 401.985
30.68000 404.508
30.69000 401.899
30.70000 399.036
30.71000 397.216
30.72000 390.457
30.73000 385.484
30.74000 384.813
30.75000 389.034
30.76000 393.267
30.77000 398.809
30.78000 405.313
30.79000 411.692
30.80000 414.730
30.81000 416.071
30.82000 417.301
30.83000 416.877
30.84000 415.902
30.85000 415.357
30.86000 418.381
30.87000 422.203
30.88000 425.471
30.89000 427.287
30.90000 428.643
30.91000 431.846
30.92000 441.362
30.93000 451.403
30.94000 460.056
30.95000 465.497
30.96000 470.808
30.97000 474.061
30.98000 472.549
30.99000 471.426
31.00000 472.174
31.01000 474.833
31.02000 477.539
31.03000 484.961
31.04000 495.521
31.05000 505.819
31.06000 521.991
31.07000 539.952
31.08000 557.578
31.09000 570.942
31.10000 583.012
31.11000 596.168
31.12000 617.303
31.13000 640.046
31.14000 659.154
31.15000 682.347
31.16000 702.100
31.17000 722.817
31.18000 746.528
31.19000 770.453
31.20000 802.266
31.21000 850.700
31.22000 899.667
31.23000 928.454
31.24000 969.364
31.25000 998.274
31.26000 1023.708
31.27000 1045.956
31.28000 1068.430
31.29000 1105.917
31.30000 1152.474
31.31000 1197.571
31.32000 1234.831
31.33000 1267.054
31.34000 1297.797
31.35000 1312.246
31.36000 1322.198
31.37000 1331.539
31.38000 1336.889
31.39000 1341.514
31.40000 1345.327
31.41000 1329.099
31.42000 1313.898
31.43000 1301.674
31.44000 1297.870
31.45000 1294.578
31.46000 1286.299
31.47000 1268.455
31.48000 1250.375
31.49000 1240.203
31.50000 1191.560
31.51000 1157.687
31.52000 1120.046
31.53000 1079.292
31.54000 1038.623
31.55000 1001.975
31.56000 967.536
31.57000 934.425
31.58000 897.866
31.59000 862.410
31.60000 828.052
31.61000 804.260
31.62000 783.114
31.63000 759.429
31.64000 720.880
31.65000 679.914
31.66000 646.828
31.67000 630.867
31.68000 619.256
31.69000 608.039
31.70000 597.836
31.71000 587.685
31.72000 577.281
31.73000 566.435
31.74000 555.582
31.75000 549.758
31.76000 535.385
31.77000 525.578
31.78000 518.392
31.79000 513.162
31.80000 507.785
31.81000 497.124
31.82000 483.821
31.83000 471.138
31.84000 462.854
31.85000 456.554
31.86000 450.538
31.87000 446.925
31.88000 443.858
31.89000 442.127
31.90000 447.428
31.91000 453.751
31.92000 458.747
31.93000 439.861
31.94000 423.063
31.95000 409.967
31.96000 405.565
31.97000 401.524
31.98000 399.998
31.99000 402.459
32.00000 404.970
32.01000 406.250
32.02000 412.250
32.03000 416.283
32.04000 420.981
32.05000 426.130
32.06000 430.785
32.07000 421.564
32.08000 406.026
32.09000 391.347
32.10000 389.388
32.11000 391.190
32.12000 392.891
32.13000 393.834
32.14000 394.621
32.15000 395.228
32.16000 394.977
32.17000 394.616
32.18000 394.337
32.19000 398.339
32.20000 401.761
32.21000 403.946
32.22000 403.483
32.23000 402.931
32.24000 399.521
32.25000 391.998
32.26000 384.444
32.27000 382.576
32.28000 386.011
32.29000 389.377
32.30000 387.774
32.31000 383.123
32.32000 378.603
32.33000 377.047
32.34000 376.721
32.35000 376.417
32.36000 368.513
32.37000 359.401
32.38000 351.963
32.39000 355.676
32.40000 361.446
32.41000 365.606
32.42000 362.858
32.43000 359.322
32.44000 356.658
32.45000 358.893
32.46000 360.882
32.47000 361.703
32.48000 360.250
32.49000 358.738
32.50000 359.738
32.51000 364.010
32.52000 368.291
32.53000 372.582
32.54000 376.867
32.55000 381.095
32.56000 382.432
32.57000 382.155
32.58000 381.492
32.59000 373.609
32.60000 362.997
32.61000 353.182
32.62000 356.471
32.63000 362.419
32.64000 367.448
32.65000 367.001
32.66000 365.649
32.67000 364.449
32.68000 363.842
32.69000 363.294
32.70000 362.893
32.71000 368.493
32.72000 373.063
32.73000 372.536
32.74000 362.975
32.75000 353.241
32.76000 350.837
32.77000 357.052
32.78000 363.265
32.79000 365.008
32.80000 363.370
32.81000 361.775
32.82000 361.756
32.83000 362.536
32.84000 363.410
32.85000 365.760
32.86000 368.619
32.87000 371.232
32.88000 370.862
32.89000 369.923
32.90000 368.808
32.91000 366.752
32.92000 364.557
32.93000 363.619
32.94000 367.113
32.95000 370.993
32.96000 373.760
32.97000 373.337
32.98000 372.910
32.99000 370.663
33.00000 365.486
33.01000 360.269
33.02000 357.859
33.03000 358.418
33.04000 358.976
33.05000 359.836
33.06000 360.892
33.07000 361.911
33.08000 361.831
33.09000 361.244
33.10000 360.588
33.11000 359.003
33.12000 357.127
33.13000 355.434
33.14000 354.875
33.15000 354.590
33.16000 353.710
33.17000 349.957
33.18000 345.825
33.19000 342.443
33.20000 341.469
33.21000 340.675
33.22000 340.126
33.23000 340.696
33.24000 341.154
33.25000 340.039
33.26000 336.623
33.27000 333.188
33.28000 328.966
33.29000 323.997
33.30000 319.069
33.31000 319.622
33.32000 323.517
33.33000 327.451
33.34000 332.261
33.35000 337.441
33.36000 341.951
33.37000 338.734
33.38000 333.318
33.39000 328.499
33.40000 331.725
33.41000 335.837
33.42000 339.030
33.43000 338.219
33.44000 336.940
33.45000 334.770
33.46000 329.998
33.47000 325.059
33.48000 321.750
33.49000 327.456
33.50000 331.871
33.51000 334.077
33.52000 333.360
33.53000 332.632
33.54000 333.739
33.55000 336.413
33.56000 339.054
33.57000 336.421
33.58000 330.941
33.59000 325.811
33.60000 327.440
33.61000 331.661
33.62000 335.590
33.63000 336.595
33.64000 336.844
33.65000 337.062
33.66000 332.947
33.67000 328.788
33.68000 325.669
33.69000 326.651
33.70000 328.053
33.71000 327.958
33.72000 323.888
33.73000 319.603
33.74000 316.829
33.75000 315.482
33.76000 314.518
33.77000 317.073
33.78000 323.835
33.79000 330.583
33.80000 331.742
33.81000 328.591
33.82000 325.492
33.83000 321.617
33.84000 317.481
33.85000 314.030
33.86000 321.642
33.87000 333.118
33.88000 343.480
33.89000 344.023
33.90000 342.267
33.91000 340.753
33.92000 339.039
33.93000 337.559
33.94000 335.444
33.95000 331.056
33.96000 326.465
33.97000 322.252
33.98000 318.955
33.99000 315.698
34.00000 313.666
34.01000 322.397
34.02000 328.804
34.03000 330.686
34.04000 327.698
34.05000 324.706
34.06000 321.460
34.07000 318.036
34.08000 314.687
34.09000 312.247
34.10000 310.315
34.11000 308.860
34.12000 313.935
34.13000 321.088
34.14000 327.665
34.15000 329.771
34.16000 330.930
34.17000 331.913
34.18000 326.287
34.19000 320.829
34.20000 316.938
34.21000 318.147
34.22000 319.750
34.23000 323.379
34.24000 331.475
34.25000 339.731
34.26000 344.684
34.27000 331.635
34.28000 322.245
34.29000 318.357
34.30000 319.782
34.31000 321.189
34.32000 321.170
34.33000 320.249
34.34000 319.353
34.35000 319.524
34.36000 320.119
34.37000 320.200
34.38000 314.208
34.39000 306.460
34.40000 299.833
34.41000 300.959
34.42000 303.564
34.43000 305.732
34.44000 309.341
34.45000 312.470
34.46000 314.213
34.47000 311.849
34.48000 309.214
34.49000 308.455
34.50000 311.465
34.51000 314.582
34.52000 316.373
34.53000 308.600
34.54000 303.136
34.55000 305.550
34.56000 314.804
34.57000 323.880
34.58000 323.050
34.59000 316.525
34.60000 310.228
34.61000 311.120
34.62000 314.596
34.63000 317.763
34.64000 317.775
34.65000 316.957
34.66000 316.665
34.67000 319.618
34.68000 323.127
34.69000 325.990
34.70000 321.748
34.71000 317.672
34.72000 314.206
34.73000 312.385
34.74000 310.656
34.75000 310.629
34.76000 313.712
34.77000 316.861
34.78000 318.591
34.79000 327.542
34.80000 333.684
34.81000 331.590
34.82000 323.043
34.83000 314.751
34.84000 316.949
34.85000 324.634
34.86000 331.992
34.87000 330.254
34.88000 325.627
34.89000 321.145
34.90000 317.968
34.91000 315.101
34.92000 313.816
34.93000 321.294
34.94000 330.117
34.95000 337.164
34.96000 319.081
34.97000 302.619
34.98000 292.367
34.99000 297.368
35.00000 303.070
35.01000 310.832
35.02000 322.017
35.03000 333.254
35.04000 339.130
35.05000 326.447
35.06000 317.871
35.07000 311.296
35.08000 306.140
35.09000 301.060
35.10000 298.406
35.11000 296.906
35.12000 295.483
35.13000 300.246
35.14000 306.483
35.15000 312.205
35.16000 313.840
35.17000 314.595
35.18000 314.114
35.19000 307.474
35.20000 299.991
35.21000 294.147
35.22000 297.433
35.23000 300.630
35.24000 302.715
35.25000 302.313
35.26000 301.819
35.27000 302.957
35.28000 306.560
35.29000 310.188
35.30000 312.293
35.31000 312.902
35.32000 313.474
35.33000 310.946
35.34000 306.425
35.35000 302.050
35.36000 301.333
35.37000 302.205
35.38000 303.024
35.39000 304.164
35.40000 305.290
35.41000 306.339
35.42000 306.839
35.43000 307.233
35.44000 307.621
35.45000 307.987
35.46000 308.351
35.47000 308.628
35.48000 306.537
35.49000 304.765
35.50000 303.318
35.51000 302.534
35.52000 301.771
35.53000 303.614
35.54000 309.022
35.55000 314.448
35.56000 312.257
35.57000 303.350
35.58000 294.664
35.59000 298.962
35.60000 310.842
35.61000 322.071
35.62000 319.989
35.63000 312.644
35.64000 305.813
35.65000 304.060
35.66000 303.701
35.67000 303.356
35.68000 303.109
35.69000 302.879
35.70000 302.539
35.71000 301.755
35.72000 300.922
35.73000 300.304
35.74000 301.197
35.75000 301.958
35.76000 301.724
35.77000 299.640
35.78000 297.516
35.79000 298.160
35.80000 302.225
35.81000 306.293
35.82000 307.310
35.83000 305.902
35.84000 304.489
35.85000 302.827
35.86000 301.033
35.87000 299.433
35.88000 301.154
35.89000 304.072
35.90000 306.754
35.91000 309.640
35.92000 312.262
35.93000 314.342
35.94000 313.366
35.95000 311.912
35.96000 310.210
35.97000 307.592
35.98000 304.887
35.99000 302.931
36.00000 305.662
36.01000 307.927
36.02000 305.608
36.03000 295.550
36.04000 285.367
36.05000 280.138
36.06000 280.428
36.07000 280.721
36.08000 283.385
36.09000 287.718
36.10000 291.960
36.11000 293.250
36.12000 293.112
36.13000 292.884
36.14000 291.372
36.15000 289.439
36.16000 287.683
36.17000 293.695
36.18000 300.504
36.19000 305.015
36.20000 297.870
36.21000 289.100
36.22000 283.596
36.23000 289.057
36.24000 295.404
36.25000 299.862
36.26000 299.580
36.27000 299.228
36.28000 299.285
36.29000 299.967
36.30000 300.657
36.31000 300.491
36.32000 299.471
36.33000 298.457
36.34000 297.903
36.35000 297.653
36.36000 297.327
36.37000 295.020
36.38000 291.841
36.39000 289.257
36.40000 294.037
36.41000 301.013
36.42000 307.263
36.43000 300.446
36.44000 292.241
36.45000 285.485
36.46000 285.357
36.47000 286.049
36.48000 286.995
36.49000 288.715
36.50000 290.490
36.51000 291.698
36.52000 292.322
36.53000 292.775
36.54000 294.192
36.55000 296.949
36.56000 299.713
36.57000 299.753
36.58000 297.347
36.59000 294.964
36.60000 294.958
36.61000 296.332
36.62000 297.598
36.63000 296.610
36.64000 294.716
36.65000 292.816
36.66000 290.842
36.67000 288.848
36.68000 287.088
36.69000 284.895
36.70000 282.937
36.71000 282.011
36.72000 285.360
36.73000 289.175
36.74000 291.359
36.75000 289.008
36.76000 286.391
36.77000 284.668
36.78000 290.423
36.79000 294.792
36.80000 297.922
36.81000 299.495
36.82000 301.062
36.83000 301.812
36.84000 301.901
36.85000 301.989
36.86000 302.387
36.87000 302.936
36.88000 303.440
36.89000 303.158
36.90000 302.587
36.91000 302.326
36.92000 304.966
36.93000 308.319
36.94000 311.233
36.95000 307.278
36.96000 302.971
36.97000 300.012
36.98000 302.106
36.99000 304.683
37.00000 303.644
37.01000 293.453
37.02000 282.815
37.03000 276.054
37.04000 281.461
37.05000 285.538
37.06000 288.954
37.07000 291.620
37.08000 294.260
37.09000 292.731
37.10000 288.150
37.11000 283.656
37.12000 282.048
37.13000 281.864
37.14000 281.826
37.15000 283.944
37.16000 286.781
37.17000 289.157
37.18000 287.739
37.19000 285.477
37.20000 283.543
37.21000 287.513
37.22000 291.566
37.23000 293.929
37.24000 290.534
37.25000 286.662
37.26000 284.517
37.27000 286.358
37.28000 288.359
37.29000 289.582
37.30000 276.791
37.31000 267.520
37.32000 266.767
37.33000 274.686
37.34000 282.545
37.35000 284.367
37.36000 282.183
37.37000 280.054
37.38000 282.284
37.39000 286.274
37.40000 290.160
37.41000 292.738
37.42000 294.920
37.43000 296.061
37.44000 289.583
37.45000 281.577
37.46000 274.854
37.47000 280.319
37.48000 286.151
37.49000 290.239
37.50000 288.924
37.51000 287.224
37.52000 286.455
37.53000 287.645
37.54000 288.896
37.55000 289.631
37.56000 291.470
37.57000 292.769
37.58000 290.214
37.59000 284.137
37.60000 278.122
37.61000 276.212
37.62000 276.774
37.63000 277.319
37.64000 279.854
37.65000 283.019
37.66000 285.799
37.67000 284.356
37.68000 281.751
37.69000 279.515
37.70000 279.684
37.71000 280.288
37.72000 280.786
37.73000 287.037
37.74000 292.708
37.75000 295.362
37.76000 289.505
37.77000 283.134
37.78000 280.753
37.79000 286.006
37.80000 291.445
37.81000 294.501
37.82000 289.498
37.83000 286.012
37.84000 284.552
37.85000 284.760
37.86000 285.040
37.87000 288.646
37.88000 294.074
37.89000 299.292
37.90000 293.474
37.91000 284.187
37.92000 275.638
37.93000 274.154
37.94000 274.434
37.95000 274.804
37.96000 275.693
37.97000 276.667
37.98000 277.452
37.99000 278.686
38.00000 279.723
38.01000 281.116
38.02000 283.420
38.03000 285.770
38.04000 287.689
38.05000 288.856
38.06000 290.009
38.07000 290.627
38.08000 285.375
38.09000 281.795
38.10000 279.773
38.11000 278.909
38.12000 278.177
38.13000 282.135
38.14000 288.431
38.15000 294.432
38.16000 294.774
38.17000 293.318
38.18000 292.121
38.19000 293.105
38.20000 294.581
38.21000 295.136
38.22000 290.861
38.23000 285.887
38.24000 281.958
38.25000 290.928
38.26000 299.006
38.27000 304.338
38.28000 303.242
38.29000 301.880
38.30000 301.623
38.31000 303.112
38.32000 304.623
38.33000 305.392
38.34000 308.723
38.35000 310.948
38.36000 312.308
38.37000 313.085
38.38000 314.147
38.39000 323.147
38.40000 335.751
38.41000 347.654
38.42000 351.715
38.43000 353.228
38.44000 355.503
38.45000 363.453
38.46000 372.562
38.47000 381.574
38.48000 390.127
38.49000 398.621
38.50000 405.174
38.51000 435.844
38.52000 461.546
38.53000 482.086
38.54000 491.616
38.55000 500.781
38.56000 518.999
38.57000 550.203
38.58000 581.504
38.59000 601.746
38.60000 611.701
38.61000 621.805
38.62000 642.300
38.63000 669.151
38.64000 695.703
38.65000 715.522
38.66000 732.556
38.67000 748.480
38.68000 758.624
38.69000 766.366
38.70000 775.768
38.71000 796.197
38.72000 818.652
38.73000 835.833
38.74000 830.468
38.75000 822.539
38.76000 816.571
38.77000 809.173
38.78000 803.316
38.79000 795.490
38.80000 783.841
38.81000 772.094
38.82000 757.999
38.83000 740.856
38.84000 723.719
38.85000 696.703
38.86000 661.519
38.87000 626.581
38.88000 603.889
38.89000 588.006
38.90000 571.682
38.91000 547.141
38.92000 519.503
38.93000 493.949
38.94000 481.902
38.95000 474.161
38.96000 464.943
38.97000 446.957
38.98000 427.524
38.99000 409.097
39.00000 394.562
39.01000 380.416
39.02000 370.047
39.03000 357.594
39.04000 347.892
39.05000 338.240
39.06000 328.675
39.07000 319.112
39.08000 313.461
39.09000 312.397
39.10000 311.343
39.11000 307.354
39.12000 301.188
39.13000 295.128
39.14000 293.026
39.15000 292.927
39.16000 292.779
39.17000 291.856
39.18000 290.666
39.19000 289.579
39.20000 287.712
39.21000 285.894
39.22000 283.732
39.23000 279.727
39.24000 275.451
39.25000 273.207
39.26000 278.109
39.27000 283.631
39.28000 287.565
39.29000 281.896
39.30000 277.263
39.31000 273.853
39.32000 272.410
39.33000 270.993
39.34000 273.133
39.35000 279.026
39.36000 284.889
39.37000 287.880
39.38000 288.892
39.39000 289.683
39.40000 284.089
39.41000 275.552
39.42000 267.469
39.43000 265.428
39.44000 265.275
39.45000 265.136
39.46000 263.122
39.47000 261.011
39.48000 259.769
39.49000 262.708
39.50000 266.196
39.51000 268.941
39.52000 269.313
39.53000 269.508
39.54000 269.642
39.55000 271.646
39.56000 273.201
39.57000 273.621
39.58000 272.386
39.59000 271.138
39.60000 270.578
39.61000 270.669
39.62000 270.759
39.63000 268.102
39.64000 263.819
39.65000 259.698
39.66000 259.370
39.67000 260.635
39.68000 261.461
39.69000 257.237
39.70000 251.581
39.71000 246.551
39.72000 255.125
39.73000 264.774
39.74000 272.575
39.75000 272.343
39.76000 271.179
39.77000 270.969
39.78000 273.538
39.79000 276.284
39.80000 278.122
39.81000 269.250
39.82000 262.458
39.83000 260.080
39.84000 263.530
39.85000 266.999
39.86000 265.343
39.87000 259.323
39.88000 253.377
39.89000 251.287
39.90000 251.372
39.91000 251.568
39.92000 253.906
39.93000 257.063
39.94000 259.605
39.95000 256.008
39.96000 250.830
39.97000 246.293
39.98000 246.861
39.99000 248.083
40.00000 248.163
40.01000 243.755
40.02000 238.889
40.03000 237.432
40.04000 245.008
40.05000 253.067
40.06000 258.279
40.07000 255.052
40.08000 252.569
40.09000 251.686
40.10000 252.711
40.11000 253.739
40.12000 254.730
40.13000 255.692
40.14000 256.639
40.15000 259.251
40.16000 262.607
40.17000 265.607
40.18000 262.913
40.19000 258.235
40.20000 253.830
40.21000 251.823
40.22000 250.376
40.23000 249.128
40.24000 247.543
40.25000 246.155
40.26000 245.096
40.27000 245.207
40.28000 245.423
40.29000 246.765
40.30000 250.825
40.31000 255.005
40.32000 257.611
40.33000 254.610
40.34000 252.390
40.35000 250.021
40.36000 247.492
40.37000 244.991
40.38000 246.105
40.39000 249.732
40.40000 253.280
40.41000 250.207
40.42000 244.290
40.43000 238.980
40.44000 241.945
40.45000 247.534
40.46000 252.713
40.47000 254.713
40.48000 256.042
40.49000 257.168
40.50000 254.840
40.51000 252.503
40.52000 249.973
40.53000 246.813
40.54000 243.605
40.55000 241.653
40.56000 242.463
40.57000 243.371
40.58000 243.915
40.59000 241.789
40.60000 240.263
40.61000 239.698
40.62000 240.060
40.63000 240.407
40.64000 239.651
40.65000 238.198
40.66000 236.787
40.67000 242.504
40.68000 250.823
40.69000 258.448
40.70000 257.915
40.71000 255.031
40.72000 252.042
40.73000 248.330
40.74000 244.480
40.75000 241.279
40.76000 238.683
40.77000 236.593
40.78000 235.284
40.79000 236.275
40.80000 237.418
40.81000 240.732
40.82000 248.394
40.83000 256.178
40.84000 260.647
40.85000 249.377
40.86000 241.446
40.87000 238.096
40.88000 238.710
40.89000 239.311
40.90000 239.194
40.91000 238.665
40.92000 238.154
40.93000 237.978
40.94000 237.933
40.95000 238.105
40.96000 240.483
40.97000 243.439
40.98000 246.083
40.99000 246.806
41.00000 247.201
41.01000 247.523
41.02000 241.193
41.03000 235.452
41.04000 233.327
41.05000 240.923
41.06000 249.057
41.07000 252.232
41.08000 246.373
41.09000 240.323
41.10000 237.004
41.11000 235.243
41.12000 234.041
41.13000 234.672
41.14000 236.735
41.15000 238.674
41.16000 235.591
41.17000 229.886
41.18000 224.426
41.19000 227.872
41.20000 234.019
41.21000 240.152
41.22000 246.171
41.23000 252.163
41.24000 256.023
41.25000 248.113
41.26000 238.401
41.27000 230.649
41.28000 236.316
41.29000 241.877
41.30000 243.665
41.31000 236.209
41.32000 228.331
41.33000 225.692
41.34000 231.733
41.35000 237.904
41.36000 241.126
41.37000 237.686
41.38000 235.394
41.39000 238.103
41.40000 244.348
41.41000 250.289
41.42000 246.721
41.43000 238.637
41.44000 230.967
41.45000 229.944
41.46000 230.975
41.47000 231.630
41.48000 229.319
41.49000 226.371
41.50000 225.479
41.51000 234.804
41.52000 245.522
41.53000 253.887
41.54000 245.917
41.55000 238.537
41.56000 233.257
41.57000 232.661
41.58000 232.238
41.59000 233.553
41.60000 237.484
41.61000 241.440
41.62000 245.937
41.63000 250.964
41.64000 255.909
41.65000 253.789
41.66000 247.143
41.67000 240.621
41.68000 237.211
41.69000 235.147
41.70000 233.208
41.71000 230.796
41.72000 228.468
41.73000 226.547
41.74000 227.484
41.75000 228.973
41.76000 230.221
41.77000 230.387
41.78000 230.422
41.79000 230.448
41.80000 231.705
41.81000 232.759
41.82000 232.405
41.83000 229.189
41.84000 225.890
41.85000 226.535
41.86000 232.558
41.87000 238.609
41.88000 238.944
41.89000 234.255
41.90000 229.676
41.91000 231.506
41.92000 237.067
41.93000 242.157
41.94000 237.629
41.95000 229.310
41.96000 221.576
41.97000 219.332
41.98000 218.625
41.99000 218.120
42.00000 218.878
42.01000 219.855
42.02000 221.884
42.03000 228.182
42.04000 234.934
42.05000 239.948
42.06000 230.660
42.07000 222.810
42.08000 218.912
42.09000 222.325
42.10000 225.899
42.11000 227.348
42.12000 226.176
42.13000 224.999
42.14000 227.806
42.15000 233.748
42.16000 239.513
42.17000 237.765
42.18000 232.038
42.19000 226.506
42.20000 224.282
42.21000 223.245
42.22000 222.292
42.23000 224.244
42.24000 226.613
42.25000 229.354
42.26000 234.187
42.27000 239.347
42.28000 242.306
42.29000 237.158
42.30000 231.257
42.31000 226.993
42.32000 227.851
42.33000 228.694
42.34000 227.339
42.35000 222.284
42.36000 217.170
42.37000 215.907
42.38000 218.919
42.39000 221.923
42.40000 222.364
42.41000 220.978
42.42000 219.696
42.43000 221.786
42.44000 225.502
42.45000 228.980
42.46000 229.054
42.47000 228.015
42.48000 227.072
42.49000 225.482
42.50000 223.953
42.51000 222.852
42.52000 223.910
42.53000 225.269
42.54000 227.890
42.55000 234.735
42.56000 241.919
42.57000 246.961
42.58000 240.709
42.59000 235.649
42.60000 233.147
42.61000 234.552
42.62000 236.000
42.63000 235.081
42.64000 231.803
42.65000 228.546
42.66000 228.728
42.67000 231.112
42.68000 233.333
42.69000 231.338
42.70000 227.490
42.71000 224.044
42.72000 225.546
42.73000 228.520
42.74000 231.182
42.75000 230.716
42.76000 229.771
42.77000 227.761
42.78000 220.886
42.79000 213.412
42.80000 208.359
42.81000 210.672
42.82000 213.495
42.83000 215.415
42.84000 225.137
42.85000 232.574
42.86000 235.896
42.87000 233.519
42.88000 231.104
42.89000 228.549
42.90000 225.868
42.91000 223.214
42.92000 222.047
42.93000 221.766
42.94000 221.442
42.95000 220.194
42.96000 218.577
42.97000 217.274
42.98000 219.320
42.99000 222.272
43.00000 224.877
43.01000 227.189
43.02000 229.139
43.03000 229.483
43.04000 223.199
43.05000 216.194
43.06000 211.935
43.07000 215.285
43.08000 219.080
43.09000 221.576
43.10000 223.476
43.11000 224.864
43.12000 224.034
43.13000 220.423
43.14000 216.817
43.15000 217.914
43.16000 222.808
43.17000 227.631
43.18000 229.153
43.19000 228.909
43.20000 228.554
43.21000 226.278
43.22000 223.303
43.23000 220.621
43.24000 220.690
43.25000 221.433
43.26000 222.078
43.27000 229.162
43.28000 236.074
43.29000 241.174
43.30000 239.495
43.31000 237.172
43.32000 235.885
43.33000 237.215
43.34000 238.672
43.35000 239.597
43.36000 228.019
43.37000 219.462
43.38000 215.207
43.39000 215.814
43.40000 216.413
43.41000 215.015
43.42000 212.158
43.43000 209.357
43.44000 209.896
43.45000 211.989
43.46000 214.107
43.47000 216.594
43.48000 219.203
43.49000 221.024
43.50000 216.358
43.51000 210.253
43.52000 205.038
43.53000 214.013
43.54000 223.268
43.55000 228.973
43.56000 222.614
43.57000 215.259
43.58000 212.854
43.59000 221.836
43.60000 231.269
43.61000 237.032
43.62000 230.409
43.63000 225.570
43.64000 221.747
43.65000 218.958
43.66000 216.193
43.67000 215.865
43.68000 217.150
43.69000 218.402
43.70000 221.238
43.71000 224.619
43.72000 227.293
43.73000 221.038
43.74000 212.086
43.75000 204.253
43.76000 204.570
43.77000 206.519
43.78000 208.154
43.79000 218.811
43.80000 228.628
43.81000 235.816
43.82000 234.882
43.83000 233.372
43.84000 229.873
43.85000 222.207
43.86000 214.410
43.87000 209.838
43.88000 218.808
43.89000 225.191
43.90000 224.508
43.91000 217.390
43.92000 210.385
43.93000 210.807
43.94000 215.690
43.95000 220.417
43.96000 220.246
43.97000 218.202
43.98000 216.611
43.99000 219.962
44.00000 224.670
44.01000 228.609
44.02000 227.556
44.03000 225.604
44.04000 223.997
44.05000 218.826
44.06000 214.248
44.07000 211.986
44.08000 216.240
44.09000 220.885
44.10000 223.918
44.11000 223.877
44.12000 223.760
44.13000 223.695
44.14000 219.521
44.15000 216.623
44.16000 216.435
44.17000 218.472
44.18000 220.384
44.19000 216.525
44.20000 209.513
44.21000 202.775
44.22000 201.631
44.23000 202.499
44.24000 203.881
44.25000 210.167
44.26000 217.674
44.27000 223.705
44.28000 221.148
44.29000 217.203
44.30000 214.021
44.31000 215.786
44.32000 217.610
44.33000 218.000
44.34000 214.718
44.35000 211.251
44.36000 210.910
44.37000 215.995
44.38000 221.177
44.39000 223.949
44.40000 226.642
44.41000 228.469
44.42000 228.679
44.43000 227.689
44.44000 226.657
44.45000 224.153
44.46000 220.918
44.47000 217.835
44.48000 218.193
44.49000 219.600
44.50000 220.941
44.51000 221.733
44.52000 222.402
44.53000 222.698
44.54000 221.050
44.55000 219.121
44.56000 217.599
44.57000 214.436
44.58000 211.788
44.59000 210.677
44.60000 213.156
44.61000 215.782
44.62000 218.634
44.63000 221.843
44.64000 225.057
44.65000 226.689
44.66000 229.208
44.67000 230.880
44.68000 230.860
44.69000 229.704
44.70000 228.457
44.71000 224.687
44.72000 219.773
44.73000 215.134
44.74000 218.107
44.75000 222.974
44.76000 227.382
44.77000 228.373
44.78000 228.669
44.79000 228.972
44.80000 229.307
44.81000 229.646
44.82000 229.907
44.83000 234.254
44.84000 237.934
44.85000 242.093
44.86000 247.275
44.87000 252.491
44.88000 253.056
44.89000 246.968
44.90000 240.830
44.91000 238.610
44.92000 240.021
44.93000 241.415
44.94000 241.684
44.95000 241.267
44.96000 240.903
44.97000 241.757
44.98000 243.112
44.99000 244.379
45.00000 247.287
45.01000 250.342
45.02000 253.213
45.03000 254.876
45.04000 256.317
45.05000 258.157
45.06000 261.695
45.07000 265.426
45.08000 268.231
45.09000 268.889
45.10000 269.300
45.11000 269.720
45.12000 270.158
45.13000 270.596
45.14000 269.147
45.15000 265.253
45.16000 261.354
45.17000 260.276
45.18000 261.548
45.19000 262.841
45.20000 265.181
45.21000 268.102
45.22000 270.853
45.23000 270.474
45.24000 268.918
45.25000 267.480
45.26000 262.248
45.27000 256.690
45.28000 252.240
45.29000 254.346
45.30000 257.530
45.31000 260.260
45.32000 261.238
45.33000 262.043
45.34000 262.632
45.35000 260.134
45.36000 258.083
45.37000 256.929
45.38000 257.358
45.39000 257.817
45.40000 260.483
45.41000 265.728
45.42000 270.962
45.43000 270.035
45.44000 264.502
45.45000 259.167
45.46000 261.100
45.47000 266.701
45.48000 271.846
45.49000 269.892
45.50000 265.509
45.51000 261.507
45.52000 261.356
45.53000 262.004
45.54000 261.697
45.55000 256.316
45.56000 250.188
45.57000 245.272
45.58000 244.603
45.59000 244.301
45.60000 244.086
45.61000 241.750
45.62000 239.902
45.63000 238.607
45.64000 238.196
45.65000 237.797
45.66000 239.883
45.67000 244.582
45.68000 249.256
45.69000 245.109
45.70000 235.061
45.71000 225.261
45.72000 222.573
45.73000 223.154
45.74000 223.911
45.75000 226.994
45.76000 230.803
45.77000 234.235
45.78000 235.367
45.79000 235.942
45.80000 235.511
45.81000 230.258
45.82000 224.374
45.83000 220.142
45.84000 221.170
45.85000 222.591
45.86000 223.572
45.87000 228.750
45.88000 232.750
45.89000 234.669
45.90000 233.563
45.91000 232.433
45.92000 231.194
45.93000 229.853
45.94000 228.524
45.95000 226.906
45.96000 225.144
45.97000 223.499
45.98000 224.574
45.99000 226.789
46.00000 229.025
46.01000 231.508
46.02000 234.062
46.03000 236.331
46.04000 229.536
46.05000 222.173
46.06000 215.641
46.07000 212.705
46.08000 210.184
46.09000 207.963
46.10000 206.608
46.11000 205.309
46.12000 204.440
46.13000 210.870
46.14000 215.780
46.15000 217.050
46.16000 213.528
46.17000 209.990
46.18000 209.923
46.19000 212.802
46.20000 215.645
46.21000 215.691
46.22000 214.200
46.23000 212.672
46.24000 210.423
46.25000 207.899
46.26000 205.631
46.27000 205.909
46.28000 206.841
46.29000 207.658
46.30000 204.948
46.31000 202.118
46.32000 199.133
46.33000 195.540
46.34000 191.885
46.35000 190.865
46.36000 196.804
46.37000 203.114
46.38000 207.190
46.39000 204.252
46.40000 202.003
46.41000 201.305
46.42000 202.450
46.43000 203.583
46.44000 201.266
46.45000 196.306
46.46000 191.429
46.47000 193.150
46.48000 198.083
46.49000 202.682
46.50000 201.958
46.51000 199.384
46.52000 196.672
46.53000 192.744
46.54000 188.533
46.55000 184.905
46.56000 186.405
46.57000 188.328
46.58000 191.453
46.59000 198.858
46.60000 206.642
46.61000 211.617
46.62000 209.830
46.63000 207.746
46.64000 206.448
46.65000 205.000
46.66000 203.956
46.67000 201.858
46.68000 198.634
46.69000 195.424
46.70000 194.116
46.71000 194.125
46.72000 194.134
46.73000 193.474
46.74000 192.541
46.75000 191.749
46.76000 192.869
46.77000 194.595
46.78000 196.865
46.79000 203.338
46.80000 210.695
46.81000 216.924
46.82000 210.709
46.83000 204.116
46.84000 198.494
46.85000 196.017
46.86000 193.779
46.87000 193.066
46.88000 195.696
46.89000 198.444
46.90000 200.088
46.91000 198.162
46.92000 196.772
46.93000 196.352
46.94000 196.862
46.95000 197.357
46.96000 196.695
46.97000 195.304
46.98000 193.953
46.99000 190.810
47.00000 187.102
47.01000 183.735
47.02000 184.374
47.03000 186.163
47.04000 187.935
47.05000 189.587
47.06000 191.215
47.07000 192.569
47.08000 194.039
47.09000 195.267
47.10000 196.102
47.11000 195.780
47.12000 195.384
47.13000 194.158
47.14000 191.275
47.15000 188.346
47.16000 186.667
47.17000 190.236
47.18000 192.746
47.19000 193.235
47.20000 191.980
47.21000 190.725
47.22000 189.428
47.23000 188.107
47.24000 186.834
47.25000 187.152
47.26000 188.032
47.27000 188.727
47.28000 187.546
47.29000 185.874
47.30000 184.698
47.31000 186.555
47.32000 188.929
47.33000 190.864
47.34000 189.541
47.35000 188.184
47.36000 187.851
47.37000 190.264
47.38000 192.828
47.39000 194.150
47.40000 193.215
47.41000 192.233
47.42000 191.695
47.43000 182.285
47.44000 175.826
47.45000 175.922
47.46000 181.124
47.47000 186.210
47.48000 186.633
47.49000 184.631
47.50000 182.715
47.51000 186.001
47.52000 190.771
47.53000 195.388
47.54000 198.645
47.55000 201.581
47.56000 203.122
47.57000 196.987
47.58000 189.682
47.59000 183.855
47.60000 184.726
47.61000 185.919
47.62000 186.552
47.63000 185.820
47.64000 185.026
47.65000 184.414
47.66000 184.103
47.67000 183.796
47.68000 183.636
47.69000 188.623
47.70000 191.979
47.71000 193.167
47.72000 192.827
47.73000 192.370
47.74000 188.299
47.75000 182.517
47.76000 177.032
47.77000 183.546
47.78000 193.103
47.79000 201.067
47.80000 196.484
47.81000 189.218
47.82000 184.042
47.83000 189.223
47.84000 195.812
47.85000 200.950
47.86000 192.071
47.87000 184.118
47.88000 180.095
47.89000 184.818
47.90000 189.862
47.91000 192.108
47.92000 190.154
47.93000 188.160
47.94000 185.890
47.95000 183.352
47.96000 180.853
47.97000 181.624
47.98000 184.487
47.99000 187.125
48.00000 184.216
48.01000 178.913
48.02000 173.932
48.03000 176.785
48.04000 181.473
48.05000 184.862
48.06000 179.158
48.07000 171.699
48.08000 165.045
48.09000 161.991
48.10000 159.370
48.11000 157.375
48.12000 169.132
48.13000 179.110
48.14000 183.923
48.15000 178.269
48.16000 172.311
48.17000 171.400
48.18000 177.347
48.19000 183.330
48.20000 186.937
48.21000 188.458
48.22000 189.909
48.23000 187.302
48.24000 182.340
48.25000 177.637
48.26000 178.162
48.27000 180.742
48.28000 183.140
48.29000 180.900
48.30000 177.768
48.31000 175.456
48.32000 178.263
48.33000 181.958
48.34000 185.492
48.35000 188.374
48.36000 191.187
48.37000 193.274
48.38000 186.176
48.39000 180.258
48.40000 177.205
48.41000 179.439
48.42000 181.789
48.43000 182.948
48.44000 182.645
48.45000 182.339
48.46000 181.336
48.47000 179.789
48.48000 178.282
48.49000 178.462
48.50000 179.533
48.51000 180.716
48.52000 183.774
48.53000 187.504
48.54000 190.931
48.55000 187.172
48.56000 182.275
48.57000 178.595
48.58000 181.725
48.59000 185.913
48.60000 187.974
48.61000 182.221
48.62000 175.745
48.63000 171.069
48.64000 174.947
48.65000 178.227
48.66000 181.007
48.67000 182.947
48.68000 184.873
48.69000 184.736
48.70000 182.315
48.71000 179.901
48.72000 180.517
48.73000 183.276
48.74000 185.880
48.75000 183.523
48.76000 178.779
48.77000 174.307
48.78000 173.710
48.79000 174.378
48.80000 174.983
48.81000 175.077
48.82000 175.062
48.83000 175.279
48.84000 176.664
48.85000 178.211
48.86000 179.260
48.87000 178.646
48.88000 177.899
48.89000 177.376
48.90000 178.509
48.91000 179.415
48.92000 179.938
48.93000 179.879
48.94000 179.815
48.95000 178.270
48.96000 175.256
48.97000 172.261
48.98000 172.412
48.99000 174.572
49.00000 176.592
49.01000 175.025
49.02000 171.886
49.03000 168.980
49.04000 168.927
49.05000 169.720
49.06000 170.430
49.07000 177.542
49.08000 184.844
49.09000 190.598
49.10000 189.315
49.11000 187.167
49.12000 184.954
49.13000 182.537
49.14000 180.107
49.15000 178.456
49.16000 173.041
49.17000 168.915
49.18000 168.273
49.19000 172.443
49.20000 176.642
49.21000 178.310
49.22000 177.719
49.23000 177.135
49.24000 176.104
49.25000 174.838
49.26000 173.577
49.27000 172.444
49.28000 171.362
49.29000 170.547
49.30000 172.574
49.31000 175.366
49.32000 177.828
49.33000 173.177
49.34000 168.083
49.35000 165.040
49.36000 170.437
49.37000 176.748
49.38000 181.732
49.39000 183.047
49.40000 184.150
49.41000 184.875
49.42000 185.536
49.43000 186.022
49.44000 183.527
49.45000 177.311
49.46000 171.109
49.47000 173.666
49.48000 183.271
49.49000 192.737
49.50000 187.264
49.51000 174.173
49.52000 162.049
49.53000 166.708
49.54000 177.468
49.55000 187.051
49.56000 185.689
49.57000 181.655
49.58000 178.151
49.59000 174.049
49.60000 170.472
49.61000 168.336
49.62000 171.577
49.63000 175.328
49.64000 177.846
49.65000 177.261
49.66000 176.526
49.67000 176.060
49.68000 181.403
49.69000 185.350
49.70000 185.080
49.71000 180.062
49.72000 175.043
49.73000 170.519
49.74000 166.356
49.75000 162.274
49.76000 161.688
49.77000 162.767
49.78000 163.662
49.79000 161.858
49.80000 159.161
49.81000 156.970
49.82000 158.928
49.83000 161.803
49.84000 164.258
49.85000 170.313
49.86000 175.840
49.87000 179.593
49.88000 177.330
49.89000 174.572
49.90000 171.827
49.91000 169.110
49.92000 166.394
49.93000 164.736
49.94000 160.906
49.95000 158.151
49.96000 158.486
49.97000 161.947
49.98000 165.418
49.99000 169.803
50.00000 174.791
50.01000 179.652
50.02000 177.012
50.03000 171.309
50.04000 165.932
50.05000 164.636
50.06000 164.570
50.07000 164.550
50.08000 164.874
50.09000 165.265
50.10000 165.594
50.11000 168.121
50.12000 170.452
50.13000 172.862
50.14000 175.513
50.15000 178.182
50.16000 180.209
50.17000 180.896
50.18000 181.541
50.19000 181.919
50.20000 178.262
50.21000 175.668
50.22000 175.435
50.23000 177.345
50.24000 179.216
50.25000 178.507
50.26000 176.254
50.27000 174.072
50.28000 172.327
50.29000 170.845
50.30000 169.603
50.31000 170.967
50.32000 173.043
50.33000 174.514
50.34000 172.058
50.35000 168.898
50.36000 166.297
50.37000 174.105
50.38000 181.469
50.39000 186.937
50.40000 187.083
50.41000 186.911
50.42000 186.778
50.43000 186.721
50.44000 186.665
50.45000 186.633
50.46000 181.556
50.47000 178.034
50.48000 178.310
50.49000 181.694
50.50000 185.052
50.51000 187.244
50.52000 188.802
50.53000 190.297
50.54000 191.187
50.55000 191.809
50.56000 192.511
50.57000 193.961
50.58000 195.598
50.59000 196.343
50.60000 191.923
50.61000 186.670
50.62000 182.436
50.63000 183.308
50.64000 184.418
50.65000 186.316
50.66000 190.226
50.67000 194.236
50.68000 198.494
50.69000 203.180
50.70000 207.873
50.71000 210.380
50.72000 206.525
50.73000 203.899
50.74000 202.382
50.75000 201.685
50.76000 201.020
50.77000 201.458
50.78000 202.441
50.79000 203.378
50.80000 199.187
50.81000 193.707
50.82000 188.965
50.83000 190.397
50.84000 193.215
50.85000 195.536
50.86000 195.267
50.87000 194.625
50.88000 194.119
50.89000 194.817
50.90000 195.458
50.91000 193.556
50.92000 185.736
50.93000 177.675
50.94000 175.548
50.95000 182.752
50.96000 190.070
50.97000 193.783
50.98000 189.325
50.99000 186.355
51.00000 185.091
51.01000 184.970
51.02000 184.835
51.03000 184.324
51.04000 183.644
51.05000 183.002
51.06000 182.557
51.07000 182.204
51.08000 181.592
51.09000 179.059
51.10000 176.136
51.11000 173.570
51.12000 172.680
51.13000 172.003
51.14000 171.482
51.15000 168.819
51.16000 166.587
51.17000 165.861
51.18000 168.330
51.19000 170.903
51.20000 172.252
51.21000 171.853
51.22000 171.442
51.23000 171.257
51.24000 171.281
51.25000 171.318
51.26000 172.179
51.27000 173.542
51.28000 174.833
51.29000 174.516
51.30000 173.538
51.31000 172.625
51.32000 171.455
51.33000 170.330
51.34000 168.715
51.35000 163.873
51.36000 158.442
51.37000 154.831
51.38000 158.953
51.39000 163.947
51.40000 167.700
51.41000 170.131
51.42000 171.967
51.43000 170.538
51.44000 162.800
51.45000 154.904
51.46000 152.305
51.47000 156.544
51.48000 160.806
51.49000 163.539
51.50000 164.995
51.51000 166.404
51.52000 165.543
51.53000 163.427
51.54000 161.485
51.55000 162.745
51.56000 165.204
51.57000 167.477
51.58000 167.837
51.59000 167.728
51.60000 167.157
51.61000 163.867
51.62000 160.130
51.63000 157.552
51.64000 159.435
51.65000 161.759
51.66000 163.460
51.67000 158.443
51.68000 154.306
51.69000 154.206
51.70000 161.203
51.71000 168.332
51.72000 171.606
51.73000 170.387
51.74000 169.166
51.75000 168.508
51.76000 168.275
51.77000 167.977
51.78000 165.277
51.79000 161.368
51.80000 157.773
51.81000 159.044
51.82000 161.976
51.83000 164.652
51.84000 159.391
51.85000 153.115
51.86000 148.648
51.87000 153.774
51.88000 160.305
51.89000 164.344
51.90000 159.671
51.91000 154.249
51.92000 150.393
51.93000 149.894
51.94000 149.622
51.95000 149.526
51.96000 149.708
51.97000 149.895
51.98000 152.311
51.99000 157.064
52.00000 161.792
52.01000 162.362
52.02000 160.129
52.03000 157.941
52.04000 157.042
52.05000 156.734
52.06000 156.355
52.07000 155.036
52.08000 153.425
52.09000 151.974
52.10000 159.202
52.11000 167.115
52.12000 172.894
52.13000 168.476
52.14000 162.730
52.15000 158.262
52.16000 157.856
52.17000 157.751
52.18000 157.678
52.19000 163.171
52.20000 167.440
52.21000 168.909
52.22000 166.321
52.23000 163.700
52.24000 160.912
52.25000 157.966
52.26000 155.046
52.27000 154.462
52.28000 155.304
52.29000 156.123
52.30000 156.397
52.31000 156.443
52.32000 156.555
52.33000 157.417
52.34000 158.489
52.35000 159.442
52.36000 157.320
52.37000 154.985
52.38000 153.596
52.39000 156.296
52.40000 159.467
52.41000 161.750
52.42000 161.469
52.43000 161.025
52.44000 160.729
52.45000 163.170
52.46000 165.032
52.47000 163.414
52.48000 157.230
52.49000 151.035
52.50000 150.164
52.51000 153.797
52.52000 157.385
52.53000 158.537
52.54000 158.328
52.55000 158.074
52.56000 156.967
52.57000 155.536
52.58000 154.297
52.59000 154.957
52.60000 156.105
52.61000 157.109
52.62000 159.239
52.63000 161.227
52.64000 162.095
52.65000 158.586
52.66000 154.634
52.67000 152.033
52.68000 152.987
52.69000 154.129
52.70000 154.866
52.71000 154.967
52.72000 155.032
52.73000 155.477
52.74000 156.372
52.75000 157.253
52.76000 154.526
52.77000 149.044
52.78000 143.655
52.79000 146.706
52.80000 153.823
52.81000 160.684
52.82000 163.477
52.83000 164.862
52.84000 166.088
52.85000 165.939
52.86000 165.470
52.87000 165.066
52.88000 155.980
52.89000 147.186
52.90000 141.159
52.91000 144.959
52.92000 149.624
52.93000 153.533
52.94000 155.628
52.95000 157.644
52.96000 158.897
52.97000 151.662
52.98000 146.367
52.99000 145.732
53.00000 150.066
53.01000 154.359
53.02000 153.362
53.03000 148.707
53.04000 144.157
53.05000 147.682
53.06000 154.661
53.07000 161.085
53.08000 160.016
53.09000 156.584
53.10000 153.808
53.11000 156.084
53.12000 159.419
53.13000 162.241
53.14000 154.737
53.15000 147.308
53.16000 141.530
53.17000 141.076
53.18000 141.028
53.19000 142.114
53.20000 145.678
53.21000 149.330
53.22000 151.513
53.23000 143.256
53.24000 137.333
53.25000 139.507
53.26000 149.425
53.27000 159.246
53.28000 161.533
53.29000 159.093
53.30000 156.723
53.31000 156.679
53.32000 157.573
53.33000 158.212
53.34000 155.884
53.35000 152.705
53.36000 150.682
53.37000 156.566
53.38000 163.944
53.39000 170.073
53.40000 169.359
53.41000 168.103
53.42000 166.828
53.43000 165.495
53.44000 164.158
53.45000 161.626
53.46000 156.716
53.47000 151.740
53.48000 148.890
53.49000 155.864
53.50000 160.766
53.51000 163.175
53.52000 163.440
53.53000 163.630
53.54000 159.788
53.55000 153.649
53.56000 147.728
53.57000 147.170
53.58000 148.593
53.59000 149.959
53.60000 150.744
53.61000 151.377
53.62000 151.600
53.63000 149.318
53.64000 146.612
53.65000 144.407
53.66000 145.486
53.67000 146.645
53.68000 148.130
53.69000 150.489
53.70000 152.895
53.71000 154.990
53.72000 156.523
53.73000 158.045
53.74000 158.877
53.75000 150.788
53.76000 145.234
53.77000 144.302
53.78000 146.958
53.79000 149.620
53.80000 152.499
53.81000 155.491
53.82000 158.353
53.83000 158.060
53.84000 156.753
53.85000 155.520
53.86000 154.944
53.87000 154.522
53.88000 153.280
53.89000 147.535
53.90000 141.105
53.91000 135.980
53.92000 142.618
53.93000 148.830
53.94000 152.652
53.95000 150.652
53.96000 148.390
53.97000 148.484
53.98000 152.461
53.99000 156.495
54.00000 158.594
54.01000 160.248
54.02000 161.335
54.03000 158.318
54.04000 152.419
54.05000 146.700
54.06000 146.544
54.07000 149.016
54.08000 151.360
54.09000 153.236
54.10000 154.828
54.11000 156.100
54.12000 154.877
54.13000 153.121
54.14000 151.895
54.15000 153.282
54.16000 155.023
54.17000 156.380
54.18000 154.722
54.19000 153.215
54.20000 151.774
54.21000 150.482
54.22000 149.196
54.23000 148.836
54.24000 149.859
54.25000 150.896
54.26000 151.180
54.27000 150.731
54.28000 150.286
54.29000 150.254
54.30000 150.485
54.31000 150.772
54.32000 152.431
54.33000 154.681
54.34000 156.793
54.35000 151.974
54.36000 145.739
54.37000 140.622
54.38000 143.309
54.39000 147.495
54.40000 152.345
54.41000 160.157
54.42000 168.324
54.43000 174.537
54.44000 160.128
54.45000 147.712
54.46000 140.536
54.47000 143.952
54.48000 147.672
54.49000 149.561
54.50000 148.969
54.51000 148.363
54.52000 145.900
54.53000 141.819
54.54000 137.814
54.55000 138.166
54.56000 141.041
54.57000 143.957
54.58000 147.699
54.59000 151.764
54.60000 155.540
54.61000 154.840
54.62000 153.141
54.63000 151.500
54.64000 150.227
54.65000 149.018
54.66000 148.284
54.67000 149.470
54.68000 150.859
54.69000 151.889
54.70000 151.775
54.71000 151.637
54.72000 152.376
54.73000 154.729
54.74000 157.118
54.75000 157.252
54.76000 154.625
54.77000 151.996
54.78000 149.854
54.79000 148.106
54.80000 146.364
54.81000 144.902
54.82000 143.588
54.83000 142.395
54.84000 143.237
54.85000 144.804
54.86000 146.243
54.87000 149.064
54.88000 151.876
54.89000 154.154
54.90000 153.447
54.91000 152.278
54.92000 151.201
54.93000 150.464
54.94000 149.758
54.95000 149.248
54.96000 154.661
54.97000 159.022
54.98000 160.691
54.99000 157.857
55.00000 154.952
55.01000 153.944
55.02000 155.029
55.03000 156.111
55.04000 155.655
55.05000 154.115
55.06000 152.677
55.07000 154.461
55.08000 157.791
55.09000 160.867
55.10000 160.319
55.11000 158.595
55.12000 157.031
55.13000 156.788
55.14000 156.827
55.15000 156.256
55.16000 152.620
55.17000 148.561
55.18000 145.492
55.19000 145.716
55.20000 146.203
55.21000 146.544
55.22000 150.575
55.23000 153.729
55.24000 156.924
55.25000 160.181
55.26000 163.439
55.27000 164.016
55.28000 161.938
55.29000 159.874
55.30000 158.953
55.31000 158.774
55.32000 158.599
55.33000 158.490
55.34000 158.409
55.35000 158.531
55.36000 161.111
55.37000 164.419
55.38000 167.379
55.39000 170.508
55.40000 173.266
55.41000 175.220
55.42000 173.534
55.43000 171.403
55.44000 168.392
55.45000 162.721
55.46000 156.869
55.47000 152.896
55.48000 166.571
55.49000 177.167
55.50000 184.800
55.51000 188.352
55.52000 191.881
55.53000 196.226
55.54000 201.300
55.55000 206.320
55.56000 204.032
55.57000 197.592
55.58000 191.776
55.59000 198.920
55.60000 211.222
55.61000 222.716
55.62000 225.648
55.63000 226.280
55.64000 226.839
55.65000 233.872
55.66000 240.919
55.67000 248.326
55.68000 257.215
55.69000 266.263
55.70000 276.249
55.71000 288.816
55.72000 301.533
55.73000 309.881
55.74000 311.712
55.75000 312.949
55.76000 315.714
55.77000 320.381
55.78000 325.070
55.79000 335.434
55.80000 350.351
55.81000 365.049
55.82000 373.016
55.83000 377.255
55.84000 381.874
55.85000 393.067
55.86000 406.644
55.87000 419.363
55.88000 424.141
55.89000 426.987
55.90000 429.456
55.91000 431.932
55.92000 434.041
55.93000 436.968
55.94000 442.933
55.95000 449.184
55.96000 454.593
55.97000 457.886
55.98000 461.078
55.99000 463.099
56.00000 459.915
56.01000 457.543
56.02000 455.779
56.03000 454.698
56.04000 453.609
56.05000 451.109
56.06000 447.585
56.07000 444.131
56.08000 436.765
56.09000 427.842
56.10000 418.793
56.11000 407.902
56.12000 396.403
56.13000 386.389
56.14000 388.497
56.15000 393.276
56.16000 397.355
56.17000 375.226
56.18000 353.491
56.19000 335.741
56.20000 331.456
56.21000 328.272
56.22000 323.745
56.23000 316.147
56.24000 308.429
56.25000 303.725
56.26000 297.115
56.27000 292.376
56.28000 283.008
56.29000 268.974
56.30000 254.986
56.31000 245.446
56.32000 238.829
56.33000 232.383
56.34000 229.949
56.35000 229.324
56.36000 228.421
56.37000 224.040
56.38000 218.615
56.39000 214.125
56.40000 216.409
56.41000 220.041
56.42000 223.085
56.43000 213.012
56.44000 203.271
56.45000 195.897
56.46000 195.793
56.47000 196.200
56.48000 194.476
56.49000 188.312
56.50000 182.010
56.51000 178.324
56.52000 175.476
56.53000 173.475
56.54000 170.971
56.55000 168.012
56.56000 165.116
56.57000 166.199
56.58000 169.659
56.59000 173.007
56.60000 167.280
56.61000 158.402
56.62000 150.300
56.63000 150.583
56.64000 153.154
56.65000 155.300
56.66000 154.700
56.67000 153.609
56.68000 152.712
56.69000 153.484
56.70000 154.269
56.71000 153.928
56.72000 150.436
56.73000 146.757
56.74000 146.263
56.75000 151.811
56.76000 157.503
56.77000 160.688
56.78000 160.024
56.79000 159.559
56.80000 160.813
56.81000 163.468
56.82000 165.948
56.83000 160.354
56.84000 150.378
56.85000 140.795
56.86000 138.558
56.87000 138.994
56.88000 139.953
56.89000 145.863
56.90000 152.999
56.91000 158.983
56.92000 158.316
56.93000 156.581
56.94000 155.184
56.95000 152.754
56.96000 150.700
56.97000 148.694
56.98000 146.808
56.99000 144.927
57.00000 143.377
57.01000 142.398
57.02000 141.428
57.03000 140.911
57.04000 143.398
57.05000 145.082
57.06000 144.537
57.07000 142.348
57.08000 140.142
57.09000 137.290
57.10000 134.120
57.11000 131.101
57.12000 132.159
57.13000 134.406
57.14000 136.514
57.15000 137.467
57.16000 138.162
57.17000 139.454
57.18000 143.847
57.19000 148.685
57.20000 152.498
57.21000 145.490
57.22000 139.145
57.23000 135.227
57.24000 136.942
57.25000 138.886
57.26000 139.516
57.27000 138.088
57.28000 136.635
57.29000 135.899
57.30000 142.924
57.31000 147.595
57.32000 148.836
57.33000 147.788
57.34000 146.641
57.35000 142.812
57.36000 137.776
57.37000 133.025
57.38000 131.421
57.39000 130.831
57.40000 130.653
57.41000 133.522
57.42000 137.007
57.43000 140.172
57.44000 141.839
57.45000 143.316
57.46000 144.452
57.47000 140.333
57.48000 136.773
57.49000 134.335
57.50000 134.269
57.51000 134.280
57.52000 137.511
57.53000 145.320
57.54000 153.162
57.55000 154.063
57.56000 148.578
57.57000 143.153
57.58000 141.801
57.59000 142.919
57.60000 143.858
57.61000 140.837
57.62000 136.193
57.63000 131.856
57.64000 130.178
57.65000 129.325
57.66000 129.043
57.67000 132.510
57.68000 136.660
57.69000 139.782
57.70000 138.548
57.71000 136.824
57.72000 135.530
57.73000 141.606
57.74000 146.707
57.75000 150.345
57.76000 151.167
57.77000 151.918
57.78000 149.832
57.79000 144.097
57.80000 138.354
57.81000 136.677
57.82000 138.365
57.83000 139.995
57.84000 138.854
57.85000 136.185
57.86000 133.762
57.87000 135.832
57.88000 139.582
57.89000 143.045
57.90000 140.327
57.91000 136.496
57.92000 133.257
57.93000 133.499
57.94000 134.310
57.95000 135.441
57.96000 137.800
57.97000 140.281
57.98000 142.094
57.99000 138.515
58.00000 135.542
58.01000 134.738
58.02000 137.734
58.03000 140.801
58.04000 140.260
58.05000 135.531
58.06000 130.810
58.07000 132.709
58.08000 139.518
58.09000 146.186
58.10000 147.709
58.11000 146.650
58.12000 145.432
58.13000 141.775
58.14000 137.289
58.15000 133.194
58.16000 133.317
58.17000 134.277
58.18000 134.882
58.19000 133.616
58.20000 132.077
58.21000 131.741
58.22000 135.599
58.23000 139.816
58.24000 142.813
58.25000 140.733
58.26000 138.987
58.27000 137.421
58.28000 136.140
58.29000 134.863
58.30000 136.087
58.31000 139.922
58.32000 143.736
58.33000 142.898
58.34000 138.951
58.35000 135.068
58.36000 133.014
58.37000 131.797
58.38000 130.771
58.39000 132.268
58.40000 134.546
58.41000 136.598
58.42000 138.514
58.43000 140.170
58.44000 141.481
58.45000 141.143
58.46000 140.591
58.47000 139.364
58.48000 135.999
58.49000 132.475
58.50000 130.046
58.51000 128.047
58.52000 126.557
58.53000 125.833
58.54000 126.215
58.55000 126.605
58.56000 126.067
58.57000 124.657
58.58000 123.260
58.59000 123.283
58.60000 124.165
58.61000 125.037
58.62000 125.704
58.63000 126.285
58.64000 127.140
58.65000 131.103
58.66000 135.940
58.67000 140.236
58.68000 136.025
58.69000 131.009
58.70000 127.274
58.71000 129.055
58.72000 131.469
58.73000 132.990
58.74000 131.933
58.75000 130.715
58.76000 129.902
58.77000 138.799
58.78000 145.577
58.79000 147.669
58.80000 143.631
58.81000 139.568
58.82000 136.382
58.83000 133.936
58.84000 131.521
58.85000 130.141
58.86000 129.360
58.87000 128.741
58.88000 131.156
58.89000 134.723
58.90000 138.061
58.91000 139.153
58.92000 139.671
58.93000 140.124
58.94000 141.204
58.95000 142.218
58.96000 142.293
58.97000 138.702
58.98000 134.743
58.99000 131.217
59.00000 128.830
59.01000 126.503
59.02000 125.003
59.03000 131.036
59.04000 135.549
59.05000 136.791
59.06000 134.169
59.07000 131.544
59.08000 129.718
59.09000 128.500
59.10000 127.303
59.11000 128.969
59.12000 131.987
59.13000 134.865
59.14000 135.510
59.15000 135.384
59.16000 135.382
59.17000 136.455
59.18000 137.776
59.19000 138.913
59.20000 139.770
59.21000 140.460
59.22000 140.038
59.23000 135.675
59.24000 130.966
59.25000 128.801
59.26000 132.721
59.27000 136.905
59.28000 139.503
59.29000 134.176
59.30000 130.264
59.31000 127.548
59.32000 126.105
59.33000 124.696
59.34000 127.298
59.35000 132.666
59.36000 137.912
59.37000 139.368
59.38000 139.079
59.39000 138.600
59.40000 135.560
59.41000 131.715
59.42000 128.014
59.43000 125.420
59.44000 123.057
59.45000 121.059
59.46000 126.939
59.47000 132.733
59.48000 136.525
59.49000 133.879
59.50000 130.747
59.51000 129.045
59.52000 130.463
59.53000 131.989
59.54000 132.900
59.55000 129.565
59.56000 127.173
59.57000 126.037
59.58000 126.099
59.59000 126.174
59.60000 127.358
59.61000 129.235
59.62000 131.057
59.63000 132.457
59.64000 133.617
59.65000 134.526
59.66000 132.532
59.67000 129.708
59.68000 127.418
59.69000 128.774
59.70000 130.817
59.71000 132.512
59.72000 129.999
59.73000 127.514
59.74000 125.607
59.75000 125.392
59.76000 125.287
59.77000 126.471
59.78000 130.214
59.79000 134.026
59.80000 136.206
59.81000 130.148
59.82000 125.896
59.83000 125.537
59.84000 128.518
59.85000 131.450
59.86000 131.748
59.87000 130.551
59.88000 129.396
59.89000 125.977
59.90000 121.941
59.91000 118.539
59.92000 121.528
59.93000 126.175
59.94000 130.313
59.95000 131.350
59.96000 131.862
59.97000 132.279
59.98000 129.419
59.99000 126.808
60.00000 124.569
60.01000 123.322
60.02000 122.129
60.03000 121.434
60.04000 121.640
60.05000 121.863
60.06000 121.986
60.07000 131.259
60.08000 137.623
60.09000 139.248
60.10000 137.205
60.11000 135.187
60.12000 134.126
60.13000 133.560
60.14000 133.019
60.15000 131.769
60.16000 130.374
60.17000 129.405
60.18000 132.208
60.19000 135.898
60.20000 139.056
60.21000 139.305
60.22000 139.115
60.23000 138.962
60.24000 136.046
60.25000 133.493
60.26000 132.141
60.27000 133.701
60.28000 135.392
60.29000 136.220
60.30000 135.630
60.31000 135.019
60.32000 134.701
60.33000 140.351
60.34000 144.140
60.35000 144.269
60.36000 141.833
60.37000 139.432
60.38000 138.066
60.39000 137.187
60.40000 136.354
60.41000 135.746
60.42000 135.252
60.43000 134.801
60.44000 134.679
60.45000 134.627
60.46000 133.816
60.47000 129.263
60.48000 124.205
60.49000 120.265
60.50000 124.531
60.51000 128.435
60.52000 130.905
60.53000 130.204
60.54000 129.388
60.55000 129.615
60.56000 131.398
60.57000 133.196
60.58000 134.360
60.59000 134.908
60.60000 135.435
60.61000 134.173
60.62000 131.774
60.63000 129.557
60.64000 131.750
60.65000 135.837
60.66000 139.674
60.67000 136.666
60.68000 132.112
60.69000 127.789
60.70000 125.065
60.71000 122.648
60.72000 121.300
60.73000 124.704
60.74000 128.676
60.75000 131.695
60.76000 137.485
60.77000 142.183
60.78000 143.865
60.79000 139.469
60.80000 134.900
60.81000 133.048
60.82000 134.866
60.83000 136.704
60.84000 133.869
60.85000 126.970
60.86000 120.186
60.87000 119.854
60.88000 123.245
60.89000 126.581
60.90000 128.808
60.91000 130.601
60.92000 132.266
60.93000 134.254
60.94000 136.125
60.95000 137.256
60.96000 133.802
60.97000 129.559
60.98000 126.575
60.99000 128.660
61.00000 131.277
61.01000 133.216
61.02000 133.102
61.03000 132.925
61.04000 134.467
61.05000 139.163
61.06000 143.928
61.07000 144.575
61.08000 140.193
61.09000 135.809
61.10000 134.380
61.11000 135.272
61.12000 136.126
61.13000 135.388
61.14000 133.814
61.15000 132.468
61.16000 134.926
61.17000 138.740
61.18000 142.241
61.19000 143.895
61.20000 144.978
61.21000 145.195
61.22000 140.598
61.23000 135.259
61.24000 131.294
61.25000 132.348
61.26000 133.862
61.27000 134.954
61.28000 132.707
61.29000 130.868
61.30000 130.086
61.31000 131.070
61.32000 132.080
61.33000 130.304
61.34000 125.463
61.35000 120.639
61.36000 121.380
61.37000 126.035
61.38000 130.573
61.39000 131.372
61.40000 130.384
61.41000 129.577
61.42000 131.334
61.43000 133.923
61.44000 136.270
61.45000 139.427
61.46000 142.365
61.47000 144.437
61.48000 142.167
61.49000 139.300
61.50000 140.731
61.51000 156.422
61.52000 173.247
61.53000 185.021
61.54000 191.526
61.55000 196.295
61.56000 201.511
61.57000 207.404
61.58000 213.304
61.59000 219.814
61.60000 226.926
61.61000 233.990
61.62000 243.447
61.63000 254.278
61.64000 264.693
61.65000 264.589
61.66000 259.904
61.67000 255.714
61.68000 257.539
61.69000 261.137
61.70000 264.355
61.71000 267.972
61.72000 271.193
61.73000 272.794
61.74000 267.074
61.75000 260.462
61.76000 253.266
61.77000 244.306
61.78000 235.226
61.79000 229.068
61.80000 218.472
61.81000 210.472
61.82000 199.985
61.83000 186.081
61.84000 172.163
61.85000 164.463
61.86000 162.280
61.87000 160.119
61.88000 154.964
61.89000 148.208
61.90000 141.685
61.91000 139.987
61.92000 140.202
61.93000 140.155
61.94000 137.331
61.95000 133.764
61.96000 130.621
61.97000 135.155
61.98000 140.223
61.99000 144.120
62.00000 143.232
62.01000 141.830
62.02000 140.743
62.03000 140.519
62.04000 140.346
62.05000 140.232
62.06000 142.655
62.07000 144.479
62.08000 146.672
62.09000 149.322
62.10000 151.957
62.11000 149.007
62.12000 141.591
62.13000 134.285
62.14000 134.572
62.15000 138.777
62.16000 142.896
62.17000 145.516
62.18000 147.595
62.19000 149.541
62.20000 150.253
62.21000 150.666
62.22000 151.024
62.23000 143.671
62.24000 136.376
62.25000 130.695
62.26000 130.997
62.27000 131.861
62.28000 131.845
62.29000 129.629
62.30000 127.307
62.31000 125.838
62.32000 130.956
62.33000 134.745
62.34000 137.449
62.35000 138.939
62.36000 140.430
62.37000 142.216
62.38000 144.216
62.39000 146.176
62.40000 143.663
62.41000 139.157
62.42000 134.913
62.43000 134.477
62.44000 135.294
62.45000 135.897
62.46000 134.747
62.47000 133.213
62.48000 131.905
62.49000 138.379
62.50000 144.746
62.51000 149.238
62.52000 147.414
62.53000 145.076
62.54000 144.264
62.55000 146.934
62.56000 149.739
62.57000 151.447
62.58000 148.310
62.59000 146.031
62.60000 143.854
62.61000 141.778
62.62000 139.703
62.63000 137.700
62.64000 135.743
62.65000 133.837
62.66000 136.774
62.67000 141.617
62.68000 146.018
62.69000 144.919
62.70000 142.175
62.71000 139.809
62.72000 140.180
62.73000 141.093
62.74000 141.858
62.75000 139.922
62.76000 138.032
62.77000 136.807
62.78000 137.615
62.79000 138.566
62.80000 138.116
62.81000 134.757
62.82000 131.308
62.83000 129.293
62.84000 138.760
62.85000 145.471
62.86000 148.030
62.87000 146.844
62.88000 145.667
62.89000 145.088
62.90000 144.865
62.91000 144.649
62.92000 145.387
62.93000 146.447
62.94000 147.417
62.95000 147.425
62.96000 147.172
62.97000 147.050
62.98000 147.775
62.99000 148.651
63.00000 149.371
63.01000 147.548
63.02000 145.822
63.03000 145.113
63.04000 147.243
63.05000 149.542
63.06000 150.630
63.07000 149.428
63.08000 148.172
63.09000 147.471
63.10000 146.824
63.11000 146.375
63.12000 145.215
63.13000 143.479
63.14000 141.754
63.15000 140.545
63.16000 139.616
63.17000 138.724
63.18000 141.891
63.19000 146.248
63.20000 150.159
63.21000 149.872
63.22000 148.550
63.23000 147.411
63.24000 147.329
63.25000 147.416
63.26000 147.486
63.27000 139.392
63.28000 132.189
63.29000 127.558
63.30000 129.461
63.31000 131.686
63.32000 135.609
63.33000 142.453
63.34000 149.348
63.35000 153.020
63.36000 153.434
63.37000 153.688
63.38000 149.429
63.39000 141.854
63.40000 134.496
63.41000 134.654
63.42000 138.516
63.43000 142.193
63.44000 144.827
63.45000 146.943
63.46000 148.555
63.47000 145.980
63.48000 142.470
63.49000 140.175
63.50000 144.169
63.51000 149.061
63.52000 152.913
63.53000 155.156
63.54000 156.846
63.55000 157.028
63.56000 153.718
63.57000 150.268
63.58000 148.016
63.59000 147.640
63.60000 147.285
63.61000 147.105
63.62000 149.964
63.63000 151.874
63.64000 153.478
63.65000 154.877
63.66000 156.271
63.67000 157.489
63.68000 158.629
63.69000 159.705
63.70000 156.389
63.71000 152.128
63.72000 148.487
63.73000 149.407
63.74000 151.247
63.75000 152.692
63.76000 152.296
63.77000 151.666
63.78000 151.181
63.79000 150.248
63.80000 149.485
63.81000 148.729
63.82000 147.990
63.83000 147.251
63.84000 149.179
63.85000 154.889
63.86000 160.625
63.87000 163.858
63.88000 164.792
63.89000 165.672
63.90000 162.946
63.91000 158.040
63.92000 153.289
63.93000 151.968
63.94000 152.050
63.95000 152.126
63.96000 158.109
63.97000 165.012
63.98000 170.482
63.99000 166.558
64.00000 160.930
64.01000 156.550
64.02000 157.438
64.03000 158.916
64.04000 160.025
64.05000 161.050
64.06000 161.847
64.07000 162.142
64.08000 161.473
64.09000 160.780
64.10000 158.585
64.11000 154.462
64.12000 150.337
64.13000 149.543
64.14000 151.495
64.15000 153.444
64.16000 155.218
64.17000 156.896
64.18000 158.546
64.19000 159.686
64.20000 160.636
64.21000 161.513
64.22000 161.958
64.23000 162.260
64.24000 162.137
64.25000 159.521
64.26000 156.498
64.27000 155.301
64.28000 161.093
64.29000 167.570
64.30000 172.302
64.31000 165.719
64.32000 160.200
64.33000 157.459
64.34000 159.573
64.35000 161.776
64.36000 164.484
64.37000 167.778
64.38000 171.064
64.39000 169.457
64.40000 164.236
64.41000 159.167
64.42000 159.617
64.43000 162.827
64.44000 165.760
64.45000 164.444
64.46000 161.686
64.47000 159.171
64.48000 160.577
64.49000 162.612
64.50000 164.868
64.51000 168.284
64.52000 171.868
64.53000 174.118
64.54000 171.730
64.55000 168.946
64.56000 166.970
64.57000 167.851
64.58000 168.612
64.59000 170.506
64.60000 174.199
64.61000 177.915
64.62000 177.228
64.63000 171.959
64.64000 166.718
64.65000 167.848
64.66000 173.220
64.67000 178.432
64.68000 179.157
64.69000 177.837
64.70000 176.432
64.71000 173.911
64.72000 171.046
64.73000 168.467
64.74000 168.435
64.75000 168.864
64.76000 169.547
64.77000 171.435
64.78000 173.478
64.79000 175.111
64.80000 175.446
64.81000 175.687
64.82000 175.853
64.83000 174.734
64.84000 173.861
64.85000 174.980
64.86000 178.966
64.87000 182.974
64.88000 183.187
64.89000 179.856
64.90000 176.553
64.91000 179.392
64.92000 185.876
64.93000 191.962
64.94000 188.981
64.95000 182.237
64.96000 176.174
64.97000 177.792
64.98000 181.565
64.99000 184.914
65.00000 188.184
65.01000 191.005
65.02000 192.484
65.03000 188.203
65.04000 183.263
65.05000 181.881
65.06000 190.730
65.07000 200.218
65.08000 206.544
65.09000 203.988
65.10000 201.925
65.11000 201.268
65.12000 202.447
65.13000 203.628
65.14000 202.353
65.15000 199.012
65.16000 195.713
65.17000 196.706
65.18000 200.005
65.19000 203.144
65.20000 203.261
65.21000 202.235
65.22000 201.493
65.23000 203.536
65.24000 206.288
65.25000 208.695
65.26000 211.477
65.27000 213.913
65.28000 216.490
65.29000 219.618
65.30000 222.801
65.31000 225.903
65.32000 228.790
65.33000 231.666
65.34000 233.518
65.35000 232.336
65.36000 231.431
65.37000 233.059
65.38000 237.668
65.39000 242.291
65.40000 248.625
65.41000 256.257
65.42000 263.757
65.43000 263.997
65.44000 260.666
65.45000 257.257
65.46000 252.620
65.47000 247.560
65.48000 243.362
65.49000 246.614
65.50000 251.583
65.51000 255.857
65.52000 257.728
65.53000 259.011
65.54000 261.734
65.55000 269.543
65.56000 277.796
65.57000 283.992
65.58000 285.280
65.59000 286.356
65.60000 287.024
65.61000 302.692
65.62000 314.111
65.63000 326.664
65.64000 340.418
65.65000 354.152
65.66000 365.393
65.67000 374.919
65.68000 384.228
65.69000 418.998
65.70000 463.585
65.71000 508.138
65.72000 552.247
65.73000 596.215
65.74000 640.211
65.75000 684.420
65.76000 728.673
65.77000 766.079
65.78000 846.429
65.79000 918.373
65.80000 977.059
65.81000 993.209
65.82000 1006.155
65.83000 1018.927
65.84000 1031.319
65.85000 1043.698
65.86000 1051.077
65.87000 1059.449
65.88000 1065.387
65.89000 1063.622
65.90000 1054.537
65.91000 1045.269
65.92000 1022.203
65.93000 990.531
65.94000 959.781
65.95000 912.226
65.96000 860.369
65.97000 808.154
65.98000 751.799
65.99000 694.265
66.00000 637.298
66.01000 584.191
66.02000 531.808
66.03000 488.348
66.04000 449.992
66.05000 418.786
66.06000 390.333
66.07000 369.915
66.08000 350.014
66.09000 334.342
66.10000 327.045
66.11000 319.974
66.12000 315.935
66.13000 303.830
66.14000 295.366
66.15000 293.780
66.16000 298.071
66.17000 302.266
66.18000 301.349
66.19000 297.534
66.20000 293.857
66.21000 299.191
66.22000 307.458
66.23000 315.397
66.24000 320.037
66.25000 323.825
66.26000 328.046
66.27000 334.902
66.28000 342.202
66.29000 348.140
66.30000 365.214
66.31000 380.084
66.32000 391.116
66.33000 391.947
66.34000 392.228
66.35000 394.910
66.36000 401.920
66.37000 409.017
66.38000 412.888
66.39000 419.945
66.40000 424.795
66.41000 429.515
66.42000 434.136
66.43000 438.662
66.44000 439.479
66.45000 438.383
66.46000 437.335
66.47000 435.332
66.48000 433.157
66.49000 430.604
66.50000 424.714
66.51000 418.043
66.52000 411.030
66.53000 402.158
66.54000 393.006
66.55000 385.719
66.56000 375.699
66.57000 367.423
66.58000 356.455
66.59000 338.970
66.60000 321.194
66.61000 311.432
66.62000 314.795
66.63000 318.347
66.64000 320.190
66.65000 325.202
66.66000 328.545
66.67000 326.522
66.68000 320.754
66.69000 315.144
66.70000 314.363
66.71000 315.850
66.72000 317.260
66.73000 318.133
66.74000 318.780
66.75000 319.020
66.76000 316.087
66.77000 312.482
66.78000 309.804
66.79000 311.671
66.80000 314.150
66.81000 316.078
66.82000 317.550
66.83000 318.694
66.84000 320.376
66.85000 323.246
66.86000 326.159
66.87000 329.379
66.88000 333.056
66.89000 336.737
66.90000 333.377
66.91000 323.209
66.92000 313.188
66.93000 314.964
66.94000 324.215
66.95000 333.279
66.96000 337.821
66.97000 340.428
66.98000 342.874
66.99000 340.027
67.00000 336.036
67.01000 333.042
67.02000 336.947
67.03000 342.170
67.04000 346.665
67.05000 347.933
67.06000 348.818
67.07000 349.490
67.08000 352.491
67.09000 354.970
67.10000 358.047
67.11000 362.324
67.12000 366.635
67.13000 370.065
67.14000 372.308
67.15000 374.544
67.16000 370.837
67.17000 361.979
67.18000 353.304
67.19000 354.769
67.20000 362.072
67.21000 369.286
67.22000 374.744
67.23000 379.518
67.24000 383.950
67.25000 384.972
67.26000 385.085
67.27000 385.211
67.28000 385.418
67.29000 385.639
67.30000 386.330
67.31000 388.911
67.32000 391.690
67.33000 393.747
67.34000 394.464
67.35000 394.962
67.36000 394.308
67.37000 391.546
67.38000 388.740
67.39000 391.222
67.40000 400.140
67.41000 409.055
67.42000 411.936
67.43000 410.095
67.44000 408.385
67.45000 412.091
67.46000 418.632
67.47000 424.970
67.48000 427.914
67.49000 429.655
67.50000 431.252
67.51000 425.390
67.52000 418.580
67.53000 414.759
67.54000 427.510
67.55000 442.809
67.56000 454.546
67.57000 453.318
67.58000 450.904
67.59000 449.166
67.60000 441.027
67.61000 434.569
67.62000 432.242
67.63000 436.788
67.64000 441.440
67.65000 446.807
67.66000 452.961
67.67000 459.089
67.68000 460.391
67.69000 458.290
67.70000 456.274
67.71000 456.975
67.72000 458.971
67.73000 461.521
67.74000 471.890
67.75000 484.787
67.76000 496.473
67.77000 491.722
67.78000 484.413
67.79000 479.060
67.80000 483.475
67.81000 489.227
67.82000 495.024
67.83000 500.970
67.84000 506.927
67.85000 511.092
67.86000 511.412
67.87000 511.545
67.88000 511.200
67.89000 510.133
67.90000 509.059
67.91000 509.394
67.92000 511.116
67.93000 512.825
67.94000 517.626
67.95000 524.308
67.96000 530.872
67.97000 534.451
67.98000 536.734
67.99000 539.034
68.00000 541.545
68.01000 544.118
68.02000 546.419
68.03000 540.759
68.04000 534.478
68.05000 530.326
68.06000 535.769
68.07000 542.378
68.08000 548.209
68.09000 551.702
68.10000 555.037
68.11000 557.296
68.12000 560.809
68.13000 563.455
68.14000 565.143
68.15000 565.517
68.16000 565.889
68.17000 570.855
68.18000 579.884
68.19000 588.817
68.20000 592.242
68.21000 592.443
68.22000 593.026
68.23000 601.438
68.24000 612.949
68.25000 623.542
68.26000 624.506
68.27000 622.899
68.28000 621.483
68.29000 625.957
68.30000 630.699
68.31000 635.409
68.32000 639.995
68.33000 644.568
68.34000 649.004
68.35000 653.064
68.36000 657.102
68.37000 659.748
68.38000 679.062
68.39000 693.534
68.40000 703.812
68.41000 708.898
68.42000 713.982
68.43000 722.728
68.44000 734.393
68.45000 745.884
68.46000 755.092
68.47000 762.848
68.48000 770.755
68.49000 781.255
68.50000 792.691
68.51000 804.216
68.52000 816.570
68.53000 829.125
68.54000 840.011
68.55000 858.014
68.56000 874.290
68.57000 889.652
68.58000 901.632
68.59000 913.295
68.60000 933.403
68.61000 974.593
68.62000 1016.784
68.63000 1043.445
68.64000 1111.134
68.65000 1160.665
68.66000 1211.509
68.67000 1263.818
68.68000 1316.125
68.69000 1368.001
68.70000 1419.565
68.71000 1470.094
68.72000 1524.537
68.73000 1578.732
68.74000 1632.975
68.75000 1687.907
68.76000 1743.065
68.77000 1800.879
68.78000 1880.219
68.79000 1964.272
68.80000 2035.936
68.81000 2107.538
68.82000 2167.772
68.83000 2237.419
68.84000 2338.685
68.85000 2442.514
68.86000 2560.274
68.87000 2709.717
68.88000 2860.386
68.89000 2951.992
68.90000 3534.231
68.91000 3953.773
68.92000 4737.081
68.93000 5884.737
68.94000 7042.553
68.95000 9143.748
68.96000 11861.562
68.97000 14508.784
68.98000 18501.059
68.99000 22872.723
69.00000 27245.842
69.01000 31636.986
69.02000 36033.512
69.03000 40295.125
69.04000 43587.020
69.05000 46687.273
69.06000 49283.191
69.07000 50958.063
69.08000 52255.512
69.09000 53283.688
69.10000 53489.090
69.11000 53637.316
69.12000 53906.602
69.13000 54426.672
69.14000 54954.434
69.15000 55262.293
69.16000 56221.781
69.17000 56899.145
69.18000 57106.422
69.19000 56890.930
69.20000 56652.875
69.21000 55008.582
69.22000 52529.543
69.23000 50131.328
69.24000 47041.461
69.25000 43860.750
69.26000 40734.148
69.27000 38188.531
69.28000 35800.453
69.29000 33516.965
69.30000 31903.834
69.31000 30409.893
69.32000 29182.916
69.33000 28406.994
69.34000 27810.266
69.35000 27191.703
69.36000 26512.400
69.37000 25829.523
69.38000 24904.990
69.39000 23524.684
69.40000 22133.676
69.41000 21357.613
69.42000 18048.633
69.43000 15753.183
69.44000 13549.370
69.45000 11419.837
69.46000 9301.898
69.47000 7706.101
69.48000 6392.171
69.49000 5130.776
69.50000 4251.500
69.51000 3559.951
69.52000 2900.546
69.53000 2542.820
69.54000 2259.287
69.55000 1998.140
69.56000 1865.509
69.57000 1753.361
69.58000 1663.135
69.59000 1562.469
69.60000 1480.006
69.61000 1402.141
69.62000 1335.928
69.63000 1270.285
69.64000 1218.505
69.65000 1190.508
69.66000 1162.920
69.67000 1148.250
69.68000 1110.516
69.69000 1084.793
69.70000 1055.086
69.71000 1022.458
69.72000 990.043
69.73000 964.923
69.74000 943.388
69.75000 922.888
69.76000 907.377
69.77000 894.556
69.78000 880.745
69.79000 858.747
69.80000 834.928
69.81000 812.158
69.82000 794.808
69.83000 778.230
69.84000 765.182
69.85000 761.116
69.86000 758.457
69.87000 754.259
69.88000 746.509
69.89000 738.618
69.90000 729.508
69.91000 718.497
69.92000 707.464
69.93000 701.895
69.94000 689.631
69.95000 681.506
69.96000 681.109
69.97000 685.845
69.98000 690.351
69.99000 688.680
70.00000 684.245
