20.00000 546.592
20.01000 550.035
20.02000 553.970
20.03000 557.199
20.04000 557.668
20.05000 557.860
20.06000 558.000
20.07000 556.480
20.08000 555.237
20.09000 556.033
20.10000 560.464
20.11000 564.966
20.12000 564.776
20.13000 559.035
20.14000 553.299
20.15000 556.712
20.16000 567.040
20.17000 577.112
20.18000 577.450
20.19000 572.818
20.20000 568.054
20.21000 561.187
20.22000 553.593
20.23000 546.647
20.24000 554.727
20.25000 565.005
20.26000 571.710
20.27000 559.169
20.28000 543.760
20.29000 534.596
20.30000 547.580
20.31000 562.514
20.32000 573.183
20.33000 554.156
20.34000 538.650
20.35000 530.265
20.36000 533.417
20.37000 536.729
20.38000 540.566
20.39000 544.960
20.40000 549.333
20.41000 554.745
20.42000 560.805
20.43000 566.692
20.44000 567.447
20.45000 565.818
20.46000 564.119
20.47000 561.475
20.48000 558.535
20.49000 555.880
20.50000 548.391
20.51000 540.918
20.52000 535.671
20.53000 541.225
20.54000 548.213
20.55000 554.837
20.56000 560.289
20.57000 565.653
20.58000 569.372
20.59000 564.473
20.60000 560.556
20.61000 558.342
20.62000 558.630
20.63000 558.941
20.64000 558.505
20.65000 557.355
20.66000 556.214
20.67000 557.394
20.68000 559.981
20.69000 562.279
20.70000 557.717
20.71000 550.249
20.72000 542.978
20.73000 537.997
20.74000 533.671
20.75000 529.819
20.76000 529.086
20.77000 528.960
20.78000 528.543
20.79000 526.844
20.80000 524.995
20.81000 526.971
20.82000 540.165
20.83000 554.087
20.84000 563.434
20.85000 567.397
20.86000 570.229
20.87000 567.559
20.88000 557.557
20.89000 547.520
20.90000 538.956
20.91000 531.657
20.92000 524.443
20.93000 522.763
20.94000 524.198
20.95000 526.141
20.96000 537.974
20.97000 553.622
20.98000 567.347
20.99000 561.620
21.00000 550.835
21.01000 541.375
21.02000 536.409
21.03000 532.800
21.04000 530.927
21.05000 535.944
21.06000 541.672
21.07000 543.742
21.08000 536.041
21.09000 527.807
21.10000 522.465
21.11000 517.448
21.12000 513.779
21.13000 516.801
21.14000 527.873
21.15000 538.945
21.16000 545.697
21.17000 549.099
21.18000 552.446
21.19000 550.438
21.20000 545.810
21.21000 541.215
21.22000 537.162
21.23000 533.299
21.24000 529.587
21.25000 527.219
21.26000 525.168
21.27000 523.397
21.28000 533.201
21.29000 543.014
21.30000 551.867
21.31000 557.263
21.32000 562.348
21.33000 563.751
21.34000 556.194
21.35000 548.234
21.36000 543.255
21.37000 543.190
21.38000 543.194
21.39000 541.217
21.40000 537.092
21.41000 532.977
21.42000 530.369
21.43000 528.819
21.44000 527.302
21.45000 527.993
21.46000 529.656
21.47000 531.287
21.48000 532.482
21.49000 533.538
21.50000 534.865
21.51000 538.308
21.52000 542.202
21.53000 545.506
21.54000 549.369
21.55000 552.673
21.56000 554.044
21.57000 549.090
21.58000 543.645
21.59000 539.313
21.60000 537.450
21.61000 535.677
21.62000 534.610
21.63000 541.424
21.64000 546.323
21.65000 549.427
21.66000 550.785
21.67000 552.064
21.68000 546.786
21.69000 537.333
21.70000 528.142
21.71000 525.390
21.72000 525.406
21.73000 525.630
21.74000 528.339
21.75000 531.771
21.76000 535.602
21.77000 542.203
21.78000 549.337
21.79000 555.280
21.80000 548.269
21.81000 541.175
21.82000 537.486
21.83000 543.940
21.84000 551.069
21.85000 554.703
21.86000 551.279
21.87000 547.653
21.88000 545.563
21.89000 553.548
21.90000 559.173
21.91000 560.224
21.92000 557.278
21.93000 554.405
21.94000 555.715
21.95000 559.445
21.96000 563.045
21.97000 566.434
21.98000 569.547
21.99000 573.219
22.00000 582.657
22.01000 593.618
22.02000 602.671
22.03000 599.857
22.04000 594.994
22.05000 591.022
22.06000 594.291
22.07000 597.590
22.08000 600.785
22.09000 603.694
22.10000 606.588
22.11000 607.022
22.12000 602.934
22.13000 598.747
22.14000 596.441
22.15000 597.007
22.16000 597.416
22.17000 601.970
22.18000 609.791
22.19000 617.443
22.20000 618.020
22.21000 614.874
22.22000 611.860
22.23000 612.355
22.24000 613.983
22.25000 614.641
22.26000 606.504
22.27000 596.261
22.28000 587.869
22.29000 589.789
22.30000 593.305
22.31000 596.116
22.32000 595.151
22.33000 594.089
22.34000 591.916
22.35000 586.996
22.36000 581.949
22.37000 578.868
22.38000 579.073
22.39000 579.330
22.40000 579.465
22.41000 577.088
22.42000 575.492
22.43000 576.071
22.44000 578.203
22.45000 580.189
22.46000 577.539
22.47000 572.668
22.48000 568.043
22.49000 565.646
22.50000 564.102
22.51000 562.039
22.52000 555.824
22.53000 548.710
22.54000 542.651
22.55000 541.884
22.56000 541.846
22.57000 541.816
22.58000 530.884
22.59000 521.462
22.60000 517.343
22.61000 525.159
22.62000 533.425
22.63000 536.921
22.64000 533.179
22.65000 529.362
22.66000 526.607
22.67000 524.905
22.68000 523.209
22.69000 522.135
22.70000 521.463
22.71000 520.636
22.72000 515.889
22.73000 509.431
22.74000 503.357
22.75000 507.764
22.76000 514.617
22.77000 520.383
22.78000 518.446
22.79000 515.003
22.80000 513.443
22.81000 520.410
22.82000 528.420
22.83000 534.537
22.84000 518.945
22.85000 505.487
22.86000 499.151
22.87000 507.416
22.88000 516.117
22.89000 522.151
22.90000 524.518
22.91000 526.862
22.92000 524.211
22.93000 517.128
22.94000 510.085
22.95000 505.448
22.96000 502.222
22.97000 499.196
22.98000 500.309
22.99000 503.066
23.00000 505.633
23.01000 511.060
23.02000 516.658
23.03000 520.701
23.04000 514.899
23.05000 507.368
23.06000 501.606
23.07000 503.093
23.08000 505.360
23.09000 507.048
23.10000 499.844
23.11000 493.840
23.12000 491.570
23.13000 496.270
23.14000 501.128
23.15000 505.842
23.16000 510.375
23.17000 514.900
23.18000 513.714
23.19000 507.977
23.20000 502.356
23.21000 501.820
23.22000 503.999
23.23000 506.223
23.24000 509.218
23.25000 512.492
23.26000 515.505
23.27000 518.169
23.28000 520.476
23.29000 522.018
23.30000 519.223
23.31000 515.746
23.32000 511.728
23.33000 505.698
23.34000 499.479
23.35000 494.974
23.36000 491.470
23.37000 488.816
23.38000 489.632
23.39000 496.341
23.40000 503.148
23.41000 507.754
23.42000 509.893
23.43000 512.022
23.44000 507.154
23.45000 497.301
23.46000 487.836
23.47000 491.272
23.48000 500.984
23.49000 510.426
23.50000 515.939
23.51000 520.156
23.52000 523.988
23.53000 509.704
23.54000 493.557
23.55000 480.659
23.56000 484.337
23.57000 490.343
23.58000 494.318
23.59000 491.437
23.60000 487.996
23.61000 485.575
23.62000 487.900
23.63000 489.803
23.64000 493.242
23.65000 499.048
23.66000 504.881
23.67000 505.214
23.68000 500.007
23.69000 494.833
23.70000 501.023
23.71000 514.483
23.72000 527.320
23.73000 523.781
23.74000 512.987
23.75000 502.334
23.76000 493.435
23.77000 485.062
23.78000 477.556
23.79000 486.328
23.80000 496.818
23.81000 503.503
23.82000 492.671
23.83000 479.656
23.84000 471.127
23.85000 476.369
23.86000 482.577
23.87000 486.811
23.88000 486.624
23.89000 486.381
23.90000 486.094
23.91000 485.745
23.92000 485.398
23.93000 489.492
23.94000 497.600
23.95000 505.629
23.96000 507.424
23.97000 505.539
23.98000 503.626
23.99000 501.108
24.00000 498.345
24.01000 495.521
24.02000 492.038
24.03000 488.374
24.04000 485.137
24.05000 488.714
24.06000 492.855
24.07000 495.228
24.08000 490.234
24.09000 484.431
24.10000 480.847
24.11000 483.467
24.12000 486.455
24.13000 488.427
24.14000 484.210
24.15000 480.992
24.16000 482.302
24.17000 489.338
24.18000 496.370
24.19000 494.522
24.20000 485.437
24.21000 476.480
24.22000 474.061
24.23000 475.157
24.24000 476.133
24.25000 474.982
24.26000 473.050
24.27000 471.821
24.28000 477.245
24.29000 484.313
24.30000 490.463
24.31000 482.819
24.32000 474.407
24.33000 468.991
24.34000 474.885
24.35000 481.870
24.36000 487.326
24.37000 488.894
24.38000 490.270
24.39000 491.146
24.40000 493.117
24.41000 494.563
24.42000 493.440
24.43000 489.386
24.44000 485.320
24.45000 479.602
24.46000 472.667
24.47000 465.863
24.48000 469.063
24.49000 476.907
24.50000 484.467
24.51000 487.776
24.52000 489.661
24.53000 491.835
24.54000 496.406
24.55000 501.512
24.56000 505.883
24.57000 490.733
24.58000 475.598
24.59000 463.830
24.60000 463.607
24.61000 464.350
24.62000 465.332
24.63000 466.868
24.64000 468.426
24.65000 469.381
24.66000 477.074
24.67000 482.642
24.68000 483.563
24.69000 479.718
24.70000 475.924
24.71000 477.357
24.72000 482.278
24.73000 487.077
24.74000 482.666
24.75000 474.494
24.76000 466.637
24.77000 462.805
24.78000 460.198
24.79000 458.842
24.80000 466.708
24.81000 476.437
24.82000 484.616
24.83000 481.486
24.84000 477.679
24.85000 473.584
24.86000 468.590
24.87000 463.531
24.88000 460.486
24.89000 461.694
24.90000 463.040
24.91000 463.832
24.92000 456.980
24.93000 452.108
24.94000 452.750
24.95000 458.465
24.96000 464.088
24.97000 463.589
24.98000 459.379
24.99000 455.301
25.00000 460.688
25.01000 469.458
25.02000 476.849
25.03000 468.992
25.04000 456.914
25.05000 447.142
25.06000 452.511
25.07000 460.635
25.08000 467.335
25.09000 464.612
25.10000 461.499
25.11000 460.983
25.12000 467.835
25.13000 475.137
25.14000 476.368
25.15000 465.917
25.16000 455.174
25.17000 449.121
25.18000 451.491
25.19000 453.171
25.20000 460.635
25.21000 472.889
25.22000 484.882
25.23000 484.321
25.24000 476.845
25.25000 469.656
25.26000 471.650
25.27000 476.731
25.28000 480.874
25.29000 475.962
25.30000 468.777
25.31000 462.473
25.32000 461.348
25.33000 461.068
25.34000 460.842
25.35000 464.978
25.36000 468.692
25.37000 469.764
25.38000 464.012
25.39000 457.912
25.40000 453.644
25.41000 452.585
25.42000 451.584
25.43000 451.047
25.44000 467.776
25.45000 479.173
25.46000 481.383
25.47000 476.716
25.48000 472.197
25.49000 472.999
25.50000 476.469
25.51000 479.778
25.52000 471.408
25.53000 459.959
25.54000 449.978
25.55000 452.456
25.56000 457.767
25.57000 462.040
25.58000 460.836
25.59000 458.833
25.60000 457.250
25.61000 463.131
25.62000 468.367
25.63000 470.312
25.64000 464.505
25.65000 458.373
25.66000 457.950
25.67000 466.608
25.68000 475.382
25.69000 479.862
25.70000 464.325
25.71000 453.968
25.72000 451.955
25.73000 455.598
25.74000 459.211
25.75000 461.926
25.76000 464.233
25.77000 466.413
25.78000 466.809
25.79000 466.666
25.80000 465.815
25.81000 459.653
25.82000 452.400
25.83000 446.785
25.84000 448.960
25.85000 452.145
25.86000 454.606
25.87000 460.106
25.88000 464.646
25.89000 464.747
25.90000 455.324
25.91000 445.583
25.92000 445.094
25.93000 457.959
25.94000 470.929
25.95000 472.158
25.96000 462.402
25.97000 452.777
25.98000 452.587
25.99000 458.201
26.00000 463.678
26.01000 466.035
26.02000 467.094
26.03000 468.084
26.04000 465.710
26.05000 462.694
26.06000 459.018
26.07000 450.927
26.08000 442.019
26.09000 436.784
26.10000 447.348
26.11000 459.721
26.12000 469.049
26.13000 463.014
26.14000 457.535
26.15000 451.506
26.16000 444.403
26.17000 437.273
26.18000 439.460
26.19000 453.823
26.20000 468.225
26.21000 472.903
26.22000 469.399
26.23000 465.788
26.24000 456.752
26.25000 444.682
26.26000 433.314
26.27000 435.148
26.28000 441.985
26.29000 448.311
26.30000 450.222
26.31000 450.926
26.32000 451.893
26.33000 454.427
26.34000 457.222
26.35000 459.607
26.36000 460.392
26.37000 461.016
26.38000 461.474
26.39000 449.421
26.40000 439.596
26.41000 440.612
26.42000 460.899
26.43000 481.560
26.44000 485.788
26.45000 470.631
26.46000 455.481
26.47000 448.602
26.48000 448.018
26.49000 447.363
26.50000 444.005
26.51000 439.273
26.52000 434.964
26.53000 437.340
26.54000 442.023
26.55000 446.305
26.56000 451.323
26.57000 455.934
26.58000 461.077
26.59000 469.081
26.60000 477.510
26.61000 481.843
26.62000 471.696
26.63000 460.281
26.64000 452.132
26.65000 453.786
26.66000 455.371
26.67000 451.958
26.68000 440.469
26.69000 428.870
26.70000 432.533
26.71000 452.398
26.72000 472.170
26.73000 473.033
26.74000 461.014
26.75000 449.320
26.76000 447.188
26.77000 449.488
26.78000 451.437
26.79000 448.656
26.80000 444.390
26.81000 440.539
26.82000 436.397
26.83000 432.705
26.84000 430.359
26.85000 434.525
26.86000 439.552
26.87000 442.629
26.88000 439.439
26.89000 435.776
26.90000 433.238
26.91000 439.856
26.92000 445.077
26.93000 446.979
26.94000 444.015
26.95000 441.008
26.96000 441.392
26.97000 445.004
26.98000 448.588
26.99000 452.248
27.00000 455.889
27.01000 459.209
27.02000 454.935
27.03000 447.454
27.04000 440.297
27.05000 436.884
27.06000 434.540
27.07000 432.454
27.08000 428.548
27.09000 424.857
27.10000 423.099
27.11000 429.791
27.12000 437.470
27.13000 440.862
27.14000 431.714
27.15000 421.758
27.16000 415.080
27.17000 410.016
27.18000 406.290
27.19000 408.429
27.20000 418.357
27.21000 428.315
27.22000 432.240
27.23000 430.999
27.24000 429.773
27.25000 426.515
27.26000 422.213
27.27000 418.337
27.28000 422.731
27.29000 430.306
27.30000 437.891
27.31000 445.583
27.32000 453.303
27.33000 460.072
27.34000 451.364
27.35000 441.642
27.36000 434.252
27.37000 436.092
27.38000 438.881
27.39000 439.246
27.40000 433.155
27.41000 426.714
27.42000 422.540
27.43000 431.834
27.44000 438.839
27.45000 441.167
27.46000 437.887
27.47000 434.611
27.48000 435.315
27.49000 439.096
27.50000 442.815
27.51000 444.819
27.52000 445.902
27.53000 446.493
27.54000 439.112
27.55000 428.938
27.56000 420.044
27.57000 422.465
27.58000 427.544
27.59000 431.926
27.60000 431.833
27.61000 431.180
27.62000 429.815
27.63000 425.894
27.64000 421.744
27.65000 419.190
27.66000 420.511
27.67000 422.005
27.68000 422.938
27.69000 427.260
27.70000 430.413
27.71000 431.378
27.72000 429.979
27.73000 428.595
27.74000 429.107
27.75000 430.946
27.76000 432.746
27.77000 435.541
27.78000 438.674
27.79000 441.299
27.80000 436.935
27.81000 430.344
27.82000 424.077
27.83000 420.348
27.84000 417.158
27.85000 414.453
27.86000 421.456
27.87000 428.423
27.88000 433.484
27.89000 432.321
27.90000 430.677
27.91000 430.478
27.92000 433.472
27.93000 436.582
27.94000 438.449
27.95000 437.172
27.96000 436.242
27.97000 429.942
27.98000 418.438
27.99000 407.079
28.00000 407.523
28.01000 415.459
28.02000 423.173
28.03000 422.035
28.04000 417.345
28.05000 412.912
28.06000 411.528
28.07000 411.029
28.08000 411.148
28.09000 415.559
28.10000 420.792
28.11000 425.149
28.12000 420.606
28.13000 415.964
28.14000 411.513
28.15000 407.629
28.16000 403.782
28.17000 405.389
28.18000 417.977
28.19000 430.877
28.20000 438.303
28.21000 429.102
28.22000 422.601
28.23000 417.464
28.24000 413.513
28.25000 409.623
28.26000 409.117
28.27000 410.564
28.28000 411.961
28.29000 407.904
28.30000 402.078
28.31000 397.300
28.32000 403.310
28.33000 412.161
28.34000 419.371
28.35000 416.418
28.36000 411.715
28.37000 407.876
28.38000 407.316
28.39000 407.139
28.40000 405.578
28.41000 400.270
28.42000 394.753
28.43000 395.609
28.44000 408.146
28.45000 420.934
28.46000 427.968
28.47000 422.075
28.48000 418.013
28.49000 419.045
28.50000 424.079
28.51000 428.925
28.52000 426.008
28.53000 419.019
28.54000 412.326
28.55000 417.559
28.56000 426.394
28.57000 434.021
28.58000 430.751
28.59000 424.879
28.60000 419.978
28.61000 420.466
28.62000 421.786
28.63000 422.840
28.64000 419.054
28.65000 415.637
28.66000 413.763
28.67000 415.692
28.68000 417.797
28.69000 417.929
28.70000 414.773
28.71000 411.567
28.72000 409.887
28.73000 393.918
28.74000 383.169
28.75000 382.307
28.76000 388.475
28.77000 394.636
28.78000 400.581
28.79000 406.422
28.80000 411.967
28.81000 408.539
28.82000 402.694
28.83000 397.009
28.84000 392.596
28.85000 388.458
28.86000 385.935
28.87000 391.489
28.88000 398.153
28.89000 403.362
28.90000 406.694
28.91000 409.235
28.92000 412.186
28.93000 416.056
28.94000 419.961
28.95000 421.872
28.96000 420.767
28.97000 419.631
28.98000 416.023
28.99000 409.979
29.00000 404.035
29.01000 406.844
29.02000 415.297
29.03000 423.381
29.04000 422.152
29.05000 416.871
29.06000 411.906
29.07000 409.496
29.08000 407.984
29.09000 405.827
29.10000 399.122
29.11000 391.530
29.12000 386.587
29.13000 393.606
29.14000 402.080
29.15000 408.546
29.16000 410.120
29.17000 411.099
29.18000 410.486
29.19000 406.619
29.20000 402.656
29.21000 403.802
29.22000 411.952
29.23000 420.142
29.24000 419.804
29.25000 411.922
29.26000 404.113
29.27000 400.652
29.28000 399.737
29.29000 398.875
29.30000 399.078
29.31000 399.704
29.32000 400.286
29.33000 404.696
29.34000 409.604
29.35000 412.902
29.36000 406.034
29.37000 397.386
29.38000 390.724
29.39000 392.176
29.40000 394.499
29.41000 396.227
29.42000 399.610
29.43000 402.315
29.44000 405.037
29.45000 407.791
29.46000 410.546
29.47000 408.126
29.48000 399.289
29.49000 390.448
29.50000 391.676
29.51000 400.906
29.52000 409.829
29.53000 405.500
29.54000 394.112
29.55000 383.269
29.56000 381.760
29.57000 383.623
29.58000 385.336
29.59000 393.653
29.60000 402.513
29.61000 409.434
29.62000 405.384
29.63000 399.613
29.64000 395.574
29.65000 397.949
29.66000 400.926
29.67000 403.080
29.68000 399.828
29.69000 397.133
29.70000 396.782
29.71000 400.397
29.72000 404.078
29.73000 408.653
29.74000 414.228
29.75000 419.784
29.76000 419.201
29.77000 414.228
29.78000 409.244
29.79000 403.897
29.80000 398.375
29.81000 393.524
29.82000 398.415
29.83000 406.510
29.84000 413.862
29.85000 416.341
29.86000 417.586
29.87000 417.738
29.88000 412.332
29.89000 406.148
29.90000 402.916
29.91000 409.618
29.92000 417.129
29.93000 422.408
29.94000 405.996
29.95000 392.925
29.96000 387.237
29.97000 392.900
29.98000 398.688
29.99000 405.884
30.00000 414.493
30.01000 423.047
30.02000 421.047
30.03000 412.263
30.04000 403.830
30.05000 404.567
30.06000 409.356
30.07000 413.480
30.08000 409.347
30.09000 402.745
30.10000 396.828
30.11000 405.653
30.12000 415.910
30.13000 423.443
30.14000 418.468
30.15000 411.939
30.16000 408.008
30.17000 412.027
30.18000 416.600
30.19000 419.717
30.20000 412.734
30.21000 407.283
30.22000 403.256
30.23000 401.215
30.24000 399.187
30.25000 397.722
30.26000 396.765
30.27000 395.817
30.28000 398.396
30.29000 402.974
30.30000 407.176
30.31000 403.384
30.32000 396.373
30.33000 390.579
30.34000 397.880
30.35000 408.740
30.36000 418.332
30.37000 419.310
30.38000 418.829
30.39000 417.149
30.40000 410.493
30.41000 403.291
30.42000 398.496
30.43000 400.410
30.44000 402.720
30.45000 404.242
30.46000 413.437
30.47000 420.348
30.48000 423.970
30.49000 423.449
30.50000 422.916
30.51000 423.181
30.52000 424.094
30.53000 424.994
30.54000 419.367
30.55000 410.470
30.56000 402.091
30.57000 402.848
30.58000 406.954
30.59000 410.340
30.60000 406.959
30.61000 401.910
30.62000 397.519
30.63000 402.307
30.64000 407.644
30.65000 412.095
30.66000 413.211
30.67000 414.007
30.68000 413.454
30.69000 409.473
30.70000 405.323
30.71000 402.683
30.72000 403.137
30.73000 403.506
30.74000 408.865
30.75000 419.896
30.76000 430.866
30.77000 430.197
30.78000 420.982
30.79000 411.943
30.80000 415.737
30.81000 425.479
30.82000 434.683
30.83000 435.890
30.84000 434.426
30.85000 433.239
30.86000 434.349
30.87000 435.971
30.88000 437.359
30.89000 432.814
30.90000 428.270
30.91000 426.981
30.92000 436.826
30.93000 447.597
30.94000 456.005
30.95000 458.948
30.96000 461.671
30.97000 463.339
30.98000 468.938
30.99000 472.980
31.00000 472.935
31.01000 468.714
31.02000 464.624
31.03000 473.739
31.04000 491.638
31.05000 509.092
31.06000 522.176
31.07000 532.798
31.08000 542.945
31.09000 547.034
31.10000 549.283
31.11000 552.769
31.12000 565.340
31.13000 579.740
31.14000 591.838
31.15000 629.358
31.16000 663.299
31.17000 697.005
31.18000 729.979
31.19000 762.901
31.20000 793.553
31.21000 819.420
31.22000 845.133
31.23000 860.249
31.24000 905.853
31.25000 938.167
31.26000 969.483
31.27000 999.885
31.28000 1030.367
31.29000 1066.158
31.30000 1105.156
31.31000 1142.932
31.32000 1184.155
31.33000 1224.490
31.34000 1262.056
31.35000 1269.117
31.36000 1267.759
31.37000 1271.353
31.38000 1307.345
31.39000 1349.211
31.40000 1383.720
31.41000 1357.609
31.42000 1330.541
31.43000 1308.806
31.44000 1302.163
31.45000 1296.436
31.46000 1288.285
31.47000 1275.485
31.48000 1262.570
31.49000 1255.304
31.50000 1206.417
31.51000 1172.374
31.52000 1137.652
31.53000 1102.368
31.54000 1067.445
31.55000 1049.734
31.56000 1041.475
31.57000 1033.534
31.58000 998.361
31.59000 955.908
31.60000 913.477
31.61000 871.260
31.62000 829.097
31.63000 791.198
31.64000 778.271
31.65000 769.406
31.66000 762.246
31.67000 724.505
31.68000 691.387
31.69000 663.604
31.70000 649.571
31.71000 636.235
31.72000 622.756
31.73000 609.026
31.74000 595.292
31.75000 587.923
31.76000 566.997
31.77000 552.719
31.78000 542.667
31.79000 535.767
31.80000 528.784
31.81000 518.816
31.82000 507.357
31.83000 496.431
31.84000 484.892
31.85000 473.996
31.86000 464.222
31.87000 463.929
31.88000 465.786
31.89000 466.353
31.90000 460.137
31.91000 452.935
31.92000 447.243
31.93000 442.565
31.94000 438.877
31.95000 436.329
31.96000 436.453
31.97000 436.688
31.98000 434.796
31.99000 429.530
32.00000 424.220
32.01000 421.513
32.02000 418.383
32.03000 416.266
32.04000 412.449
32.05000 407.483
32.06000 402.669
32.07000 402.121
32.08000 403.515
32.09000 404.832
32.10000 398.963
32.11000 391.541
32.12000 385.239
32.13000 387.309
32.14000 391.095
32.15000 395.103
32.16000 400.168
32.17000 405.370
32.18000 409.386
32.19000 396.188
32.20000 384.723
32.21000 378.097
32.22000 381.823
32.23000 385.894
32.24000 386.867
32.25000 383.383
32.26000 379.864
32.27000 378.540
32.28000 379.264
32.29000 379.994
32.30000 381.088
32.31000 382.407
32.32000 383.737
32.33000 385.343
32.34000 387.063
32.35000 388.671
32.36000 390.737
32.37000 392.730
32.38000 393.960
32.39000 390.107
32.40000 385.316
32.41000 380.460
32.42000 375.329
32.43000 370.167
32.44000 366.279
32.45000 371.940
32.46000 376.838
32.47000 381.155
32.48000 384.341
32.49000 387.498
32.50000 388.603
32.51000 387.036
32.52000 385.458
32.53000 384.005
32.54000 382.660
32.55000 381.258
32.56000 376.987
32.57000 371.116
32.58000 365.348
32.59000 361.482
32.60000 358.337
32.61000 355.427
32.62000 362.347
32.63000 370.808
32.64000 377.801
32.65000 376.039
32.66000 372.829
32.67000 370.036
32.68000 368.868
32.69000 367.863
32.70000 367.125
32.71000 373.161
32.72000 378.097
32.73000 382.451
32.74000 385.771
32.75000 389.071
32.76000 387.759
32.77000 381.024
32.78000 374.299
32.79000 370.959
32.80000 370.192
32.81000 369.437
32.82000 369.139
32.83000 369.072
32.84000 368.836
32.85000 365.938
32.86000 362.124
32.87000 358.638
32.88000 364.659
32.89000 371.953
32.90000 378.269
32.91000 379.353
32.92000 379.661
32.93000 379.322
32.94000 376.699
32.95000 373.877
32.96000 371.864
32.97000 368.812
32.98000 366.452
32.99000 365.831
33.00000 368.015
33.01000 370.237
33.02000 371.794
33.03000 372.647
33.04000 373.496
33.05000 370.117
33.06000 363.907
33.07000 357.559
33.08000 347.176
33.09000 334.928
33.10000 323.603
33.11000 324.616
33.12000 329.494
33.13000 333.894
33.14000 335.931
33.15000 337.287
33.16000 338.508
33.17000 339.076
33.18000 339.559
33.19000 339.224
33.20000 336.267
33.21000 333.113
33.22000 330.930
33.23000 328.956
33.24000 327.476
33.25000 328.271
33.26000 332.393
33.27000 336.542
33.28000 335.600
33.29000 329.824
33.30000 324.095
33.31000 326.107
33.32000 332.819
33.33000 339.345
33.34000 341.518
33.35000 341.858
33.36000 342.386
33.37000 345.092
33.38000 348.418
33.39000 351.377
33.40000 352.675
33.41000 353.532
33.42000 353.452
33.43000 349.295
33.44000 344.663
33.45000 342.440
33.46000 347.244
33.47000 352.499
33.48000 356.020
33.49000 346.108
33.50000 338.484
33.51000 332.059
33.52000 327.222
33.53000 322.404
33.54000 324.432
33.55000 332.307
33.56000 340.088
33.57000 339.856
33.58000 335.204
33.59000 330.665
33.60000 328.297
33.61000 326.763
33.62000 325.619
33.63000 328.387
33.64000 332.167
33.65000 335.480
33.66000 336.457
33.67000 336.958
33.68000 337.029
33.69000 335.402
33.70000 333.601
33.71000 334.246
33.72000 341.383
33.73000 348.870
33.74000 353.717
33.75000 335.856
33.76000 322.453
33.77000 316.813
33.78000 320.458
33.79000 324.124
33.80000 328.729
33.81000 334.058
33.82000 339.297
33.83000 340.574
33.84000 339.834
33.85000 339.014
33.86000 336.892
33.87000 334.317
33.88000 331.921
33.89000 331.114
33.90000 330.678
33.91000 330.302
33.92000 333.366
33.93000 336.405
33.94000 337.740
33.95000 332.973
33.96000 327.661
33.97000 324.545
33.98000 326.739
33.99000 329.170
34.00000 330.687
34.01000 328.962
34.02000 327.685
34.03000 327.563
34.04000 328.683
34.05000 329.796
34.06000 329.967
34.07000 329.480
34.08000 329.005
34.09000 325.556
34.10000 320.911
34.11000 316.426
34.12000 314.141
34.13000 312.556
34.14000 311.693
34.15000 316.438
34.16000 322.370
34.17000 327.399
34.18000 329.387
34.19000 330.711
34.20000 330.844
34.21000 327.101
34.22000 323.059
34.23000 320.087
34.24000 319.477
34.25000 318.951
34.26000 318.636
34.27000 314.796
34.28000 312.046
34.29000 315.776
34.30000 325.767
34.31000 335.706
34.32000 341.524
34.33000 344.734
34.34000 347.853
34.35000 344.451
34.36000 338.567
34.37000 332.555
34.38000 325.029
34.39000 317.066
34.40000 310.312
34.41000 311.918
34.42000 315.119
34.43000 317.783
34.44000 320.461
34.45000 322.680
34.46000 324.051
34.47000 322.912
34.48000 321.608
34.49000 321.149
34.50000 322.389
34.51000 323.676
34.52000 324.416
34.53000 321.607
34.54000 319.635
34.55000 322.184
34.56000 328.661
34.57000 335.013
34.58000 334.432
34.59000 329.864
34.60000 325.455
34.61000 319.803
34.62000 314.025
34.63000 309.065
34.64000 312.489
34.65000 318.114
34.66000 322.638
34.67000 320.366
34.68000 316.927
34.69000 314.122
34.70000 313.333
34.71000 312.861
34.72000 311.129
34.73000 306.000
34.74000 300.682
34.75000 302.657
34.76000 317.964
34.77000 333.555
34.78000 342.119
34.79000 322.275
34.80000 308.603
34.81000 304.102
34.82000 306.786
34.83000 309.458
34.84000 311.625
34.85000 313.527
34.86000 315.348
34.87000 313.575
34.88000 310.734
34.89000 308.007
34.90000 306.310
34.91000 304.856
34.92000 305.052
34.93000 314.382
34.94000 325.114
34.95000 333.687
34.96000 327.600
34.97000 321.602
34.98000 317.998
34.99000 320.272
35.00000 322.817
35.01000 322.292
35.02000 316.665
35.03000 310.961
35.04000 307.978
35.05000 310.923
35.06000 312.894
35.07000 311.431
35.08000 307.534
35.09000 303.683
35.10000 301.297
35.11000 299.608
35.12000 298.006
35.13000 301.288
35.14000 305.770
35.15000 309.927
35.16000 311.500
35.17000 312.515
35.18000 312.807
35.19000 309.487
35.20000 305.673
35.21000 302.695
35.22000 308.058
35.23000 312.862
35.24000 314.277
35.25000 308.107
35.26000 301.656
35.27000 299.174
35.28000 302.683
35.29000 306.253
35.30000 306.785
35.31000 304.331
35.32000 301.905
35.33000 301.903
35.34000 303.459
35.35000 305.030
35.36000 306.948
35.37000 309.016
35.38000 310.961
35.39000 312.199
35.40000 313.141
35.41000 313.539
35.42000 310.110
35.43000 305.937
35.44000 302.300
35.45000 301.073
35.46000 300.139
35.47000 299.426
35.48000 307.825
35.49000 314.925
35.50000 317.711
35.51000 311.702
35.52000 305.435
35.53000 299.728
35.54000 294.785
35.55000 289.849
35.56000 289.774
35.57000 293.987
35.58000 298.123
35.59000 297.775
35.60000 294.808
35.61000 291.957
35.62000 291.476
35.63000 291.934
35.64000 292.359
35.65000 296.483
35.66000 301.098
35.67000 305.046
35.68000 304.807
35.69000 303.837
35.70000 302.685
35.71000 300.793
35.72000 298.823
35.73000 297.358
35.74000 306.480
35.75000 314.042
35.76000 316.242
35.77000 308.490
35.78000 300.515
35.79000 297.470
35.80000 300.519
35.81000 303.580
35.82000 304.279
35.83000 303.105
35.84000 301.940
35.85000 301.237
35.86000 300.778
35.87000 300.344
35.88000 300.334
35.89000 300.477
35.90000 300.608
35.91000 297.294
35.92000 293.591
35.93000 291.332
35.94000 297.220
35.95000 304.381
35.96000 309.738
35.97000 308.427
35.98000 306.493
35.99000 305.094
36.00000 303.927
36.01000 303.040
36.02000 298.678
36.03000 288.451
36.04000 278.128
36.05000 275.077
36.06000 280.128
36.07000 285.165
36.08000 288.385
36.09000 290.277
36.10000 292.193
36.11000 294.855
36.12000 297.879
36.13000 300.812
36.14000 302.435
36.15000 303.629
36.16000 304.713
36.17000 301.913
36.18000 298.689
36.19000 295.844
36.20000 294.914
36.21000 294.251
36.22000 293.649
36.23000 293.250
36.24000 292.867
36.25000 292.598
36.26000 298.991
36.27000 304.026
36.28000 304.475
36.29000 297.896
36.30000 291.241
36.31000 287.413
36.32000 286.412
36.33000 285.418
36.34000 288.782
36.35000 294.899
36.36000 300.782
36.37000 300.565
36.38000 297.660
36.39000 294.886
36.40000 293.726
36.41000 293.048
36.42000 292.441
36.43000 291.098
36.44000 289.798
36.45000 288.775
36.46000 289.013
36.47000 289.408
36.48000 289.876
36.49000 290.570
36.50000 291.279
36.51000 291.762
36.52000 292.101
36.53000 292.351
36.54000 294.238
36.55000 298.401
36.56000 302.577
36.57000 303.467
36.58000 301.404
36.59000 299.362
36.60000 294.870
36.61000 289.052
36.62000 283.461
36.63000 282.671
36.64000 283.808
36.65000 285.400
36.66000 291.879
36.67000 299.682
36.68000 306.571
36.69000 299.310
36.70000 290.874
36.71000 283.678
36.72000 281.610
36.73000 280.102
36.74000 278.917
36.75000 278.627
36.76000 278.390
36.77000 278.234
36.78000 279.396
36.79000 280.274
36.80000 282.594
36.81000 286.724
36.82000 290.852
36.83000 292.279
36.84000 291.517
36.85000 290.767
36.86000 286.528
36.87000 280.584
36.88000 274.808
36.89000 271.975
36.90000 270.219
36.91000 270.003
36.92000 284.227
36.93000 301.998
36.94000 317.446
36.95000 304.898
36.96000 290.393
36.97000 279.893
36.98000 284.418
36.99000 290.379
37.00000 293.249
37.01000 288.291
37.02000 282.951
37.03000 279.558
37.04000 285.722
37.05000 290.317
37.06000 293.352
37.07000 294.617
37.08000 295.893
37.09000 299.137
37.10000 303.823
37.11000 308.419
37.12000 301.190
37.13000 288.634
37.14000 276.722
37.15000 274.341
37.16000 275.132
37.17000 276.334
37.18000 280.923
37.19000 286.265
37.20000 290.832
37.21000 294.633
37.22000 297.746
37.23000 298.239
37.24000 289.803
37.25000 280.626
37.26000 277.629
37.27000 288.886
37.28000 300.714
37.29000 307.948
37.30000 297.638
37.31000 290.113
37.32000 284.935
37.33000 282.147
37.34000 279.371
37.35000 277.730
37.36000 276.843
37.37000 275.978
37.38000 276.755
37.39000 278.199
37.40000 279.427
37.41000 277.918
37.42000 275.580
37.43000 274.142
37.44000 279.282
37.45000 285.744
37.46000 291.170
37.47000 291.576
37.48000 291.387
37.49000 291.614
37.50000 293.132
37.51000 294.742
37.52000 295.831
37.53000 295.826
37.54000 295.787
37.55000 295.764
37.56000 291.635
37.57000 288.703
37.58000 285.725
37.59000 282.702
37.60000 279.752
37.61000 281.573
37.62000 286.267
37.63000 290.814
37.64000 290.183
37.65000 287.590
37.66000 285.054
37.67000 283.136
37.68000 281.388
37.69000 279.684
37.70000 278.266
37.71000 276.900
37.72000 275.775
37.73000 278.075
37.74000 280.280
37.75000 283.098
37.76000 287.644
37.77000 292.295
37.78000 294.021
37.79000 290.155
37.80000 286.151
37.81000 283.902
37.82000 291.539
37.83000 296.850
37.84000 296.619
37.85000 291.826
37.86000 287.111
37.87000 286.063
37.88000 287.024
37.89000 287.947
37.90000 287.424
37.91000 286.432
37.92000 285.284
37.93000 282.646
37.94000 279.636
37.95000 277.648
37.96000 281.621
37.97000 286.561
37.98000 290.547
37.99000 278.742
38.00000 267.895
38.01000 260.349
38.02000 261.286
38.03000 262.652
38.04000 264.672
38.05000 267.831
38.06000 271.011
38.07000 272.715
38.08000 278.570
38.09000 282.559
38.10000 284.628
38.11000 285.268
38.12000 285.813
38.13000 282.971
38.14000 278.441
38.15000 274.123
38.16000 276.416
38.17000 280.614
38.18000 284.341
38.19000 284.101
38.20000 282.964
38.21000 282.756
38.22000 287.424
38.23000 292.798
38.24000 297.041
38.25000 298.360
38.26000 299.219
38.27000 299.089
38.28000 296.645
38.29000 294.105
38.30000 291.747
38.31000 289.674
38.32000 287.604
38.33000 286.551
38.34000 290.371
38.35000 292.944
38.36000 296.750
38.37000 301.387
38.38000 305.889
38.39000 306.638
38.40000 305.684
38.41000 304.783
38.42000 312.520
38.43000 322.057
38.44000 331.250
38.45000 337.869
38.46000 343.963
38.47000 350.574
38.48000 359.624
38.49000 368.989
38.50000 376.214
38.51000 397.051
38.52000 414.353
38.53000 428.846
38.54000 437.348
38.55000 445.652
38.56000 457.862
38.57000 475.675
38.58000 493.529
38.59000 511.235
38.60000 528.795
38.61000 546.416
38.62000 568.251
38.63000 592.665
38.64000 616.961
38.65000 638.621
38.66000 659.191
38.67000 678.421
38.68000 696.128
38.69000 711.816
38.70000 726.315
38.71000 732.918
38.72000 738.070
38.73000 743.473
38.74000 749.950
38.75000 756.550
38.76000 761.517
38.77000 751.904
38.78000 743.675
38.79000 734.951
38.80000 725.266
38.81000 715.557
38.82000 702.389
38.83000 684.729
38.84000 667.070
38.85000 645.737
38.86000 621.397
38.87000 597.125
38.88000 576.209
38.89000 557.159
38.90000 538.073
38.91000 518.314
38.92000 498.300
38.93000 479.796
38.94000 461.849
38.95000 445.861
38.96000 429.694
38.97000 412.460
38.98000 395.049
38.99000 379.266
39.00000 369.785
39.01000 360.933
39.02000 354.444
39.03000 351.289
39.04000 348.987
39.05000 341.329
39.06000 324.204
39.07000 306.900
39.08000 297.931
39.09000 298.733
39.10000 299.548
39.11000 292.861
39.12000 280.585
39.13000 268.617
39.14000 268.084
39.15000 273.339
39.16000 278.446
39.17000 281.258
39.18000 283.283
39.19000 285.132
39.20000 290.828
39.21000 296.670
39.22000 300.051
39.23000 290.300
39.24000 278.613
39.25000 268.227
39.26000 262.417
39.27000 257.003
39.28000 253.146
39.29000 268.705
39.30000 281.196
39.31000 287.156
39.32000 282.624
39.33000 277.952
39.34000 276.869
39.35000 279.571
39.36000 282.260
39.37000 280.514
39.38000 275.788
39.39000 271.108
39.40000 267.760
39.41000 265.027
39.42000 262.267
39.43000 259.155
39.44000 255.933
39.45000 253.027
39.46000 263.472
39.47000 275.075
39.48000 284.435
39.49000 283.009
39.50000 280.168
39.51000 277.316
39.52000 274.433
39.53000 271.547
39.54000 269.551
39.55000 261.202
39.56000 254.759
39.57000 253.189
39.58000 258.719
39.59000 264.309
39.60000 265.418
39.61000 262.286
39.62000 259.180
39.63000 259.236
39.64000 261.220
39.65000 263.203
39.66000 265.160
39.67000 267.105
39.68000 268.886
39.69000 268.782
39.70000 268.142
39.71000 267.573
39.72000 262.876
39.73000 258.128
39.74000 254.415
39.75000 255.194
39.76000 256.494
39.77000 257.466
39.78000 257.483
39.79000 257.438
39.80000 257.408
39.81000 266.213
39.82000 272.918
39.83000 272.622
39.84000 263.083
39.85000 253.513
39.86000 251.244
39.87000 255.190
39.88000 259.089
39.89000 257.584
39.90000 253.141
39.91000 248.753
39.92000 245.415
39.93000 242.479
39.94000 239.913
39.95000 241.042
39.96000 243.123
39.97000 244.946
39.98000 251.450
39.99000 257.705
40.00000 261.480
40.01000 255.501
40.02000 248.527
40.03000 245.343
40.04000 252.196
40.05000 259.586
40.06000 264.366
40.07000 271.227
40.08000 276.276
40.09000 273.935
40.10000 262.786
40.11000 251.659
40.12000 249.758
40.13000 254.946
40.14000 260.047
40.15000 255.738
40.16000 246.893
40.17000 238.837
40.18000 243.452
40.19000 252.482
40.20000 260.748
40.21000 262.320
40.22000 262.329
40.23000 262.336
40.24000 261.505
40.25000 260.694
40.26000 260.146
40.27000 260.539
40.28000 261.016
40.29000 258.611
40.30000 249.250
40.31000 239.581
40.32000 233.555
40.33000 241.858
40.34000 247.989
40.35000 249.022
40.36000 244.584
40.37000 240.180
40.38000 240.307
40.39000 243.586
40.40000 246.793
40.41000 249.685
40.42000 252.318
40.43000 254.201
40.44000 245.855
40.45000 234.264
40.46000 224.308
40.47000 227.013
40.48000 232.390
40.49000 236.946
40.50000 238.661
40.51000 239.780
40.52000 240.153
40.53000 238.107
40.54000 235.876
40.55000 235.061
40.56000 237.357
40.57000 239.764
40.58000 241.206
40.59000 249.846
40.60000 256.028
40.61000 255.102
40.62000 247.333
40.63000 239.638
40.64000 237.777
40.65000 239.597
40.66000 241.366
40.67000 244.710
40.68000 248.524
40.69000 251.970
40.70000 251.086
40.71000 248.953
40.72000 246.462
40.73000 241.502
40.74000 236.072
40.75000 231.557
40.76000 234.154
40.77000 237.000
40.78000 239.359
40.79000 240.277
40.80000 241.102
40.81000 241.403
40.82000 240.655
40.83000 239.878
40.84000 239.432
40.85000 241.446
40.86000 242.865
40.87000 245.630
40.88000 249.560
40.89000 253.313
40.90000 247.264
40.91000 235.595
40.92000 224.336
40.93000 224.597
40.94000 229.053
40.95000 233.553
40.96000 238.499
40.97000 243.562
40.98000 248.268
40.99000 250.778
41.00000 252.913
41.01000 254.654
41.02000 253.509
41.03000 252.328
41.04000 249.057
41.05000 240.169
41.06000 230.970
41.07000 227.064
41.08000 232.802
41.09000 238.743
41.10000 242.002
41.11000 239.278
41.12000 237.382
41.13000 232.032
41.14000 223.985
41.15000 216.277
41.16000 222.343
41.17000 235.593
41.18000 248.275
41.19000 249.120
41.20000 246.005
41.21000 243.374
41.22000 245.079
41.23000 247.813
41.24000 249.562
41.25000 245.875
41.26000 241.357
41.27000 237.750
41.28000 243.645
41.29000 249.103
41.30000 252.922
41.31000 252.726
41.32000 252.346
41.33000 248.649
41.34000 239.453
41.35000 230.175
41.36000 225.331
41.37000 234.951
41.38000 241.431
41.39000 243.610
41.40000 242.749
41.41000 241.958
41.42000 243.330
41.43000 245.731
41.44000 248.008
41.45000 243.688
41.46000 237.744
41.47000 232.751
41.48000 235.284
41.49000 239.432
41.50000 242.633
41.51000 241.124
41.52000 238.973
41.53000 237.294
41.54000 238.652
41.55000 239.925
41.56000 239.643
41.57000 235.890
41.58000 232.010
41.59000 231.927
41.60000 237.560
41.61000 243.250
41.62000 243.812
41.63000 239.350
41.64000 234.928
41.65000 233.844
41.66000 234.900
41.67000 235.838
41.68000 233.837
41.69000 230.565
41.70000 227.491
41.71000 230.190
41.72000 234.195
41.73000 237.553
41.74000 236.363
41.75000 234.293
41.76000 232.980
41.77000 235.063
41.78000 237.556
41.79000 239.456
41.80000 242.218
41.81000 244.438
41.82000 246.604
41.83000 248.658
41.84000 250.709
41.85000 248.279
41.86000 239.740
41.87000 231.170
41.88000 229.814
41.89000 234.802
41.90000 239.714
41.91000 240.219
41.92000 238.159
41.93000 235.891
41.94000 229.421
41.95000 221.294
41.96000 213.738
41.97000 216.674
41.98000 221.843
41.99000 226.501
42.00000 227.961
42.01000 228.865
42.02000 229.976
42.03000 231.927
42.04000 233.967
42.05000 235.481
42.06000 232.425
42.07000 229.848
42.08000 231.015
42.09000 239.111
42.10000 247.361
42.11000 249.736
42.12000 244.872
42.13000 239.997
42.14000 237.211
42.15000 236.089
42.16000 234.983
42.17000 234.563
42.18000 234.506
42.19000 234.156
42.20000 228.820
42.21000 221.694
42.22000 215.144
42.23000 216.507
42.24000 219.427
42.25000 223.375
42.26000 233.092
42.27000 243.709
42.28000 250.010
42.29000 240.407
42.30000 229.326
42.31000 221.320
42.32000 225.679
42.33000 229.470
42.34000 232.259
42.35000 233.360
42.36000 234.434
42.37000 233.173
42.38000 229.321
42.39000 225.482
42.40000 223.785
42.41000 223.629
42.42000 223.499
42.43000 224.193
42.44000 225.285
42.45000 226.887
42.46000 235.820
42.47000 247.150
42.48000 257.433
42.49000 245.390
42.50000 230.458
42.51000 218.810
42.52000 223.752
42.53000 231.000
42.54000 236.452
42.55000 235.891
42.56000 234.846
42.57000 234.112
42.58000 233.924
42.59000 233.798
42.60000 233.124
42.61000 231.613
42.62000 230.093
42.63000 225.831
42.64000 218.836
42.65000 211.886
42.66000 216.032
42.67000 227.232
42.68000 238.021
42.69000 238.208
42.70000 233.737
42.71000 229.675
42.72000 230.640
42.73000 233.100
42.74000 235.302
42.75000 232.787
42.76000 229.782
42.77000 227.073
42.78000 225.718
42.79000 224.529
42.80000 224.353
42.81000 227.259
42.82000 230.378
42.83000 232.499
42.84000 231.415
42.85000 230.533
42.86000 229.026
42.87000 226.653
42.88000 224.276
42.89000 223.870
42.90000 225.230
42.91000 226.576
42.92000 231.284
42.93000 237.836
42.94000 243.984
42.95000 241.630
42.96000 235.874
42.97000 229.886
42.98000 221.424
42.99000 212.295
43.00000 204.238
43.01000 213.159
43.02000 223.449
43.03000 231.257
43.04000 228.815
43.05000 225.261
43.06000 222.187
43.07000 220.444
43.08000 218.779
43.09000 217.684
43.10000 226.026
43.11000 232.330
43.12000 233.656
43.13000 228.745
43.14000 223.824
43.15000 222.400
43.16000 223.798
43.17000 225.177
43.18000 223.402
43.19000 220.032
43.20000 216.869
43.21000 217.329
43.22000 219.110
43.23000 220.911
43.24000 222.893
43.25000 224.919
43.26000 226.680
43.27000 221.118
43.28000 215.385
43.29000 211.417
43.30000 214.050
43.31000 217.311
43.32000 218.309
43.33000 213.590
43.34000 208.593
43.35000 205.421
43.36000 210.955
43.37000 215.079
43.38000 218.738
43.39000 221.874
43.40000 224.992
43.41000 225.406
43.42000 223.846
43.43000 222.316
43.44000 224.171
43.45000 227.553
43.46000 230.599
43.47000 228.687
43.48000 225.129
43.49000 221.854
43.50000 220.907
43.51000 220.475
43.52000 220.106
43.53000 218.899
43.54000 217.781
43.55000 216.553
43.56000 214.950
43.57000 213.315
43.58000 211.759
43.59000 210.385
43.60000 209.019
43.61000 208.184
43.62000 214.249
43.63000 218.644
43.64000 219.564
43.65000 216.958
43.66000 214.391
43.67000 215.676
43.68000 219.508
43.69000 223.243
43.70000 222.188
43.71000 219.141
43.72000 216.332
43.73000 216.532
43.74000 217.641
43.75000 218.084
43.76000 213.668
43.77000 208.280
43.78000 203.758
43.79000 204.200
43.80000 205.088
43.81000 207.384
43.82000 214.033
43.83000 220.991
43.84000 226.164
43.85000 227.599
43.86000 228.915
43.87000 229.687
43.88000 224.875
43.89000 221.459
43.90000 219.636
43.91000 219.263
43.92000 218.919
43.93000 220.340
43.94000 222.821
43.95000 225.224
43.96000 223.479
43.97000 220.235
43.98000 216.969
43.99000 213.465
44.00000 209.896
44.01000 206.971
44.02000 208.232
44.03000 210.247
44.04000 211.906
44.05000 218.745
44.06000 224.841
44.07000 227.691
44.08000 221.407
44.09000 214.574
44.10000 211.171
44.11000 214.311
44.12000 217.610
44.13000 219.461
44.14000 216.233
44.15000 213.984
44.16000 211.950
44.17000 210.093
44.18000 208.285
44.19000 208.727
44.20000 210.397
44.21000 212.001
44.22000 213.322
44.23000 214.461
44.24000 215.446
44.25000 214.969
44.26000 214.130
44.27000 213.207
44.28000 211.799
44.29000 210.314
44.30000 209.116
44.31000 211.669
44.32000 214.040
44.33000 216.077
44.34000 217.258
44.35000 218.396
44.36000 219.365
44.37000 220.040
44.38000 220.710
44.39000 221.069
44.40000 212.063
44.41000 205.959
44.42000 208.407
44.43000 217.198
44.44000 225.716
44.45000 224.601
44.46000 218.699
44.47000 213.074
44.48000 215.444
44.49000 220.139
44.50000 224.421
44.51000 225.253
44.52000 225.307
44.53000 224.960
44.54000 222.515
44.55000 219.766
44.56000 217.598
44.57000 216.570
44.58000 215.822
44.59000 216.130
44.60000 218.903
44.61000 221.777
44.62000 224.493
44.63000 226.962
44.64000 229.427
44.65000 230.680
44.66000 226.531
44.67000 223.789
44.68000 225.213
44.69000 229.437
44.70000 233.503
44.71000 233.199
44.72000 230.917
44.73000 228.763
44.74000 225.034
44.75000 221.171
44.76000 217.961
44.77000 219.605
44.78000 222.238
44.79000 224.081
44.80000 222.203
44.81000 219.848
44.82000 218.033
44.83000 221.057
44.84000 223.732
44.85000 225.888
44.86000 226.944
44.87000 227.964
44.88000 228.637
44.89000 228.815
44.90000 228.988
44.91000 232.759
44.92000 239.859
44.93000 246.862
44.94000 247.144
44.95000 243.328
44.96000 239.645
44.97000 238.958
44.98000 239.507
44.99000 240.021
45.00000 237.978
45.01000 235.478
45.02000 234.289
45.03000 241.783
45.04000 250.867
45.05000 257.663
45.06000 254.706
45.07000 250.644
45.08000 247.590
45.09000 247.213
45.10000 247.048
45.11000 246.394
45.12000 244.792
45.13000 243.166
45.14000 242.150
45.15000 241.923
45.16000 241.700
45.17000 244.540
45.18000 249.922
45.19000 255.179
45.20000 254.342
45.21000 250.125
45.22000 246.200
45.23000 247.658
45.24000 251.139
45.25000 254.356
45.26000 259.206
45.27000 263.932
45.28000 266.858
45.29000 259.138
45.30000 249.667
45.31000 242.578
45.32000 244.686
45.33000 247.708
45.34000 249.921
45.35000 249.877
45.36000 249.752
45.37000 248.537
45.38000 245.398
45.39000 242.224
45.40000 241.682
45.41000 244.217
45.42000 246.750
45.43000 248.851
45.44000 250.612
45.45000 252.337
45.46000 252.697
45.47000 252.367
45.48000 251.914
45.49000 249.538
45.50000 246.505
45.51000 243.734
45.52000 246.475
45.53000 250.029
45.54000 253.107
45.55000 253.657
45.56000 253.834
45.57000 254.496
45.58000 256.855
45.59000 259.361
45.60000 261.145
45.61000 250.266
45.62000 241.567
45.63000 238.724
45.64000 245.258
45.65000 251.916
45.66000 253.035
45.67000 248.331
45.68000 243.651
45.69000 240.910
45.70000 239.510
45.71000 238.158
45.72000 238.149
45.73000 238.757
45.74000 239.295
45.75000 238.897
45.76000 238.207
45.77000 237.585
45.78000 233.799
45.79000 229.901
45.80000 226.646
45.81000 226.470
45.82000 226.696
45.83000 226.625
45.84000 225.607
45.85000 224.519
45.86000 223.768
45.87000 217.077
45.88000 211.896
45.89000 211.480
45.90000 217.989
45.91000 224.556
45.92000 227.305
45.93000 226.452
45.94000 225.606
45.95000 220.929
45.96000 214.007
45.97000 207.457
45.98000 209.543
45.99000 215.243
46.00000 220.466
46.01000 220.234
46.02000 218.457
46.03000 216.878
46.04000 215.527
46.05000 214.392
46.06000 213.793
46.07000 215.520
46.08000 217.515
46.09000 218.652
46.10000 217.300
46.11000 215.790
46.12000 214.780
46.13000 220.314
46.14000 224.546
46.15000 224.386
46.16000 218.446
46.17000 212.485
46.18000 208.796
46.19000 207.037
46.20000 205.299
46.21000 204.290
46.22000 203.706
46.23000 202.978
46.24000 199.507
46.25000 194.991
46.26000 191.058
46.27000 192.942
46.28000 196.320
46.29000 199.278
46.30000 206.856
46.31000 214.018
46.32000 218.465
46.33000 212.266
46.34000 204.986
46.35000 200.340
46.36000 202.651
46.37000 205.333
46.38000 207.066
46.39000 206.853
46.40000 206.669
46.41000 206.000
46.42000 204.754
46.43000 203.517
46.44000 204.800
46.45000 208.011
46.46000 211.169
46.47000 208.037
46.48000 201.892
46.49000 195.970
46.50000 193.603
46.51000 192.471
46.52000 191.479
46.53000 191.722
46.54000 192.253
46.55000 192.709
46.56000 196.257
46.57000 199.656
46.58000 201.077
46.59000 195.459
46.60000 189.217
46.61000 186.252
46.62000 191.174
46.63000 196.442
46.64000 199.722
46.65000 192.303
46.66000 186.849
46.67000 189.727
46.68000 201.516
46.69000 213.220
46.70000 214.052
46.71000 207.345
46.72000 200.788
46.73000 197.210
46.74000 195.113
46.75000 193.476
46.76000 198.098
46.77000 204.699
46.78000 209.959
46.79000 204.861
46.80000 197.583
46.81000 191.422
46.82000 195.365
46.83000 199.795
46.84000 203.974
46.85000 207.342
46.86000 210.649
46.87000 211.098
46.88000 205.285
46.89000 199.250
46.90000 195.638
46.91000 198.785
46.92000 201.061
46.93000 200.538
46.94000 197.329
46.95000 194.142
46.96000 192.743
46.97000 192.469
46.98000 192.203
46.99000 190.761
47.00000 188.918
47.01000 187.363
47.02000 189.186
47.03000 191.979
47.04000 194.406
47.05000 194.311
47.06000 193.738
47.07000 193.261
47.08000 195.212
47.09000 197.063
47.10000 197.395
47.11000 193.257
47.12000 188.827
47.13000 187.655
47.14000 192.987
47.15000 198.501
47.16000 201.662
47.17000 202.589
47.18000 203.228
47.19000 203.055
47.20000 202.184
47.21000 201.299
47.22000 199.703
47.23000 197.700
47.24000 195.768
47.25000 194.971
47.26000 194.635
47.27000 194.185
47.28000 192.589
47.29000 190.692
47.30000 188.819
47.31000 187.086
47.32000 185.376
47.33000 183.983
47.34000 180.074
47.35000 176.666
47.36000 175.751
47.37000 181.523
47.38000 187.662
47.39000 192.394
47.40000 194.570
47.41000 196.693
47.42000 197.855
47.43000 187.046
47.44000 179.606
47.45000 174.784
47.46000 172.001
47.47000 169.386
47.48000 173.510
47.49000 181.138
47.50000 188.438
47.51000 192.493
47.52000 195.204
47.53000 197.518
47.54000 196.288
47.55000 194.219
47.56000 192.379
47.57000 191.803
47.58000 191.419
47.59000 191.113
47.60000 194.523
47.61000 197.546
47.62000 198.716
47.63000 195.356
47.64000 191.790
47.65000 188.433
47.66000 185.419
47.67000 182.410
47.68000 180.841
47.69000 178.526
47.70000 176.973
47.71000 177.015
47.72000 178.182
47.73000 179.383
47.74000 181.631
47.75000 184.377
47.76000 186.981
47.77000 184.153
47.78000 179.937
47.79000 176.907
47.80000 183.206
47.81000 191.501
47.82000 197.941
47.83000 195.186
47.84000 191.182
47.85000 188.060
47.86000 184.254
47.87000 181.178
47.88000 179.689
47.89000 181.733
47.90000 183.907
47.91000 185.264
47.92000 185.396
47.93000 185.516
47.94000 184.130
47.95000 181.273
47.96000 178.476
47.97000 180.767
47.98000 186.309
47.99000 191.601
48.00000 190.699
48.01000 187.124
48.02000 183.767
48.03000 182.532
48.04000 181.971
48.05000 181.485
48.06000 181.521
48.07000 181.659
48.08000 181.523
48.09000 180.163
48.10000 178.656
48.11000 177.509
48.12000 180.518
48.13000 183.106
48.14000 185.184
48.15000 186.232
48.16000 187.250
48.17000 187.825
48.18000 187.796
48.19000 187.764
48.20000 188.421
48.21000 189.679
48.22000 190.888
48.23000 189.273
48.24000 186.017
48.25000 182.915
48.26000 182.935
48.27000 184.182
48.28000 185.341
48.29000 187.598
48.30000 189.898
48.31000 191.829
48.32000 191.464
48.33000 190.700
48.34000 190.369
48.35000 191.788
48.36000 193.393
48.37000 194.584
48.38000 186.326
48.39000 179.495
48.40000 175.019
48.41000 174.888
48.42000 174.853
48.43000 175.208
48.44000 176.044
48.45000 176.879
48.46000 179.540
48.47000 183.625
48.48000 187.615
48.49000 187.579
48.50000 185.417
48.51000 183.231
48.52000 180.652
48.53000 177.932
48.54000 175.433
48.55000 175.913
48.56000 176.980
48.57000 177.762
48.58000 176.943
48.59000 175.876
48.60000 174.365
48.61000 171.226
48.62000 167.935
48.63000 165.560
48.64000 171.963
48.65000 177.188
48.66000 179.094
48.67000 175.432
48.68000 171.682
48.69000 171.624
48.70000 175.654
48.71000 179.670
48.72000 181.926
48.73000 182.913
48.74000 183.869
48.75000 183.855
48.76000 183.373
48.77000 182.709
48.78000 179.431
48.79000 175.300
48.80000 171.553
48.81000 171.017
48.82000 171.159
48.83000 171.305
48.84000 171.468
48.85000 171.633
48.86000 172.772
48.87000 177.158
48.88000 181.805
48.89000 185.063
48.90000 188.309
48.91000 190.765
48.92000 190.025
48.93000 184.414
48.94000 178.753
48.95000 179.713
48.96000 187.255
48.97000 194.747
48.98000 194.831
48.99000 190.177
49.00000 185.450
49.01000 178.858
49.02000 171.450
49.03000 164.860
49.04000 168.319
49.05000 174.758
49.06000 180.521
49.07000 179.671
49.08000 177.798
49.09000 176.026
49.10000 174.709
49.11000 173.448
49.12000 173.913
49.13000 179.617
49.14000 185.681
49.15000 189.802
49.16000 181.438
49.17000 174.914
49.18000 172.629
49.19000 176.198
49.20000 179.801
49.21000 180.640
49.22000 179.011
49.23000 177.398
49.24000 176.213
49.25000 175.299
49.26000 174.503
49.27000 176.157
49.28000 178.789
49.29000 181.084
49.30000 179.801
49.31000 177.554
49.32000 175.572
49.33000 172.952
49.34000 170.595
49.35000 168.986
49.36000 170.454
49.37000 172.255
49.38000 173.036
49.39000 170.997
49.40000 168.794
49.41000 167.347
49.42000 173.732
49.43000 178.564
49.44000 182.428
49.45000 185.083
49.46000 187.723
49.47000 186.621
49.48000 182.507
49.49000 178.454
49.50000 176.179
49.51000 174.898
49.52000 173.660
49.53000 173.194
49.54000 173.008
49.55000 172.887
49.56000 173.367
49.57000 173.995
49.58000 174.539
49.59000 173.533
49.60000 172.466
49.61000 172.250
49.62000 175.210
49.63000 178.471
49.64000 180.155
49.65000 177.869
49.66000 175.391
49.67000 173.819
49.68000 179.244
49.69000 183.264
49.70000 184.583
49.71000 182.859
49.72000 181.134
49.73000 179.623
49.74000 178.268
49.75000 176.939
49.76000 175.139
49.77000 173.183
49.78000 171.196
49.79000 168.731
49.80000 166.109
49.81000 164.338
49.82000 169.541
49.83000 176.285
49.84000 182.045
49.85000 183.068
49.86000 183.367
49.87000 182.394
49.88000 177.112
49.89000 171.476
49.90000 168.368
49.91000 171.058
49.92000 173.976
49.93000 175.757
49.94000 178.173
49.95000 179.906
49.96000 180.048
49.97000 178.580
49.98000 177.085
49.99000 172.959
50.00000 167.098
50.01000 161.386
50.02000 163.369
50.03000 168.526
50.04000 173.259
50.05000 172.671
50.06000 170.480
50.07000 168.853
50.08000 171.314
50.09000 174.591
50.10000 177.339
50.11000 174.352
50.12000 171.269
50.13000 169.843
50.14000 173.526
50.15000 177.569
50.16000 179.312
50.17000 176.247
50.18000 173.031
50.19000 171.147
50.20000 179.026
50.21000 184.619
50.22000 185.682
50.23000 182.629
50.24000 179.637
50.25000 180.510
50.26000 183.698
50.27000 186.783
50.28000 180.475
50.29000 170.915
50.30000 162.175
50.31000 162.359
50.32000 164.985
50.33000 167.727
50.34000 171.226
50.35000 174.861
50.36000 177.852
50.37000 176.676
50.38000 175.330
50.39000 173.853
50.40000 172.005
50.41000 170.135
50.42000 169.581
50.43000 171.528
50.44000 173.536
50.45000 174.661
50.46000 175.798
50.47000 176.580
50.48000 174.877
50.49000 171.141
50.50000 167.543
50.51000 170.324
50.52000 176.578
50.53000 182.586
50.54000 181.748
50.55000 178.597
50.56000 175.766
50.57000 175.975
50.58000 176.938
50.59000 178.043
50.60000 179.968
50.61000 182.024
50.62000 183.682
50.63000 184.590
50.64000 185.268
50.65000 185.828
50.66000 186.087
50.67000 186.330
50.68000 187.324
50.69000 189.615
50.70000 191.929
50.71000 193.165
50.72000 187.033
50.73000 182.864
50.74000 181.734
50.75000 182.852
50.76000 184.054
50.77000 188.165
50.78000 193.720
50.79000 199.011
50.80000 196.246
50.81000 191.175
50.82000 187.025
50.83000 190.573
50.84000 195.851
50.85000 198.899
50.86000 190.329
50.87000 180.089
50.88000 172.013
50.89000 173.911
50.90000 176.107
50.91000 178.091
50.92000 179.582
50.93000 181.054
50.94000 181.642
50.95000 180.840
50.96000 180.021
50.97000 179.606
50.98000 173.966
50.99000 170.241
51.00000 172.064
51.01000 177.605
51.02000 183.066
51.03000 186.317
51.04000 188.571
51.05000 190.697
51.06000 187.164
51.07000 182.336
51.08000 177.901
51.09000 176.372
51.10000 175.432
51.11000 173.982
51.12000 170.137
51.13000 165.985
51.14000 162.786
51.15000 168.419
51.16000 173.385
51.17000 177.631
51.18000 180.348
51.19000 183.015
51.20000 181.961
51.21000 175.600
51.22000 169.200
51.23000 167.272
51.24000 169.474
51.25000 171.609
51.26000 169.201
51.27000 164.029
51.28000 159.178
51.29000 161.464
51.30000 166.685
51.31000 171.564
51.32000 174.618
51.33000 176.928
51.34000 178.614
51.35000 176.178
51.36000 172.989
51.37000 170.224
51.38000 169.256
51.39000 168.491
51.40000 167.917
51.41000 164.774
51.42000 162.194
51.43000 160.943
51.44000 162.258
51.45000 163.638
51.46000 164.432
51.47000 164.470
51.48000 164.506
51.49000 165.064
51.50000 166.054
51.51000 167.039
51.52000 167.731
51.53000 168.261
51.54000 168.700
51.55000 167.472
51.56000 165.619
51.57000 163.906
51.58000 165.692
51.59000 168.085
51.60000 169.247
51.61000 163.137
51.62000 155.835
51.63000 150.453
51.64000 152.461
51.65000 155.202
51.66000 157.207
51.67000 161.302
51.68000 164.545
51.69000 166.626
51.70000 166.665
51.71000 166.666
51.72000 164.863
51.73000 160.960
51.74000 157.065
51.75000 157.562
51.76000 161.332
51.77000 165.116
51.78000 169.367
51.79000 173.853
51.80000 177.885
51.81000 174.886
51.82000 169.488
51.83000 164.560
51.84000 168.253
51.85000 173.276
51.86000 176.644
51.87000 171.234
51.88000 164.538
51.89000 159.205
51.90000 158.633
51.91000 158.472
51.92000 158.357
51.93000 157.256
51.94000 156.386
51.95000 156.973
51.96000 159.885
51.97000 162.828
51.98000 165.491
51.99000 167.862
52.00000 170.220
52.01000 167.623
52.02000 161.726
52.03000 155.991
52.04000 154.911
52.05000 155.963
52.06000 156.891
52.07000 156.191
52.08000 154.986
52.09000 153.900
52.10000 157.592
52.11000 161.696
52.12000 165.087
52.13000 165.072
52.14000 164.613
52.15000 164.193
52.16000 163.896
52.17000 163.608
52.18000 163.409
52.19000 163.194
52.20000 163.033
52.21000 162.239
52.22000 160.528
52.23000 158.811
52.24000 158.226
52.25000 158.706
52.26000 159.182
52.27000 158.470
52.28000 157.052
52.29000 155.688
52.30000 155.584
52.31000 156.005
52.32000 156.631
52.33000 159.573
52.34000 163.170
52.35000 166.365
52.36000 165.545
52.37000 164.186
52.38000 162.918
52.39000 162.042
52.40000 161.212
52.41000 160.593
52.42000 160.588
52.43000 160.622
52.44000 160.645
52.45000 156.942
52.46000 154.125
52.47000 152.637
52.48000 152.893
52.49000 153.157
52.50000 153.888
52.51000 155.015
52.52000 156.128
52.53000 157.337
52.54000 158.568
52.55000 159.675
52.56000 158.450
52.57000 156.338
52.58000 154.360
52.59000 153.721
52.60000 153.424
52.61000 153.164
52.62000 152.401
52.63000 151.675
52.64000 151.838
52.65000 155.479
52.66000 159.471
52.67000 160.394
52.68000 153.231
52.69000 145.639
52.70000 140.740
52.71000 145.448
52.72000 149.025
52.73000 149.623
52.74000 146.690
52.75000 143.767
52.76000 144.387
52.77000 147.713
52.78000 150.982
52.79000 156.320
52.80000 162.502
52.81000 168.238
52.82000 166.885
52.83000 163.077
52.84000 159.399
52.85000 156.859
52.86000 154.582
52.87000 152.622
52.88000 158.462
52.89000 164.396
52.90000 168.194
52.91000 164.411
52.92000 159.960
52.93000 157.130
52.94000 158.190
52.95000 159.420
52.96000 160.185
52.97000 163.321
52.98000 165.604
52.99000 167.113
53.00000 167.798
53.01000 168.452
53.02000 165.341
53.03000 159.628
53.04000 154.043
53.05000 152.867
53.06000 153.707
53.07000 154.470
53.08000 154.210
53.09000 153.627
53.10000 153.525
53.11000 157.125
53.12000 161.501
53.13000 165.205
53.14000 159.285
53.15000 153.261
53.16000 148.959
53.17000 150.215
53.18000 151.894
53.19000 152.191
53.20000 149.467
53.21000 146.637
53.22000 144.946
53.23000 145.239
53.24000 145.460
53.25000 149.854
53.26000 158.239
53.27000 166.499
53.28000 165.103
53.29000 157.650
53.30000 150.410
53.31000 150.881
53.32000 154.433
53.33000 157.967
53.34000 161.304
53.35000 164.584
53.36000 166.811
53.37000 161.830
53.38000 155.486
53.39000 150.216
53.40000 156.319
53.41000 162.471
53.42000 166.079
53.43000 162.214
53.44000 157.865
53.45000 154.382
53.46000 152.622
53.47000 150.911
53.48000 149.930
53.49000 159.137
53.50000 165.598
53.51000 167.651
53.52000 165.914
53.53000 164.172
53.54000 162.197
53.55000 160.089
53.56000 158.057
53.57000 159.386
53.58000 161.858
53.59000 163.655
53.60000 158.624
53.61000 151.816
53.62000 146.044
53.63000 146.607
53.64000 148.245
53.65000 149.579
53.66000 150.727
53.67000 151.649
53.68000 152.964
53.69000 155.334
53.70000 157.761
53.71000 158.882
53.72000 157.636
53.73000 156.340
53.74000 155.632
53.75000 154.466
53.76000 153.666
53.77000 153.286
53.78000 153.232
53.79000 153.171
53.80000 152.803
53.81000 152.276
53.82000 151.772
53.83000 152.697
53.84000 154.028
53.85000 155.165
53.86000 154.590
53.87000 153.611
53.88000 153.132
53.89000 155.391
53.90000 158.067
53.91000 160.199
53.92000 155.267
53.93000 150.773
53.94000 148.256
53.95000 150.557
53.96000 153.074
53.97000 154.524
53.98000 154.215
53.99000 153.879
54.00000 153.705
54.01000 150.296
54.02000 147.992
54.03000 145.630
54.04000 143.228
54.05000 140.891
54.06000 140.539
54.07000 141.125
54.08000 141.681
54.09000 147.319
54.10000 154.015
54.11000 160.050
54.12000 160.900
54.13000 160.643
54.14000 160.262
54.15000 159.265
54.16000 158.185
54.17000 157.343
54.18000 150.100
54.19000 143.932
54.20000 141.570
54.21000 147.655
54.22000 154.047
54.23000 156.278
54.24000 152.285
54.25000 148.232
54.26000 147.540
54.27000 150.118
54.28000 152.696
54.29000 155.315
54.30000 157.958
54.31000 160.528
54.32000 161.271
54.33000 161.229
54.34000 161.189
54.35000 159.429
54.36000 157.367
54.37000 155.183
54.38000 152.144
54.39000 148.941
54.40000 145.878
54.41000 143.439
54.42000 141.075
54.43000 139.276
54.44000 147.715
54.45000 154.890
54.46000 158.814
54.47000 156.169
54.48000 153.335
54.49000 150.733
54.50000 148.445
54.51000 146.160
54.52000 146.401
54.53000 148.849
54.54000 151.247
54.55000 150.789
54.56000 148.679
54.57000 146.614
54.58000 145.464
54.59000 144.672
54.60000 143.936
54.61000 141.717
54.62000 139.361
54.63000 138.333
54.64000 145.575
54.65000 154.247
54.66000 160.802
54.67000 158.811
54.68000 155.917
54.69000 153.772
54.70000 153.865
54.71000 154.036
54.72000 154.860
54.73000 156.888
54.74000 158.942
54.75000 158.964
54.76000 156.496
54.77000 154.027
54.78000 152.948
54.79000 152.966
54.80000 152.946
54.81000 151.374
54.82000 148.985
54.83000 146.680
54.84000 145.808
54.85000 145.447
54.86000 145.116
54.87000 145.964
54.88000 146.972
54.89000 148.405
54.90000 152.203
54.91000 156.368
54.92000 158.366
54.93000 152.431
54.94000 145.764
54.95000 140.956
54.96000 145.521
54.97000 149.355
54.98000 150.903
54.99000 148.626
55.00000 146.290
55.01000 144.728
55.02000 144.023
55.03000 143.321
55.04000 145.189
55.05000 148.858
55.06000 152.476
55.07000 154.505
55.08000 155.770
55.09000 157.000
55.10000 157.722
55.11000 158.279
55.12000 158.784
55.13000 157.490
55.14000 156.004
55.15000 154.418
55.16000 152.333
55.17000 150.178
55.18000 149.692
55.19000 154.756
55.20000 160.263
55.21000 164.121
55.22000 159.686
55.23000 156.095
55.24000 154.555
55.25000 156.132
55.26000 157.741
55.27000 159.683
55.28000 161.953
55.29000 164.208
55.30000 164.935
55.31000 164.676
55.32000 164.474
55.33000 165.719
55.34000 167.596
55.35000 169.060
55.36000 165.484
55.37000 160.418
55.38000 155.885
55.39000 162.509
55.40000 170.188
55.41000 176.213
55.42000 174.732
55.43000 172.333
55.44000 171.301
55.45000 174.408
55.46000 177.798
55.47000 180.099
55.48000 175.372
55.49000 171.689
55.50000 170.335
55.51000 172.190
55.52000 174.065
55.53000 177.837
55.54000 183.297
55.55000 188.699
55.56000 190.279
55.57000 189.626
55.58000 189.143
55.59000 192.195
55.60000 196.653
55.61000 200.935
55.62000 203.337
55.63000 205.235
55.64000 206.909
55.65000 207.886
55.66000 208.622
55.67000 212.006
55.68000 226.249
55.69000 241.662
55.70000 255.370
55.71000 264.378
55.72000 273.114
55.73000 278.850
55.74000 272.444
55.75000 267.528
55.76000 271.558
55.77000 286.726
55.78000 301.910
55.79000 311.004
55.80000 315.212
55.81000 319.360
55.82000 330.120
55.83000 343.995
55.84000 357.493
55.85000 364.471
55.86000 369.085
55.87000 373.896
55.88000 380.529
55.89000 387.604
55.90000 393.746
55.91000 402.136
55.92000 409.587
55.93000 415.698
55.94000 416.823
55.95000 417.478
55.96000 418.495
55.97000 420.419
55.98000 422.388
55.99000 423.635
56.00000 421.046
56.01000 419.123
56.02000 416.703
56.03000 413.725
56.04000 410.726
56.05000 404.336
56.06000 395.486
56.07000 386.812
56.08000 379.109
56.09000 372.150
56.10000 365.360
56.11000 361.026
56.12000 357.503
56.13000 353.237
56.14000 342.908
56.15000 331.242
56.16000 321.286
56.17000 314.180
56.18000 308.535
56.19000 302.667
56.20000 296.050
56.21000 289.371
56.22000 283.724
56.23000 280.437
56.24000 277.243
56.25000 275.296
56.26000 265.564
56.27000 258.547
56.28000 250.003
56.29000 239.917
56.30000 229.852
56.31000 221.696
56.32000 214.795
56.33000 208.071
56.34000 207.120
56.35000 208.655
56.36000 209.806
56.37000 206.157
56.38000 201.067
56.39000 196.425
56.40000 195.025
56.41000 194.269
56.42000 193.636
56.43000 192.867
56.44000 192.213
56.45000 190.476
56.46000 185.408
56.47000 180.107
56.48000 175.041
56.49000 170.466
56.50000 165.906
56.51000 163.239
56.52000 163.880
56.53000 164.347
56.54000 164.235
56.55000 163.599
56.56000 162.982
56.57000 163.556
56.58000 164.841
56.59000 166.084
56.60000 161.621
56.61000 155.225
56.62000 149.354
56.63000 149.176
56.64000 150.551
56.65000 152.044
56.66000 154.307
56.67000 156.706
56.68000 158.679
56.69000 157.667
56.70000 156.565
56.71000 155.909
56.72000 156.499
56.73000 157.163
56.74000 157.900
56.75000 158.776
56.76000 159.656
56.77000 160.147
56.78000 156.679
56.79000 154.268
56.80000 152.340
56.81000 150.804
56.82000 149.291
56.83000 148.816
56.84000 148.903
56.85000 148.987
56.86000 150.397
56.87000 152.173
56.88000 153.677
56.89000 152.616
56.90000 150.920
56.91000 149.481
56.92000 149.530
56.93000 149.817
56.94000 150.049
56.95000 151.723
56.96000 153.194
56.97000 153.681
56.98000 151.658
56.99000 149.511
57.00000 147.651
57.01000 146.290
57.02000 144.937
57.03000 144.215
57.04000 147.944
57.05000 150.465
57.06000 149.054
57.07000 144.744
57.08000 140.463
57.09000 137.161
57.10000 134.345
57.11000 131.662
57.12000 134.980
57.13000 139.915
57.14000 144.488
57.15000 146.040
57.16000 146.914
57.17000 146.809
57.18000 141.615
57.19000 135.692
57.20000 131.023
57.21000 136.561
57.22000 141.685
57.23000 145.940
57.24000 148.180
57.25000 150.338
57.26000 150.231
57.27000 146.572
57.28000 142.870
57.29000 140.996
57.30000 146.313
57.31000 149.819
57.32000 147.688
57.33000 141.792
57.34000 136.074
57.35000 135.209
57.36000 136.528
57.37000 137.773
57.38000 140.841
57.39000 144.162
57.40000 147.088
57.41000 147.094
57.42000 146.509
57.43000 146.353
57.44000 148.208
57.45000 150.319
57.46000 151.945
57.47000 145.425
57.48000 139.801
57.49000 135.642
57.50000 134.582
57.51000 133.623
57.52000 132.633
57.53000 131.599
57.54000 130.565
57.55000 133.518
57.56000 140.138
57.57000 146.674
57.58000 147.498
57.59000 144.859
57.60000 142.175
57.61000 138.487
57.62000 134.388
57.63000 130.559
57.64000 133.344
57.65000 137.531
57.66000 140.903
57.67000 138.916
57.68000 135.954
57.69000 134.160
57.70000 137.321
57.71000 141.039
57.72000 143.831
57.73000 143.146
57.74000 142.445
57.75000 141.135
57.76000 138.652
57.77000 136.139
57.78000 135.610
57.79000 137.631
57.80000 139.660
57.81000 141.368
57.82000 142.805
57.83000 144.201
57.84000 143.637
57.85000 141.992
57.86000 140.322
57.87000 138.170
57.88000 135.837
57.89000 133.683
57.90000 134.756
57.91000 136.446
57.92000 138.165
57.93000 140.054
57.94000 141.970
57.95000 142.867
57.96000 139.848
57.97000 136.443
57.98000 133.954
57.99000 130.454
58.00000 127.714
58.01000 128.385
58.02000 135.032
58.03000 141.791
58.04000 143.897
58.05000 140.602
58.06000 137.309
58.07000 137.131
58.08000 139.270
58.09000 141.340
58.10000 140.881
58.11000 139.153
58.12000 137.567
58.13000 138.151
58.14000 139.475
58.15000 140.682
58.16000 139.454
58.17000 137.873
58.18000 137.079
58.19000 140.442
58.20000 144.411
58.21000 147.314
58.22000 146.497
58.23000 145.362
58.24000 144.555
58.25000 142.198
58.26000 140.354
58.27000 138.563
58.28000 136.857
58.29000 135.152
58.30000 134.725
58.31000 135.632
58.32000 136.535
58.33000 137.052
58.34000 137.303
58.35000 137.605
58.36000 139.326
58.37000 141.695
58.38000 143.906
58.39000 144.040
58.40000 143.531
58.41000 143.073
58.42000 140.318
58.43000 137.487
58.44000 134.856
58.45000 133.176
58.46000 131.619
58.47000 130.002
58.48000 128.197
58.49000 126.377
58.50000 125.123
58.51000 130.567
58.52000 134.825
58.53000 136.894
58.54000 135.800
58.55000 134.681
58.56000 135.698
58.57000 138.717
58.58000 141.711
58.59000 141.662
58.60000 139.774
58.61000 137.820
58.62000 134.323
58.63000 130.185
58.64000 126.597
58.65000 129.234
58.66000 133.624
58.67000 137.523
58.68000 132.993
58.69000 127.712
58.70000 123.828
58.71000 125.960
58.72000 128.782
58.73000 131.390
58.74000 133.380
58.75000 135.331
58.76000 136.634
58.77000 134.082
58.78000 132.118
58.79000 132.392
58.80000 135.595
58.81000 138.804
58.82000 137.791
58.83000 133.219
58.84000 128.704
58.85000 131.233
58.86000 137.538
58.87000 143.582
58.88000 144.717
58.89000 143.989
58.90000 143.100
58.91000 140.607
58.92000 137.706
58.93000 135.168
58.94000 133.381
58.95000 131.956
58.96000 131.278
58.97000 133.508
58.98000 136.031
58.99000 136.856
59.00000 133.222
59.01000 129.353
59.02000 126.859
59.03000 131.292
59.04000 134.627
59.05000 134.229
59.06000 129.421
59.07000 124.630
59.08000 125.054
59.09000 129.450
59.10000 133.771
59.11000 135.978
59.12000 137.070
59.13000 138.181
59.14000 139.580
59.15000 141.078
59.16000 141.829
59.17000 136.102
59.18000 128.877
59.19000 122.659
59.20000 128.336
59.21000 134.641
59.22000 138.714
59.23000 134.891
59.24000 130.374
59.25000 127.350
59.26000 127.894
59.27000 128.594
59.28000 129.028
59.29000 129.931
59.30000 130.586
59.31000 131.143
59.32000 131.597
59.33000 132.038
59.34000 130.946
59.35000 128.798
59.36000 126.698
59.37000 127.369
59.38000 129.243
59.39000 130.998
59.40000 131.160
59.41000 130.820
59.42000 130.679
59.43000 132.061
59.44000 133.761
59.45000 135.199
59.46000 130.175
59.47000 125.256
59.48000 122.059
59.49000 124.403
59.50000 127.165
59.51000 128.709
59.52000 127.596
59.53000 126.390
59.54000 125.670
59.55000 134.502
59.56000 140.825
59.57000 141.519
59.58000 136.848
59.59000 132.242
59.60000 132.606
59.61000 136.078
59.62000 139.450
59.63000 135.812
59.64000 129.546
59.65000 123.898
59.66000 125.405
59.67000 128.958
59.68000 132.305
59.69000 134.247
59.70000 135.926
59.71000 137.319
59.72000 136.249
59.73000 135.127
59.74000 134.305
59.75000 134.366
59.76000 134.483
59.77000 134.499
59.78000 134.315
59.79000 134.126
59.80000 134.017
59.81000 126.979
59.82000 122.049
59.83000 122.481
59.84000 127.510
59.85000 132.547
59.86000 138.000
59.87000 143.690
59.88000 149.175
59.89000 143.914
59.90000 135.077
59.91000 127.006
59.92000 126.676
59.93000 128.355
59.94000 130.314
59.95000 133.983
59.96000 137.942
59.97000 141.163
59.98000 138.316
59.99000 135.481
60.00000 132.111
60.01000 127.316
60.02000 122.444
60.03000 121.135
60.04000 126.263
60.05000 131.524
60.06000 134.397
60.07000 133.796
60.08000 133.378
60.09000 132.994
60.10000 132.634
60.11000 132.268
60.12000 131.611
60.13000 130.804
60.14000 130.032
60.15000 132.455
60.16000 135.755
60.17000 138.552
60.18000 136.902
60.19000 134.207
60.20000 132.145
60.21000 133.548
60.22000 135.475
60.23000 137.010
60.24000 142.780
60.25000 147.741
60.26000 149.231
60.27000 142.291
60.28000 134.974
60.29000 130.294
60.30000 129.946
60.31000 129.661
60.32000 129.513
60.33000 137.953
60.34000 143.605
60.35000 142.758
60.36000 137.359
60.37000 132.068
60.38000 130.092
60.39000 129.676
60.40000 129.283
60.41000 129.073
60.42000 128.933
60.43000 129.368
60.44000 134.286
60.45000 140.158
60.46000 144.537
60.47000 141.568
60.48000 137.607
60.49000 134.523
60.50000 131.085
60.51000 128.325
60.52000 127.886
60.53000 132.583
60.54000 137.467
60.55000 139.185
60.56000 136.183
60.57000 133.136
60.58000 131.202
60.59000 130.349
60.60000 129.495
60.61000 128.661
60.62000 127.840
60.63000 127.034
60.64000 126.607
60.65000 126.344
60.66000 126.097
60.67000 125.808
60.68000 125.533
60.69000 125.433
60.70000 126.549
60.71000 127.899
60.72000 129.690
60.73000 133.444
60.74000 137.434
60.75000 140.466
60.76000 142.539
60.77000 144.118
60.78000 143.478
60.79000 138.365
60.80000 133.125
60.81000 129.355
60.82000 127.572
60.83000 125.801
60.84000 124.115
60.85000 122.504
60.86000 120.994
60.87000 125.075
60.88000 132.385
60.89000 139.313
60.90000 138.608
60.91000 134.921
60.92000 131.496
60.93000 134.535
60.94000 138.814
60.95000 141.977
60.96000 138.227
60.97000 133.286
60.98000 129.571
60.99000 130.793
61.00000 132.533
61.01000 133.822
61.02000 130.383
61.03000 127.509
61.04000 127.996
61.05000 134.650
61.06000 141.438
61.07000 143.075
61.08000 138.424
61.09000 133.767
61.10000 131.566
61.11000 131.299
61.12000 131.119
61.13000 134.529
61.14000 139.825
61.15000 144.562
61.16000 139.969
61.17000 132.055
61.18000 124.790
61.19000 126.592
61.20000 130.132
61.21000 133.372
61.22000 134.941
61.23000 136.253
61.24000 137.444
61.25000 138.194
61.26000 138.903
61.27000 139.414
61.28000 135.772
61.29000 132.834
61.30000 130.867
61.31000 130.522
61.32000 130.202
61.33000 129.626
61.34000 128.770
61.35000 127.916
61.36000 128.747
61.37000 130.755
61.38000 132.750
61.39000 134.302
61.40000 135.643
61.41000 137.064
61.42000 139.612
61.43000 142.525
61.44000 145.166
61.45000 145.069
61.46000 144.460
61.47000 144.150
61.48000 145.329
61.49000 146.714
61.50000 149.919
61.51000 159.169
61.52000 168.899
61.53000 175.707
61.54000 173.592
61.55000 171.739
61.56000 175.127
61.57000 186.454
61.58000 197.862
61.59000 209.680
61.60000 221.903
61.61000 234.042
61.62000 241.394
61.63000 245.590
61.64000 249.761
61.65000 253.278
61.66000 256.510
61.67000 259.574
61.68000 260.586
61.69000 260.993
61.70000 261.356
61.71000 265.513
61.72000 269.781
61.73000 273.067
61.74000 271.912
61.75000 270.216
61.76000 265.851
61.77000 253.431
61.78000 240.462
61.79000 231.667
61.80000 214.847
61.81000 202.126
61.82000 192.115
61.83000 185.826
61.84000 179.559
61.85000 172.834
61.86000 165.701
61.87000 158.643
61.88000 154.927
61.89000 153.209
61.90000 151.409
61.91000 147.910
61.92000 143.738
61.93000 139.988
61.94000 140.697
61.95000 142.600
61.96000 144.277
61.97000 143.703
61.98000 142.868
61.99000 141.698
62.00000 139.157
62.01000 136.468
62.02000 135.542
62.03000 139.460
62.04000 143.656
62.05000 146.408
62.06000 140.582
62.07000 136.155
62.08000 136.222
62.09000 141.866
62.10000 147.515
62.11000 149.370
62.12000 148.190
62.13000 147.028
62.14000 146.459
62.15000 146.214
62.16000 145.935
62.17000 145.066
62.18000 143.983
62.19000 142.796
62.20000 140.647
62.21000 138.264
62.22000 136.197
62.23000 136.499
62.24000 137.074
62.25000 137.655
62.26000 138.257
62.27000 138.861
62.28000 140.504
62.29000 144.750
62.30000 149.120
62.31000 151.885
62.32000 149.652
62.33000 147.974
62.34000 146.791
62.35000 146.162
62.36000 145.531
62.37000 144.580
62.38000 143.398
62.39000 142.240
62.40000 139.130
62.41000 135.227
62.42000 131.810
62.43000 135.451
62.44000 141.415
62.45000 146.676
62.46000 146.226
62.47000 144.521
62.48000 143.067
62.49000 140.502
62.50000 138.212
62.51000 136.993
62.52000 139.383
62.53000 142.066
62.54000 143.638
62.55000 142.676
62.56000 141.615
62.57000 140.970
62.58000 142.447
62.59000 143.519
62.60000 144.577
62.61000 145.620
62.62000 146.666
62.63000 147.877
62.64000 149.196
62.65000 150.482
62.66000 149.310
62.67000 147.157
62.68000 145.043
62.69000 143.415
62.70000 141.933
62.71000 141.010
62.72000 144.120
62.73000 148.030
62.74000 151.305
62.75000 148.317
62.76000 145.185
62.77000 141.303
62.78000 135.125
62.79000 128.787
62.80000 126.525
62.81000 132.732
62.82000 139.201
62.83000 142.980
62.84000 143.110
62.85000 143.185
62.86000 143.925
62.87000 145.264
62.88000 146.563
62.89000 145.296
62.90000 142.501
62.91000 139.797
62.92000 140.878
62.93000 143.340
62.94000 145.415
62.95000 143.320
62.96000 140.090
62.97000 137.505
62.98000 139.065
62.99000 141.364
63.00000 143.254
63.01000 145.472
63.02000 147.324
63.03000 148.353
63.04000 147.087
63.05000 145.686
63.06000 143.592
63.07000 140.190
63.08000 136.758
63.09000 134.840
63.10000 139.520
63.11000 142.769
63.12000 143.130
63.13000 141.144
63.14000 139.302
63.15000 144.036
63.16000 152.330
63.17000 160.294
63.18000 158.451
63.19000 153.361
63.20000 148.450
63.21000 145.229
63.22000 142.424
63.23000 140.380
63.24000 142.715
63.25000 145.749
63.26000 148.192
63.27000 146.998
63.28000 145.745
63.29000 144.887
63.30000 145.031
63.31000 145.225
63.32000 145.849
63.33000 147.213
63.34000 148.590
63.35000 149.324
63.36000 147.319
63.37000 145.958
63.38000 145.706
63.39000 146.268
63.40000 146.771
63.41000 145.201
63.42000 142.611
63.43000 140.144
63.44000 143.387
63.45000 148.156
63.46000 152.409
63.47000 152.376
63.48000 151.386
63.49000 150.727
63.50000 151.780
63.51000 153.078
63.52000 154.101
63.53000 149.185
63.54000 144.850
63.55000 141.812
63.56000 141.782
63.57000 141.872
63.58000 143.661
63.59000 148.104
63.60000 152.580
63.61000 154.842
63.62000 153.971
63.63000 153.370
63.64000 150.983
63.65000 147.406
63.66000 144.052
63.67000 146.715
63.68000 152.080
63.69000 157.140
63.70000 155.516
63.71000 152.165
63.72000 149.714
63.73000 153.885
63.74000 159.391
63.75000 164.564
63.76000 168.182
63.77000 171.602
63.78000 174.233
63.79000 168.055
63.80000 162.668
63.81000 157.926
63.82000 154.547
63.83000 151.211
63.84000 149.372
63.85000 149.656
63.86000 149.956
63.87000 149.878
63.88000 149.452
63.89000 149.039
63.90000 149.405
63.91000 150.242
63.92000 151.071
63.93000 151.724
63.94000 152.305
63.95000 152.847
63.96000 149.974
63.97000 146.514
63.98000 144.567
63.99000 152.527
64.00000 162.286
64.01000 169.715
64.02000 167.310
64.03000 163.803
64.04000 161.173
64.05000 161.248
64.06000 161.436
64.07000 160.642
64.08000 157.963
64.09000 155.238
64.10000 154.576
64.11000 156.560
64.12000 158.551
64.13000 158.247
64.14000 156.053
64.15000 153.918
64.16000 154.668
64.17000 157.004
64.18000 159.348
64.19000 161.840
64.20000 164.387
64.21000 166.738
64.22000 165.685
64.23000 163.975
64.24000 162.589
64.25000 163.104
64.26000 163.929
64.27000 164.094
64.28000 161.732
64.29000 159.122
64.30000 157.215
64.31000 156.803
64.32000 156.544
64.33000 157.375
64.34000 160.110
64.35000 162.880
64.36000 164.968
64.37000 166.266
64.38000 167.560
64.39000 166.956
64.40000 164.951
64.41000 163.014
64.42000 163.528
64.43000 165.268
64.44000 167.003
64.45000 168.669
64.46000 170.311
64.47000 171.810
64.48000 169.878
64.49000 167.474
64.50000 165.098
64.51000 162.866
64.52000 160.655
64.53000 160.240
64.54000 166.068
64.55000 172.429
64.56000 176.945
64.57000 170.172
64.58000 164.659
64.59000 163.434
64.60000 169.016
64.61000 174.685
64.62000 174.738
64.63000 168.945
64.64000 163.184
64.65000 165.997
64.66000 174.502
64.67000 182.637
64.68000 180.318
64.69000 173.236
64.70000 166.936
64.71000 170.859
64.72000 177.937
64.73000 184.309
64.74000 182.152
64.75000 178.727
64.76000 175.515
64.77000 173.312
64.78000 171.240
64.79000 169.728
64.80000 169.985
64.81000 170.372
64.82000 170.639
64.83000 178.911
64.84000 185.322
64.85000 187.390
64.86000 183.204
64.87000 178.968
64.88000 175.940
64.89000 174.038
64.90000 172.153
64.91000 173.099
64.92000 175.733
64.93000 178.308
64.94000 179.535
64.95000 180.202
64.96000 180.837
64.97000 181.108
64.98000 181.277
64.99000 181.427
65.00000 181.675
65.01000 181.906
65.02000 182.958
65.03000 187.534
65.04000 192.512
65.05000 195.163
65.06000 191.118
65.07000 186.655
65.08000 183.679
65.09000 192.290
65.10000 198.888
65.11000 203.421
65.12000 205.263
65.13000 207.086
65.14000 205.293
65.15000 200.458
65.16000 195.685
65.17000 196.364
65.18000 199.989
65.19000 203.467
65.20000 204.197
65.21000 203.887
65.22000 204.284
65.23000 211.623
65.24000 220.731
65.25000 228.693
65.26000 224.257
65.27000 218.696
65.28000 215.331
65.29000 220.503
65.30000 226.532
65.31000 230.185
65.32000 227.615
65.33000 224.719
65.34000 222.854
65.35000 222.222
65.36000 221.779
65.37000 229.893
65.38000 248.080
65.39000 266.211
65.40000 268.523
65.41000 258.826
65.42000 249.298
65.43000 250.951
65.44000 258.035
65.45000 264.655
65.46000 263.983
65.47000 260.799
65.48000 258.227
65.49000 260.938
65.50000 264.868
65.51000 268.247
65.52000 273.797
65.53000 278.768
65.54000 282.270
65.55000 280.589
65.56000 278.456
65.57000 277.105
65.58000 277.619
65.59000 278.213
65.60000 278.581
65.61000 289.165
65.62000 296.880
65.63000 309.249
65.64000 326.547
65.65000 343.809
65.66000 356.592
65.67000 366.296
65.68000 375.779
65.69000 400.377
65.70000 430.637
65.71000 461.571
65.72000 501.543
65.73000 544.347
65.74000 589.832
65.75000 655.802
65.76000 726.042
65.77000 785.414
65.78000 833.788
65.79000 873.038
65.80000 911.977
65.81000 949.917
65.82000 987.782
65.83000 1017.794
65.84000 1030.737
65.85000 1043.087
65.86000 1050.450
65.87000 1048.234
65.88000 1046.605
65.89000 1048.684
65.90000 1054.286
65.91000 1059.564
65.92000 1040.336
65.93000 1005.824
65.94000 972.316
65.95000 930.646
65.96000 887.832
65.97000 843.861
65.98000 786.535
65.99000 725.403
66.00000 665.168
66.01000 611.024
66.02000 558.025
66.03000 514.054
66.04000 465.575
66.05000 425.078
66.06000 390.413
66.07000 372.772
66.08000 356.224
66.09000 343.878
66.10000 339.850
66.11000 336.047
66.12000 333.876
66.13000 328.140
66.14000 324.127
66.15000 321.083
66.16000 318.866
66.17000 316.643
66.18000 314.097
66.19000 311.368
66.20000 308.738
66.21000 308.950
66.22000 310.175
66.23000 311.474
66.24000 313.508
66.25000 315.732
66.26000 318.815
66.27000 327.111
66.28000 336.287
66.29000 343.749
66.30000 363.233
66.31000 380.144
66.32000 395.572
66.33000 407.054
66.34000 418.324
66.35000 426.935
66.36000 430.757
66.37000 434.481
66.38000 436.512
66.39000 442.713
66.40000 446.976
66.41000 451.253
66.42000 455.542
66.43000 459.558
66.44000 452.869
66.45000 440.659
66.46000 428.985
66.47000 432.765
66.48000 441.313
66.49000 448.126
66.50000 439.645
66.51000 427.579
66.52000 415.870
66.53000 406.107
66.54000 396.637
66.55000 389.097
66.56000 374.637
66.57000 362.480
66.58000 349.331
66.59000 333.783
66.60000 318.127
66.61000 313.793
66.62000 328.001
66.63000 342.476
66.64000 349.986
66.65000 337.161
66.66000 328.532
66.67000 324.115
66.68000 322.638
66.69000 321.268
66.70000 323.157
66.71000 326.576
66.72000 329.816
66.73000 330.777
66.74000 330.993
66.75000 331.563
66.76000 334.891
66.77000 338.803
66.78000 341.116
66.79000 335.584
66.80000 328.998
66.81000 323.872
66.82000 327.971
66.83000 331.802
66.84000 334.808
66.85000 335.995
66.86000 337.117
66.87000 337.368
66.88000 336.326
66.89000 335.272
66.90000 336.837
66.91000 340.933
66.92000 345.016
66.93000 347.938
66.94000 350.125
66.95000 352.183
66.96000 351.078
66.97000 348.621
66.98000 346.315
66.99000 343.360
67.00000 340.496
67.01000 338.219
67.02000 340.011
67.03000 342.580
67.04000 345.559
67.05000 350.355
67.06000 355.368
67.07000 359.175
67.08000 363.108
67.09000 366.206
67.10000 367.459
67.11000 365.002
67.12000 362.440
67.13000 360.424
67.14000 359.143
67.15000 357.867
67.16000 357.382
67.17000 357.584
67.18000 357.831
67.19000 360.575
67.20000 364.756
67.21000 368.719
67.22000 368.356
67.23000 366.307
67.24000 364.404
67.25000 364.932
67.26000 365.984
67.27000 367.828
67.28000 374.570
67.29000 382.153
67.30000 388.760
67.31000 391.453
67.32000 393.736
67.33000 395.426
67.34000 398.790
67.35000 401.472
67.36000 404.711
67.37000 408.970
67.38000 413.250
67.39000 413.700
67.40000 409.489
67.41000 405.276
67.42000 405.184
67.43000 408.308
67.44000 411.456
67.45000 415.623
67.46000 420.324
67.47000 424.814
67.48000 425.796
67.49000 425.533
67.50000 425.292
67.51000 430.428
67.52000 436.151
67.53000 440.734
67.54000 439.000
67.55000 436.295
67.56000 435.158
67.57000 439.728
67.58000 444.819
67.59000 448.485
67.60000 447.065
67.61000 445.798
67.62000 446.159
67.63000 449.230
67.64000 452.342
67.65000 453.667
67.66000 453.030
67.67000 452.395
67.68000 452.355
67.69000 452.733
67.70000 453.137
67.71000 454.343
67.72000 455.932
67.73000 457.634
67.74000 460.921
67.75000 464.720
67.76000 468.162
67.77000 466.844
67.78000 464.778
67.79000 464.551
67.80000 473.503
67.81000 483.714
67.82000 493.128
67.83000 499.908
67.84000 506.479
67.85000 511.074
67.86000 502.908
67.87000 496.377
67.88000 493.972
67.89000 497.799
67.90000 501.689
67.91000 505.452
67.92000 509.089
67.93000 512.700
67.94000 515.924
67.95000 518.851
67.96000 521.719
67.97000 523.097
67.98000 523.828
67.99000 524.769
68.00000 528.253
68.01000 532.485
68.02000 536.268
68.03000 535.611
68.04000 534.287
68.05000 533.862
68.06000 537.485
68.07000 541.599
68.08000 546.096
68.09000 551.741
68.10000 557.464
68.11000 561.342
68.12000 571.338
68.13000 578.923
68.14000 578.836
68.15000 568.248
68.16000 557.613
68.17000 563.382
68.18000 583.655
68.19000 603.713
68.20000 611.184
68.21000 611.294
68.22000 611.517
68.23000 614.041
68.24000 617.475
68.25000 620.488
68.26000 619.076
68.27000 616.482
68.28000 614.197
68.29000 625.527
68.30000 637.338
68.31000 646.358
68.32000 643.995
68.33000 640.414
68.34000 641.652
68.35000 656.093
68.36000 671.290
68.37000 681.244
68.38000 696.024
68.39000 706.968
68.40000 709.381
68.41000 701.238
68.42000 693.099
68.43000 695.523
68.44000 706.370
68.45000 717.054
68.46000 724.639
68.47000 730.398
68.48000 736.195
68.49000 742.624
68.50000 749.280
68.51000 756.534
68.52000 769.277
68.53000 783.349
68.54000 795.552
68.55000 814.749
68.56000 832.027
68.57000 851.186
68.58000 877.301
68.59000 904.066
68.60000 931.274
68.61000 959.586
68.62000 987.951
68.63000 1005.874
68.64000 1072.092
68.65000 1120.641
68.66000 1171.979
68.67000 1226.426
68.68000 1280.872
68.69000 1334.778
68.70000 1388.296
68.71000 1440.738
68.72000 1492.423
68.73000 1541.789
68.74000 1591.243
68.75000 1641.974
68.76000 1693.123
68.77000 1744.737
68.78000 1800.119
68.79000 1856.325
68.80000 1904.245
68.81000 1957.697
68.82000 2003.318
68.83000 2058.334
68.84000 2144.912
68.85000 2234.049
68.86000 2340.753
68.87000 2487.408
68.88000 2635.608
68.89000 2725.713
68.90000 3146.663
68.91000 3449.800
68.92000 4055.277
68.93000 4963.577
68.94000 5880.424
68.95000 7590.887
68.96000 9820.078
68.97000 11991.370
68.98000 15595.977
68.99000 19635.145
69.00000 23704.408
69.01000 28146.629
69.02000 32700.176
69.03000 37131.371
69.04000 40683.098
69.05000 44061.023
69.06000 46889.441
69.07000 48848.504
69.08000 50387.512
69.09000 51689.738
69.10000 52268.469
69.11000 52796.918
69.12000 53226.797
69.13000 53452.469
69.14000 53671.883
69.15000 53799.871
69.16000 54925.836
69.17000 55721.930
69.18000 56155.828
69.19000 56263.988
69.20000 56353.895
69.21000 55305.969
69.22000 53582.637
69.23000 51915.484
69.24000 48860.922
69.25000 45449.570
69.26000 42094.090
69.27000 39338.484
69.28000 36745.547
69.29000 34267.234
69.30000 32523.670
69.31000 30910.740
69.32000 29586.037
69.33000 28580.684
69.34000 27783.734
69.35000 27069.379
69.36000 26584.777
69.37000 26113.691
69.38000 25395.361
69.39000 24210.715
69.40000 23015.121
69.41000 22348.082
69.42000 19263.240
69.43000 17122.695
69.44000 14898.635
69.45000 12606.878
69.46000 10326.855
69.47000 8575.217
69.48000 7108.816
69.49000 5701.046
69.50000 4701.272
69.51000 3905.885
69.52000 3147.016
69.53000 2730.873
69.54000 2399.019
69.55000 2092.529
69.56000 1931.665
69.57000 1794.010
69.58000 1683.264
69.59000 1579.382
69.60000 1495.653
69.61000 1417.193
69.62000 1352.084
69.63000 1287.628
69.64000 1236.278
69.65000 1207.412
69.66000 1178.931
69.67000 1163.787
69.68000 1106.331
69.69000 1067.228
69.70000 1033.866
69.71000 1004.711
69.72000 975.780
69.73000 954.520
69.74000 937.029
69.75000 920.379
69.76000 906.081
69.77000 893.570
69.78000 880.693
69.79000 864.800
69.80000 848.235
69.81000 832.744
69.82000 822.794
69.83000 813.632
69.84000 806.422
69.85000 783.737
69.86000 764.537
69.87000 749.393
69.88000 743.613
69.89000 738.208
69.90000 729.587
69.91000 715.953
69.92000 702.260
69.93000 695.347
69.94000 695.003
69.95000 694.744
69.96000 691.655
69.97000 686.686
69.98000 681.402
69.99000 667.615
70.00000 650.021
