20.00000 563.708
20.01000 555.122
20.02000 545.310
20.03000 538.443
20.04000 543.085
20.05000 548.889
20.06000 553.154
20.07000 560.637
20.08000 566.555
20.09000 565.979
20.10000 553.825
20.11000 541.444
20.12000 538.163
20.13000 545.652
20.14000 553.141
20.15000 552.697
20.16000 546.240
20.17000 539.957
20.18000 540.308
20.19000 544.045
20.20000 547.570
20.21000 547.750
20.22000 546.771
20.23000 545.876
20.24000 546.768
20.25000 547.930
20.26000 548.898
20.27000 548.827
20.28000 548.601
20.29000 548.396
20.30000 548.260
20.31000 548.132
20.32000 548.039
20.33000 565.062
20.34000 578.621
20.35000 584.938
20.36000 579.520
20.37000 573.939
20.38000 568.727
20.39000 563.905
20.40000 559.107
20.41000 556.850
20.42000 556.353
20.43000 555.853
20.44000 555.277
20.45000 554.666
20.46000 554.122
20.47000 554.482
20.48000 555.128
20.49000 555.711
20.50000 552.903
20.51000 549.810
20.52000 546.746
20.53000 543.825
20.54000 540.923
20.55000 537.193
20.56000 530.794
20.57000 524.192
20.58000 519.615
20.59000 546.434
20.60000 567.456
20.61000 576.878
20.62000 569.240
20.63000 561.451
20.64000 556.327
20.65000 553.749
20.66000 551.191
20.67000 547.477
20.68000 543.118
20.69000 539.069
20.70000 542.401
20.71000 548.857
20.72000 554.592
20.73000 551.938
20.74000 546.881
20.75000 542.379
20.76000 543.147
20.77000 544.680
20.78000 546.218
20.79000 547.782
20.80000 549.349
20.81000 549.952
20.82000 547.726
20.83000 545.317
20.84000 543.700
20.85000 536.049
20.86000 530.244
20.87000 529.219
20.88000 534.559
20.89000 539.921
20.90000 537.792
20.91000 529.228
20.92000 520.763
20.93000 526.982
20.94000 541.207
20.95000 554.885
20.96000 557.916
20.97000 556.839
20.98000 555.444
20.99000 550.828
21.00000 545.376
21.01000 540.594
21.02000 542.915
21.03000 545.944
21.04000 548.001
21.05000 546.201
21.06000 544.003
21.07000 544.182
21.08000 550.709
21.09000 557.582
21.10000 562.042
21.11000 558.998
21.12000 556.656
21.13000 551.853
21.14000 544.088
21.15000 536.342
21.16000 535.147
21.17000 539.033
21.18000 542.855
21.19000 544.548
21.20000 545.120
21.21000 545.322
21.22000 539.505
21.23000 531.574
21.24000 525.257
21.25000 533.270
21.26000 544.658
21.27000 554.488
21.28000 554.670
21.29000 553.581
21.30000 551.973
21.31000 548.494
21.32000 544.846
21.33000 540.326
21.34000 533.681
21.35000 526.940
21.36000 522.723
21.37000 532.126
21.38000 539.056
21.39000 541.788
21.40000 539.971
21.41000 538.165
21.42000 538.056
21.43000 539.139
21.44000 540.199
21.45000 544.989
21.46000 551.275
21.47000 557.017
21.48000 555.230
21.49000 551.034
21.50000 546.129
21.51000 535.665
21.52000 524.018
21.53000 514.135
21.54000 525.417
21.55000 537.278
21.56000 547.109
21.57000 550.294
21.58000 552.962
21.59000 553.990
21.60000 551.385
21.61000 548.647
21.62000 547.000
21.63000 567.044
21.64000 581.444
21.65000 583.276
21.66000 572.890
21.67000 562.624
21.68000 562.306
21.69000 568.320
21.70000 574.168
21.71000 569.007
21.72000 559.598
21.73000 550.936
21.74000 551.165
21.75000 553.980
21.76000 557.489
21.77000 565.831
21.78000 575.101
21.79000 582.823
21.80000 587.876
21.81000 591.797
21.82000 595.153
21.83000 596.828
21.84000 598.392
21.85000 603.752
21.86000 616.781
21.87000 630.030
21.88000 637.667
21.89000 630.275
21.90000 625.054
21.91000 631.757
21.92000 648.881
21.93000 665.832
21.94000 672.985
21.95000 674.471
21.96000 675.905
21.97000 674.157
21.98000 671.335
21.99000 669.359
22.00000 676.119
22.01000 685.187
22.02000 693.367
22.03000 696.023
22.04000 697.725
22.05000 699.116
22.06000 690.812
22.07000 683.180
22.08000 679.444
22.09000 686.277
22.10000 693.703
22.11000 698.991
22.12000 700.348
22.13000 701.619
22.14000 702.320
22.15000 697.008
22.16000 693.326
22.17000 686.220
22.18000 676.414
22.19000 666.723
22.20000 661.830
22.21000 659.462
22.22000 657.193
22.23000 661.269
22.24000 667.184
22.25000 671.777
22.26000 664.408
22.27000 654.174
22.28000 644.084
22.29000 634.791
22.30000 625.622
22.31000 618.289
22.32000 624.747
22.33000 630.995
22.34000 636.627
22.35000 640.739
22.36000 644.780
22.37000 638.579
22.38000 615.258
22.39000 591.669
22.40000 579.297
22.41000 583.515
22.42000 586.338
22.43000 583.291
22.44000 576.057
22.45000 569.197
22.46000 574.286
22.47000 585.099
22.48000 595.367
22.49000 581.921
22.50000 562.399
22.51000 545.468
22.52000 549.253
22.53000 557.524
22.54000 564.254
22.55000 563.247
22.56000 561.175
22.57000 559.554
22.58000 557.639
22.59000 556.092
22.60000 555.248
22.61000 555.987
22.62000 556.786
22.63000 552.823
22.64000 541.631
22.65000 530.365
22.66000 526.042
22.67000 528.589
22.68000 531.072
22.69000 527.948
22.70000 521.199
22.71000 514.919
22.72000 520.584
22.73000 531.462
22.74000 541.691
22.75000 535.569
22.76000 525.564
22.77000 516.332
22.78000 512.584
22.79000 509.906
22.80000 508.229
22.81000 511.078
22.82000 514.481
22.83000 517.079
22.84000 517.298
22.85000 517.342
22.86000 515.311
22.87000 509.027
22.88000 502.616
22.89000 501.023
22.90000 506.058
22.91000 511.131
22.92000 514.678
22.93000 516.865
22.94000 519.007
22.95000 518.463
22.96000 516.342
22.97000 513.904
22.98000 504.923
22.99000 493.341
23.00000 482.562
23.01000 485.939
23.02000 492.422
23.03000 499.388
23.04000 509.406
23.05000 519.960
23.06000 525.830
23.07000 512.499
23.08000 497.101
23.09000 485.640
23.10000 489.855
23.11000 493.838
23.12000 496.650
23.13000 497.274
23.14000 497.849
23.15000 500.538
23.16000 505.857
23.17000 511.174
23.18000 508.681
23.19000 499.965
23.20000 491.441
23.21000 491.303
23.22000 495.644
23.23000 499.701
23.24000 498.860
23.25000 496.245
23.26000 493.839
23.27000 500.047
23.28000 507.468
23.29000 513.570
23.30000 512.186
23.31000 509.624
23.32000 507.165
23.33000 505.090
23.34000 503.052
23.35000 501.575
23.36000 506.771
23.37000 511.008
23.38000 511.432
23.39000 505.385
23.40000 499.230
23.41000 495.806
23.42000 495.445
23.43000 495.087
23.44000 498.310
23.45000 504.077
23.46000 509.746
23.47000 512.174
23.48000 513.024
23.49000 513.481
23.50000 508.197
23.51000 501.019
23.52000 494.497
23.53000 487.727
23.54000 481.697
23.55000 478.689
23.56000 491.112
23.57000 505.701
23.58000 514.948
23.59000 506.163
23.60000 495.905
23.61000 488.687
23.62000 484.062
23.63000 480.633
23.64000 482.158
23.65000 491.320
23.66000 500.567
23.67000 501.571
23.68000 494.271
23.69000 487.018
23.70000 491.452
23.71000 503.389
23.72000 514.939
23.73000 516.311
23.74000 513.174
23.75000 509.762
23.76000 502.924
23.77000 495.059
23.78000 488.007
23.79000 486.812
23.80000 486.785
23.81000 487.353
23.82000 490.664
23.83000 494.316
23.84000 496.479
23.85000 494.068
23.86000 491.336
23.87000 489.473
23.88000 491.897
23.89000 493.809
23.90000 492.163
23.91000 485.543
23.92000 478.892
23.93000 478.555
23.94000 483.926
23.95000 489.244
23.96000 482.803
23.97000 469.631
23.98000 457.188
23.99000 460.328
24.00000 469.758
24.01000 478.634
24.02000 481.522
24.03000 482.779
24.04000 483.889
24.05000 482.013
24.06000 479.931
24.07000 478.136
24.08000 477.536
24.09000 477.067
24.10000 478.525
24.11000 485.370
24.12000 492.535
24.13000 497.263
24.14000 487.590
24.15000 480.205
24.16000 477.651
24.17000 481.206
24.18000 484.778
24.19000 486.950
24.20000 487.979
24.21000 488.994
24.22000 489.626
24.23000 490.038
24.24000 490.712
24.25000 496.048
24.26000 503.097
24.27000 508.701
24.28000 500.640
24.29000 489.202
24.30000 479.250
24.31000 481.558
24.32000 485.206
24.33000 488.748
24.34000 491.896
24.35000 495.005
24.36000 495.291
24.37000 488.386
24.38000 481.126
24.39000 476.502
24.40000 487.370
24.41000 495.466
24.42000 499.952
24.43000 500.320
24.44000 500.681
24.45000 500.781
24.46000 500.689
24.47000 500.598
24.48000 491.554
24.49000 478.577
24.50000 466.334
24.51000 465.067
24.52000 467.475
24.53000 470.206
24.54000 475.626
24.55000 481.648
24.56000 486.801
24.57000 485.068
24.58000 482.775
24.59000 480.084
24.60000 476.034
24.61000 471.869
24.62000 469.972
24.63000 473.338
24.64000 476.916
24.65000 479.110
24.66000 483.591
24.67000 486.820
24.68000 486.137
24.69000 481.442
24.70000 476.751
24.71000 472.401
24.72000 468.279
24.73000 464.259
24.74000 467.976
24.75000 474.850
24.76000 481.078
24.77000 479.035
24.78000 474.472
24.79000 470.489
24.80000 470.777
24.81000 471.927
24.82000 472.894
24.83000 468.297
24.84000 463.876
24.85000 461.519
24.86000 465.593
24.87000 470.129
24.88000 474.885
24.89000 480.103
24.90000 485.335
24.91000 488.415
24.92000 485.736
24.93000 483.816
24.94000 480.346
24.95000 475.451
24.96000 470.615
24.97000 469.793
24.98000 471.402
24.99000 472.961
25.00000 473.188
25.01000 472.886
25.02000 472.600
25.03000 472.489
25.04000 472.426
25.05000 472.678
25.06000 474.996
25.07000 477.691
25.08000 479.913
25.09000 475.411
25.10000 471.082
25.11000 469.792
25.12000 477.125
25.13000 484.983
25.14000 487.316
25.15000 479.014
25.16000 470.448
25.17000 465.622
25.18000 465.796
25.19000 465.930
25.20000 465.358
25.21000 464.201
25.22000 463.082
25.23000 463.752
25.24000 465.407
25.25000 466.999
25.26000 469.448
25.27000 472.041
25.28000 473.815
25.29000 467.666
25.30000 459.527
25.31000 452.423
25.32000 451.398
25.33000 451.365
25.34000 451.339
25.35000 459.544
25.36000 466.877
25.37000 471.258
25.38000 468.014
25.39000 464.381
25.40000 462.561
25.41000 463.915
25.42000 465.329
25.43000 466.088
25.44000 465.214
25.45000 464.610
25.46000 463.013
25.47000 460.672
25.48000 458.484
25.49000 461.792
25.50000 467.855
25.51000 473.638
25.52000 470.380
25.53000 464.506
25.54000 459.174
25.55000 458.439
25.56000 458.750
25.57000 459.475
25.58000 462.388
25.59000 465.621
25.60000 468.177
25.61000 464.073
25.62000 460.318
25.63000 457.385
25.64000 456.388
25.65000 455.471
25.66000 454.681
25.67000 454.090
25.68000 453.502
25.69000 453.202
25.70000 458.919
25.71000 462.769
25.72000 467.879
25.73000 473.844
25.74000 479.630
25.75000 480.358
25.76000 478.776
25.77000 477.281
25.78000 466.428
25.79000 453.804
25.80000 442.309
25.81000 439.295
25.82000 438.024
25.83000 438.384
25.84000 446.505
25.85000 455.632
25.86000 462.684
25.87000 468.769
25.88000 473.538
25.89000 475.458
25.90000 471.265
25.91000 466.867
25.92000 463.342
25.93000 461.078
25.94000 458.824
25.95000 459.106
25.96000 461.760
25.97000 464.353
25.98000 462.509
25.99000 457.936
26.00000 453.155
26.01000 443.634
26.02000 432.140
26.03000 421.388
26.04000 423.038
26.05000 427.704
26.06000 433.011
26.07000 442.610
26.08000 453.004
26.09000 461.099
26.10000 459.315
26.11000 456.399
26.12000 454.201
26.13000 449.537
26.14000 445.764
26.15000 443.363
26.16000 443.644
26.17000 443.995
26.18000 443.018
26.19000 440.306
26.20000 437.589
26.21000 440.012
26.22000 446.747
26.23000 453.354
26.24000 453.495
26.25000 450.020
26.26000 446.646
26.27000 445.179
26.28000 444.435
26.29000 443.746
26.30000 441.622
26.31000 439.383
26.32000 438.575
26.33000 446.323
26.34000 455.491
26.35000 463.012
26.36000 464.112
26.37000 464.566
26.38000 464.900
26.39000 455.603
26.40000 448.026
26.41000 443.716
26.42000 445.212
26.43000 446.820
26.44000 449.686
26.45000 454.033
26.46000 458.372
26.47000 455.450
26.48000 447.061
26.49000 438.874
26.50000 438.333
26.51000 441.682
26.52000 444.809
26.53000 444.403
26.54000 442.779
26.55000 441.294
26.56000 445.057
26.57000 449.478
26.58000 453.471
26.59000 455.162
26.60000 456.510
26.61000 456.194
26.62000 449.990
26.63000 443.269
26.64000 438.473
26.65000 441.880
26.66000 444.749
26.67000 445.283
26.68000 442.044
26.69000 438.752
26.70000 437.977
26.71000 439.872
26.72000 441.758
26.73000 435.118
26.74000 422.751
26.75000 411.009
26.76000 417.635
26.77000 432.775
26.78000 446.773
26.79000 445.441
26.80000 439.293
26.81000 433.745
26.82000 433.525
26.83000 434.310
26.84000 436.359
26.85000 444.520
26.86000 453.489
26.87000 457.733
26.88000 446.788
26.89000 434.696
26.90000 426.321
26.91000 438.808
26.92000 448.753
26.93000 453.046
26.94000 449.052
26.95000 444.986
26.96000 443.086
26.97000 443.248
26.98000 443.409
26.99000 442.485
27.00000 440.912
27.01000 439.228
27.02000 434.924
27.03000 429.513
27.04000 424.663
27.05000 426.312
27.06000 429.815
27.07000 432.934
27.08000 436.653
27.09000 439.982
27.10000 441.804
27.11000 437.041
27.12000 431.509
27.13000 425.671
27.14000 418.939
27.15000 412.149
27.16000 407.595
27.17000 422.996
27.18000 434.831
27.19000 437.626
27.20000 428.417
27.21000 419.159
27.22000 416.421
27.23000 419.269
27.24000 422.084
27.25000 428.185
27.26000 435.956
27.27000 442.895
27.28000 433.725
27.29000 418.357
27.30000 404.698
27.31000 408.260
27.32000 416.286
27.33000 423.323
27.34000 426.726
27.35000 429.121
27.36000 432.463
27.37000 439.558
27.38000 447.038
27.39000 449.795
27.40000 439.971
27.41000 429.466
27.42000 422.657
27.43000 420.113
27.44000 418.314
27.45000 418.354
27.46000 420.599
27.47000 422.845
27.48000 424.055
27.49000 424.464
27.50000 424.865
27.51000 415.762
27.52000 402.200
27.53000 389.725
27.54000 394.883
27.55000 406.220
27.56000 416.964
27.57000 422.465
27.58000 426.735
27.59000 430.419
27.60000 432.773
27.61000 434.599
27.62000 433.886
27.63000 424.051
27.64000 413.398
27.65000 409.898
27.66000 423.758
27.67000 438.395
27.68000 447.539
27.69000 434.890
27.70000 425.536
27.71000 419.996
27.72000 418.576
27.73000 417.170
27.74000 417.470
27.75000 418.964
27.76000 420.425
27.77000 430.475
27.78000 443.995
27.79000 456.277
27.80000 451.503
27.81000 441.291
27.82000 432.050
27.83000 430.403
27.84000 430.369
27.85000 430.339
27.86000 420.592
27.87000 411.323
27.88000 404.296
27.89000 404.588
27.90000 405.447
27.91000 408.583
27.92000 416.753
27.93000 425.106
27.94000 430.122
27.95000 429.428
27.96000 428.895
27.97000 424.043
27.98000 415.005
27.99000 406.078
28.00000 406.244
28.01000 412.180
28.02000 417.950
28.03000 427.661
28.04000 438.499
28.05000 447.795
28.06000 438.817
28.07000 424.541
28.08000 411.966
28.09000 411.200
28.10000 412.695
28.11000 413.940
28.12000 419.427
28.13000 424.390
28.14000 427.630
28.15000 425.750
28.16000 423.531
28.17000 422.189
28.18000 422.610
28.19000 423.081
28.20000 423.353
28.21000 430.230
28.22000 435.059
28.23000 432.022
28.24000 422.130
28.25000 412.454
28.26000 414.891
28.27000 424.313
28.28000 433.407
28.29000 429.772
28.30000 421.666
28.31000 414.574
28.32000 417.919
28.33000 424.014
28.34000 428.719
28.35000 424.813
28.36000 419.426
28.37000 415.029
28.38000 421.567
28.39000 427.856
28.40000 431.617
28.41000 428.542
28.42000 425.087
28.43000 422.012
28.44000 419.636
28.45000 417.275
28.46000 415.976
28.47000 421.317
28.48000 424.997
28.49000 425.921
28.50000 424.679
28.51000 423.456
28.52000 423.009
28.53000 422.971
28.54000 422.934
28.55000 418.800
28.56000 413.587
28.57000 409.568
28.58000 416.336
28.59000 425.679
28.60000 433.245
28.61000 430.938
28.62000 427.110
28.63000 424.050
28.64000 424.290
28.65000 424.729
28.66000 424.010
28.67000 420.438
28.68000 416.735
28.69000 413.235
28.70000 410.075
28.71000 406.919
28.72000 405.267
28.73000 403.097
28.74000 401.663
28.75000 405.376
28.76000 412.748
28.77000 419.837
28.78000 417.948
28.79000 411.769
28.80000 405.904
28.81000 411.066
28.82000 419.124
28.83000 425.922
28.84000 422.684
28.85000 417.280
28.86000 412.637
28.87000 411.806
28.88000 411.498
28.89000 411.258
28.90000 416.097
28.91000 420.280
28.92000 422.722
28.93000 421.258
28.94000 419.647
28.95000 419.829
28.96000 422.723
28.97000 425.646
28.98000 424.881
28.99000 420.480
29.00000 416.086
29.01000 412.239
29.02000 408.744
29.03000 405.526
29.04000 409.294
29.05000 416.102
29.06000 422.502
29.07000 417.082
29.08000 408.953
29.09000 401.407
29.10000 397.985
29.11000 395.365
29.12000 393.277
29.13000 393.595
29.14000 394.206
29.15000 394.672
29.16000 407.788
29.17000 418.799
29.18000 427.193
29.19000 430.237
29.20000 433.122
29.21000 432.709
29.22000 427.774
29.23000 422.813
29.24000 417.026
29.25000 410.515
29.26000 404.028
29.27000 398.972
29.28000 394.754
29.29000 391.117
29.30000 399.452
29.31000 412.534
29.32000 424.703
29.33000 423.832
29.34000 419.894
29.35000 415.367
29.36000 407.132
29.37000 398.246
29.38000 392.120
29.39000 397.271
29.40000 403.632
29.41000 408.363
29.42000 403.389
29.43000 399.087
29.44000 399.156
29.45000 407.361
29.46000 415.749
29.47000 419.081
29.48000 416.142
29.49000 413.191
29.50000 409.475
29.51000 405.167
29.52000 400.944
29.53000 400.407
29.54000 401.833
29.55000 403.129
29.56000 402.216
29.57000 400.505
29.58000 398.932
29.59000 396.194
29.60000 393.496
29.61000 391.393
29.62000 392.647
29.63000 394.428
29.64000 396.491
29.65000 399.601
29.66000 402.810
29.67000 405.132
29.68000 400.430
29.69000 396.563
29.70000 397.065
29.71000 404.960
29.72000 412.977
29.73000 414.646
29.74000 409.220
29.75000 403.808
29.76000 403.378
29.77000 406.519
29.78000 409.647
29.79000 412.377
29.80000 414.914
29.81000 417.572
29.82000 422.001
29.83000 427.011
29.84000 431.562
29.85000 423.384
29.86000 413.691
29.87000 405.910
29.88000 407.849
29.89000 411.149
29.90000 414.617
29.91000 418.650
29.92000 422.729
29.93000 425.597
29.94000 423.427
29.95000 421.635
29.96000 422.332
29.97000 426.855
29.98000 431.420
29.99000 432.458
30.00000 429.956
30.01000 427.471
30.02000 430.243
30.03000 436.368
30.04000 442.073
30.05000 436.796
30.06000 426.667
30.07000 417.272
30.08000 417.005
30.09000 419.467
30.10000 421.674
30.11000 414.847
30.12000 407.322
30.13000 401.364
30.14000 402.593
30.15000 404.715
30.16000 406.939
30.17000 409.474
30.18000 412.031
30.19000 413.774
30.20000 411.349
30.21000 409.441
30.22000 408.563
30.23000 409.122
30.24000 409.690
30.25000 410.295
30.26000 410.933
30.27000 411.565
30.28000 408.295
30.29000 402.823
30.30000 397.786
30.31000 402.000
30.32000 409.938
30.33000 417.136
30.34000 416.366
30.35000 413.432
30.36000 410.840
30.37000 409.176
30.38000 407.883
30.39000 407.753
30.40000 412.456
30.41000 417.688
30.42000 418.978
30.43000 409.280
30.44000 398.933
30.45000 392.113
30.46000 402.745
30.47000 410.885
30.48000 414.410
30.49000 412.118
30.50000 409.812
30.51000 409.242
30.52000 410.082
30.53000 410.910
30.54000 408.724
30.55000 405.016
30.56000 401.742
30.57000 406.128
30.58000 413.322
30.59000 419.867
30.60000 420.300
30.61000 419.227
30.62000 418.294
30.63000 414.135
30.64000 410.147
30.65000 405.859
30.66000 400.442
30.67000 394.917
30.68000 393.098
30.69000 400.688
30.70000 408.741
30.71000 413.864
30.72000 426.246
30.73000 435.334
30.74000 436.467
30.75000 428.557
30.76000 420.662
30.77000 417.148
30.78000 416.850
30.79000 416.557
30.80000 423.105
30.81000 432.659
30.82000 441.633
30.83000 441.988
30.84000 439.466
30.85000 436.982
30.86000 434.812
30.87000 432.712
30.88000 430.916
30.89000 441.628
30.90000 452.163
30.91000 460.701
30.92000 462.409
30.93000 463.548
30.94000 467.582
30.95000 478.313
30.96000 489.314
30.97000 496.050
30.98000 512.790
30.99000 524.859
31.00000 535.212
31.01000 543.812
31.02000 552.488
31.03000 568.843
31.04000 590.307
31.05000 611.238
31.06000 637.591
31.07000 665.079
31.08000 692.793
31.09000 723.396
31.10000 754.876
31.11000 786.859
31.12000 822.533
31.13000 858.951
31.14000 889.549
31.15000 950.226
31.16000 1003.951
31.17000 1059.665
31.18000 1121.565
31.19000 1183.907
31.20000 1246.597
31.21000 1310.020
31.22000 1373.467
31.23000 1410.766
31.24000 1472.831
31.25000 1516.729
31.26000 1574.093
31.27000 1643.802
31.28000 1713.239
31.29000 1764.515
31.30000 1804.821
31.31000 1843.864
31.32000 1891.107
31.33000 1938.974
31.34000 1983.794
31.35000 1995.042
31.36000 1997.024
31.37000 1999.629
31.38000 2006.309
31.39000 2013.727
31.40000 2019.841
31.41000 2005.036
31.42000 1990.926
31.43000 1971.045
31.44000 1934.833
31.45000 1897.629
31.46000 1854.502
31.47000 1800.006
31.48000 1745.230
31.49000 1714.413
31.50000 1644.182
31.51000 1595.332
31.52000 1547.272
31.53000 1499.864
31.54000 1452.274
31.55000 1395.979
31.56000 1334.905
31.57000 1276.187
31.58000 1209.498
31.59000 1144.234
31.60000 1082.204
31.61000 1051.246
31.62000 1028.069
31.63000 1001.710
31.64000 956.717
31.65000 908.695
31.66000 869.910
31.67000 819.908
31.68000 778.365
31.69000 742.074
31.70000 719.318
31.71000 697.250
31.72000 676.431
31.73000 657.796
31.74000 639.200
31.75000 629.222
31.76000 591.895
31.77000 566.449
31.78000 553.402
31.79000 549.607
31.80000 545.610
31.81000 534.375
31.82000 519.521
31.83000 505.359
31.84000 498.186
31.85000 493.730
31.86000 488.416
31.87000 475.839
31.88000 461.616
31.89000 449.912
31.90000 451.462
31.91000 454.937
31.92000 457.684
31.93000 445.363
31.94000 434.439
31.95000 428.677
31.96000 435.034
31.97000 441.895
31.98000 440.112
31.99000 424.621
32.00000 408.956
32.01000 400.970
32.02000 414.261
32.03000 423.088
32.04000 421.830
32.05000 413.755
32.06000 405.839
32.07000 402.389
32.08000 400.973
32.09000 399.635
32.10000 400.219
32.11000 401.300
32.12000 401.921
32.13000 399.098
32.14000 395.570
32.15000 392.052
32.16000 388.580
32.17000 385.115
32.18000 382.439
32.19000 387.696
32.20000 392.325
32.21000 394.234
32.22000 390.327
32.23000 386.225
32.24000 382.630
32.25000 379.763
32.26000 376.903
32.27000 374.686
32.28000 373.071
32.29000 371.468
32.30000 370.755
32.31000 370.588
32.32000 370.422
32.33000 370.276
32.34000 370.139
32.35000 370.010
32.36000 370.886
32.37000 371.937
32.38000 373.277
32.39000 376.538
32.40000 380.154
32.41000 382.765
32.42000 381.070
32.43000 378.884
32.44000 377.238
32.45000 376.344
32.46000 375.682
32.47000 374.692
32.48000 373.064
32.49000 371.420
32.50000 370.900
32.51000 371.843
32.52000 372.791
32.53000 371.599
32.54000 368.619
32.55000 365.750
32.56000 368.440
32.57000 374.231
32.58000 379.384
32.59000 372.606
32.60000 361.320
32.61000 350.882
32.62000 355.752
32.63000 363.626
32.64000 370.169
32.65000 368.781
32.66000 366.081
32.67000 363.818
32.68000 363.258
32.69000 362.869
32.70000 362.583
32.71000 371.390
32.72000 378.562
32.73000 381.339
32.74000 376.326
32.75000 371.164
32.76000 366.083
32.77000 361.097
32.78000 356.125
32.79000 362.654
32.80000 377.806
32.81000 392.633
32.82000 395.271
32.83000 391.723
32.84000 388.046
32.85000 382.342
32.86000 375.940
32.87000 370.089
32.88000 369.555
32.89000 370.169
32.90000 370.464
32.91000 369.052
32.92000 367.386
32.93000 366.623
32.94000 369.042
32.95000 371.738
32.96000 373.661
32.97000 377.625
32.98000 380.715
32.99000 379.241
33.00000 370.416
33.01000 361.491
33.02000 358.231
33.03000 360.964
33.04000 363.684
33.05000 365.431
33.06000 366.497
33.07000 367.486
33.08000 366.243
33.09000 363.969
33.10000 361.866
33.11000 362.071
33.12000 362.999
33.13000 363.836
33.14000 364.960
33.15000 366.000
33.16000 365.013
33.17000 354.256
33.18000 342.211
33.19000 333.725
33.20000 336.645
33.21000 340.422
33.22000 343.035
33.23000 340.135
33.24000 337.809
33.25000 337.847
33.26000 341.339
33.27000 344.861
33.28000 345.571
33.29000 343.614
33.30000 341.672
33.31000 345.790
33.32000 353.543
33.33000 360.996
33.34000 361.430
33.35000 358.907
33.36000 356.196
33.37000 351.303
33.38000 345.790
33.39000 340.886
33.40000 341.231
33.41000 342.386
33.42000 342.632
33.43000 338.920
33.44000 334.746
33.45000 332.256
33.46000 334.674
33.47000 337.406
33.48000 339.237
33.49000 331.724
33.50000 325.961
33.51000 324.317
33.52000 328.126
33.53000 331.956
33.54000 332.074
33.55000 329.022
33.56000 326.008
33.57000 322.252
33.58000 318.181
33.59000 314.362
33.60000 315.410
33.61000 318.325
33.62000 321.048
33.63000 321.838
33.64000 322.130
33.65000 322.385
33.66000 324.369
33.67000 326.321
33.68000 327.274
33.69000 324.284
33.70000 320.890
33.71000 318.564
33.72000 319.074
33.73000 319.737
33.74000 320.166
33.75000 325.663
33.76000 329.760
33.77000 330.054
33.78000 325.800
33.79000 321.562
33.80000 323.369
33.81000 329.836
33.82000 336.196
33.83000 337.658
33.84000 336.630
33.85000 335.692
33.86000 336.216
33.87000 337.250
33.88000 337.939
33.89000 335.595
33.90000 332.540
33.91000 329.906
33.92000 329.946
33.93000 330.322
33.94000 330.507
33.95000 330.011
33.96000 329.454
33.97000 328.389
33.98000 326.097
33.99000 323.751
34.00000 322.286
34.01000 328.753
34.02000 333.499
34.03000 332.639
34.04000 325.744
34.05000 318.876
34.06000 315.567
34.07000 314.742
34.08000 313.936
34.09000 318.141
34.10000 324.431
34.11000 330.617
34.12000 335.383
34.13000 339.697
34.14000 342.496
34.15000 333.504
34.16000 322.017
34.17000 312.280
34.18000 312.598
34.19000 313.997
34.20000 316.406
34.21000 322.109
34.22000 328.065
34.23000 331.710
34.24000 330.258
34.25000 328.622
34.26000 327.641
34.27000 323.820
34.28000 321.087
34.29000 323.429
34.30000 330.672
34.31000 337.757
34.32000 332.128
34.33000 318.453
34.34000 305.162
34.35000 305.969
34.36000 312.464
34.37000 318.635
34.38000 320.992
34.39000 322.246
34.40000 322.532
34.41000 316.124
34.42000 308.439
34.43000 302.044
34.44000 307.053
34.45000 312.322
34.46000 315.784
34.47000 313.892
34.48000 311.647
34.49000 312.884
34.50000 321.109
34.51000 329.530
34.52000 334.373
34.53000 330.979
34.54000 328.575
34.55000 326.502
34.56000 324.716
34.57000 322.915
34.58000 320.243
34.59000 317.070
34.60000 314.009
34.61000 317.023
34.62000 322.089
34.63000 326.742
34.64000 327.158
34.65000 326.461
34.66000 325.774
34.67000 325.146
34.68000 324.528
34.69000 324.024
34.70000 327.179
34.71000 330.073
34.72000 330.745
34.73000 325.426
34.74000 319.775
34.75000 314.592
34.76000 310.262
34.77000 305.950
34.78000 303.582
34.79000 311.139
34.80000 316.337
34.81000 316.295
34.82000 312.145
34.83000 308.092
34.84000 307.979
34.85000 309.927
34.86000 311.792
34.87000 313.890
34.88000 315.922
34.89000 317.686
34.90000 317.035
34.91000 315.809
34.92000 315.121
34.93000 317.418
34.94000 320.173
34.95000 322.373
34.96000 316.932
34.97000 311.973
34.98000 309.392
34.99000 312.652
35.00000 316.179
35.01000 317.137
35.02000 313.824
35.03000 310.445
35.04000 308.679
35.05000 304.205
35.06000 301.222
35.07000 304.684
35.08000 312.714
35.09000 320.478
35.10000 319.888
35.11000 315.317
35.12000 310.979
35.13000 315.451
35.14000 322.202
35.15000 327.545
35.16000 321.721
35.17000 313.495
35.18000 306.860
35.19000 308.157
35.20000 310.540
35.21000 312.401
35.22000 320.968
35.23000 328.225
35.24000 331.248
35.25000 324.797
35.26000 317.992
35.27000 313.469
35.28000 312.388
35.29000 311.342
35.30000 307.678
35.31000 301.441
35.32000 295.278
35.33000 295.473
35.34000 299.753
35.35000 303.964
35.36000 306.424
35.37000 308.123
35.38000 309.721
35.39000 310.622
35.40000 311.258
35.41000 311.972
35.42000 313.235
35.43000 314.605
35.44000 314.515
35.45000 307.852
35.46000 300.392
35.47000 294.704
35.48000 297.854
35.49000 300.806
35.50000 305.138
35.51000 312.283
35.52000 319.511
35.53000 322.229
35.54000 318.782
35.55000 315.300
35.56000 307.820
35.57000 296.824
35.58000 286.033
35.59000 287.262
35.60000 295.511
35.61000 303.751
35.62000 311.815
35.63000 319.810
35.64000 327.246
35.65000 323.145
35.66000 316.665
35.67000 310.307
35.68000 304.729
35.69000 299.286
35.70000 294.977
35.71000 295.285
35.72000 296.087
35.73000 296.683
35.74000 291.470
35.75000 287.160
35.76000 288.526
35.77000 300.429
35.78000 312.567
35.79000 319.592
35.80000 320.294
35.81000 320.977
35.82000 317.862
35.83000 311.749
35.84000 305.715
35.85000 303.082
35.86000 302.254
35.87000 301.138
35.88000 295.113
35.89000 287.318
35.90000 280.153
35.91000 289.743
35.92000 301.926
35.93000 311.956
35.94000 309.842
35.95000 305.829
35.96000 300.906
35.97000 292.621
35.98000 284.021
35.99000 277.802
36.00000 290.958
36.01000 301.758
36.02000 307.921
36.03000 306.255
36.04000 304.462
36.05000 301.212
36.06000 296.337
36.07000 291.479
36.08000 290.891
36.09000 293.355
36.10000 295.789
36.11000 297.191
36.12000 298.095
36.13000 299.214
36.14000 303.439
36.15000 308.682
36.16000 313.442
36.17000 307.989
36.18000 301.200
36.19000 295.884
36.20000 298.036
36.21000 301.230
36.22000 303.704
36.23000 303.761
36.24000 303.623
36.25000 303.526
36.26000 292.860
36.27000 284.474
36.28000 284.034
36.29000 295.773
36.30000 307.646
36.31000 308.209
36.32000 297.459
36.33000 286.778
36.34000 285.802
36.35000 291.083
36.36000 296.249
36.37000 298.447
36.38000 299.336
36.39000 299.982
36.40000 297.601
36.41000 294.318
36.42000 291.377
36.43000 291.520
36.44000 292.177
36.45000 294.218
36.46000 302.590
36.47000 311.746
36.48000 317.843
36.49000 314.606
36.50000 310.721
36.51000 308.075
36.52000 303.486
36.53000 300.013
36.54000 297.268
36.55000 295.533
36.56000 293.803
36.57000 291.193
36.58000 287.791
36.59000 284.423
36.60000 285.822
36.61000 289.959
36.62000 294.003
36.63000 296.087
36.64000 297.385
36.65000 298.753
36.66000 300.867
36.67000 303.185
36.68000 305.230
36.69000 296.567
36.70000 287.448
36.71000 281.450
36.72000 288.372
36.73000 296.703
36.74000 302.220
36.75000 299.918
36.76000 297.156
36.77000 295.337
36.78000 293.137
36.79000 291.511
36.80000 290.278
36.81000 289.541
36.82000 288.805
36.83000 287.877
36.84000 286.792
36.85000 285.723
36.86000 282.536
36.87000 278.332
36.88000 274.636
36.89000 279.843
36.90000 288.306
36.91000 296.162
36.92000 298.339
36.93000 299.120
36.94000 299.798
36.95000 299.325
36.96000 298.764
36.97000 297.893
36.98000 295.856
36.99000 293.709
37.00000 292.958
37.01000 295.743
37.02000 298.702
37.03000 300.582
37.04000 295.517
37.05000 291.752
37.06000 291.588
37.07000 295.504
37.08000 299.397
37.09000 298.536
37.10000 294.196
37.11000 289.940
37.12000 290.628
37.13000 293.629
37.14000 296.453
37.15000 296.660
37.16000 295.996
37.17000 295.611
37.18000 297.534
37.19000 299.969
37.20000 302.051
37.21000 299.762
37.22000 297.310
37.23000 296.174
37.24000 299.526
37.25000 303.250
37.26000 305.387
37.27000 303.864
37.28000 302.195
37.29000 301.174
37.30000 297.745
37.31000 295.271
37.32000 296.474
37.33000 301.420
37.34000 306.319
37.35000 306.483
37.36000 303.506
37.37000 300.604
37.38000 297.233
37.39000 293.816
37.40000 290.247
37.41000 284.760
37.42000 278.691
37.43000 273.322
37.44000 273.065
37.45000 273.835
37.46000 274.481
37.47000 275.548
37.48000 276.481
37.49000 277.760
37.50000 280.110
37.51000 282.537
37.52000 286.103
37.53000 292.063
37.54000 298.100
37.55000 301.644
37.56000 294.444
37.57000 289.316
37.58000 285.489
37.59000 282.852
37.60000 280.287
37.61000 282.513
37.62000 287.625
37.63000 292.576
37.64000 294.305
37.65000 294.698
37.66000 295.093
37.67000 295.507
37.68000 295.925
37.69000 296.312
37.70000 296.497
37.71000 296.645
37.72000 296.768
37.73000 292.360
37.74000 288.318
37.75000 286.204
37.76000 289.528
37.77000 293.180
37.78000 294.420
37.79000 291.045
37.80000 287.557
37.81000 285.598
37.82000 280.090
37.83000 276.271
37.84000 277.116
37.85000 281.800
37.86000 286.405
37.87000 287.276
37.88000 286.102
37.89000 284.974
37.90000 283.226
37.91000 281.374
37.92000 279.308
37.93000 275.185
37.94000 270.548
37.95000 267.553
37.96000 274.131
37.97000 282.262
37.98000 288.824
37.99000 287.343
38.00000 285.501
38.01000 283.768
38.02000 282.317
38.03000 280.880
38.04000 281.610
38.05000 286.113
38.06000 290.684
38.07000 293.133
38.08000 297.691
38.09000 300.799
38.10000 303.082
38.11000 304.751
38.12000 306.203
38.13000 299.915
38.14000 289.770
38.15000 280.100
38.16000 285.874
38.17000 296.067
38.18000 304.918
38.19000 302.466
38.20000 297.460
38.21000 294.288
38.22000 300.738
38.23000 308.581
38.24000 314.774
38.25000 312.054
38.26000 309.264
38.27000 306.461
38.28000 303.628
38.29000 300.794
38.30000 302.244
38.31000 310.471
38.32000 318.782
38.33000 323.011
38.34000 322.551
38.35000 322.289
38.36000 327.103
38.37000 335.338
38.38000 343.415
38.39000 347.111
38.40000 348.817
38.41000 350.429
38.42000 358.856
38.43000 368.512
38.44000 377.928
38.45000 385.550
38.46000 392.806
38.47000 401.449
38.48000 416.650
38.49000 432.695
38.50000 445.075
38.51000 460.254
38.52000 472.447
38.53000 487.063
38.54000 506.851
38.55000 526.810
38.56000 541.552
38.57000 548.809
38.58000 556.007
38.59000 570.171
38.60000 590.802
38.61000 611.251
38.62000 618.969
38.63000 618.898
38.64000 619.385
38.65000 632.438
38.66000 650.690
38.67000 667.753
38.68000 683.468
38.69000 697.392
38.70000 708.336
38.71000 699.480
38.72000 686.984
38.73000 676.171
38.74000 672.552
38.75000 669.751
38.76000 667.643
38.77000 656.306
38.78000 646.989
38.79000 637.161
38.80000 626.342
38.81000 615.498
38.82000 602.289
38.83000 586.008
38.84000 569.732
38.85000 558.635
38.86000 551.895
38.87000 544.972
38.88000 529.005
38.89000 508.009
38.90000 487.206
38.91000 469.987
38.92000 454.119
38.93000 439.447
38.94000 422.121
38.95000 405.959
38.96000 390.986
38.97000 383.074
38.98000 376.328
38.99000 368.856
39.00000 358.572
39.01000 348.008
39.02000 340.265
39.03000 334.506
39.04000 330.137
39.05000 326.997
39.06000 326.026
39.07000 325.098
39.08000 319.605
39.09000 308.764
39.10000 297.943
39.11000 293.640
39.12000 294.261
39.13000 294.826
39.14000 293.306
39.15000 290.732
39.16000 288.286
39.17000 287.832
39.18000 288.062
39.19000 288.272
39.20000 287.553
39.21000 286.725
39.22000 285.635
39.23000 283.147
39.24000 280.452
39.25000 279.394
39.26000 284.090
39.27000 289.285
39.28000 292.986
39.29000 280.487
39.30000 270.433
39.31000 262.595
39.32000 258.317
39.33000 254.087
39.34000 254.750
39.35000 260.573
39.36000 266.368
39.37000 270.771
39.38000 274.181
39.39000 277.386
39.40000 274.627
39.41000 269.119
39.42000 263.926
39.43000 262.921
39.44000 263.223
39.45000 263.495
39.46000 271.635
39.47000 280.214
39.48000 285.832
39.49000 277.208
39.50000 266.716
39.51000 260.475
39.52000 267.818
39.53000 276.179
39.54000 281.959
39.55000 273.285
39.56000 266.389
39.57000 261.997
39.58000 261.253
39.59000 260.541
39.60000 264.949
39.61000 274.201
39.62000 283.376
39.63000 283.112
39.64000 277.093
39.65000 271.219
39.66000 268.688
39.67000 267.562
39.68000 266.265
39.69000 263.008
39.70000 259.196
39.71000 255.806
39.72000 255.793
39.73000 256.331
39.74000 257.884
39.75000 263.847
39.76000 270.322
39.77000 271.885
39.78000 259.160
39.79000 245.523
39.80000 236.395
39.81000 254.079
39.82000 267.728
39.83000 272.551
39.84000 265.724
39.85000 258.848
39.86000 255.652
39.87000 255.586
39.88000 255.522
39.89000 261.253
39.90000 270.031
39.91000 278.240
39.92000 275.546
39.93000 268.681
39.94000 261.852
39.95000 255.386
39.96000 249.013
39.97000 243.430
39.98000 245.892
39.99000 249.162
40.00000 252.073
40.01000 253.566
40.02000 254.914
40.03000 255.636
40.04000 254.696
40.05000 253.668
40.06000 253.003
40.07000 253.584
40.08000 254.027
40.09000 255.264
40.10000 257.447
40.11000 259.618
40.12000 258.482
40.13000 254.806
40.14000 251.192
40.15000 255.513
40.16000 263.636
40.17000 271.050
40.18000 267.080
40.19000 259.144
40.20000 252.202
40.21000 253.982
40.22000 257.799
40.23000 261.088
40.24000 260.007
40.25000 258.534
40.26000 258.323
40.27000 262.617
40.28000 267.312
40.29000 268.781
40.30000 262.468
40.31000 255.811
40.32000 251.662
40.33000 248.205
40.34000 245.721
40.35000 244.951
40.36000 246.019
40.37000 247.089
40.38000 248.411
40.39000 249.906
40.40000 251.369
40.41000 251.966
40.42000 252.150
40.43000 252.125
40.44000 249.229
40.45000 245.423
40.46000 242.323
40.47000 244.686
40.48000 248.202
40.49000 251.181
40.50000 259.723
40.51000 267.501
40.52000 271.154
40.53000 261.421
40.54000 250.659
40.55000 243.845
40.56000 245.708
40.57000 247.881
40.58000 249.183
40.59000 251.594
40.60000 253.313
40.61000 253.102
40.62000 251.034
40.63000 248.963
40.64000 246.663
40.65000 244.218
40.66000 241.843
40.67000 244.109
40.68000 248.142
40.69000 251.736
40.70000 250.173
40.71000 247.123
40.72000 245.009
40.73000 249.343
40.74000 254.904
40.75000 259.528
40.76000 258.780
40.77000 257.634
40.78000 256.006
40.79000 252.953
40.80000 249.806
40.81000 245.039
40.82000 237.027
40.83000 228.925
40.84000 224.272
40.85000 228.945
40.86000 232.248
40.87000 236.228
40.88000 240.796
40.89000 245.336
40.90000 248.318
40.91000 250.406
40.92000 252.420
40.93000 251.651
40.94000 249.909
40.95000 248.066
40.96000 245.191
40.97000 242.046
40.98000 239.529
40.99000 240.878
41.00000 242.888
41.01000 244.527
41.02000 248.949
41.03000 252.802
41.04000 254.366
41.05000 249.773
41.06000 244.840
41.07000 241.031
41.08000 239.269
41.09000 237.550
41.10000 236.607
41.11000 242.195
41.12000 246.044
41.13000 248.630
41.14000 250.230
41.15000 251.720
41.16000 248.786
41.17000 243.544
41.18000 238.527
41.19000 239.477
41.20000 242.328
41.21000 245.077
41.22000 246.896
41.23000 248.496
41.24000 249.363
41.25000 246.188
41.26000 242.395
41.27000 239.366
41.28000 235.774
41.29000 232.831
41.30000 233.480
41.31000 242.927
41.32000 252.776
41.33000 257.449
41.34000 253.544
41.35000 249.510
41.36000 247.404
41.37000 243.292
41.38000 240.521
41.39000 239.348
41.40000 239.302
41.41000 239.271
41.42000 239.717
41.43000 240.389
41.44000 241.027
41.45000 238.462
41.46000 235.145
41.47000 231.927
41.48000 229.494
41.49000 227.230
41.50000 225.535
41.51000 226.663
41.52000 228.177
41.53000 229.358
41.54000 232.923
41.55000 235.916
41.56000 238.114
41.57000 238.541
41.58000 238.902
41.59000 239.856
41.60000 241.705
41.61000 243.562
41.62000 245.083
41.63000 246.274
41.64000 247.403
41.65000 243.191
41.66000 235.556
41.67000 228.281
41.68000 229.972
41.69000 235.544
41.70000 240.780
41.71000 241.063
41.72000 239.999
41.73000 238.575
41.74000 234.618
41.75000 230.172
41.76000 226.759
41.77000 227.982
41.78000 229.766
41.79000 231.125
41.80000 231.298
41.81000 231.372
41.82000 232.854
41.83000 237.202
41.84000 241.632
41.85000 243.252
41.86000 241.039
41.87000 238.805
41.88000 236.831
41.89000 235.090
41.90000 233.416
41.91000 235.672
41.92000 240.217
41.93000 244.446
41.94000 242.264
41.95000 237.554
41.96000 233.176
41.97000 235.008
41.98000 238.153
41.99000 240.097
42.00000 234.514
42.01000 227.623
42.02000 223.256
42.03000 229.147
42.04000 236.128
42.05000 241.313
42.06000 238.883
42.07000 236.659
42.08000 234.348
42.09000 231.877
42.10000 229.402
42.11000 229.580
42.12000 233.028
42.13000 236.479
42.14000 235.101
42.15000 229.914
42.16000 224.930
42.17000 228.595
42.18000 236.839
42.19000 244.649
42.20000 245.080
42.21000 242.860
42.22000 240.821
42.23000 233.057
42.24000 224.894
42.25000 217.614
42.26000 215.295
42.27000 213.750
42.28000 212.447
42.29000 212.035
42.30000 211.706
42.31000 211.468
42.32000 223.710
42.33000 233.551
42.34000 238.219
42.35000 234.182
42.36000 230.005
42.37000 225.650
42.38000 221.097
42.39000 216.561
42.40000 217.381
42.41000 222.004
42.42000 226.533
42.43000 227.980
42.44000 227.941
42.45000 227.984
42.46000 229.195
42.47000 230.788
42.48000 232.234
42.49000 224.259
42.50000 215.404
42.51000 208.173
42.52000 209.141
42.53000 211.249
42.54000 214.342
42.55000 220.734
42.56000 227.391
42.57000 232.063
42.58000 232.453
42.59000 232.624
42.60000 233.846
42.61000 236.674
42.62000 239.520
42.63000 238.373
42.64000 233.245
42.65000 228.151
42.66000 229.062
42.67000 233.811
42.68000 238.353
42.69000 237.567
42.70000 234.439
42.71000 231.188
42.72000 226.410
42.73000 221.178
42.74000 216.493
42.75000 218.196
42.76000 220.780
42.77000 222.973
42.78000 223.380
42.79000 223.567
42.80000 222.097
42.81000 215.584
42.82000 208.723
42.83000 204.056
42.84000 216.379
42.85000 225.965
42.86000 229.103
42.87000 223.308
42.88000 217.456
42.89000 213.061
42.90000 209.969
42.91000 206.908
42.92000 210.681
42.93000 218.327
42.94000 225.685
42.95000 226.980
42.96000 225.850
42.97000 224.710
42.98000 223.463
42.99000 222.187
43.00000 221.061
43.01000 221.715
43.02000 222.551
43.03000 223.963
43.04000 227.750
43.05000 231.795
43.06000 234.747
43.07000 234.670
43.08000 234.417
43.09000 234.251
43.10000 224.396
43.11000 216.974
43.12000 215.855
43.13000 222.632
43.14000 229.409
43.15000 227.795
43.16000 219.406
43.17000 211.137
43.18000 210.513
43.19000 213.898
43.20000 217.123
43.21000 217.548
43.22000 216.952
43.23000 216.382
43.24000 216.065
43.25000 215.810
43.26000 215.588
43.27000 216.691
43.28000 217.811
43.29000 218.737
43.30000 218.934
43.31000 219.063
43.32000 221.499
43.33000 229.764
43.34000 238.311
43.35000 243.737
43.36000 227.991
43.37000 216.301
43.38000 212.563
43.39000 217.809
43.40000 223.005
43.41000 218.411
43.42000 206.673
43.43000 195.163
43.44000 198.133
43.45000 207.819
43.46000 217.028
43.47000 219.216
43.48000 219.074
43.49000 219.424
43.50000 223.829
43.51000 229.132
43.52000 233.664
43.53000 227.794
43.54000 221.608
43.55000 217.850
43.56000 222.347
43.57000 227.525
43.58000 232.008
43.59000 234.896
43.60000 237.719
43.61000 239.444
43.62000 227.628
43.63000 219.064
43.64000 214.794
43.65000 214.883
43.66000 214.968
43.67000 214.696
43.68000 214.186
43.69000 213.690
43.70000 215.624
43.71000 218.504
43.72000 221.397
43.73000 224.439
43.74000 227.525
43.75000 230.043
43.76000 228.414
43.77000 225.954
43.78000 223.891
43.79000 215.177
43.80000 207.227
43.81000 203.617
43.82000 213.423
43.83000 224.178
43.84000 228.780
43.85000 220.487
43.86000 211.788
43.87000 206.687
43.88000 213.153
43.89000 217.765
43.90000 221.450
43.91000 224.291
43.92000 227.116
43.93000 228.969
43.94000 230.236
43.95000 231.464
43.96000 230.158
43.97000 227.950
43.98000 225.926
43.99000 225.906
44.00000 226.436
44.01000 226.875
44.02000 226.718
44.03000 226.454
44.04000 226.237
44.05000 225.763
44.06000 225.350
44.07000 224.032
44.08000 220.168
44.09000 216.150
44.10000 211.987
44.11000 207.546
44.12000 203.098
44.13000 200.602
44.14000 209.678
44.15000 215.990
44.16000 218.143
44.17000 216.882
44.18000 215.683
44.19000 217.385
44.20000 220.671
44.21000 223.829
44.22000 224.048
44.23000 223.235
44.24000 222.279
44.25000 219.965
44.26000 217.313
44.27000 215.371
44.28000 217.561
44.29000 220.418
44.30000 222.723
44.31000 220.323
44.32000 218.002
44.33000 217.103
44.34000 219.850
44.35000 222.779
44.36000 223.825
44.37000 221.602
44.38000 219.320
44.39000 218.100
44.40000 223.762
44.41000 227.621
44.42000 229.868
44.43000 230.918
44.44000 231.783
44.45000 226.117
44.46000 217.205
44.47000 208.713
44.48000 206.398
44.49000 206.182
44.50000 206.752
44.51000 213.923
44.52000 222.581
44.53000 230.246
44.54000 232.721
44.55000 234.446
44.56000 235.808
44.57000 233.126
44.58000 230.701
44.59000 229.176
44.60000 229.755
44.61000 230.420
44.62000 230.592
44.63000 229.985
44.64000 229.370
44.65000 229.057
44.66000 227.338
44.67000 226.221
44.68000 228.704
44.69000 233.608
44.70000 238.370
44.71000 239.181
44.72000 238.204
44.73000 237.281
44.74000 240.465
44.75000 244.540
44.76000 248.141
44.77000 248.217
44.78000 247.575
44.79000 248.404
44.80000 256.163
44.81000 264.811
44.82000 271.479
44.83000 274.542
44.84000 276.760
44.85000 278.622
44.86000 279.726
44.87000 280.804
44.88000 283.237
44.89000 287.609
44.90000 291.994
44.91000 292.526
44.92000 289.489
44.93000 286.554
44.94000 290.749
44.95000 299.293
44.96000 307.675
44.97000 312.445
44.98000 315.724
44.99000 318.789
45.00000 320.243
45.01000 321.154
45.02000 322.377
45.03000 325.670
45.04000 329.341
45.05000 332.104
45.06000 330.995
45.07000 329.447
45.08000 328.282
45.09000 334.902
45.10000 340.456
45.11000 343.206
45.12000 340.526
45.13000 337.709
45.14000 330.862
45.15000 318.800
45.16000 306.730
45.17000 303.975
45.18000 308.980
45.19000 313.925
45.20000 315.918
45.21000 316.275
45.22000 316.791
45.23000 320.253
45.24000 324.822
45.25000 329.045
45.26000 318.997
45.27000 306.738
45.28000 296.535
45.29000 298.510
45.30000 302.488
45.31000 305.875
45.32000 306.985
45.33000 307.867
45.34000 308.514
45.35000 298.945
45.36000 291.150
45.37000 286.108
45.38000 285.918
45.39000 285.820
45.40000 286.377
45.41000 287.699
45.42000 289.018
45.43000 284.579
45.44000 275.859
45.45000 267.359
45.46000 266.983
45.47000 270.706
45.48000 274.109
45.49000 272.519
45.50000 269.222
45.51000 266.211
45.52000 267.893
45.53000 270.341
45.54000 272.045
45.55000 269.792
45.56000 266.958
45.57000 265.652
45.58000 269.705
45.59000 274.220
45.60000 277.435
45.61000 271.376
45.62000 266.459
45.63000 261.774
45.64000 257.458
45.65000 253.147
45.66000 252.915
45.67000 256.973
45.68000 261.011
45.69000 262.791
45.70000 263.028
45.71000 263.169
45.72000 260.554
45.73000 256.674
45.74000 253.004
45.75000 252.141
45.76000 252.152
45.77000 252.162
45.78000 247.601
45.79000 242.768
45.80000 238.110
45.81000 234.289
45.82000 230.578
45.83000 229.777
45.84000 238.249
45.85000 247.412
45.86000 253.741
45.87000 244.089
45.88000 236.425
45.89000 232.341
45.90000 233.460
45.91000 234.623
45.92000 234.285
45.93000 232.531
45.94000 230.791
45.95000 230.163
45.96000 230.224
45.97000 230.154
45.98000 227.077
45.99000 222.740
46.00000 218.569
46.01000 216.282
46.02000 214.529
46.03000 212.971
46.04000 214.491
46.05000 216.308
46.06000 218.538
46.07000 222.556
46.08000 226.782
46.09000 228.622
46.10000 223.546
46.11000 218.030
46.12000 214.342
46.13000 212.971
46.14000 212.000
46.15000 212.773
46.16000 215.843
46.17000 218.918
46.18000 219.157
46.19000 216.990
46.20000 214.850
46.21000 210.679
46.22000 205.500
46.23000 200.594
46.24000 200.880
46.25000 203.147
46.26000 205.481
46.27000 208.486
46.28000 211.663
46.29000 214.445
46.30000 206.932
46.31000 199.011
46.32000 193.151
46.33000 195.374
46.34000 198.418
46.35000 200.707
46.36000 201.001
46.37000 201.189
46.38000 201.310
46.39000 202.375
46.40000 203.167
46.41000 204.117
46.42000 205.253
46.43000 206.383
46.44000 205.912
46.45000 204.215
46.46000 202.547
46.47000 202.492
46.48000 203.240
46.49000 203.907
46.50000 203.284
46.51000 202.214
46.52000 201.098
46.53000 199.581
46.54000 197.971
46.55000 196.583
46.56000 192.794
46.57000 189.279
46.58000 187.441
46.59000 191.577
46.60000 196.242
46.61000 198.649
46.62000 195.625
46.63000 192.362
46.64000 190.330
46.65000 197.597
46.66000 202.926
46.67000 205.406
46.68000 204.839
46.69000 204.252
46.70000 201.429
46.71000 197.053
46.72000 192.775
46.73000 193.336
46.74000 196.039
46.75000 198.545
46.76000 198.387
46.77000 197.387
46.78000 196.443
46.79000 195.925
46.80000 195.498
46.81000 195.136
46.82000 191.211
46.83000 187.526
46.84000 185.216
46.85000 187.352
46.86000 189.828
46.87000 192.966
46.88000 197.557
46.89000 202.199
46.90000 204.977
46.91000 202.932
46.92000 201.449
46.93000 200.835
46.94000 201.056
46.95000 201.259
46.96000 200.084
46.97000 198.043
46.98000 196.060
46.99000 191.788
47.00000 186.806
47.01000 182.203
47.02000 182.026
47.03000 183.123
47.04000 184.155
47.05000 184.748
47.06000 185.259
47.07000 185.683
47.08000 189.910
47.09000 193.778
47.10000 196.577
47.11000 196.229
47.12000 195.676
47.13000 194.753
47.14000 193.092
47.15000 191.410
47.16000 190.446
47.17000 189.147
47.18000 188.239
47.19000 187.462
47.20000 186.799
47.21000 186.136
47.22000 185.477
47.23000 184.821
47.24000 184.188
47.25000 184.774
47.26000 185.770
47.27000 186.812
47.28000 188.320
47.29000 189.951
47.30000 190.935
47.31000 187.954
47.32000 184.298
47.33000 181.319
47.34000 182.835
47.35000 184.456
47.36000 186.291
47.37000 188.699
47.38000 191.138
47.39000 192.661
47.40000 192.519
47.41000 192.341
47.42000 192.244
47.43000 194.539
47.44000 196.109
47.45000 194.782
47.46000 191.199
47.47000 187.675
47.48000 186.571
47.49000 186.726
47.50000 186.873
47.51000 188.495
47.52000 190.490
47.53000 191.789
47.54000 186.879
47.55000 180.500
47.56000 175.443
47.57000 177.663
47.58000 180.992
47.59000 183.648
47.60000 193.424
47.61000 201.835
47.62000 205.390
47.63000 197.082
47.64000 188.236
47.65000 182.692
47.66000 182.603
47.67000 182.595
47.68000 182.591
47.69000 185.386
47.70000 187.246
47.71000 184.966
47.72000 179.769
47.73000 174.718
47.74000 174.185
47.75000 175.793
47.76000 177.319
47.77000 182.206
47.78000 187.707
47.79000 192.561
47.80000 192.312
47.81000 190.972
47.82000 189.446
47.83000 187.000
47.84000 184.429
47.85000 182.425
47.86000 185.251
47.87000 187.806
47.88000 190.427
47.89000 193.199
47.90000 195.977
47.91000 197.540
47.92000 197.281
47.93000 197.005
47.94000 193.846
47.95000 187.874
47.96000 181.940
47.97000 179.314
47.98000 178.802
47.99000 178.463
48.00000 182.431
48.01000 188.258
48.02000 193.731
48.03000 192.216
48.04000 188.973
48.05000 185.796
48.06000 183.074
48.07000 180.441
48.08000 178.093
48.09000 177.023
48.10000 176.108
48.11000 175.410
48.12000 180.272
48.13000 184.391
48.14000 188.457
48.15000 192.415
48.16000 196.370
48.17000 196.236
48.18000 190.545
48.19000 184.825
48.20000 180.659
48.21000 177.859
48.22000 175.126
48.23000 176.224
48.24000 179.546
48.25000 182.737
48.26000 183.280
48.27000 182.781
48.28000 182.318
48.29000 183.175
48.30000 184.264
48.31000 185.866
48.32000 190.666
48.33000 196.022
48.34000 199.377
48.35000 194.631
48.36000 189.028
48.37000 184.870
48.38000 183.424
48.39000 182.419
48.40000 180.993
48.41000 178.786
48.42000 176.563
48.43000 176.201
48.44000 178.125
48.45000 180.051
48.46000 181.919
48.47000 183.731
48.48000 185.464
48.49000 183.866
48.50000 180.508
48.51000 177.501
48.52000 180.410
48.53000 185.436
48.54000 190.054
48.55000 186.459
48.56000 181.489
48.57000 177.939
48.58000 182.344
48.59000 187.984
48.60000 191.614
48.61000 187.861
48.62000 183.424
48.63000 180.222
48.64000 176.754
48.65000 174.085
48.66000 173.970
48.67000 178.140
48.68000 182.377
48.69000 184.375
48.70000 183.894
48.71000 183.413
48.72000 181.399
48.73000 178.315
48.74000 175.295
48.75000 174.316
48.76000 174.319
48.77000 174.469
48.78000 176.714
48.79000 179.643
48.80000 182.300
48.81000 183.834
48.82000 184.973
48.83000 185.538
48.84000 183.213
48.85000 180.489
48.86000 178.300
48.87000 177.899
48.88000 177.641
48.89000 177.460
48.90000 171.360
48.91000 166.575
48.92000 166.466
48.93000 173.480
48.94000 180.571
48.95000 182.128
48.96000 178.185
48.97000 174.268
48.98000 174.102
48.99000 176.336
49.00000 178.517
49.01000 179.351
49.02000 179.596
49.03000 179.845
49.04000 180.160
49.05000 180.494
49.06000 180.792
49.07000 177.683
49.08000 174.387
49.09000 171.864
49.10000 172.859
49.11000 174.286
49.12000 174.753
49.13000 172.309
49.14000 169.666
49.15000 167.869
49.16000 171.601
49.17000 174.511
49.18000 175.664
49.19000 174.389
49.20000 173.100
49.21000 173.653
49.22000 175.852
49.23000 178.028
49.24000 177.556
49.25000 175.567
49.26000 173.806
49.27000 176.797
49.28000 181.684
49.29000 186.112
49.30000 185.647
49.31000 183.865
49.32000 182.292
49.33000 180.558
49.34000 179.038
49.35000 177.485
49.36000 175.798
49.37000 174.097
49.38000 173.990
49.39000 178.292
49.40000 182.850
49.41000 185.846
49.42000 182.712
49.43000 180.302
49.44000 178.616
49.45000 177.837
49.46000 177.055
49.47000 174.730
49.48000 171.161
49.49000 167.645
49.50000 167.011
49.51000 167.896
49.52000 168.708
49.53000 168.254
49.54000 167.340
49.55000 166.905
49.56000 170.923
49.57000 176.028
49.58000 180.462
49.59000 180.987
49.60000 180.908
49.61000 180.502
49.62000 178.878
49.63000 177.139
49.64000 175.338
49.65000 173.385
49.66000 171.424
49.67000 170.180
49.68000 170.629
49.69000 170.974
49.70000 171.256
49.71000 171.465
49.72000 171.684
49.73000 173.639
49.74000 176.857
49.75000 180.013
49.76000 181.360
49.77000 181.807
49.78000 182.071
49.79000 179.657
49.80000 176.355
49.81000 173.649
49.82000 175.818
49.83000 179.063
49.84000 181.835
49.85000 176.465
49.86000 170.974
49.87000 167.395
49.88000 170.300
49.89000 173.736
49.90000 176.620
49.91000 178.234
49.92000 179.799
49.93000 180.754
49.94000 178.753
49.95000 177.298
49.96000 176.012
49.97000 174.898
49.98000 173.792
49.99000 173.384
50.00000 173.436
50.01000 173.488
50.02000 175.179
50.03000 177.487
50.04000 179.777
50.05000 181.828
50.06000 183.806
50.07000 185.559
50.08000 185.675
50.09000 185.465
50.10000 185.288
50.11000 181.156
50.12000 177.304
50.13000 173.972
50.14000 172.240
50.15000 170.622
50.16000 170.633
50.17000 174.050
50.18000 177.573
50.19000 179.636
50.20000 175.924
50.21000 173.281
50.22000 169.519
50.23000 164.741
50.24000 160.058
50.25000 161.489
50.26000 166.582
50.27000 171.512
50.28000 174.139
50.29000 175.739
50.30000 177.405
50.31000 179.790
50.32000 182.372
50.33000 184.312
50.34000 182.097
50.35000 179.135
50.36000 176.698
50.37000 182.454
50.38000 187.931
50.39000 192.073
50.40000 192.473
50.41000 192.650
50.42000 193.704
50.43000 196.429
50.44000 199.195
50.45000 200.744
50.46000 203.426
50.47000 205.282
50.48000 204.800
50.49000 202.405
50.50000 200.110
50.51000 202.431
50.52000 207.266
50.53000 211.910
50.54000 214.347
50.55000 215.866
50.56000 217.399
50.57000 219.065
50.58000 220.764
50.59000 221.760
50.60000 218.679
50.61000 214.941
50.62000 211.928
50.63000 215.092
50.64000 218.147
50.65000 218.768
50.66000 213.165
50.67000 207.251
50.68000 205.652
50.69000 211.520
50.70000 217.520
50.71000 220.725
50.72000 226.786
50.73000 230.895
50.74000 230.206
50.75000 225.972
50.76000 221.894
50.77000 223.310
50.78000 227.449
50.79000 231.392
50.80000 228.417
50.81000 223.504
50.82000 218.271
50.83000 210.354
50.84000 201.834
50.85000 195.328
50.86000 199.314
50.87000 204.809
50.88000 209.142
50.89000 207.585
50.90000 205.940
50.91000 205.428
50.92000 207.558
50.93000 209.796
50.94000 209.899
50.95000 206.647
50.96000 203.354
50.97000 201.684
50.98000 194.234
50.99000 189.270
51.00000 187.169
51.01000 186.987
51.02000 186.788
51.03000 186.125
51.04000 185.252
51.05000 184.428
51.06000 180.988
51.07000 177.100
51.08000 174.154
51.09000 178.188
51.10000 183.638
51.11000 187.645
51.12000 184.871
51.13000 181.231
51.14000 178.427
51.15000 174.555
51.16000 171.429
51.17000 169.860
51.18000 171.595
51.19000 173.437
51.20000 176.757
51.21000 182.181
51.22000 187.621
51.23000 188.035
51.24000 183.810
51.25000 179.579
51.26000 174.970
51.27000 170.131
51.28000 165.537
51.29000 166.378
51.30000 169.456
51.31000 172.332
51.32000 171.883
51.33000 170.638
51.34000 169.169
51.35000 166.216
51.36000 162.992
51.37000 161.005
51.38000 164.270
51.39000 168.128
51.40000 171.027
51.41000 171.024
51.42000 170.882
51.43000 169.289
51.44000 164.891
51.45000 160.423
51.46000 158.850
51.47000 161.012
51.48000 163.188
51.49000 164.298
51.50000 164.521
51.51000 164.773
51.52000 166.415
51.53000 168.825
51.54000 170.851
51.55000 165.820
51.56000 158.145
51.57000 151.053
51.58000 152.720
51.59000 156.198
51.60000 159.371
51.61000 160.751
51.62000 161.837
51.63000 162.951
51.64000 164.177
51.65000 165.414
51.66000 166.319
51.67000 172.164
51.68000 176.871
51.69000 176.882
51.70000 168.641
51.71000 160.246
51.72000 156.456
51.73000 158.029
51.74000 159.605
51.75000 161.038
51.76000 162.354
51.77000 163.588
51.78000 161.814
51.79000 158.528
51.80000 155.419
51.81000 155.033
51.82000 155.578
51.83000 156.075
51.84000 158.570
51.85000 161.190
51.86000 163.832
51.87000 166.595
51.88000 169.376
51.89000 171.295
51.90000 170.201
51.91000 168.848
51.92000 167.886
51.93000 167.350
51.94000 166.957
51.95000 167.816
51.96000 170.676
51.97000 173.563
51.98000 173.365
51.99000 169.934
52.00000 166.520
52.01000 163.773
52.02000 161.507
52.03000 159.297
52.04000 158.713
52.05000 158.873
52.06000 159.218
52.07000 162.005
52.08000 165.550
52.09000 168.744
52.10000 163.965
52.11000 158.328
52.12000 153.961
52.13000 155.655
52.14000 158.138
52.15000 159.060
52.16000 155.020
52.17000 150.612
52.18000 147.570
52.19000 147.256
52.20000 147.090
52.21000 147.882
52.22000 150.064
52.23000 152.258
52.24000 154.889
52.25000 157.932
52.26000 160.949
52.27000 162.712
52.28000 163.682
52.29000 164.437
52.30000 160.271
52.31000 154.050
52.32000 148.533
52.33000 151.037
52.34000 155.804
52.35000 160.040
52.36000 159.830
52.37000 158.932
52.38000 158.534
52.39000 160.294
52.40000 162.303
52.41000 162.490
52.42000 157.410
52.43000 151.999
52.44000 148.383
52.45000 150.741
52.46000 152.604
52.47000 156.723
52.48000 163.799
52.49000 170.874
52.50000 169.475
52.51000 160.909
52.52000 152.448
52.53000 152.300
52.54000 156.705
52.55000 160.856
52.56000 160.219
52.57000 157.760
52.58000 155.702
52.59000 157.619
52.60000 160.554
52.61000 163.123
52.62000 166.302
52.63000 169.114
52.64000 169.713
52.65000 161.652
52.66000 152.715
52.67000 147.302
52.68000 151.168
52.69000 155.526
52.70000 158.338
52.71000 157.671
52.72000 157.134
52.73000 155.723
52.74000 153.278
52.75000 150.844
52.76000 151.338
52.77000 154.067
52.78000 156.750
52.79000 154.351
52.80000 149.521
52.81000 145.148
52.82000 148.028
52.83000 153.420
52.84000 158.231
52.85000 157.991
52.86000 156.578
52.87000 155.362
52.88000 155.630
52.89000 156.045
52.90000 155.131
52.91000 149.498
52.92000 143.448
52.93000 141.300
52.94000 148.510
52.95000 156.130
52.96000 160.868
52.97000 156.123
52.98000 152.612
52.99000 151.219
53.00000 152.085
53.01000 152.954
53.02000 154.148
53.03000 155.565
53.04000 156.950
53.05000 154.459
53.06000 150.344
53.07000 146.664
53.08000 148.865
53.09000 152.920
53.10000 156.794
53.11000 159.271
53.12000 161.454
53.13000 163.302
53.14000 159.325
53.15000 155.348
53.16000 151.637
53.17000 148.780
53.18000 145.988
53.19000 147.343
53.20000 157.764
53.21000 168.504
53.22000 174.922
53.23000 162.930
53.24000 154.306
53.25000 152.577
53.26000 157.442
53.27000 162.259
53.28000 163.336
53.29000 162.066
53.30000 160.832
53.31000 160.286
53.32000 160.044
53.33000 159.847
53.34000 160.177
53.35000 160.658
53.36000 160.731
53.37000 158.015
53.38000 154.771
53.39000 152.077
53.40000 157.193
53.41000 162.183
53.42000 166.145
53.43000 167.093
53.44000 167.844
53.45000 167.243
53.46000 163.949
53.47000 160.582
53.48000 158.653
53.49000 164.432
53.50000 168.489
53.51000 167.417
53.52000 161.934
53.53000 156.488
53.54000 153.091
53.55000 150.863
53.56000 148.713
53.57000 147.801
53.58000 147.391
53.59000 147.081
53.60000 147.772
53.61000 148.723
53.62000 149.649
53.63000 150.420
53.64000 151.164
53.65000 151.770
53.66000 153.453
53.67000 154.919
53.68000 155.334
53.69000 152.938
53.70000 150.388
53.71000 148.410
53.72000 147.467
53.73000 146.546
53.74000 146.043
53.75000 145.748
53.76000 145.564
53.77000 150.106
53.78000 158.317
53.79000 166.354
53.80000 167.500
53.81000 165.072
53.82000 162.749
53.83000 161.269
53.84000 160.168
53.85000 158.955
53.86000 156.753
53.87000 154.317
53.88000 151.567
53.89000 147.092
53.90000 142.354
53.91000 138.577
53.92000 141.225
53.93000 143.828
53.94000 145.775
53.95000 146.125
53.96000 146.402
53.97000 148.366
53.98000 153.111
53.99000 157.897
54.00000 160.387
54.01000 150.843
54.02000 144.443
54.03000 144.937
54.04000 150.276
54.05000 155.482
54.06000 156.639
54.07000 155.884
54.08000 155.167
54.09000 152.993
54.10000 150.559
54.11000 148.267
54.12000 147.085
54.13000 146.141
54.14000 145.576
54.15000 146.881
54.16000 148.439
54.17000 149.653
54.18000 149.837
54.19000 149.919
54.20000 151.055
54.21000 154.530
54.22000 158.090
54.23000 160.497
54.24000 161.181
54.25000 161.848
54.26000 162.586
54.27000 163.391
54.28000 164.180
54.29000 163.542
54.30000 161.995
54.31000 160.410
54.32000 157.883
54.33000 154.949
54.34000 152.195
54.35000 151.336
54.36000 151.056
54.37000 150.825
54.38000 150.942
54.39000 151.126
54.40000 151.187
54.41000 150.699
54.42000 150.145
54.43000 149.724
54.44000 150.698
54.45000 151.537
54.46000 152.366
54.47000 153.175
54.48000 153.984
54.49000 155.410
54.50000 157.674
54.51000 159.942
54.52000 159.194
54.53000 155.814
54.54000 152.469
54.55000 151.140
54.56000 150.979
54.57000 150.791
54.58000 150.074
54.59000 149.149
54.60000 148.291
54.61000 147.502
54.62000 146.807
54.63000 145.949
54.64000 144.068
54.65000 142.012
54.66000 140.134
54.67000 138.982
54.68000 137.905
54.69000 137.107
54.70000 151.358
54.71000 163.081
54.72000 168.713
54.73000 163.137
54.74000 157.317
54.75000 151.975
54.76000 147.220
54.77000 142.475
54.78000 142.865
54.79000 147.285
54.80000 151.659
54.81000 154.145
54.82000 155.635
54.83000 156.948
54.84000 155.266
54.85000 152.515
54.86000 149.989
54.87000 150.880
54.88000 152.406
54.89000 153.236
54.90000 150.188
54.91000 146.540
54.92000 143.724
54.93000 143.953
54.94000 144.463
54.95000 144.831
54.96000 151.194
54.97000 156.284
54.98000 159.828
54.99000 160.781
55.00000 161.695
55.01000 159.030
55.02000 152.416
55.03000 145.825
55.04000 146.539
55.05000 152.410
55.06000 158.079
55.07000 157.300
55.08000 153.428
55.09000 149.952
55.10000 152.108
55.11000 156.094
55.12000 159.709
55.13000 155.291
55.14000 149.858
55.15000 146.187
55.16000 151.372
55.17000 157.779
55.18000 162.940
55.19000 163.955
55.20000 164.639
55.21000 165.118
55.22000 162.178
55.23000 159.856
55.24000 158.404
55.25000 158.270
55.26000 158.151
55.27000 158.074
55.28000 158.040
55.29000 158.005
55.30000 158.127
55.31000 158.345
55.32000 158.651
55.33000 161.181
55.34000 164.683
55.35000 167.881
55.36000 167.369
55.37000 165.761
55.38000 164.322
55.39000 170.361
55.40000 176.905
55.41000 181.909
55.42000 179.935
55.43000 177.108
55.44000 175.983
55.45000 180.012
55.46000 184.394
55.47000 187.368
55.48000 185.327
55.49000 183.692
55.50000 184.909
55.51000 190.054
55.52000 195.223
55.53000 199.810
55.54000 203.881
55.55000 207.909
55.56000 211.184
55.57000 213.953
55.58000 217.024
55.59000 226.342
55.60000 238.148
55.61000 249.107
55.62000 251.107
55.63000 250.701
55.64000 250.343
55.65000 259.359
55.66000 268.554
55.67000 277.229
55.68000 283.771
55.69000 290.083
55.70000 298.323
55.71000 311.877
55.72000 325.737
55.73000 334.836
55.74000 339.058
55.75000 342.083
55.76000 346.062
55.77000 351.228
55.78000 356.409
55.79000 365.281
55.80000 377.114
55.81000 388.773
55.82000 389.991
55.83000 385.754
55.84000 382.016
55.85000 386.873
55.86000 394.847
55.87000 402.513
55.88000 407.332
55.89000 411.458
55.90000 415.039
55.91000 425.309
55.92000 434.958
55.93000 441.043
55.94000 433.870
55.95000 425.447
55.96000 417.203
55.97000 409.410
55.98000 401.639
55.99000 396.717
56.00000 396.009
56.01000 395.545
56.02000 393.412
56.03000 389.405
56.04000 385.408
56.05000 383.265
56.06000 382.466
56.07000 381.684
56.08000 374.025
56.09000 363.433
56.10000 352.878
56.11000 342.863
56.12000 333.025
56.13000 323.182
56.14000 313.295
56.15000 303.399
56.16000 294.952
56.17000 299.230
56.18000 304.339
56.19000 305.709
56.20000 294.451
56.21000 282.160
56.22000 273.089
56.23000 271.381
56.24000 269.961
56.25000 269.096
56.26000 259.124
56.27000 251.925
56.28000 246.534
56.29000 242.965
56.30000 239.311
56.31000 227.439
56.32000 210.165
56.33000 193.332
56.34000 193.136
56.35000 199.986
56.36000 206.667
56.37000 211.229
56.38000 215.155
56.39000 217.436
56.40000 207.805
56.41000 195.805
56.42000 185.747
56.43000 179.478
56.44000 174.656
56.45000 171.500
56.46000 173.461
56.47000 175.781
56.48000 177.742
56.49000 178.954
56.50000 180.142
56.51000 180.837
56.52000 169.684
56.53000 161.779
56.54000 157.044
56.55000 155.180
56.56000 153.363
56.57000 154.609
56.58000 157.684
56.59000 160.660
56.60000 164.587
56.61000 168.661
56.62000 172.004
56.63000 167.425
56.64000 160.685
56.65000 155.252
56.66000 158.254
56.67000 162.765
56.68000 166.474
56.69000 163.948
56.70000 161.309
56.71000 159.611
56.72000 160.551
56.73000 161.648
56.74000 161.470
56.75000 158.877
56.76000 156.226
56.77000 154.742
56.78000 149.961
56.79000 146.652
56.80000 147.640
56.81000 152.134
56.82000 156.519
56.83000 155.897
56.84000 152.556
56.85000 149.346
56.86000 147.038
56.87000 145.188
56.88000 143.926
56.89000 148.231
56.90000 153.912
56.91000 158.072
56.92000 153.433
56.93000 147.383
56.94000 142.509
56.95000 140.194
56.96000 138.515
56.97000 138.905
56.98000 144.567
56.99000 150.490
57.00000 153.064
57.01000 149.861
57.02000 146.557
57.03000 144.794
57.04000 144.851
57.05000 144.892
57.06000 145.136
57.07000 145.530
57.08000 145.896
57.09000 145.277
57.10000 144.172
57.11000 143.120
57.12000 138.924
57.13000 134.062
57.14000 129.907
57.15000 131.645
57.16000 134.703
57.17000 137.281
57.18000 137.372
57.19000 137.106
57.20000 136.897
57.21000 141.655
57.22000 145.804
57.23000 149.938
57.24000 154.041
57.25000 158.142
57.26000 156.972
57.27000 147.539
57.28000 138.006
57.29000 133.178
57.30000 138.414
57.31000 141.866
57.32000 139.687
57.33000 133.747
57.34000 128.159
57.35000 132.202
57.36000 140.580
57.37000 148.485
57.38000 151.047
57.39000 151.902
57.40000 151.911
57.41000 145.680
57.42000 138.187
57.43000 132.851
57.44000 137.618
57.45000 143.671
57.46000 148.331
57.47000 146.101
57.48000 143.943
57.49000 143.066
57.50000 144.900
57.51000 146.821
57.52000 145.629
57.53000 140.008
57.54000 134.356
57.55000 133.600
57.56000 137.351
57.57000 141.065
57.58000 142.287
57.59000 141.998
57.60000 141.735
57.61000 142.048
57.62000 142.599
57.63000 143.113
57.64000 143.593
57.65000 144.020
57.66000 144.437
57.67000 144.787
57.68000 145.124
57.69000 145.275
57.70000 144.635
57.71000 143.906
57.72000 143.359
57.73000 140.405
57.74000 137.982
57.75000 137.187
57.76000 139.526
57.77000 141.943
57.78000 144.534
57.79000 147.349
57.80000 150.161
57.81000 147.830
57.82000 141.255
57.83000 134.794
57.84000 133.846
57.85000 135.938
57.86000 137.956
57.87000 138.628
57.88000 138.797
57.89000 138.953
57.90000 137.769
57.91000 136.406
57.92000 135.404
57.93000 136.527
57.94000 137.998
57.95000 138.952
57.96000 137.928
57.97000 136.708
57.98000 135.816
57.99000 141.524
58.00000 146.186
58.01000 148.089
58.02000 145.154
58.03000 142.129
58.04000 140.893
58.05000 141.733
58.06000 142.574
58.07000 141.759
58.08000 139.717
58.09000 137.725
58.10000 137.510
58.11000 138.187
58.12000 138.769
58.13000 137.895
58.14000 136.525
58.15000 135.275
58.16000 138.940
58.17000 143.184
58.18000 145.626
58.19000 138.551
58.20000 130.088
58.21000 123.230
58.22000 121.965
58.23000 121.179
58.24000 120.621
58.25000 135.280
58.26000 146.925
58.27000 151.463
58.28000 144.684
58.29000 137.759
58.30000 134.124
58.31000 133.926
58.32000 133.730
58.33000 135.598
58.34000 138.825
58.35000 141.939
58.36000 141.820
58.37000 140.223
58.38000 138.719
58.39000 138.435
58.40000 138.530
58.41000 138.614
58.42000 137.896
58.43000 137.121
58.44000 135.854
58.45000 132.243
58.46000 128.327
58.47000 126.836
58.48000 133.029
58.49000 139.790
58.50000 144.450
58.51000 146.004
58.52000 147.092
58.53000 146.313
58.54000 142.837
58.55000 139.340
58.56000 138.269
58.57000 139.472
58.58000 140.665
58.59000 137.322
58.60000 131.299
58.61000 125.569
58.62000 126.499
58.63000 130.203
58.64000 133.177
58.65000 127.887
58.66000 120.272
58.67000 113.509
58.68000 118.583
58.69000 124.883
58.70000 130.766
58.71000 134.856
58.72000 138.740
58.73000 140.378
58.74000 135.538
58.75000 130.291
58.76000 126.790
58.77000 132.270
58.78000 136.504
58.79000 138.132
58.80000 136.352
58.81000 134.561
58.82000 134.760
58.83000 136.636
58.84000 138.489
58.85000 137.592
58.86000 135.219
58.87000 132.948
58.88000 132.609
58.89000 133.003
58.90000 133.294
58.91000 132.574
58.92000 131.596
58.93000 130.740
58.94000 133.320
58.95000 136.020
58.96000 137.384
58.97000 133.542
58.98000 129.176
58.99000 126.671
59.00000 129.055
59.01000 131.697
59.02000 133.401
59.03000 130.449
59.04000 128.227
59.05000 129.035
59.06000 133.421
59.07000 137.801
59.08000 139.434
59.09000 138.976
59.10000 138.525
59.11000 136.155
59.12000 132.921
59.13000 129.779
59.14000 128.106
59.15000 126.941
59.16000 125.962
59.17000 126.590
59.18000 127.591
59.19000 128.452
59.20000 133.089
59.21000 137.491
59.22000 141.163
59.23000 142.250
59.24000 143.111
59.25000 142.665
59.26000 139.091
59.27000 135.382
59.28000 133.078
59.29000 131.963
59.30000 131.173
59.31000 129.421
59.32000 126.648
59.33000 123.910
59.34000 125.352
59.35000 129.676
59.36000 133.902
59.37000 134.144
59.38000 132.606
59.39000 131.376
59.40000 134.295
59.41000 138.519
59.42000 141.771
59.43000 137.572
59.44000 131.817
59.45000 126.949
59.46000 127.678
59.47000 128.907
59.48000 131.200
59.49000 136.912
59.50000 142.882
59.51000 145.723
59.52000 141.741
59.53000 137.520
59.54000 135.001
59.55000 136.375
59.56000 137.373
59.57000 137.470
59.58000 136.709
59.59000 135.954
59.60000 135.596
59.61000 135.487
59.62000 135.381
59.63000 133.382
59.64000 130.723
59.65000 128.253
59.66000 127.971
59.67000 128.314
59.68000 128.904
59.69000 131.174
59.70000 133.761
59.71000 135.909
59.72000 134.145
59.73000 132.309
59.74000 131.008
59.75000 131.275
59.76000 131.642
59.77000 131.414
59.78000 130.006
59.79000 128.565
59.80000 127.742
59.81000 127.023
59.82000 126.524
59.83000 128.097
59.84000 131.445
59.85000 134.729
59.86000 134.544
59.87000 132.387
59.88000 130.308
59.89000 130.256
59.90000 130.942
59.91000 131.523
59.92000 131.046
59.93000 130.295
59.94000 129.058
59.95000 124.867
59.96000 120.176
59.97000 116.359
59.98000 117.769
59.99000 119.360
60.00000 122.630
60.01000 130.380
60.02000 138.373
60.03000 142.280
60.04000 138.804
60.05000 135.177
60.06000 133.197
60.07000 134.109
60.08000 134.734
60.09000 134.072
60.10000 132.414
60.11000 130.783
60.12000 130.219
60.13000 130.207
60.14000 130.195
60.15000 127.602
60.16000 124.346
60.17000 121.710
60.18000 124.568
60.19000 128.718
60.20000 131.842
60.21000 129.352
60.22000 126.013
60.23000 123.352
60.24000 123.049
60.25000 122.975
60.26000 123.305
60.27000 124.615
60.28000 125.970
60.29000 126.934
60.30000 127.255
60.31000 127.567
60.32000 127.730
60.33000 128.483
60.34000 129.001
60.35000 130.568
60.36000 132.871
60.37000 135.100
60.38000 135.043
60.39000 133.910
60.40000 132.836
60.41000 134.124
60.42000 136.006
60.43000 137.643
60.44000 137.366
60.45000 136.682
60.46000 135.656
60.47000 132.945
60.48000 130.007
60.49000 127.719
60.50000 130.491
60.51000 133.011
60.52000 133.753
60.53000 130.561
60.54000 127.225
60.55000 128.059
60.56000 135.110
60.57000 142.220
60.58000 144.617
60.59000 142.441
60.60000 140.248
60.61000 136.601
60.62000 132.030
60.63000 127.656
60.64000 128.094
60.65000 130.596
60.66000 132.945
60.67000 133.439
60.68000 133.398
60.69000 133.057
60.70000 130.624
60.71000 127.791
60.72000 125.361
60.73000 124.725
60.74000 124.304
60.75000 123.983
60.76000 125.904
60.77000 127.532
60.78000 128.371
60.79000 127.618
60.80000 126.821
60.81000 128.197
60.82000 132.509
60.83000 136.835
60.84000 136.264
60.85000 131.432
60.86000 126.664
60.87000 125.562
60.88000 126.576
60.89000 127.577
60.90000 128.348
60.91000 129.028
60.92000 129.659
60.93000 130.685
60.94000 131.703
60.95000 132.245
60.96000 129.829
60.97000 126.903
60.98000 125.908
60.99000 132.688
61.00000 140.285
61.01000 145.913
61.02000 138.122
61.03000 131.492
61.04000 126.032
61.05000 122.719
61.06000 119.452
61.07000 119.705
61.08000 124.254
61.09000 128.806
61.10000 132.090
61.11000 134.367
61.12000 136.597
61.13000 136.883
61.14000 136.148
61.15000 135.436
61.16000 135.104
61.17000 134.908
61.18000 134.727
61.19000 136.193
61.20000 137.850
61.21000 139.229
61.22000 139.056
61.23000 138.645
61.24000 138.904
61.25000 141.614
61.26000 144.548
61.27000 146.663
61.28000 138.039
61.29000 131.050
61.30000 128.459
61.31000 133.207
61.32000 138.067
61.33000 140.641
61.34000 140.699
61.35000 140.755
61.36000 139.934
61.37000 138.504
61.38000 137.088
61.39000 136.160
61.40000 135.466
61.41000 134.906
61.42000 136.239
61.43000 138.185
61.44000 139.950
61.45000 145.399
61.46000 150.907
61.47000 155.487
61.48000 155.425
61.49000 154.725
61.50000 155.085
61.51000 158.961
61.52000 163.117
61.53000 166.025
61.54000 185.401
61.55000 200.517
61.56000 211.867
61.57000 217.512
61.58000 223.099
61.59000 233.249
61.60000 247.906
61.61000 262.462
61.62000 265.753
61.63000 261.835
61.64000 258.242
61.65000 262.841
61.66000 271.008
61.67000 278.749
61.68000 281.303
61.69000 282.328
61.70000 283.244
61.71000 285.289
61.72000 287.263
61.73000 287.674
61.74000 281.020
61.75000 273.505
61.76000 265.753
61.77000 257.288
61.78000 248.775
61.79000 243.002
61.80000 221.861
61.81000 205.755
61.82000 191.398
61.83000 179.441
61.84000 167.502
61.85000 159.893
61.86000 156.124
61.87000 152.394
61.88000 149.674
61.89000 147.592
61.90000 145.499
61.91000 143.151
61.92000 140.703
61.93000 138.460
61.94000 138.383
61.95000 138.886
61.96000 139.330
61.97000 140.328
61.98000 141.273
61.99000 141.547
62.00000 139.082
62.01000 136.322
62.02000 135.415
62.03000 139.598
62.04000 144.073
62.05000 147.007
62.06000 144.451
62.07000 142.480
62.08000 141.940
62.09000 143.176
62.10000 144.412
62.11000 144.027
62.12000 142.346
62.13000 140.690
62.14000 138.595
62.15000 136.335
62.16000 134.223
62.17000 134.668
62.18000 136.036
62.19000 137.220
62.20000 136.708
62.21000 135.784
62.22000 134.982
62.23000 133.049
62.24000 131.251
62.25000 131.136
62.26000 137.262
62.27000 143.974
62.28000 147.000
62.29000 140.796
62.30000 134.152
62.31000 129.949
62.32000 130.193
62.33000 130.423
62.34000 131.698
62.35000 134.142
62.36000 136.582
62.37000 138.409
62.38000 139.791
62.39000 141.146
62.40000 140.743
62.41000 139.535
62.42000 138.578
62.43000 141.269
62.44000 145.160
62.45000 148.282
62.46000 145.143
62.47000 140.627
62.48000 136.776
62.49000 135.178
62.50000 134.100
62.51000 132.944
62.52000 131.532
62.53000 130.099
62.54000 130.624
62.55000 135.616
62.56000 140.782
62.57000 143.926
62.58000 147.651
62.59000 150.316
62.60000 149.875
62.61000 146.313
62.62000 142.788
62.63000 142.659
62.64000 144.758
62.65000 146.803
62.66000 147.084
62.67000 146.608
62.68000 146.067
62.69000 144.720
62.70000 143.133
62.71000 141.222
62.72000 136.983
62.73000 132.281
62.74000 128.342
62.75000 129.931
62.76000 131.824
62.77000 134.014
62.78000 137.110
62.79000 140.271
62.80000 142.883
62.81000 144.357
62.82000 145.796
62.83000 146.636
62.84000 148.525
62.85000 149.857
62.86000 148.847
62.87000 145.724
62.88000 142.634
62.89000 141.706
62.90000 142.065
62.91000 142.411
62.92000 141.885
62.93000 141.056
62.94000 140.569
62.95000 143.786
62.96000 148.009
62.97000 151.360
62.98000 149.095
62.99000 145.829
63.00000 143.144
63.01000 143.354
63.02000 143.786
63.03000 143.271
63.04000 140.111
63.05000 136.795
63.06000 136.355
63.07000 141.356
63.08000 146.486
63.09000 149.352
63.10000 147.664
63.11000 146.489
63.12000 146.526
63.13000 147.551
63.14000 148.562
63.15000 148.927
63.16000 148.944
63.17000 148.959
63.18000 148.189
63.19000 147.198
63.20000 146.247
63.21000 145.672
63.22000 145.190
63.23000 145.002
63.24000 146.511
63.25000 148.291
63.26000 149.724
63.27000 146.318
63.28000 143.178
63.29000 141.982
63.30000 145.728
63.31000 149.718
63.32000 151.350
63.33000 148.927
63.34000 146.434
63.35000 145.106
63.36000 141.553
63.37000 139.155
63.38000 140.648
63.39000 145.000
63.40000 149.242
63.41000 149.716
63.42000 148.332
63.43000 147.014
63.44000 147.062
63.45000 147.529
63.46000 147.646
63.47000 144.850
63.48000 141.405
63.49000 138.940
63.50000 141.557
63.51000 144.899
63.52000 147.531
63.53000 145.326
63.54000 143.236
63.55000 143.754
63.56000 150.309
63.57000 157.109
63.58000 156.837
63.59000 145.514
63.60000 134.059
63.61000 128.267
63.62000 138.357
63.63000 145.082
63.64000 149.002
63.65000 151.056
63.66000 152.946
63.67000 150.419
63.68000 145.909
63.69000 141.655
63.70000 144.662
63.71000 149.442
63.72000 153.591
63.73000 153.110
63.74000 151.696
63.75000 150.578
63.76000 150.846
63.77000 151.290
63.78000 151.632
63.79000 147.091
63.80000 143.222
63.81000 141.614
63.82000 144.777
63.83000 148.093
63.84000 149.566
63.85000 148.427
63.86000 147.268
63.87000 150.356
63.88000 157.337
63.89000 164.170
63.90000 161.115
63.91000 152.081
63.92000 143.339
63.93000 141.023
63.94000 141.335
63.95000 141.626
63.96000 148.451
63.97000 156.275
63.98000 162.723
63.99000 160.152
64.00000 155.945
64.01000 151.903
64.02000 148.559
64.03000 145.294
64.04000 142.845
64.05000 145.528
64.06000 147.868
64.07000 151.253
64.08000 156.644
64.09000 162.084
64.10000 163.259
64.11000 158.962
64.12000 154.650
64.13000 152.572
64.14000 152.342
64.15000 152.194
64.16000 155.964
64.17000 161.887
64.18000 167.300
64.19000 163.413
64.20000 156.061
64.21000 149.273
64.22000 152.514
64.23000 157.674
64.24000 162.064
64.25000 161.941
64.26000 161.084
64.27000 160.975
64.28000 163.730
64.29000 166.766
64.30000 168.984
64.31000 162.035
64.32000 156.318
64.33000 153.667
64.34000 156.372
64.35000 159.176
64.36000 160.799
64.37000 161.056
64.38000 161.310
64.39000 163.902
64.40000 168.209
64.41000 172.483
64.42000 175.624
64.43000 178.197
64.44000 180.406
64.45000 177.036
64.46000 171.774
64.47000 166.974
64.48000 167.245
64.49000 168.506
64.50000 168.826
64.51000 164.193
64.52000 158.840
64.53000 155.043
64.54000 156.655
64.55000 158.728
64.56000 160.201
64.57000 172.019
64.58000 181.341
64.59000 185.578
64.60000 181.744
64.61000 177.808
64.62000 174.183
64.63000 170.884
64.64000 167.602
64.65000 168.717
64.66000 172.755
64.67000 176.805
64.68000 181.178
64.69000 185.698
64.70000 189.669
64.71000 186.450
64.72000 181.013
64.73000 176.118
64.74000 176.847
64.75000 178.496
64.76000 179.431
64.77000 176.974
64.78000 174.077
64.79000 172.673
64.80000 175.984
64.81000 179.641
64.82000 182.160
64.83000 184.826
64.84000 186.831
64.85000 187.984
64.86000 187.909
64.87000 187.825
64.88000 188.360
64.89000 189.474
64.90000 190.579
64.91000 192.099
64.92000 193.840
64.93000 195.389
64.94000 192.568
64.95000 187.933
64.96000 183.520
64.97000 181.620
64.98000 180.425
64.99000 179.363
65.00000 179.866
65.01000 180.552
65.02000 182.990
65.03000 192.950
65.04000 203.770
65.05000 210.677
65.06000 206.331
65.07000 201.283
65.08000 197.917
65.09000 199.496
65.10000 200.760
65.11000 202.759
65.12000 205.714
65.13000 208.675
65.14000 211.805
65.15000 215.080
65.16000 218.313
65.17000 220.574
65.18000 222.249
65.19000 224.077
65.20000 228.788
65.21000 234.589
65.22000 240.229
65.23000 244.292
65.24000 247.954
65.25000 251.155
65.26000 255.161
65.27000 258.707
65.28000 260.108
65.29000 253.169
65.30000 245.392
65.31000 241.521
65.32000 247.874
65.33000 254.764
65.34000 259.200
65.35000 260.429
65.36000 261.281
65.37000 262.303
65.38000 263.524
65.39000 264.759
65.40000 268.853
65.41000 275.117
65.42000 281.273
65.43000 285.427
65.44000 288.458
65.45000 291.455
65.46000 293.918
65.47000 296.197
65.48000 298.363
65.49000 299.542
65.50000 300.494
65.51000 301.313
65.52000 309.235
65.53000 316.833
65.54000 322.726
65.55000 322.603
65.56000 321.954
65.57000 324.684
65.58000 335.475
65.59000 346.614
65.60000 353.525
65.61000 359.754
65.62000 364.229
65.63000 372.971
65.64000 386.232
65.65000 399.524
65.66000 416.469
65.67000 435.926
65.68000 454.937
65.69000 494.190
65.70000 540.759
65.71000 587.709
65.72000 639.778
65.73000 693.452
65.74000 746.834
65.75000 797.989
65.76000 848.680
65.77000 891.528
65.78000 967.023
65.79000 1033.773
65.80000 1091.931
65.81000 1122.530
65.82000 1151.052
65.83000 1170.542
65.84000 1170.399
65.85000 1169.574
65.86000 1169.082
65.87000 1183.585
65.88000 1193.955
65.89000 1194.265
65.90000 1185.017
65.91000 1175.495
65.92000 1145.318
65.93000 1102.257
65.94000 1060.449
65.95000 995.668
65.96000 924.992
65.97000 855.969
65.98000 806.020
65.99000 761.508
66.00000 714.498
66.01000 650.522
66.02000 583.359
66.03000 527.636
66.04000 486.543
66.05000 453.995
66.06000 424.355
66.07000 403.206
66.08000 382.603
66.09000 368.027
66.10000 365.382
66.11000 363.060
66.12000 361.733
66.13000 343.409
66.14000 330.574
66.15000 323.950
66.16000 322.636
66.17000 321.316
66.18000 319.671
66.19000 317.844
66.20000 316.082
66.21000 323.167
66.22000 333.020
66.23000 342.259
66.24000 345.327
66.25000 346.798
66.26000 350.149
66.27000 364.917
66.28000 381.610
66.29000 395.186
66.30000 405.844
66.31000 414.300
66.32000 424.426
66.33000 438.993
66.34000 453.798
66.35000 463.274
66.36000 463.145
66.37000 462.822
66.38000 462.645
66.39000 473.122
66.40000 480.306
66.41000 481.874
66.42000 479.109
66.43000 476.536
66.44000 481.540
66.45000 490.452
66.46000 498.973
66.47000 487.874
66.48000 471.159
66.49000 455.613
66.50000 450.374
66.51000 447.551
66.52000 442.678
66.53000 426.632
66.54000 408.899
66.55000 394.782
66.56000 377.824
66.57000 363.946
66.58000 352.416
66.59000 346.567
66.60000 340.973
66.61000 338.024
66.62000 339.411
66.63000 340.860
66.64000 341.612
66.65000 334.983
66.66000 330.522
66.67000 327.893
66.68000 326.545
66.69000 325.263
66.70000 326.000
66.71000 327.685
66.72000 329.282
66.73000 330.550
66.74000 331.621
66.75000 332.668
66.76000 333.525
66.77000 334.342
66.78000 334.894
66.79000 334.142
66.80000 333.214
66.81000 332.492
66.82000 336.134
66.83000 339.302
66.84000 343.372
66.85000 349.434
66.86000 355.567
66.87000 357.100
66.88000 351.793
66.89000 346.422
66.90000 342.827
66.91000 340.951
66.92000 339.129
66.93000 341.664
66.94000 346.959
66.95000 352.159
66.96000 355.037
66.97000 356.921
66.98000 358.690
66.99000 363.139
67.00000 367.900
67.01000 372.696
67.02000 377.736
67.03000 382.822
67.04000 385.997
67.05000 380.699
67.06000 374.393
67.07000 369.602
67.08000 369.146
67.09000 369.013
67.10000 370.290
67.11000 374.401
67.12000 378.592
67.13000 382.182
67.14000 384.963
67.15000 387.738
67.16000 382.539
67.17000 370.430
67.18000 358.585
67.19000 361.470
67.20000 372.832
67.21000 383.682
67.22000 384.336
67.23000 381.015
67.24000 377.933
67.25000 380.853
67.26000 384.908
67.27000 388.646
67.28000 390.420
67.29000 391.857
67.30000 394.177
67.31000 400.044
67.32000 406.281
67.33000 410.898
67.34000 414.167
67.35000 416.646
67.36000 417.715
67.37000 416.205
67.38000 414.640
67.39000 416.088
67.40000 421.200
67.41000 426.311
67.42000 428.383
67.43000 428.072
67.44000 427.796
67.45000 428.938
67.46000 430.823
67.47000 432.799
67.48000 436.294
67.49000 440.328
67.50000 444.029
67.51000 447.384
67.52000 450.302
67.53000 451.960
67.54000 446.630
67.55000 440.226
67.56000 437.183
67.57000 446.382
67.58000 456.701
67.59000 464.130
67.60000 456.221
67.61000 449.624
67.62000 448.862
67.63000 457.808
67.64000 466.903
67.65000 473.033
67.66000 475.911
67.67000 478.776
67.68000 481.189
67.69000 483.261
67.70000 485.129
67.71000 480.582
67.72000 472.976
67.73000 466.620
67.74000 477.872
67.75000 494.814
67.76000 510.166
67.77000 504.915
67.78000 496.372
67.79000 490.245
67.80000 496.182
67.81000 503.771
67.82000 508.956
67.83000 506.188
67.84000 502.790
67.85000 500.414
67.86000 513.273
67.87000 523.419
67.88000 525.825
67.89000 516.540
67.90000 507.137
67.91000 509.522
67.92000 523.507
67.93000 537.394
67.94000 543.245
67.95000 543.914
67.96000 544.766
67.97000 550.222
67.98000 557.678
67.99000 564.630
68.00000 565.481
68.01000 564.539
68.02000 563.698
68.03000 561.749
68.04000 559.864
68.05000 558.569
68.06000 559.939
68.07000 561.632
68.08000 568.787
68.09000 592.379
68.10000 617.085
68.11000 633.823
68.12000 613.218
68.13000 597.039
68.14000 590.102
68.15000 595.814
68.16000 601.601
68.17000 606.696
68.18000 611.179
68.19000 615.614
68.20000 620.516
68.21000 625.575
68.22000 630.473
68.23000 632.080
68.24000 632.385
68.25000 632.817
68.26000 634.588
68.27000 636.717
68.28000 638.592
68.29000 648.632
68.30000 658.512
68.31000 667.557
68.32000 673.203
68.33000 678.485
68.34000 686.477
68.35000 701.893
68.36000 717.735
68.37000 728.112
68.38000 731.649
68.39000 734.137
68.40000 735.671
68.41000 736.024
68.42000 736.384
68.43000 740.245
68.44000 746.897
68.45000 753.449
68.46000 765.339
68.47000 779.626
68.48000 793.528
68.49000 800.860
68.50000 805.824
68.51000 812.232
68.52000 831.906
68.53000 854.791
68.54000 874.635
68.55000 883.460
68.56000 889.505
68.57000 902.577
68.58000 941.636
68.59000 983.125
68.60000 1026.922
68.61000 1076.480
68.62000 1126.311
68.63000 1157.799
68.64000 1214.793
68.65000 1256.392
68.66000 1309.658
68.67000 1375.937
68.68000 1442.232
68.69000 1509.359
68.70000 1577.086
68.71000 1643.452
68.72000 1698.592
68.73000 1746.406
68.74000 1795.288
68.75000 1859.602
68.76000 1928.979
68.77000 1999.222
68.78000 2076.473
68.79000 2155.259
68.80000 2222.432
68.81000 2311.398
68.82000 2388.809
68.83000 2476.635
68.84000 2599.444
68.85000 2725.089
68.86000 2893.140
68.87000 3157.627
68.88000 3425.843
68.89000 3588.918
68.90000 4327.958
68.91000 4860.120
68.92000 5892.204
68.93000 7425.009
68.94000 8969.368
68.95000 11586.580
68.96000 14905.036
68.97000 18137.301
68.98000 22752.232
68.99000 27733.352
69.00000 32701.031
69.01000 37502.156
69.02000 42253.566
69.03000 46844.574
69.04000 50282.633
69.05000 53492.840
69.06000 56180.828
69.07000 57662.063
69.08000 58769.125
69.09000 59658.898
69.10000 59884.719
69.11000 60064.402
69.12000 60373.988
69.13000 60952.688
69.14000 61539.637
69.15000 61882.020
69.16000 62959.957
69.17000 63720.773
69.18000 63690.629
69.19000 62949.125
69.20000 62184.332
69.21000 59967.664
69.22000 56889.168
69.23000 53911.035
69.24000 50705.473
69.25000 47591.629
69.26000 44508.887
69.27000 41760.047
69.28000 39101.758
69.29000 36577.703
69.30000 34914.086
69.31000 33403.449
69.32000 32162.762
69.33000 31257.652
69.34000 30544.479
69.35000 29804.301
69.36000 28989.010
69.37000 28169.301
69.38000 27017.500
69.39000 25239.355
69.40000 23446.506
69.41000 22446.250
69.42000 18733.930
69.43000 16159.360
69.44000 13833.586
69.45000 11709.474
69.46000 9595.562
69.47000 7940.973
69.48000 6534.341
69.49000 5183.950
69.50000 4279.963
69.51000 3587.304
69.52000 2927.574
69.53000 2576.891
69.54000 2302.212
69.55000 2047.314
69.56000 1905.977
69.57000 1782.738
69.58000 1683.589
69.59000 1602.042
69.60000 1537.262
69.61000 1469.577
69.62000 1394.528
69.63000 1319.119
69.64000 1259.978
69.65000 1228.749
69.66000 1197.998
69.67000 1181.647
69.68000 1137.976
69.69000 1108.262
69.70000 1083.475
69.71000 1062.299
69.72000 1041.036
69.73000 1016.794
69.74000 991.088
69.75000 966.619
69.76000 948.627
69.77000 933.969
69.78000 918.604
69.79000 897.392
69.80000 874.879
69.81000 853.191
69.82000 835.762
69.83000 818.938
69.84000 805.698
69.85000 807.935
69.86000 810.755
69.87000 808.384
69.88000 794.025
69.89000 779.186
69.90000 761.558
69.91000 739.582
69.92000 717.555
69.93000 706.435
69.94000 698.154
69.95000 692.634
69.96000 688.969
69.97000 686.535
69.98000 683.993
69.99000 678.557
70.00000 671.825
