20.00000 550.790
20.01000 563.797
20.02000 578.663
20.03000 588.264
20.04000 577.297
20.05000 564.252
20.06000 554.666
20.07000 550.491
20.08000 547.484
20.09000 550.665
20.10000 564.877
20.11000 579.306
20.12000 584.285
20.13000 578.081
20.14000 571.874
20.15000 563.895
20.16000 554.624
20.17000 545.637
20.18000 547.464
20.19000 554.812
20.20000 561.931
20.21000 565.415
20.22000 567.641
20.23000 569.677
20.24000 563.844
20.25000 557.037
20.26000 551.234
20.27000 550.836
20.28000 551.244
20.29000 551.255
20.30000 549.862
20.31000 548.346
20.32000 547.263
20.33000 552.336
20.34000 556.412
20.35000 558.493
20.36000 557.340
20.37000 556.142
20.38000 550.672
20.39000 540.651
20.40000 530.678
20.41000 529.903
20.42000 535.419
20.43000 540.912
20.44000 545.734
20.45000 550.244
20.46000 554.670
20.47000 557.953
20.48000 560.876
20.49000 563.516
20.50000 550.146
20.51000 535.448
20.52000 524.268
20.53000 530.161
20.54000 538.318
20.55000 544.116
20.56000 542.310
20.57000 539.926
20.58000 538.274
20.59000 535.125
20.60000 532.714
20.61000 533.684
20.62000 539.624
20.63000 545.608
20.64000 549.313
20.65000 550.841
20.66000 552.356
20.67000 553.274
20.68000 553.809
20.69000 554.309
20.70000 554.004
20.71000 553.356
20.72000 552.364
20.73000 547.360
20.74000 541.206
20.75000 535.727
20.76000 537.640
20.77000 540.515
20.78000 542.685
20.79000 541.765
20.80000 540.483
20.81000 541.457
20.82000 549.052
20.83000 557.076
20.84000 562.463
20.85000 564.269
20.86000 565.536
20.87000 560.766
20.88000 547.954
20.89000 535.117
20.90000 532.864
20.91000 539.706
20.92000 546.468
20.93000 548.536
20.94000 547.946
20.95000 547.436
20.96000 548.494
20.97000 550.158
20.98000 551.172
20.99000 545.611
21.00000 538.341
21.01000 531.964
21.02000 539.927
21.03000 548.855
21.04000 554.667
21.05000 548.110
21.06000 540.277
21.07000 535.288
21.08000 537.896
21.09000 540.918
21.10000 542.878
21.11000 537.292
21.12000 533.088
21.13000 531.501
21.14000 533.065
21.15000 534.652
21.16000 540.686
21.17000 550.167
21.18000 559.494
21.19000 565.705
21.20000 570.155
21.21000 573.999
21.22000 567.971
21.23000 558.474
21.24000 549.865
21.25000 549.145
21.26000 550.284
21.27000 551.267
21.28000 543.979
21.29000 536.729
21.30000 531.313
21.31000 532.502
21.32000 534.285
21.33000 536.330
21.34000 539.012
21.35000 541.724
21.36000 543.419
21.37000 545.607
21.38000 547.191
21.39000 550.414
21.40000 555.412
21.41000 560.412
21.42000 565.628
21.43000 570.994
21.44000 576.245
21.45000 572.019
21.46000 563.671
21.47000 555.799
21.48000 554.523
21.49000 555.356
21.50000 555.778
21.51000 552.974
21.52000 549.482
21.53000 546.520
21.54000 553.213
21.55000 559.921
21.56000 562.866
21.57000 553.492
21.58000 543.161
21.59000 535.131
21.60000 532.205
21.61000 529.464
21.62000 527.816
21.63000 554.522
21.64000 573.706
21.65000 584.705
21.66000 587.747
21.67000 590.772
21.68000 592.337
21.69000 592.974
21.70000 593.594
21.71000 603.401
21.72000 616.484
21.73000 628.328
21.74000 625.415
21.75000 618.211
21.76000 612.052
21.77000 613.173
21.78000 615.692
21.79000 617.790
21.80000 621.006
21.81000 623.782
21.82000 627.735
21.83000 635.195
21.84000 642.888
21.85000 657.079
21.86000 684.393
21.87000 712.083
21.88000 728.046
21.89000 740.412
21.90000 749.050
21.91000 751.764
21.92000 749.302
21.93000 747.035
21.94000 755.882
21.95000 771.157
21.96000 785.904
21.97000 789.529
21.98000 788.839
21.99000 788.789
22.00000 795.349
22.01000 803.656
22.02000 810.925
22.03000 811.740
22.04000 811.442
22.05000 811.198
22.06000 812.831
22.07000 814.329
22.08000 814.974
22.09000 813.301
22.10000 811.499
22.11000 807.537
22.12000 799.606
22.13000 791.589
22.14000 787.172
22.15000 771.667
22.16000 760.973
22.17000 752.336
22.18000 745.321
22.19000 738.234
22.20000 728.089
22.21000 716.335
22.22000 705.076
22.23000 702.589
22.24000 703.188
22.25000 703.054
22.26000 696.275
22.27000 687.905
22.28000 680.320
22.29000 677.106
22.30000 674.569
22.31000 672.539
22.32000 657.358
22.33000 644.106
22.34000 635.260
22.35000 637.297
22.36000 639.841
22.37000 637.838
22.38000 628.236
22.39000 618.516
22.40000 613.418
22.41000 608.743
22.42000 605.525
22.43000 594.971
22.44000 579.185
22.45000 563.721
22.46000 558.573
22.47000 558.366
22.48000 558.169
22.49000 560.522
22.50000 563.459
22.51000 565.483
22.52000 560.205
22.53000 553.346
22.54000 546.907
22.55000 542.575
22.56000 538.533
22.57000 535.372
22.58000 542.490
22.59000 548.826
22.60000 552.398
22.61000 549.750
22.62000 546.867
22.63000 544.527
22.64000 543.011
22.65000 541.504
22.66000 540.706
22.67000 540.610
22.68000 540.467
22.69000 536.156
22.70000 529.149
22.71000 522.312
22.72000 519.801
22.73000 519.178
22.74000 518.591
22.75000 522.788
22.76000 527.913
22.77000 530.985
22.78000 519.492
22.79000 505.154
22.80000 495.129
22.81000 504.638
22.82000 516.533
22.83000 525.617
22.84000 522.841
22.85000 520.015
22.86000 518.853
22.87000 521.101
22.88000 523.450
22.89000 524.833
22.90000 524.886
22.91000 524.931
22.92000 521.963
22.93000 516.323
22.94000 510.674
22.95000 504.483
22.96000 497.975
22.97000 492.060
22.98000 498.463
22.99000 509.763
23.00000 520.279
23.01000 517.363
23.02000 511.470
23.03000 506.741
23.04000 509.374
23.05000 513.300
23.06000 516.565
23.07000 517.120
23.08000 517.384
23.09000 517.580
23.10000 507.958
23.11000 500.030
23.12000 497.036
23.13000 503.250
23.14000 509.674
23.15000 512.995
23.16000 512.454
23.17000 511.903
23.18000 509.803
23.19000 506.475
23.20000 503.083
23.21000 496.936
23.22000 489.317
23.23000 482.204
23.24000 483.830
23.25000 488.621
23.26000 493.029
23.27000 491.149
23.28000 488.101
23.29000 486.701
23.30000 494.654
23.31000 504.078
23.32000 509.735
23.33000 501.390
23.34000 491.727
23.35000 484.727
23.36000 488.332
23.37000 491.492
23.38000 495.839
23.39000 502.201
23.40000 508.596
23.41000 508.036
23.42000 499.676
23.43000 491.341
23.44000 488.614
23.45000 489.939
23.46000 491.237
23.47000 491.598
23.48000 491.504
23.49000 491.727
23.50000 496.565
23.51000 502.924
23.52000 508.703
23.53000 502.461
23.54000 494.606
23.55000 488.869
23.56000 493.936
23.57000 500.522
23.58000 505.787
23.59000 506.599
23.60000 507.048
23.61000 507.363
23.62000 501.474
23.63000 496.826
23.64000 492.896
23.65000 490.071
23.66000 487.259
23.67000 489.504
23.68000 496.844
23.69000 504.138
23.70000 500.880
23.71000 490.837
23.72000 481.290
23.73000 484.773
23.74000 494.030
23.75000 502.438
23.76000 500.253
23.77000 494.890
23.78000 490.082
23.79000 486.901
23.80000 484.404
23.81000 482.137
23.82000 480.931
23.83000 479.857
23.84000 478.811
23.85000 477.849
23.86000 476.893
23.87000 476.241
23.88000 489.824
23.89000 500.310
23.90000 506.378
23.91000 506.271
23.92000 506.121
23.93000 505.061
23.94000 503.178
23.95000 501.314
23.96000 492.195
23.97000 479.033
23.98000 466.632
23.99000 470.543
24.00000 481.037
24.01000 490.422
24.02000 487.802
24.03000 481.911
24.04000 476.705
24.05000 481.119
24.06000 486.416
24.07000 490.822
24.08000 491.515
24.09000 491.801
24.10000 491.257
24.11000 488.397
24.12000 485.399
24.13000 483.421
24.14000 486.248
24.15000 488.416
24.16000 486.039
24.17000 477.914
24.18000 469.788
24.19000 469.076
24.20000 474.406
24.21000 479.661
24.22000 483.877
24.23000 487.426
24.24000 490.662
24.25000 488.346
24.26000 483.990
24.27000 480.197
24.28000 481.728
24.29000 484.575
24.30000 487.053
24.31000 476.358
24.32000 465.427
24.33000 458.575
24.34000 467.126
24.35000 477.160
24.36000 485.069
24.37000 487.570
24.38000 489.803
24.39000 491.225
24.40000 483.291
24.41000 477.405
24.42000 476.041
24.43000 479.833
24.44000 483.609
24.45000 483.389
24.46000 480.227
24.47000 477.125
24.48000 477.401
24.49000 479.274
24.50000 481.166
24.51000 483.337
24.52000 485.601
24.53000 487.401
24.54000 485.341
24.55000 482.418
24.56000 479.916
24.57000 470.062
24.58000 460.862
24.59000 455.105
24.60000 461.149
24.61000 468.180
24.62000 474.087
24.63000 477.384
24.64000 480.576
24.65000 482.534
24.66000 483.654
24.67000 484.449
24.68000 488.822
24.69000 496.863
24.70000 504.794
24.71000 501.477
24.72000 490.652
24.73000 480.095
24.74000 477.029
24.75000 477.319
24.76000 477.618
24.77000 478.030
24.78000 478.476
24.79000 479.281
24.80000 482.725
24.81000 486.702
24.82000 490.046
24.83000 485.615
24.84000 481.098
24.85000 478.565
24.86000 482.212
24.87000 486.303
24.88000 486.008
24.89000 476.443
24.90000 466.578
24.91000 460.771
24.92000 468.897
24.93000 474.700
24.94000 474.571
24.95000 468.986
24.96000 463.468
24.97000 462.409
24.98000 464.053
24.99000 465.645
25.00000 471.011
25.01000 477.553
25.02000 483.252
25.03000 479.643
25.04000 473.456
25.05000 468.787
25.06000 474.076
25.07000 481.178
25.08000 487.034
25.09000 477.515
25.10000 468.257
25.11000 461.509
25.12000 461.886
25.13000 462.698
25.14000 463.793
25.15000 465.432
25.16000 467.084
25.17000 468.015
25.18000 471.696
25.19000 474.255
25.20000 474.905
25.21000 473.974
25.22000 473.072
25.23000 473.546
25.24000 474.780
25.25000 475.966
25.26000 469.899
25.27000 461.675
25.28000 453.967
25.29000 451.243
25.30000 449.771
25.31000 449.097
25.32000 453.110
25.33000 457.887
25.34000 461.748
25.35000 461.588
25.36000 461.136
25.37000 460.923
25.38000 461.331
25.39000 461.770
25.40000 463.642
25.41000 468.024
25.42000 472.453
25.43000 474.833
25.44000 478.666
25.45000 481.271
25.46000 480.920
25.47000 478.355
25.48000 475.733
25.49000 471.037
25.50000 465.301
25.51000 459.831
25.52000 462.099
25.53000 466.644
25.54000 470.805
25.55000 471.704
25.56000 471.862
25.57000 470.903
25.58000 464.054
25.59000 456.346
25.60000 450.251
25.61000 457.608
25.62000 464.442
25.63000 468.612
25.64000 466.509
25.65000 464.143
25.66000 461.696
25.67000 459.118
25.68000 456.538
25.69000 455.221
25.70000 456.216
25.71000 456.916
25.72000 461.227
25.73000 467.984
25.74000 474.398
25.75000 471.109
25.76000 463.388
25.77000 456.093
25.78000 459.276
25.79000 465.174
25.80000 470.279
25.81000 469.419
25.82000 467.333
25.83000 464.206
25.84000 456.123
25.85000 447.396
25.86000 440.654
25.87000 448.721
25.88000 455.985
25.89000 460.095
25.90000 457.440
25.91000 454.558
25.92000 454.891
25.93000 459.867
25.94000 464.880
25.95000 465.836
25.96000 462.996
25.97000 460.173
25.98000 458.539
25.99000 457.635
26.00000 456.698
26.01000 454.980
26.02000 452.939
26.03000 451.029
26.04000 447.493
26.05000 443.866
26.06000 441.493
26.07000 447.507
26.08000 455.073
26.09000 461.127
26.10000 460.672
26.11000 459.472
26.12000 458.568
26.13000 459.857
26.14000 460.974
26.15000 463.656
26.16000 469.394
26.17000 475.212
26.18000 475.346
26.19000 468.053
26.20000 460.736
26.21000 459.487
26.22000 463.338
26.23000 467.098
26.24000 466.193
26.25000 462.679
26.26000 459.119
26.27000 454.702
26.28000 449.959
26.29000 445.571
26.30000 443.217
26.31000 441.568
26.32000 440.285
26.33000 441.192
26.34000 442.464
26.35000 442.971
26.36000 440.504
26.37000 437.738
26.38000 435.708
26.39000 449.973
26.40000 461.661
26.41000 465.694
26.42000 456.118
26.43000 446.277
26.44000 444.242
26.45000 451.413
26.46000 458.582
26.47000 459.084
26.48000 454.545
26.49000 450.035
26.50000 446.664
26.51000 443.871
26.52000 441.156
26.53000 439.653
26.54000 438.568
26.55000 437.576
26.56000 442.571
26.57000 448.240
26.58000 453.583
26.59000 457.185
26.60000 460.529
26.61000 460.749
26.62000 449.926
26.63000 438.136
26.64000 429.720
26.65000 432.808
26.66000 435.543
26.67000 434.902
26.68000 428.803
26.69000 422.629
26.70000 423.237
26.71000 431.042
26.72000 438.811
26.73000 439.418
26.74000 435.142
26.75000 431.012
26.76000 431.150
26.77000 433.268
26.78000 435.566
26.79000 440.284
26.80000 445.761
26.81000 450.705
26.82000 450.927
26.83000 450.255
26.84000 449.191
26.85000 446.226
26.86000 443.009
26.87000 441.638
26.88000 446.196
26.89000 451.203
26.90000 454.671
26.91000 441.440
26.92000 431.044
26.93000 424.268
26.94000 422.798
26.95000 421.375
26.96000 421.468
26.97000 423.005
26.98000 424.529
26.99000 424.245
27.00000 422.856
27.01000 421.646
27.02000 424.661
27.03000 429.460
27.04000 433.802
27.05000 432.849
27.06000 430.383
27.07000 428.189
27.08000 435.065
27.09000 442.519
27.10000 447.607
27.11000 442.349
27.12000 435.881
27.13000 430.376
27.14000 427.684
27.15000 425.174
27.16000 423.490
27.17000 420.303
27.18000 417.906
27.19000 416.942
27.20000 417.880
27.21000 418.831
27.22000 422.836
27.23000 429.458
27.24000 436.001
27.25000 443.668
27.26000 451.769
27.27000 459.066
27.28000 450.792
27.29000 436.527
27.30000 423.581
27.31000 423.921
27.32000 427.704
27.33000 431.022
27.34000 426.503
27.35000 421.486
27.36000 420.135
27.37000 433.297
27.38000 447.951
27.39000 457.182
27.40000 451.969
27.41000 445.973
27.42000 442.087
27.43000 435.917
27.44000 431.367
27.45000 428.531
27.46000 427.751
27.47000 426.971
27.48000 425.150
27.49000 422.523
27.50000 419.939
27.51000 425.372
27.52000 434.639
27.53000 443.225
27.54000 440.756
27.55000 434.415
27.56000 427.809
27.57000 418.868
27.58000 409.380
27.59000 401.193
27.60000 414.105
27.61000 427.766
27.62000 438.363
27.63000 437.956
27.64000 436.561
27.65000 436.515
27.66000 439.741
27.67000 443.114
27.68000 445.221
27.69000 443.368
27.70000 441.990
27.71000 439.560
27.72000 435.994
27.73000 432.398
27.74000 425.037
27.75000 415.041
27.76000 405.262
27.77000 406.162
27.78000 411.847
27.79000 417.410
27.80000 421.291
27.81000 424.637
27.82000 427.223
27.83000 423.876
27.84000 419.269
27.85000 415.362
27.86000 410.467
27.87000 406.253
27.88000 405.210
27.89000 414.519
27.90000 424.630
27.91000 429.942
27.92000 424.643
27.93000 418.961
27.94000 415.549
27.95000 421.035
27.96000 424.995
27.97000 423.480
27.98000 416.662
27.99000 409.865
28.00000 404.762
28.01000 400.734
28.02000 396.819
28.03000 405.322
28.04000 418.468
28.05000 430.783
28.06000 433.256
28.07000 432.875
28.08000 432.083
28.09000 428.442
28.10000 424.256
28.11000 420.770
28.12000 419.212
28.13000 418.111
28.14000 417.413
28.15000 417.910
28.16000 418.487
28.17000 420.408
28.18000 425.040
28.19000 429.749
28.20000 432.460
28.21000 434.071
28.22000 435.188
28.23000 430.445
28.24000 420.598
28.25000 410.905
28.26000 409.837
28.27000 413.744
28.28000 417.516
28.29000 419.580
28.30000 420.895
28.31000 421.801
28.32000 418.497
28.33000 414.083
28.34000 411.152
28.35000 417.405
28.36000 425.239
28.37000 431.634
28.38000 426.212
28.39000 420.760
28.40000 417.251
28.41000 418.995
28.42000 421.032
28.43000 422.744
28.44000 423.859
28.45000 424.962
28.46000 425.569
28.47000 419.602
28.48000 415.500
28.49000 416.406
28.50000 421.249
28.51000 425.973
28.52000 425.777
28.53000 423.001
28.54000 420.343
28.55000 415.343
28.56000 409.904
28.57000 405.512
28.58000 410.575
28.59000 417.894
28.60000 424.635
28.61000 428.164
28.62000 431.198
28.63000 433.623
28.64000 430.870
28.65000 428.262
28.66000 424.856
28.67000 419.484
28.68000 414.021
28.69000 408.094
28.70000 401.393
28.71000 394.681
28.72000 391.166
28.73000 401.722
28.74000 408.846
28.75000 411.845
28.76000 411.912
28.77000 411.852
28.78000 407.778
28.79000 401.787
28.80000 396.100
28.81000 401.707
28.82000 410.257
28.83000 417.376
28.84000 413.109
28.85000 406.383
28.86000 401.122
28.87000 403.192
28.88000 406.269
28.89000 408.674
28.90000 402.347
28.91000 396.745
28.92000 392.230
28.93000 390.158
28.94000 388.177
28.95000 387.457
28.96000 388.645
28.97000 389.854
28.98000 395.431
28.99000 405.316
29.00000 415.091
29.01000 415.157
29.02000 408.963
29.03000 402.835
29.04000 398.338
29.05000 394.552
29.06000 390.993
29.07000 393.072
29.08000 396.488
29.09000 400.208
29.10000 406.084
29.11000 412.379
29.12000 417.881
29.13000 419.796
29.14000 421.275
29.15000 422.403
29.16000 411.540
29.17000 402.339
29.18000 395.884
29.19000 395.043
29.20000 394.368
29.21000 394.504
29.22000 395.750
29.23000 397.003
29.24000 397.856
29.25000 398.355
29.26000 398.865
29.27000 399.998
29.28000 401.495
29.29000 403.317
29.30000 411.819
29.31000 422.968
29.32000 433.340
29.33000 428.610
29.34000 420.688
29.35000 413.307
29.36000 409.336
29.37000 405.962
29.38000 403.388
29.39000 404.080
29.40000 405.124
29.41000 405.899
29.42000 408.231
29.43000 410.114
29.44000 411.721
29.45000 412.815
29.46000 413.898
29.47000 410.043
29.48000 400.064
29.49000 390.086
29.50000 389.534
29.51000 396.485
29.52000 403.180
29.53000 398.864
29.54000 388.683
29.55000 379.534
29.56000 388.086
29.57000 403.031
29.58000 416.776
29.59000 410.426
29.60000 400.397
29.61000 393.311
29.62000 402.867
29.63000 415.034
29.64000 424.275
29.65000 422.675
29.66000 420.058
29.67000 418.164
29.68000 410.905
29.69000 405.136
29.70000 404.408
29.71000 412.212
29.72000 420.155
29.73000 422.765
29.74000 419.414
29.75000 416.070
29.76000 419.150
29.77000 426.802
29.78000 434.034
29.79000 427.377
29.80000 413.984
29.81000 401.217
29.82000 397.536
29.83000 396.842
29.84000 396.212
29.85000 401.056
29.86000 406.397
29.87000 412.753
29.88000 424.275
29.89000 436.519
29.90000 443.206
29.91000 431.184
29.92000 417.641
29.93000 408.121
29.94000 419.993
29.95000 429.615
29.96000 432.046
29.97000 423.419
29.98000 414.670
29.99000 415.339
30.00000 425.463
30.01000 435.521
30.02000 435.874
30.03000 429.958
30.04000 424.306
30.05000 425.545
30.06000 429.829
30.07000 433.630
30.08000 431.427
30.09000 427.428
30.10000 423.844
30.11000 429.249
30.12000 435.525
30.13000 439.043
30.14000 429.899
30.15000 419.183
30.16000 413.236
30.17000 421.887
30.18000 431.556
30.19000 438.145
30.20000 425.734
30.21000 416.021
30.22000 410.489
30.23000 410.786
30.24000 411.120
30.25000 411.203
30.26000 411.057
30.27000 410.913
30.28000 408.486
30.29000 404.780
30.30000 401.446
30.31000 405.992
30.32000 413.710
30.33000 420.751
30.34000 420.498
30.35000 418.264
30.36000 416.290
30.37000 408.121
30.38000 400.116
30.39000 396.153
30.40000 408.975
30.41000 423.635
30.42000 433.852
30.43000 431.681
30.44000 428.778
30.45000 426.865
30.46000 429.501
30.47000 431.522
30.48000 429.923
30.49000 423.761
30.50000 417.591
30.51000 414.367
30.52000 413.536
30.53000 412.717
30.54000 411.210
30.55000 409.384
30.56000 407.523
30.57000 405.034
30.58000 402.313
30.59000 400.079
30.60000 402.415
30.61000 405.877
30.62000 408.888
30.63000 407.481
30.64000 405.678
30.65000 404.835
30.66000 407.604
30.67000 410.720
30.68000 413.572
30.69000 415.753
30.70000 417.901
30.71000 419.267
30.72000 421.714
30.73000 423.505
30.74000 424.360
30.75000 424.152
30.76000 423.955
30.77000 425.705
30.78000 428.885
30.79000 432.004
30.80000 434.634
30.81000 436.937
30.82000 439.651
30.83000 448.499
30.84000 459.395
30.85000 469.234
30.86000 470.320
30.87000 469.452
30.88000 468.711
30.89000 475.882
30.90000 482.879
30.91000 487.974
30.92000 486.563
30.93000 484.611
30.94000 486.610
30.95000 497.750
30.96000 509.257
30.97000 516.304
30.98000 538.297
30.99000 554.169
31.00000 572.778
31.01000 594.182
31.02000 615.580
31.03000 636.414
31.04000 656.872
31.05000 676.821
31.06000 704.855
31.07000 735.090
31.08000 765.596
31.09000 799.548
31.10000 834.547
31.11000 872.229
31.12000 929.621
31.13000 990.981
31.14000 1042.534
31.15000 1101.803
31.16000 1151.994
31.17000 1203.981
31.18000 1261.552
31.19000 1319.523
31.20000 1380.209
31.21000 1446.619
31.22000 1513.211
31.23000 1552.360
31.24000 1683.079
31.25000 1775.720
31.26000 1852.081
31.27000 1913.515
31.28000 1974.887
31.29000 2032.203
31.30000 2087.068
31.31000 2140.214
31.32000 2169.012
31.33000 2186.846
31.34000 2204.803
31.35000 2224.106
31.36000 2243.780
31.37000 2264.007
31.38000 2287.848
31.39000 2312.344
31.40000 2332.535
31.41000 2318.642
31.42000 2304.070
31.43000 2278.737
31.44000 2222.950
31.45000 2165.316
31.46000 2108.468
31.47000 2053.130
31.48000 1997.830
31.49000 1966.719
31.50000 1894.882
31.51000 1844.897
31.52000 1787.429
31.53000 1723.780
31.54000 1659.951
31.55000 1587.492
31.56000 1510.294
31.57000 1436.075
31.58000 1379.956
31.59000 1333.689
31.60000 1286.238
31.61000 1227.411
31.62000 1165.736
31.63000 1107.085
31.64000 1066.144
31.65000 1028.083
31.66000 997.344
31.67000 955.360
31.68000 920.333
31.69000 883.543
31.70000 842.210
31.71000 800.647
31.72000 765.712
31.73000 742.350
31.74000 719.198
31.75000 706.776
31.76000 681.190
31.77000 663.667
31.78000 637.827
31.79000 605.781
31.80000 574.340
31.81000 564.614
31.82000 565.741
31.83000 566.816
31.84000 560.034
31.85000 551.274
31.86000 541.360
31.87000 521.693
31.88000 499.814
31.89000 481.639
31.90000 482.947
31.91000 487.087
31.92000 490.358
31.93000 478.659
31.94000 468.242
31.95000 457.878
31.96000 447.635
31.97000 437.398
31.98000 429.299
31.99000 424.595
32.00000 419.933
32.01000 417.556
32.02000 410.080
32.03000 405.124
32.04000 406.813
32.05000 412.993
32.06000 418.912
32.07000 417.495
32.08000 412.737
32.09000 408.242
32.10000 409.835
32.11000 413.020
32.12000 415.039
32.13000 408.328
32.14000 399.830
32.15000 392.666
32.16000 391.836
32.17000 391.824
32.18000 391.815
32.19000 395.902
32.20000 399.380
32.21000 401.054
32.22000 398.868
32.23000 396.552
32.24000 395.998
32.25000 397.979
32.26000 399.979
32.27000 397.422
32.28000 390.617
32.29000 383.893
32.30000 382.982
32.31000 385.637
32.32000 388.223
32.33000 389.240
32.34000 389.608
32.35000 389.952
32.36000 385.812
32.37000 380.911
32.38000 377.183
32.39000 381.269
32.40000 386.796
32.41000 390.891
32.42000 388.851
32.43000 386.109
32.44000 384.045
32.45000 382.290
32.46000 380.932
32.47000 378.856
32.48000 375.383
32.49000 371.875
32.50000 367.090
32.51000 360.644
32.52000 354.197
32.53000 353.743
32.54000 358.308
32.55000 362.775
32.56000 362.327
32.57000 359.138
32.58000 356.395
32.59000 362.014
32.60000 370.793
32.61000 378.913
32.62000 374.631
32.63000 367.951
32.64000 362.009
32.65000 360.468
32.66000 359.656
32.67000 360.771
32.68000 369.376
32.69000 378.731
32.70000 385.593
32.71000 379.376
32.72000 374.044
32.73000 371.151
32.74000 372.582
32.75000 374.096
32.76000 374.331
32.77000 373.062
32.78000 371.793
32.79000 371.130
32.80000 370.925
32.81000 370.874
32.82000 376.551
32.83000 385.135
32.84000 393.389
32.85000 396.467
32.86000 397.763
32.87000 398.948
32.88000 393.681
32.89000 387.681
32.90000 383.229
32.91000 387.066
32.92000 392.129
32.93000 396.917
32.94000 400.733
32.95000 404.464
32.96000 407.125
32.97000 394.724
32.98000 384.775
32.99000 379.114
33.00000 380.359
33.01000 381.698
33.02000 378.634
33.03000 370.910
33.04000 363.224
33.05000 359.696
33.06000 359.032
33.07000 358.328
33.08000 356.459
33.09000 354.051
33.10000 351.598
33.11000 348.544
33.12000 345.301
33.13000 342.375
33.14000 335.317
33.15000 328.362
33.16000 324.185
33.17000 333.407
33.18000 344.392
33.19000 350.952
33.20000 343.324
33.21000 334.629
33.22000 328.613
33.23000 332.872
33.24000 336.345
33.25000 339.063
33.26000 340.679
33.27000 342.286
33.28000 345.039
33.29000 348.880
33.30000 352.690
33.31000 349.222
33.32000 341.362
33.33000 333.830
33.34000 333.979
33.35000 337.363
33.36000 340.629
33.37000 342.536
33.38000 344.057
33.39000 345.410
33.40000 342.441
33.41000 339.159
33.42000 336.219
33.43000 334.766
33.44000 333.487
33.45000 334.483
33.46000 342.113
33.47000 350.168
33.48000 355.566
33.49000 345.114
33.50000 337.040
33.51000 333.622
33.52000 336.366
33.53000 339.137
33.54000 340.093
33.55000 339.500
33.56000 338.914
33.57000 337.014
33.58000 334.437
33.59000 331.963
33.60000 331.473
33.61000 331.744
33.62000 331.886
33.63000 330.731
33.64000 329.240
33.65000 327.934
33.66000 336.639
33.67000 345.558
33.68000 351.417
33.69000 345.202
33.70000 337.752
33.71000 332.022
33.72000 330.863
33.73000 329.950
33.74000 329.359
33.75000 325.635
33.76000 322.863
33.77000 322.669
33.78000 325.556
33.79000 328.452
33.80000 331.734
33.81000 335.316
33.82000 338.838
33.83000 336.969
33.84000 332.472
33.85000 328.193
33.86000 327.415
33.87000 327.862
33.88000 328.227
33.89000 327.880
33.90000 327.366
33.91000 326.923
33.92000 330.975
33.93000 334.986
33.94000 336.481
33.95000 328.961
33.96000 320.637
33.97000 316.621
33.98000 323.031
33.99000 329.905
34.00000 334.194
34.01000 337.357
34.02000 339.626
34.03000 337.292
34.04000 330.002
34.05000 322.760
34.06000 321.958
34.07000 325.651
34.08000 329.262
34.09000 329.373
34.10000 327.904
34.11000 326.544
34.12000 326.679
34.13000 327.289
34.14000 327.832
34.15000 327.855
34.16000 327.768
34.17000 327.694
34.18000 325.495
34.19000 323.413
34.20000 323.626
34.21000 331.311
34.22000 339.572
34.23000 344.257
34.24000 341.058
34.25000 337.577
34.26000 335.488
34.27000 326.116
34.28000 319.410
34.29000 316.596
34.30000 317.543
34.31000 318.473
34.32000 318.092
34.33000 316.882
34.34000 315.705
34.35000 314.541
34.36000 313.439
34.37000 312.855
34.38000 318.391
34.39000 325.695
34.40000 332.257
34.41000 333.680
34.42000 334.123
34.43000 334.492
34.44000 331.600
34.45000 328.884
34.46000 327.417
34.47000 329.647
34.48000 332.120
34.49000 332.506
34.50000 328.703
34.51000 324.781
34.52000 322.526
34.53000 328.982
34.54000 333.527
34.55000 334.518
34.56000 332.424
34.57000 330.316
34.58000 327.433
34.59000 324.105
34.60000 320.894
34.61000 319.044
34.62000 317.801
34.63000 316.906
34.64000 319.567
34.65000 323.162
34.66000 326.699
34.67000 329.880
34.68000 333.000
34.69000 335.545
34.70000 331.931
34.71000 328.449
34.72000 324.156
34.73000 317.678
34.74000 311.080
34.75000 306.235
34.76000 304.598
34.77000 303.029
34.78000 302.167
34.79000 311.501
34.80000 317.911
34.81000 315.939
34.82000 307.398
34.83000 299.185
34.84000 304.346
34.85000 316.504
34.86000 328.144
34.87000 321.179
34.88000 308.534
34.89000 297.765
34.90000 303.855
34.91000 313.956
34.92000 322.293
34.93000 320.854
34.94000 317.914
34.95000 315.566
34.96000 317.968
34.97000 320.260
34.98000 320.941
34.99000 317.667
35.00000 314.211
35.01000 313.501
35.02000 317.353
35.03000 321.275
35.04000 323.325
35.05000 319.615
35.06000 317.133
35.07000 318.979
35.08000 323.893
35.09000 328.598
35.10000 326.733
35.11000 321.740
35.12000 317.000
35.13000 314.731
35.14000 313.372
35.15000 311.973
35.16000 310.244
35.17000 308.445
35.18000 305.911
35.19000 299.715
35.20000 293.017
35.21000 287.787
35.22000 292.718
35.23000 297.292
35.24000 300.425
35.25000 300.330
35.26000 300.115
35.27000 301.613
35.28000 305.697
35.29000 309.807
35.30000 310.151
35.31000 306.792
35.32000 303.464
35.33000 302.849
35.34000 303.978
35.35000 305.042
35.36000 304.466
35.37000 303.178
35.38000 301.968
35.39000 301.886
35.40000 302.113
35.41000 302.767
35.42000 306.436
35.43000 310.689
35.44000 314.664
35.45000 317.385
35.46000 319.954
35.47000 321.912
35.48000 309.402
35.49000 298.779
35.50000 292.444
35.51000 294.851
35.52000 297.515
35.53000 298.268
35.54000 296.409
35.55000 294.536
35.56000 294.574
35.57000 296.299
35.58000 297.999
35.59000 298.216
35.60000 297.568
35.61000 296.981
35.62000 297.636
35.63000 298.782
35.64000 299.848
35.65000 302.805
35.66000 305.931
35.67000 309.460
35.68000 315.517
35.69000 322.015
35.70000 326.121
35.71000 320.478
35.72000 313.795
35.73000 308.828
35.74000 300.213
35.75000 293.352
35.76000 292.117
35.77000 301.322
35.78000 310.759
35.79000 312.780
35.80000 305.633
35.81000 298.473
35.82000 298.481
35.83000 304.173
35.84000 309.732
35.85000 309.611
35.86000 306.473
35.87000 303.562
35.88000 304.532
35.89000 306.899
35.90000 309.075
35.91000 302.781
35.92000 295.331
35.93000 289.277
35.94000 291.099
35.95000 294.151
35.96000 296.454
35.97000 295.987
35.98000 295.261
35.99000 294.736
36.00000 296.119
36.01000 297.249
36.02000 298.554
36.03000 300.150
36.04000 301.752
36.05000 300.053
36.06000 294.676
36.07000 289.317
36.08000 289.317
36.09000 293.142
36.10000 296.884
36.11000 297.914
36.12000 297.633
36.13000 297.620
36.14000 301.483
36.15000 306.617
36.16000 311.279
36.17000 307.133
36.18000 301.770
36.19000 297.791
36.20000 300.835
36.21000 304.857
36.22000 307.287
36.23000 304.369
36.24000 301.018
36.25000 298.665
36.26000 299.661
36.27000 300.512
36.28000 301.037
36.29000 301.061
36.30000 301.080
36.31000 298.360
36.32000 292.900
36.33000 287.476
36.34000 287.691
36.35000 291.531
36.36000 295.341
36.37000 298.371
36.38000 301.058
36.39000 303.910
36.40000 308.817
36.41000 314.336
36.42000 319.280
36.43000 309.999
36.44000 299.444
36.45000 291.075
36.46000 292.714
36.47000 295.590
36.48000 298.180
36.49000 299.896
36.50000 301.551
36.51000 302.677
36.52000 306.920
36.53000 310.160
36.54000 309.159
36.55000 302.265
36.56000 295.336
36.57000 294.247
36.58000 298.403
36.59000 302.518
36.60000 300.287
36.61000 294.421
36.62000 288.790
36.63000 288.111
36.64000 289.421
36.65000 290.612
36.66000 290.518
36.67000 290.077
36.68000 289.688
36.69000 294.436
36.70000 299.321
36.71000 303.230
36.72000 303.100
36.73000 302.530
36.74000 302.159
36.75000 302.346
36.76000 302.565
36.77000 302.709
36.78000 295.499
36.79000 290.062
36.80000 288.460
36.81000 291.680
36.82000 294.908
36.83000 295.305
36.84000 293.410
36.85000 291.542
36.86000 296.003
36.87000 303.650
36.88000 310.723
36.89000 307.737
36.90000 301.073
36.91000 294.920
36.92000 293.564
36.93000 293.386
36.94000 293.232
36.95000 293.870
36.96000 294.522
36.97000 294.610
36.98000 292.579
36.99000 290.346
37.00000 288.438
37.01000 287.352
37.02000 286.305
37.03000 285.640
37.04000 292.627
37.05000 297.796
37.06000 298.886
37.07000 295.354
37.08000 291.841
37.09000 292.182
37.10000 295.345
37.11000 298.447
37.12000 302.143
37.13000 305.983
37.14000 309.465
37.15000 307.626
37.16000 304.017
37.17000 300.377
37.18000 296.476
37.19000 292.517
37.20000 289.133
37.21000 283.570
37.22000 278.620
37.23000 274.113
37.24000 271.117
37.25000 268.246
37.26000 267.562
37.27000 271.919
37.28000 276.478
37.29000 279.267
37.30000 282.324
37.31000 284.515
37.32000 287.278
37.33000 290.624
37.34000 293.918
37.35000 291.965
37.36000 286.531
37.37000 281.234
37.38000 276.196
37.39000 271.497
37.40000 267.468
37.41000 271.930
37.42000 278.964
37.43000 285.124
37.44000 284.890
37.45000 283.372
37.46000 282.098
37.47000 276.266
37.48000 270.930
37.49000 268.563
37.50000 275.395
37.51000 282.882
37.52000 287.907
37.53000 287.761
37.54000 287.450
37.55000 287.267
37.56000 288.275
37.57000 288.990
37.58000 284.760
37.59000 276.011
37.60000 267.464
37.61000 272.121
37.62000 284.731
37.63000 296.944
37.64000 295.554
37.65000 288.996
37.66000 282.697
37.67000 279.220
37.68000 276.520
37.69000 274.978
37.70000 280.979
37.71000 288.343
37.72000 294.410
37.73000 288.511
37.74000 282.561
37.75000 278.982
37.76000 282.089
37.77000 285.601
37.78000 287.566
37.79000 286.575
37.80000 285.510
37.81000 284.912
37.82000 286.078
37.83000 286.890
37.84000 287.586
37.85000 288.187
37.86000 288.731
37.87000 286.658
37.88000 283.150
37.89000 279.779
37.90000 280.197
37.91000 281.905
37.92000 283.965
37.93000 289.392
37.94000 295.659
37.95000 300.122
37.96000 294.052
37.97000 286.275
37.98000 279.998
37.99000 277.268
38.00000 275.332
38.01000 275.500
38.02000 281.078
38.03000 286.929
38.04000 289.594
38.05000 286.713
38.06000 283.733
38.07000 282.136
38.08000 285.707
38.09000 288.140
38.10000 289.140
38.11000 289.074
38.12000 288.981
38.13000 287.941
38.14000 286.428
38.15000 284.987
38.16000 289.406
38.17000 295.340
38.18000 300.915
38.19000 303.464
38.20000 305.330
38.21000 305.935
38.22000 299.935
38.23000 292.977
38.24000 287.483
38.25000 290.817
38.26000 294.094
38.27000 297.441
38.28000 300.953
38.29000 304.472
38.30000 307.848
38.31000 311.001
38.32000 314.151
38.33000 315.754
38.34000 314.446
38.35000 313.626
38.36000 318.938
38.37000 328.383
38.38000 337.505
38.39000 337.616
38.40000 333.637
38.41000 329.879
38.42000 337.314
38.43000 347.295
38.44000 357.509
38.45000 369.457
38.46000 381.758
38.47000 392.784
38.48000 397.779
38.49000 401.997
38.50000 405.252
38.51000 410.624
38.52000 415.004
38.53000 422.852
38.54000 438.096
38.55000 453.585
38.56000 466.106
38.57000 474.367
38.58000 482.594
38.59000 488.460
38.60000 492.128
38.61000 495.816
38.62000 500.987
38.63000 507.063
38.64000 513.146
38.65000 519.384
38.66000 525.686
38.67000 531.578
38.68000 537.835
38.69000 543.610
38.70000 548.245
38.71000 545.322
38.72000 541.009
38.73000 537.840
38.74000 539.562
38.75000 541.841
38.76000 543.556
38.77000 529.141
38.78000 517.078
38.79000 505.090
38.80000 493.247
38.81000 481.407
38.82000 474.039
38.83000 472.478
38.84000 470.943
38.85000 467.430
38.86000 462.277
38.87000 457.114
38.88000 451.454
38.89000 445.518
38.90000 439.282
38.91000 427.473
38.92000 413.564
38.93000 400.704
38.94000 388.144
38.95000 376.935
38.96000 366.978
38.97000 364.457
38.98000 363.164
38.99000 360.419
39.00000 352.054
39.01000 343.129
39.02000 336.587
39.03000 324.470
39.04000 314.888
39.05000 308.058
39.06000 306.091
39.07000 304.217
39.08000 302.919
39.09000 302.296
39.10000 301.676
39.11000 298.448
39.12000 293.282
39.13000 288.196
39.14000 286.085
39.15000 285.480
39.16000 284.701
39.17000 281.200
39.18000 276.764
39.19000 272.712
39.20000 276.407
39.21000 281.268
39.22000 285.369
39.23000 285.413
39.24000 284.858
39.25000 283.832
39.26000 281.151
39.27000 278.325
39.28000 276.312
39.29000 266.412
39.30000 258.610
39.31000 254.748
39.32000 257.216
39.33000 259.768
39.34000 265.265
39.35000 273.867
39.36000 282.426
39.37000 282.247
39.38000 276.157
39.39000 270.310
39.40000 271.477
39.41000 275.878
39.42000 279.901
39.43000 278.889
39.44000 276.304
39.45000 273.973
39.46000 268.050
39.47000 262.195
39.48000 257.743
39.49000 260.031
39.50000 263.204
39.51000 265.876
39.52000 266.949
39.53000 267.902
39.54000 268.561
39.55000 270.173
39.56000 271.410
39.57000 269.367
39.58000 262.543
39.59000 255.680
39.60000 254.814
39.61000 259.623
39.62000 264.393
39.63000 264.701
39.64000 262.283
39.65000 260.029
39.66000 261.585
39.67000 264.741
39.68000 267.306
39.69000 263.089
39.70000 256.947
39.71000 251.485
39.72000 248.835
39.73000 246.990
39.74000 245.878
39.75000 247.947
39.76000 250.384
39.77000 253.202
39.78000 257.126
39.79000 261.120
39.80000 263.793
39.81000 263.295
39.82000 262.862
39.83000 265.456
39.84000 272.043
39.85000 278.636
39.86000 277.134
39.87000 268.742
39.88000 260.452
39.89000 259.605
39.90000 262.877
39.91000 265.873
39.92000 263.577
39.93000 259.256
39.94000 255.176
39.95000 253.499
39.96000 252.441
39.97000 251.514
39.98000 247.193
39.99000 242.997
40.00000 240.618
40.01000 245.386
40.02000 250.883
40.03000 254.281
40.04000 252.120
40.05000 249.661
40.06000 248.071
40.07000 249.569
40.08000 250.709
40.09000 250.656
40.10000 249.181
40.11000 247.711
40.12000 248.276
40.13000 250.405
40.14000 252.499
40.15000 254.009
40.16000 255.179
40.17000 256.171
40.18000 254.304
40.19000 251.441
40.20000 248.999
40.21000 250.253
40.22000 252.370
40.23000 254.194
40.24000 253.398
40.25000 252.389
40.26000 251.293
40.27000 249.889
40.28000 248.456
40.29000 248.847
40.30000 253.635
40.31000 258.617
40.32000 261.723
40.33000 259.814
40.34000 258.387
40.35000 256.247
40.36000 253.341
40.37000 250.439
40.38000 247.946
40.39000 245.737
40.40000 243.577
40.41000 243.761
40.42000 244.988
40.43000 246.229
40.44000 247.661
40.45000 249.153
40.46000 250.210
40.47000 247.894
40.48000 244.865
40.49000 242.299
40.50000 243.608
40.51000 245.139
40.52000 247.015
40.53000 250.013
40.54000 253.097
40.55000 255.492
40.56000 256.374
40.57000 257.202
40.58000 257.698
40.59000 241.573
40.60000 230.014
40.61000 226.098
40.62000 229.540
40.63000 233.037
40.64000 240.908
40.65000 251.539
40.66000 261.870
40.67000 261.991
40.68000 257.971
40.69000 254.190
40.70000 253.222
40.71000 253.064
40.72000 252.989
40.73000 253.487
40.74000 254.094
40.75000 254.598
40.76000 250.642
40.77000 246.931
40.78000 243.014
40.79000 238.488
40.80000 233.922
40.81000 232.395
40.82000 236.955
40.83000 241.685
40.84000 244.401
40.85000 244.710
40.86000 244.912
40.87000 240.714
40.88000 232.707
40.89000 224.871
40.90000 226.383
40.91000 233.256
40.92000 239.886
40.93000 242.819
40.94000 244.227
40.95000 245.446
40.96000 244.724
40.97000 243.496
40.98000 242.731
40.99000 244.826
41.00000 247.410
41.01000 249.516
41.02000 249.770
41.03000 249.821
41.04000 248.137
41.05000 241.793
41.06000 235.192
41.07000 231.423
41.08000 232.816
41.09000 234.318
41.10000 235.141
41.11000 243.205
41.12000 248.743
41.13000 248.705
41.14000 244.310
41.15000 240.008
41.16000 239.447
41.17000 240.838
41.18000 242.169
41.19000 240.678
41.20000 238.358
41.21000 236.595
41.22000 239.822
41.23000 244.233
41.24000 247.203
41.25000 242.218
41.26000 236.016
41.27000 231.066
41.28000 232.443
41.29000 234.021
41.30000 234.157
41.31000 230.765
41.32000 227.212
41.33000 229.253
41.34000 240.566
41.35000 252.019
41.36000 257.998
41.37000 249.684
41.38000 244.084
41.39000 242.436
41.40000 243.582
41.41000 244.739
41.42000 246.239
41.43000 247.903
41.44000 249.482
41.45000 249.135
41.46000 248.245
41.47000 246.900
41.48000 241.968
41.49000 236.266
41.50000 232.635
41.51000 239.300
41.52000 247.369
41.53000 253.666
41.54000 252.244
41.55000 250.627
41.56000 248.766
41.57000 246.362
41.58000 243.939
41.59000 241.947
41.60000 240.603
41.61000 239.265
41.62000 236.047
41.63000 230.986
41.64000 225.969
41.65000 224.724
41.66000 225.897
41.67000 227.217
41.68000 232.194
41.69000 238.754
41.70000 244.918
41.71000 238.836
41.72000 230.013
41.73000 223.196
41.74000 230.456
41.75000 240.440
41.76000 248.509
41.77000 247.988
41.78000 246.428
41.79000 245.239
41.80000 244.214
41.81000 243.415
41.82000 241.659
41.83000 237.957
41.84000 234.197
41.85000 232.551
41.86000 233.784
41.87000 235.034
41.88000 234.510
41.89000 232.428
41.90000 230.442
41.91000 234.000
41.92000 240.787
41.93000 247.064
41.94000 242.970
41.95000 234.787
41.96000 227.179
41.97000 226.871
41.98000 228.344
41.99000 229.547
42.00000 229.052
42.01000 228.262
42.02000 227.739
42.03000 228.306
42.04000 228.989
42.05000 229.497
42.06000 230.058
42.07000 230.496
42.08000 231.811
42.09000 234.749
42.10000 237.723
42.11000 235.593
42.12000 227.172
42.13000 218.750
42.14000 216.118
42.15000 218.075
42.16000 220.047
42.17000 222.710
42.18000 225.738
42.19000 228.782
42.20000 232.101
42.21000 235.520
42.22000 238.661
42.23000 232.571
42.24000 225.147
42.25000 219.138
42.26000 221.073
42.27000 224.247
42.28000 226.723
42.29000 226.624
42.30000 226.287
42.31000 226.043
42.32000 224.249
42.33000 222.816
42.34000 223.041
42.35000 226.057
42.36000 229.116
42.37000 232.346
42.38000 235.764
42.39000 239.170
42.40000 237.761
42.41000 232.940
42.42000 228.305
42.43000 229.735
42.44000 234.090
42.45000 237.844
42.46000 232.968
42.47000 225.270
42.48000 218.284
42.49000 216.902
42.50000 216.761
42.51000 217.687
42.52000 224.003
42.53000 231.069
42.54000 236.376
42.55000 235.795
42.56000 234.740
42.57000 234.000
42.58000 233.718
42.59000 233.517
42.60000 232.557
42.61000 230.436
42.62000 228.303
42.63000 229.316
42.64000 233.468
42.65000 237.592
42.66000 239.006
42.67000 238.661
42.68000 238.193
42.69000 234.548
42.70000 229.507
42.71000 224.941
42.72000 226.229
42.73000 229.256
42.74000 231.968
42.75000 230.451
42.76000 228.401
42.77000 227.016
42.78000 228.662
42.79000 230.681
42.80000 232.832
42.81000 235.385
42.82000 237.966
42.83000 239.721
42.84000 236.633
42.85000 234.218
42.86000 232.612
42.87000 232.126
42.88000 231.647
42.89000 230.508
42.90000 228.777
42.91000 227.063
42.92000 227.539
42.93000 229.270
42.94000 231.132
42.95000 235.744
42.96000 241.457
42.97000 246.006
42.98000 238.134
42.99000 226.906
43.00000 216.998
43.01000 225.936
43.02000 236.525
43.03000 244.165
43.04000 239.635
43.05000 233.784
43.06000 230.956
43.07000 236.509
43.08000 242.552
43.09000 246.528
43.10000 236.760
43.11000 229.333
43.12000 223.459
43.13000 219.532
43.14000 215.625
43.15000 216.844
43.16000 222.199
43.17000 227.477
43.18000 227.681
43.19000 225.231
43.20000 222.915
43.21000 222.933
43.22000 223.804
43.23000 224.399
43.24000 222.424
43.25000 219.820
43.26000 217.557
43.27000 217.539
43.28000 217.828
43.29000 218.121
43.30000 218.432
43.31000 218.745
43.32000 218.707
43.33000 217.784
43.34000 216.816
43.35000 216.203
43.36000 224.712
43.37000 231.001
43.38000 232.444
43.39000 228.412
43.40000 224.389
43.41000 222.847
43.42000 223.115
43.43000 223.378
43.44000 229.032
43.45000 237.019
43.46000 244.277
43.47000 240.799
43.48000 233.756
43.49000 227.139
43.50000 224.027
43.51000 221.692
43.52000 219.698
43.53000 213.308
43.54000 207.400
43.55000 205.370
43.56000 216.521
43.57000 228.759
43.58000 235.357
43.59000 228.983
43.60000 222.094
43.61000 217.885
43.62000 224.984
43.63000 230.156
43.64000 229.271
43.65000 222.238
43.66000 215.284
43.67000 216.057
43.68000 221.941
43.69000 227.677
43.70000 230.211
43.71000 231.266
43.72000 231.627
43.73000 223.223
43.74000 212.171
43.75000 203.329
43.76000 210.596
43.77000 221.087
43.78000 229.891
43.79000 221.988
43.80000 213.660
43.81000 208.715
43.82000 214.227
43.83000 220.480
43.84000 223.897
43.85000 221.371
43.86000 218.657
43.87000 217.065
43.88000 221.244
43.89000 224.216
43.90000 226.803
43.91000 229.039
43.92000 231.183
43.93000 227.402
43.94000 220.062
43.95000 212.955
43.96000 213.205
43.97000 216.268
43.98000 219.061
43.99000 218.904
44.00000 217.936
44.01000 217.394
44.02000 219.615
44.03000 222.333
44.04000 224.571
44.05000 219.678
44.06000 215.004
44.07000 212.904
44.08000 218.048
44.09000 223.627
44.10000 226.715
44.11000 225.052
44.12000 223.274
44.13000 222.276
44.14000 221.777
44.15000 221.433
44.16000 221.867
44.17000 222.938
44.18000 224.004
44.19000 224.814
44.20000 225.485
44.21000 226.130
44.22000 228.951
44.23000 232.348
44.24000 235.373
44.25000 234.851
44.26000 233.447
44.27000 232.235
44.28000 232.139
44.29000 232.224
44.30000 232.292
44.31000 232.255
44.32000 232.216
44.33000 231.466
44.34000 228.891
44.35000 226.225
44.36000 226.517
44.37000 231.943
44.38000 237.460
44.39000 240.412
44.40000 232.211
44.41000 226.639
44.42000 226.770
44.43000 231.129
44.44000 235.503
44.45000 240.370
44.46000 245.483
44.47000 250.355
44.48000 249.268
44.49000 246.399
44.50000 243.379
44.51000 239.100
44.52000 234.537
44.53000 231.337
44.54000 235.261
44.55000 240.212
44.56000 244.120
44.57000 242.443
44.58000 240.720
44.59000 241.979
44.60000 250.203
44.61000 258.713
44.62000 263.399
44.63000 262.055
44.64000 260.636
44.65000 259.916
44.66000 264.227
44.67000 267.111
44.68000 269.326
44.69000 271.090
44.70000 272.839
44.71000 274.166
44.72000 275.302
44.73000 276.374
44.74000 284.991
44.75000 295.018
44.76000 303.955
44.77000 304.793
44.78000 303.982
44.79000 303.925
44.80000 307.420
44.81000 311.371
44.82000 314.417
44.83000 330.538
44.84000 344.063
44.85000 356.031
44.86000 364.689
44.87000 373.238
44.88000 377.955
44.89000 377.190
44.90000 376.382
44.91000 380.399
44.92000 388.883
44.93000 397.296
44.94000 400.872
44.95000 401.497
44.96000 402.124
44.97000 402.801
44.98000 403.500
44.99000 404.152
45.00000 403.020
45.01000 401.541
45.02000 401.770
45.03000 413.305
45.04000 426.911
45.05000 437.371
45.06000 434.418
45.07000 429.946
45.08000 426.583
45.09000 412.652
45.10000 401.246
45.11000 392.057
45.12000 387.162
45.13000 382.377
45.14000 379.422
45.15000 378.838
45.16000 378.264
45.17000 375.012
45.18000 369.539
45.19000 364.133
45.20000 361.948
45.21000 361.549
45.22000 360.721
45.23000 351.938
45.24000 340.167
45.25000 329.287
45.26000 337.988
45.27000 350.244
45.28000 359.768
45.29000 353.116
45.30000 343.804
45.31000 335.850
45.32000 333.138
45.33000 330.948
45.34000 329.344
45.35000 327.462
45.36000 325.999
45.37000 322.671
45.38000 316.056
45.39000 309.379
45.40000 308.876
45.41000 315.589
45.42000 322.295
45.43000 323.129
45.44000 319.563
45.45000 315.919
45.46000 309.447
45.47000 301.547
45.48000 294.141
45.49000 294.411
45.50000 297.308
45.51000 299.954
45.52000 295.428
45.53000 289.953
45.54000 284.436
45.55000 278.698
45.56000 272.928
45.57000 269.708
45.58000 275.427
45.59000 281.919
45.60000 286.540
45.61000 282.911
45.62000 279.879
45.63000 277.795
45.64000 277.229
45.65000 276.683
45.66000 275.701
45.67000 274.261
45.68000 272.828
45.69000 268.055
45.70000 261.086
45.71000 254.368
45.72000 254.885
45.73000 258.726
45.74000 262.272
45.75000 261.900
45.76000 260.308
45.77000 258.873
45.78000 250.698
45.79000 242.298
45.80000 235.282
45.81000 234.895
45.82000 235.374
45.83000 236.605
45.84000 240.229
45.85000 244.031
45.86000 246.658
45.87000 244.601
45.88000 242.935
45.89000 242.229
45.90000 242.918
45.91000 243.619
45.92000 242.711
45.93000 240.284
45.94000 237.879
45.95000 233.046
45.96000 226.826
45.97000 220.745
45.98000 217.867
45.99000 216.332
46.00000 214.947
46.01000 215.276
46.02000 216.092
46.03000 216.817
46.04000 217.001
46.05000 217.073
46.06000 217.177
46.07000 217.423
46.08000 217.685
46.09000 218.427
46.10000 220.558
46.11000 222.777
46.12000 224.261
46.13000 222.283
46.14000 220.747
46.15000 218.630
46.16000 215.747
46.17000 212.863
46.18000 211.955
46.19000 212.723
46.20000 213.481
46.21000 213.739
46.22000 213.715
46.23000 213.538
46.24000 210.451
46.25000 206.255
46.26000 202.515
46.27000 203.315
46.28000 205.282
46.29000 207.004
46.30000 202.869
46.31000 198.481
46.32000 196.249
46.33000 202.469
46.34000 209.548
46.35000 213.806
46.36000 210.616
46.37000 207.030
46.38000 204.713
46.39000 202.234
46.40000 200.420
46.41000 201.324
46.42000 205.460
46.43000 209.573
46.44000 206.940
46.45000 199.139
46.46000 191.470
46.47000 197.245
46.48000 209.490
46.49000 220.752
46.50000 216.304
46.51000 206.399
46.52000 197.669
46.53000 199.201
46.54000 203.123
46.55000 206.501
46.56000 211.261
46.57000 215.471
46.58000 218.533
46.59000 217.513
46.60000 216.130
46.61000 212.906
46.62000 205.250
46.63000 197.400
46.64000 192.512
46.65000 198.370
46.66000 202.700
46.67000 206.427
46.68000 209.509
46.69000 212.548
46.70000 210.134
46.71000 203.937
46.72000 197.878
46.73000 194.969
46.74000 193.588
46.75000 192.496
46.76000 195.324
46.77000 199.392
46.78000 202.721
46.79000 200.335
46.80000 196.748
46.81000 193.710
46.82000 192.222
46.83000 191.148
46.84000 190.131
46.85000 189.296
46.86000 188.475
46.87000 189.012
46.88000 192.529
46.89000 196.152
46.90000 198.320
46.91000 197.750
46.92000 197.329
46.93000 197.910
46.94000 199.453
46.95000 200.981
46.96000 201.263
46.97000 200.762
46.98000 200.275
46.99000 196.777
47.00000 192.238
47.01000 188.261
47.02000 190.856
47.03000 195.340
47.04000 199.107
47.05000 197.953
47.06000 195.866
47.07000 194.131
47.08000 192.148
47.09000 190.482
47.10000 190.287
47.11000 194.421
47.12000 198.837
47.13000 200.836
47.14000 198.007
47.15000 195.045
47.16000 193.347
47.17000 194.671
47.18000 195.606
47.19000 196.100
47.20000 196.212
47.21000 196.276
47.22000 193.742
47.23000 189.722
47.24000 185.845
47.25000 189.025
47.26000 194.589
47.27000 199.288
47.28000 195.189
47.29000 188.794
47.30000 183.414
47.31000 184.264
47.32000 186.175
47.33000 187.732
47.34000 188.220
47.35000 188.527
47.36000 189.645
47.37000 192.932
47.38000 196.339
47.39000 199.210
47.40000 201.105
47.41000 202.980
47.42000 204.007
47.43000 191.620
47.44000 183.095
47.45000 177.888
47.46000 175.265
47.47000 172.827
47.48000 177.844
47.49000 186.739
47.50000 195.251
47.51000 193.711
47.52000 188.974
47.53000 184.520
47.54000 182.590
47.55000 181.256
47.56000 179.997
47.57000 179.149
47.58000 178.362
47.59000 177.735
47.60000 183.091
47.61000 187.852
47.62000 190.582
47.63000 188.352
47.64000 185.898
47.65000 184.604
47.66000 185.226
47.67000 185.877
47.68000 186.216
47.69000 184.107
47.70000 182.711
47.71000 185.420
47.72000 191.023
47.73000 196.370
47.74000 193.794
47.75000 187.466
47.76000 181.464
47.77000 182.855
47.78000 186.325
47.79000 189.803
47.80000 193.343
47.81000 196.895
47.82000 199.209
47.83000 195.383
47.84000 190.722
47.85000 187.088
47.86000 191.282
47.87000 195.114
47.88000 195.641
47.89000 188.813
47.90000 181.714
47.91000 178.375
47.92000 180.673
47.93000 183.026
47.94000 182.970
47.95000 180.562
47.96000 178.180
47.97000 178.012
47.98000 179.261
47.99000 180.508
48.00000 181.727
48.01000 182.935
48.02000 184.068
48.03000 179.424
48.04000 173.647
48.05000 168.445
48.06000 167.259
48.07000 166.847
48.08000 168.200
48.09000 177.450
48.10000 187.651
48.11000 195.417
48.12000 190.861
48.13000 186.626
48.14000 183.384
48.15000 182.154
48.16000 180.983
48.17000 180.139
48.18000 179.740
48.19000 179.345
48.20000 179.166
48.21000 179.178
48.22000 179.201
48.23000 179.843
48.24000 180.843
48.25000 181.975
48.26000 185.746
48.27000 190.556
48.28000 195.025
48.29000 188.566
48.30000 180.121
48.31000 173.119
48.32000 175.129
48.33000 178.702
48.34000 181.704
48.35000 182.398
48.36000 182.847
48.37000 183.180
48.38000 181.758
48.39000 180.576
48.40000 180.352
48.41000 181.893
48.42000 183.473
48.43000 182.665
48.44000 178.922
48.45000 175.178
48.46000 176.966
48.47000 183.104
48.48000 189.074
48.49000 187.995
48.50000 183.193
48.51000 178.886
48.52000 182.929
48.53000 189.962
48.54000 196.422
48.55000 192.027
48.56000 185.776
48.57000 179.856
48.58000 175.788
48.59000 172.007
48.60000 170.404
48.61000 176.801
48.62000 183.939
48.63000 189.092
48.64000 187.679
48.65000 186.359
48.66000 185.513
48.67000 185.464
48.68000 185.427
48.69000 184.092
48.70000 181.321
48.71000 178.560
48.72000 177.919
48.73000 178.789
48.74000 179.610
48.75000 178.867
48.76000 177.371
48.77000 175.855
48.78000 174.055
48.79000 172.162
48.80000 170.445
48.81000 177.633
48.82000 185.684
48.83000 191.356
48.84000 185.038
48.85000 177.058
48.86000 171.084
48.87000 171.801
48.88000 173.054
48.89000 173.933
48.90000 173.877
48.91000 173.808
48.92000 173.603
48.93000 173.193
48.94000 172.780
48.95000 173.830
48.96000 176.334
48.97000 178.822
48.98000 178.582
48.99000 176.600
49.00000 174.839
49.01000 178.726
49.02000 185.088
49.03000 190.807
49.04000 188.653
49.05000 184.164
49.06000 180.147
49.07000 177.505
49.08000 175.435
49.09000 174.020
49.10000 175.584
49.11000 177.512
49.12000 178.007
49.13000 174.146
49.14000 169.987
49.15000 167.160
49.16000 167.640
49.17000 168.072
49.18000 168.884
49.19000 170.220
49.20000 171.557
49.21000 171.064
49.22000 168.936
49.23000 166.830
49.24000 169.012
49.25000 173.620
49.26000 177.897
49.27000 175.253
49.28000 169.848
49.29000 165.139
49.30000 167.822
49.31000 172.497
49.32000 176.620
49.33000 175.682
49.34000 174.103
49.35000 173.019
49.36000 173.973
49.37000 175.148
49.38000 175.787
49.39000 174.945
49.40000 174.018
49.41000 173.408
49.42000 169.271
49.43000 166.167
49.44000 166.266
49.45000 170.367
49.46000 174.475
49.47000 176.837
49.48000 177.795
49.49000 178.738
49.50000 179.680
49.51000 180.593
49.52000 181.505
49.53000 182.409
49.54000 183.310
49.55000 183.871
49.56000 181.267
49.57000 177.890
49.58000 174.958
49.59000 175.388
49.60000 176.208
49.61000 176.840
49.62000 176.775
49.63000 176.643
49.64000 176.830
49.65000 177.819
49.66000 178.847
49.67000 179.498
49.68000 173.960
49.69000 169.867
49.70000 168.036
49.71000 168.752
49.72000 169.467
49.73000 169.735
49.74000 169.677
49.75000 169.620
49.76000 171.281
49.77000 173.688
49.78000 176.027
49.79000 177.364
49.80000 178.369
49.81000 179.075
49.82000 177.323
49.83000 175.029
49.84000 173.069
49.85000 175.276
49.86000 177.630
49.87000 178.628
49.88000 175.033
49.89000 171.059
49.90000 168.519
49.91000 169.267
49.92000 170.143
49.93000 170.678
49.94000 176.604
49.95000 180.884
49.96000 185.255
49.97000 189.718
49.98000 194.091
49.99000 189.746
50.00000 179.653
50.01000 169.817
50.02000 168.893
50.03000 171.793
50.04000 174.853
50.05000 179.911
50.06000 185.571
50.07000 189.979
50.08000 185.289
50.09000 178.783
50.10000 173.327
50.11000 173.689
50.12000 174.598
50.13000 175.606
50.14000 176.923
50.15000 178.262
50.16000 178.972
50.17000 178.366
50.18000 177.718
50.19000 177.339
50.20000 181.905
50.21000 185.142
50.22000 186.718
50.23000 186.785
50.24000 186.846
50.25000 186.555
50.26000 186.053
50.27000 185.567
50.28000 189.229
50.29000 194.278
50.30000 198.643
50.31000 195.554
50.32000 190.425
50.33000 186.324
50.34000 188.870
50.35000 192.610
50.36000 195.688
50.37000 194.073
50.38000 192.320
50.39000 192.388
50.40000 197.569
50.41000 203.054
50.42000 206.882
50.43000 207.556
50.44000 208.154
50.45000 208.489
50.46000 207.809
50.47000 207.338
50.48000 207.972
50.49000 209.510
50.50000 211.105
50.51000 215.347
50.52000 221.030
50.53000 226.490
50.54000 226.066
50.55000 223.635
50.56000 221.509
50.57000 222.277
50.58000 223.763
50.59000 224.717
50.60000 222.586
50.61000 219.959
50.62000 217.840
50.63000 226.996
50.64000 235.317
50.65000 241.699
50.66000 243.123
50.67000 244.299
50.68000 243.548
50.69000 239.462
50.70000 235.316
50.71000 233.101
50.72000 234.877
50.73000 236.054
50.74000 230.648
50.75000 220.375
50.76000 210.405
50.77000 211.046
50.78000 216.946
50.79000 222.567
50.80000 224.760
50.81000 225.724
50.82000 226.022
50.83000 220.757
50.84000 214.241
50.85000 208.329
50.86000 205.559
50.87000 203.241
50.88000 201.413
50.89000 204.180
50.90000 206.710
50.91000 207.636
50.92000 204.829
50.93000 201.870
50.94000 198.206
50.95000 193.433
50.96000 188.646
50.97000 186.218
50.98000 189.867
50.99000 192.309
51.00000 194.585
51.01000 196.750
51.02000 198.661
51.03000 193.623
51.04000 185.448
51.05000 177.732
51.06000 175.029
51.07000 173.956
51.08000 173.873
51.09000 181.115
51.10000 189.844
51.11000 195.988
51.12000 189.985
51.13000 182.431
51.14000 176.611
51.15000 175.916
51.16000 175.659
51.17000 176.486
51.18000 179.609
51.19000 182.807
51.20000 183.624
51.21000 181.047
51.22000 178.445
51.23000 176.050
51.24000 173.847
51.25000 171.664
51.26000 170.881
51.27000 170.949
51.28000 170.999
51.29000 170.643
51.30000 170.119
51.31000 169.631
51.32000 167.375
51.33000 164.883
51.34000 163.470
51.35000 169.176
51.36000 176.182
51.37000 181.785
51.38000 181.427
51.39000 180.395
51.40000 179.620
51.41000 176.745
51.42000 174.397
51.43000 172.577
51.44000 171.779
51.45000 171.007
51.46000 171.023
51.47000 172.058
51.48000 173.095
51.49000 172.602
51.50000 170.842
51.51000 169.070
51.52000 166.729
51.53000 164.074
51.54000 161.508
51.55000 160.582
51.56000 160.271
51.57000 159.983
51.58000 158.399
51.59000 156.684
51.60000 155.168
51.61000 154.826
51.62000 154.675
51.63000 156.155
51.64000 163.911
51.65000 172.289
51.66000 178.419
51.67000 176.286
51.68000 174.312
51.69000 172.138
51.70000 169.614
51.71000 167.082
51.72000 168.503
51.73000 174.529
51.74000 180.543
51.75000 177.590
51.76000 167.964
51.77000 158.614
51.78000 159.322
51.79000 165.093
51.80000 170.388
51.81000 168.322
51.82000 163.744
51.83000 159.566
51.84000 161.311
51.85000 164.061
51.86000 166.209
51.87000 165.168
51.88000 163.661
51.89000 162.236
51.90000 161.099
51.91000 159.987
51.92000 159.197
51.93000 158.324
51.94000 157.657
51.95000 157.820
51.96000 159.307
51.97000 160.812
51.98000 163.994
51.99000 168.934
52.00000 173.849
52.01000 174.368
52.02000 171.926
52.03000 169.570
52.04000 169.677
52.05000 170.912
52.06000 171.713
52.07000 166.779
52.08000 160.066
52.09000 154.016
52.10000 156.433
52.11000 160.086
52.12000 162.951
52.13000 162.053
52.14000 160.664
52.15000 159.902
52.16000 161.134
52.17000 162.513
52.18000 163.465
52.19000 162.756
52.20000 162.180
52.21000 161.081
52.22000 159.224
52.23000 157.360
52.24000 157.075
52.25000 158.273
52.26000 159.460
52.27000 159.844
52.28000 159.734
52.29000 159.698
52.30000 161.361
52.31000 163.735
52.32000 166.043
52.33000 167.612
52.34000 168.973
52.35000 170.183
52.36000 166.648
52.37000 162.818
52.38000 159.869
52.39000 160.724
52.40000 162.016
52.41000 161.993
52.42000 158.165
52.43000 154.098
52.44000 151.380
52.45000 151.211
52.46000 151.135
52.47000 154.415
52.48000 162.099
52.49000 169.789
52.50000 170.422
52.51000 165.084
52.52000 159.811
52.53000 158.090
52.54000 158.355
52.55000 158.413
52.56000 154.551
52.57000 149.197
52.58000 144.747
52.59000 149.255
52.60000 156.058
52.61000 162.012
52.62000 158.638
52.63000 154.412
52.64000 150.871
52.65000 150.012
52.66000 149.424
52.67000 149.430
52.68000 151.004
52.69000 152.661
52.70000 153.730
52.71000 148.249
52.72000 144.150
52.73000 144.592
52.74000 150.412
52.75000 156.219
52.76000 156.672
52.77000 153.034
52.78000 149.459
52.79000 152.359
52.80000 158.360
52.81000 163.945
52.82000 162.926
52.83000 159.619
52.84000 156.594
52.85000 156.030
52.86000 156.036
52.87000 156.041
52.88000 152.979
52.89000 149.998
52.90000 149.072
52.91000 155.442
52.92000 162.454
52.93000 165.876
52.94000 160.681
52.95000 155.111
52.96000 151.646
52.97000 154.339
52.98000 156.339
52.99000 159.006
53.00000 162.385
53.01000 165.723
53.02000 164.088
53.03000 159.014
53.04000 154.054
53.05000 156.069
53.06000 161.110
53.07000 165.751
53.08000 164.997
53.09000 162.541
53.10000 160.412
53.11000 160.802
53.12000 161.720
53.13000 162.497
53.14000 158.224
53.15000 154.087
53.16000 151.331
53.17000 153.034
53.18000 155.076
53.19000 156.161
53.20000 155.158
53.21000 154.081
53.22000 153.437
53.23000 148.036
53.24000 144.174
53.25000 142.971
53.26000 144.310
53.27000 145.659
53.28000 147.726
53.29000 150.245
53.30000 152.692
53.31000 152.879
53.32000 152.148
53.33000 151.521
53.34000 152.103
53.35000 153.032
53.36000 153.836
53.37000 153.791
53.38000 153.586
53.39000 153.415
53.40000 154.264
53.41000 155.065
53.42000 156.448
53.43000 159.540
53.44000 162.743
53.45000 164.780
53.46000 164.494
53.47000 164.144
53.48000 163.943
53.49000 165.332
53.50000 166.306
53.51000 166.477
53.52000 165.957
53.53000 165.399
53.54000 162.776
53.55000 158.977
53.56000 155.313
53.57000 155.197
53.58000 156.376
53.59000 157.671
53.60000 160.136
53.61000 162.906
53.62000 165.012
53.63000 163.058
53.64000 160.415
53.65000 158.262
53.66000 160.817
53.67000 163.301
53.68000 164.903
53.69000 164.145
53.70000 163.259
53.71000 159.972
53.72000 152.335
53.73000 144.608
53.74000 140.382
53.75000 150.605
53.76000 157.631
53.77000 159.212
53.78000 156.566
53.79000 153.984
53.80000 153.912
53.81000 155.144
53.82000 156.321
53.83000 156.731
53.84000 156.861
53.85000 156.861
53.86000 155.698
53.87000 154.262
53.88000 152.545
53.89000 149.293
53.90000 145.808
53.91000 143.030
53.92000 152.168
53.93000 160.409
53.94000 164.893
53.95000 160.231
53.96000 155.155
53.97000 150.743
53.98000 147.421
53.99000 144.115
54.00000 142.395
54.01000 154.961
54.02000 163.394
54.03000 163.575
54.04000 157.960
54.05000 152.357
54.06000 147.147
54.07000 142.123
54.08000 137.360
54.09000 138.764
54.10000 141.879
54.11000 144.934
54.12000 147.520
54.13000 150.006
54.14000 151.365
54.15000 147.152
54.16000 142.186
54.17000 138.315
54.18000 143.486
54.19000 148.168
54.20000 151.322
54.21000 151.086
54.22000 150.726
54.23000 151.826
54.24000 155.110
54.25000 158.415
54.26000 159.952
54.27000 159.768
54.28000 159.590
54.29000 159.917
54.30000 160.565
54.31000 161.173
54.32000 160.796
54.33000 159.995
54.34000 159.243
54.35000 158.238
54.36000 157.255
54.37000 156.532
54.38000 157.630
54.39000 159.078
54.40000 160.182
54.41000 159.751
54.42000 159.136
54.43000 158.668
54.44000 148.660
54.45000 140.286
54.46000 136.101
54.47000 140.380
54.48000 144.903
54.49000 147.445
54.50000 147.303
54.51000 147.146
54.52000 149.030
54.53000 152.694
54.54000 156.280
54.55000 155.475
54.56000 152.127
54.57000 149.038
54.58000 151.164
54.59000 155.334
54.60000 159.209
54.61000 163.007
54.62000 166.416
54.63000 168.896
54.64000 165.598
54.65000 161.300
54.66000 156.180
54.67000 147.737
54.68000 138.943
54.69000 132.424
54.70000 135.133
54.71000 137.639
54.72000 139.928
54.73000 141.819
54.74000 143.700
54.75000 144.920
54.76000 145.330
54.77000 145.737
54.78000 144.818
54.79000 142.864
54.80000 140.987
54.81000 142.359
54.82000 145.441
54.83000 148.265
54.84000 146.744
54.85000 143.671
54.86000 140.850
54.87000 146.187
54.88000 152.692
54.89000 157.747
54.90000 154.706
54.91000 150.412
54.92000 147.778
54.93000 151.225
54.94000 155.233
54.95000 158.124
54.96000 153.803
54.97000 150.234
54.98000 149.325
54.99000 152.866
55.00000 156.477
55.01000 157.880
55.02000 156.847
55.03000 155.816
55.04000 155.814
55.05000 156.540
55.06000 157.165
55.07000 154.548
55.08000 150.376
55.09000 146.560
55.10000 147.790
55.11000 150.660
55.12000 153.263
55.13000 153.344
55.14000 152.933
55.15000 152.822
55.16000 154.214
55.17000 155.814
55.18000 157.682
55.19000 160.441
55.20000 163.272
55.21000 165.255
55.22000 168.877
55.23000 171.663
55.24000 171.524
55.25000 166.942
55.26000 162.314
55.27000 161.385
55.28000 164.119
55.29000 166.835
55.30000 165.336
55.31000 161.173
55.32000 157.182
55.33000 157.574
55.34000 159.880
55.35000 162.369
55.36000 167.093
55.37000 172.478
55.38000 177.296
55.39000 182.203
55.40000 186.498
55.41000 189.010
55.42000 183.437
55.43000 176.875
55.44000 173.399
55.45000 179.261
55.46000 185.762
55.47000 190.175
55.48000 197.052
55.49000 202.238
55.50000 205.909
55.51000 207.493
55.52000 209.062
55.53000 208.614
55.54000 206.370
55.55000 204.150
55.56000 208.975
55.57000 217.744
55.58000 226.371
55.59000 232.036
55.60000 236.523
55.61000 241.380
55.62000 250.145
55.63000 259.960
55.64000 268.614
55.65000 268.698
55.66000 267.470
55.67000 267.337
55.68000 271.697
55.69000 276.542
55.70000 283.356
55.71000 295.600
55.72000 308.157
55.73000 316.400
55.74000 320.830
55.75000 324.024
55.76000 326.192
55.77000 327.082
55.78000 327.987
55.79000 335.294
55.80000 347.738
55.81000 359.999
55.82000 368.230
55.83000 374.126
55.84000 379.732
55.85000 380.309
55.86000 379.065
55.87000 378.039
55.88000 379.046
55.89000 380.547
55.90000 381.851
55.91000 380.041
55.92000 378.081
55.93000 376.955
55.94000 378.934
55.95000 381.205
55.96000 382.566
55.97000 381.642
55.98000 380.609
55.99000 379.955
56.00000 365.647
56.01000 355.105
56.02000 353.858
56.03000 363.043
56.04000 372.145
56.05000 366.490
56.06000 350.129
56.07000 334.092
56.08000 327.885
56.09000 326.517
56.10000 324.886
56.11000 319.411
56.12000 312.668
56.13000 305.230
56.14000 292.129
56.15000 277.780
56.16000 265.532
56.17000 266.532
56.18000 268.942
56.19000 268.860
56.20000 260.360
56.21000 251.172
56.22000 244.830
56.23000 244.996
56.24000 245.416
56.25000 245.673
56.26000 246.721
56.27000 247.477
56.28000 244.111
56.29000 236.589
56.30000 229.088
56.31000 223.602
56.32000 219.441
56.33000 215.387
56.34000 213.941
56.35000 213.665
56.36000 213.205
56.37000 210.432
56.38000 206.965
56.39000 203.751
56.40000 202.372
56.41000 201.358
56.42000 200.507
56.43000 199.458
56.44000 198.564
56.45000 197.391
56.46000 195.361
56.47000 193.271
56.48000 189.992
56.49000 184.236
56.50000 178.403
56.51000 174.992
56.52000 174.960
56.53000 174.956
56.54000 176.842
56.55000 180.439
56.56000 183.921
56.57000 180.100
56.58000 171.919
56.59000 164.000
56.60000 163.781
56.61000 166.514
56.62000 168.687
56.63000 164.806
56.64000 159.272
56.65000 154.386
56.66000 153.678
56.67000 153.718
56.68000 153.751
56.69000 154.343
56.70000 154.880
56.71000 154.109
56.72000 149.678
56.73000 145.028
56.74000 143.324
56.75000 147.203
56.76000 151.217
56.77000 153.462
56.78000 150.830
56.79000 148.997
56.80000 147.573
56.81000 146.482
56.82000 145.452
56.83000 147.198
56.84000 150.451
56.85000 153.575
56.86000 155.689
56.87000 157.320
56.88000 158.518
56.89000 155.612
56.90000 151.691
56.91000 148.349
56.92000 148.355
56.93000 148.897
56.94000 149.335
56.95000 148.367
56.96000 147.471
56.97000 145.074
56.98000 138.853
56.99000 132.443
57.00000 132.637
57.01000 144.226
57.02000 156.015
57.03000 162.303
57.04000 150.888
57.05000 143.123
57.06000 140.120
57.07000 140.627
57.08000 141.031
57.09000 137.845
57.10000 132.885
57.11000 128.160
57.12000 133.045
57.13000 140.552
57.14000 146.891
57.15000 143.498
57.16000 137.925
57.17000 133.760
57.18000 136.906
57.19000 141.099
57.20000 144.404
57.21000 142.783
57.22000 141.152
57.23000 139.944
57.24000 139.713
57.25000 139.522
57.26000 140.459
57.27000 143.163
57.28000 145.888
57.29000 147.268
57.30000 143.769
57.31000 141.444
57.32000 140.996
57.33000 141.800
57.34000 142.610
57.35000 143.558
57.36000 144.570
57.37000 145.524
57.38000 142.574
57.39000 138.778
57.40000 135.625
57.41000 137.222
57.42000 139.779
57.43000 143.122
57.44000 150.147
57.45000 157.640
57.46000 163.409
57.47000 153.718
57.48000 145.166
57.49000 140.159
57.50000 142.651
57.51000 145.385
57.52000 145.062
57.53000 140.394
57.54000 135.694
57.55000 132.497
57.56000 130.685
57.57000 128.959
57.58000 133.085
57.59000 140.760
57.60000 148.080
57.61000 147.549
57.62000 143.798
57.63000 140.295
57.64000 140.425
57.65000 141.456
57.66000 142.039
57.67000 139.673
57.68000 136.771
57.69000 134.514
57.70000 134.990
57.71000 135.774
57.72000 136.363
57.73000 133.629
57.74000 131.335
57.75000 130.958
57.76000 134.275
57.77000 137.684
57.78000 139.137
57.79000 138.073
57.80000 137.000
57.81000 138.051
57.82000 140.855
57.83000 143.653
57.84000 146.148
57.85000 148.477
57.86000 150.693
57.87000 150.857
57.88000 150.254
57.89000 149.697
57.90000 146.056
57.91000 142.094
57.92000 138.402
57.93000 136.300
57.94000 134.458
57.95000 132.618
57.96000 130.792
57.97000 128.966
57.98000 127.631
57.99000 131.497
58.00000 134.683
58.01000 138.018
58.02000 141.611
58.03000 145.208
58.04000 146.618
58.05000 145.485
58.06000 144.353
58.07000 140.978
58.08000 135.959
58.09000 131.196
58.10000 135.726
58.11000 144.918
58.12000 153.641
58.13000 155.143
58.14000 154.189
58.15000 153.318
58.16000 148.398
58.17000 143.215
58.18000 138.902
58.19000 139.184
58.20000 140.136
58.21000 140.261
58.22000 137.502
58.23000 134.495
58.24000 132.358
58.25000 134.757
58.26000 136.728
58.27000 138.901
58.28000 141.396
58.29000 143.895
58.30000 144.111
58.31000 141.945
58.32000 139.789
58.33000 140.523
58.34000 143.183
58.35000 145.752
58.36000 145.726
58.37000 144.514
58.38000 143.292
58.39000 141.930
58.40000 140.525
58.41000 139.259
58.42000 141.817
58.43000 144.750
58.44000 146.651
58.45000 143.633
58.46000 139.977
58.47000 138.597
58.48000 144.430
58.49000 150.795
58.50000 155.183
58.51000 141.600
58.52000 130.945
58.53000 125.225
58.54000 126.633
58.55000 128.098
58.56000 129.211
58.57000 129.994
58.58000 130.770
58.59000 130.369
58.60000 129.266
58.61000 128.304
58.62000 130.563
58.63000 134.163
58.64000 137.343
58.65000 135.745
58.66000 132.803
58.67000 130.190
58.68000 131.503
58.69000 133.271
58.70000 134.936
58.71000 136.157
58.72000 137.327
58.73000 138.795
58.74000 141.120
58.75000 143.499
58.76000 145.087
58.77000 134.806
58.78000 126.961
58.79000 124.266
58.80000 128.305
58.81000 132.370
58.82000 134.686
58.83000 135.527
58.84000 136.358
58.85000 137.232
58.86000 138.108
58.87000 138.888
58.88000 137.847
58.89000 136.116
58.90000 134.514
58.91000 134.196
58.92000 134.205
58.93000 134.214
58.94000 138.510
58.95000 142.802
58.96000 145.310
58.97000 140.863
58.98000 135.715
58.99000 132.343
59.00000 133.632
59.01000 135.168
59.02000 136.157
59.03000 134.544
59.04000 133.328
59.05000 133.474
59.06000 135.228
59.07000 136.977
59.08000 137.062
59.09000 135.881
59.10000 134.720
59.11000 134.650
59.12000 135.118
59.13000 135.645
59.14000 137.096
59.15000 138.866
59.16000 140.671
59.17000 142.774
59.18000 144.947
59.19000 146.817
59.20000 141.650
59.21000 136.389
59.22000 131.611
59.23000 128.544
59.24000 125.627
59.25000 125.134
59.26000 130.440
59.27000 135.998
59.28000 139.451
59.29000 137.482
59.30000 136.011
59.31000 134.581
59.32000 133.195
59.33000 131.827
59.34000 132.673
59.35000 135.045
59.36000 137.363
59.37000 136.344
59.38000 133.884
59.39000 131.675
59.40000 132.852
59.41000 135.092
59.42000 137.063
59.43000 136.956
59.44000 136.416
59.45000 135.958
59.46000 135.697
59.47000 135.499
59.48000 135.029
59.49000 133.682
59.50000 132.268
59.51000 131.265
59.52000 131.158
59.53000 131.082
59.54000 131.037
59.55000 132.988
59.56000 134.384
59.57000 136.343
59.58000 138.837
59.59000 141.300
59.60000 141.418
59.61000 140.069
59.62000 138.759
59.63000 137.330
59.64000 135.926
59.65000 134.503
59.66000 132.861
59.67000 131.156
59.68000 129.986
59.69000 132.459
59.70000 135.619
59.71000 138.242
59.72000 139.011
59.73000 139.468
59.74000 139.288
59.75000 137.242
59.76000 135.077
59.77000 134.763
59.78000 138.125
59.79000 141.588
59.80000 143.568
59.81000 142.104
59.82000 141.069
59.83000 139.129
59.84000 136.414
59.85000 133.723
59.86000 132.343
59.87000 131.707
59.88000 131.093
59.89000 132.690
59.90000 134.991
59.91000 136.919
59.92000 135.084
59.93000 132.273
59.94000 129.979
59.95000 130.844
59.96000 132.244
59.97000 133.382
59.98000 130.612
59.99000 128.020
60.00000 126.217
60.01000 126.516
60.02000 126.928
60.03000 127.620
60.04000 128.814
60.05000 130.019
60.06000 130.677
60.07000 126.683
60.08000 123.944
60.09000 124.007
60.10000 126.239
60.11000 128.476
60.12000 130.852
60.13000 133.301
60.14000 135.643
60.15000 135.136
60.16000 133.732
60.17000 132.716
60.18000 135.121
60.19000 138.332
60.20000 141.141
60.21000 141.756
60.22000 142.037
60.23000 142.262
60.24000 138.602
60.25000 135.368
60.26000 132.707
60.27000 131.436
60.28000 130.227
60.29000 130.263
60.30000 132.344
60.31000 134.454
60.32000 135.551
60.33000 132.040
60.34000 129.682
60.35000 129.192
60.36000 130.010
60.37000 130.749
60.38000 129.053
60.39000 126.210
60.40000 123.515
60.41000 128.211
60.42000 134.712
60.43000 140.378
60.44000 139.524
60.45000 137.284
60.46000 135.340
60.47000 134.851
60.48000 134.558
60.49000 134.330
60.50000 133.897
60.51000 133.540
60.52000 131.371
60.53000 125.193
60.54000 118.869
60.55000 117.717
60.56000 124.274
60.57000 130.904
60.58000 133.089
60.59000 130.961
60.60000 128.857
60.61000 128.757
60.62000 129.928
60.63000 131.103
60.64000 132.334
60.65000 133.590
60.66000 134.770
60.67000 133.886
60.68000 132.535
60.69000 131.493
60.70000 132.608
60.71000 134.137
60.72000 134.684
60.73000 130.872
60.74000 126.538
60.75000 123.244
60.76000 131.279
60.77000 138.187
60.78000 141.462
60.79000 137.413
60.80000 133.155
60.81000 132.065
60.82000 135.253
60.83000 138.463
60.84000 140.694
60.85000 142.069
60.86000 143.384
60.87000 141.346
60.88000 137.371
60.89000 133.480
60.90000 131.256
60.91000 129.683
60.92000 128.222
60.93000 131.133
60.94000 134.798
60.95000 137.983
60.96000 138.192
60.97000 137.887
60.98000 137.296
60.99000 135.553
61.00000 133.687
61.01000 132.306
61.02000 133.628
61.03000 134.772
61.04000 135.829
61.05000 136.728
61.06000 137.623
61.07000 140.227
61.08000 144.917
61.09000 149.603
61.10000 149.364
61.11000 145.271
61.12000 141.163
61.13000 136.432
61.14000 131.375
61.15000 126.636
61.16000 127.218
61.17000 129.693
61.18000 131.966
61.19000 134.776
61.20000 137.396
61.21000 139.320
61.22000 137.364
61.23000 134.809
61.24000 132.867
61.25000 133.159
61.26000 133.656
61.27000 134.014
61.28000 135.482
61.29000 136.646
61.30000 136.455
61.31000 134.004
61.32000 131.519
61.33000 130.577
61.34000 131.334
61.35000 132.088
61.36000 132.379
61.37000 132.341
61.38000 132.276
61.39000 131.367
61.40000 130.055
61.41000 129.202
61.42000 134.863
61.43000 142.634
61.44000 149.678
61.45000 148.640
61.46000 146.184
61.47000 144.702
61.48000 148.092
61.49000 152.151
61.50000 157.338
61.51000 166.264
61.52000 175.487
61.53000 181.941
61.54000 192.622
61.55000 200.817
61.56000 214.093
61.57000 235.064
61.58000 256.115
61.59000 267.706
61.60000 269.957
61.61000 272.193
61.62000 280.643
61.63000 292.910
61.64000 304.929
61.65000 310.689
61.66000 313.724
61.67000 316.656
61.68000 318.349
61.69000 319.676
61.70000 320.864
61.71000 319.144
61.72000 317.151
61.73000 314.561
61.74000 309.276
61.75000 303.663
61.76000 296.381
61.77000 284.060
61.78000 271.397
61.79000 262.809
61.80000 235.292
61.81000 214.352
61.82000 199.617
61.83000 193.402
61.84000 187.240
61.85000 182.401
61.86000 178.735
61.87000 175.108
61.88000 167.607
61.89000 158.053
61.90000 148.798
61.91000 145.692
61.92000 145.027
61.93000 144.270
61.94000 142.546
61.95000 140.562
61.96000 138.815
61.97000 144.973
61.98000 151.475
61.99000 156.036
62.00000 152.656
62.01000 148.424
62.02000 144.391
62.03000 140.909
62.04000 137.459
62.05000 135.196
62.06000 137.667
62.07000 139.562
62.08000 140.324
62.09000 139.677
62.10000 139.028
62.11000 139.046
62.12000 139.595
62.13000 140.137
62.14000 142.126
62.15000 144.805
62.16000 147.195
62.17000 144.616
62.18000 140.241
62.19000 136.205
62.20000 135.306
62.21000 135.168
62.22000 135.048
62.23000 137.679
62.24000 140.288
62.25000 142.053
62.26000 140.690
62.27000 139.033
62.28000 138.836
62.29000 142.295
62.30000 145.929
62.31000 148.228
62.32000 146.228
62.33000 144.727
62.34000 144.354
62.35000 145.242
62.36000 146.114
62.37000 144.362
62.38000 140.713
62.39000 137.137
62.40000 136.857
62.41000 138.127
62.42000 139.433
62.43000 141.259
62.44000 143.257
62.45000 145.369
62.46000 148.413
62.47000 151.661
62.48000 154.432
62.49000 156.436
62.50000 158.032
62.51000 158.678
62.52000 156.123
62.53000 153.306
62.54000 150.962
62.55000 149.695
62.56000 148.470
62.57000 147.725
62.58000 147.409
62.59000 147.187
62.60000 146.070
62.61000 144.053
62.62000 142.064
62.63000 142.699
62.64000 145.054
62.65000 147.348
62.66000 145.636
62.67000 142.313
62.68000 139.292
62.69000 140.036
62.70000 141.906
62.71000 142.759
62.72000 136.272
62.73000 128.330
62.74000 121.676
62.75000 131.744
62.76000 141.846
62.77000 149.224
62.78000 148.253
62.79000 146.700
62.80000 145.460
62.81000 144.870
62.82000 144.299
62.83000 143.966
62.84000 145.360
62.85000 146.347
62.86000 146.359
62.87000 145.492
62.88000 144.646
62.89000 145.161
62.90000 146.487
62.91000 147.771
62.92000 145.571
62.93000 142.168
62.94000 138.832
62.95000 136.219
62.96000 133.802
62.97000 131.932
62.98000 133.583
62.99000 135.860
63.00000 137.732
63.01000 140.002
63.02000 141.902
63.03000 143.948
63.04000 146.400
63.05000 148.876
63.06000 151.274
63.07000 153.524
63.08000 155.770
63.09000 157.025
63.10000 152.709
63.11000 149.704
63.12000 145.323
63.13000 139.821
63.14000 134.455
63.15000 135.192
63.16000 139.235
63.17000 143.116
63.18000 148.469
63.19000 153.981
63.20000 158.613
63.21000 154.949
63.22000 149.238
63.23000 144.351
63.24000 144.212
63.25000 144.832
63.26000 145.332
63.27000 148.178
63.28000 150.671
63.29000 151.540
63.30000 148.286
63.31000 144.828
63.32000 141.824
63.33000 139.601
63.34000 137.392
63.35000 136.215
63.36000 143.611
63.37000 148.635
63.38000 150.406
63.39000 149.786
63.40000 149.090
63.41000 145.788
63.42000 141.201
63.43000 136.834
63.44000 139.695
63.45000 144.581
63.46000 148.606
63.47000 145.487
63.48000 140.773
63.49000 137.360
63.50000 140.689
63.51000 144.979
63.52000 148.359
63.53000 152.497
63.54000 155.863
63.55000 156.434
63.56000 150.532
63.57000 144.369
63.58000 140.821
63.59000 141.359
63.60000 141.946
63.61000 142.243
63.62000 145.669
63.63000 147.927
63.64000 146.516
63.65000 142.663
63.66000 138.981
63.67000 139.956
63.68000 143.020
63.69000 145.911
63.70000 149.381
63.71000 152.723
63.72000 155.828
63.73000 157.192
63.74000 158.205
63.75000 158.493
63.76000 155.397
63.77000 151.872
63.78000 149.160
63.79000 152.360
63.80000 155.227
63.81000 157.251
63.82000 157.500
63.83000 157.691
63.84000 155.308
63.85000 149.276
63.86000 143.220
63.87000 145.721
63.88000 156.071
63.89000 166.250
63.90000 165.020
63.91000 156.893
63.92000 149.037
63.93000 147.153
63.94000 147.710
63.95000 148.231
63.96000 153.424
63.97000 159.303
63.98000 163.920
63.99000 160.277
64.00000 155.135
64.01000 152.073
64.02000 157.797
64.03000 164.505
64.04000 169.538
64.05000 163.261
64.06000 157.819
64.07000 154.429
64.08000 154.976
64.09000 155.621
64.10000 157.045
64.11000 159.469
64.12000 161.893
64.13000 164.075
64.14000 166.051
64.15000 167.928
64.16000 165.072
64.17000 159.615
64.18000 154.594
64.19000 157.505
64.20000 163.370
64.21000 168.785
64.22000 166.162
64.23000 162.003
64.24000 159.051
64.25000 163.167
64.26000 168.435
64.27000 171.602
64.28000 166.726
64.29000 161.061
64.30000 156.922
64.31000 161.850
64.32000 166.004
64.33000 169.436
64.34000 171.606
64.35000 173.752
64.36000 173.148
64.37000 169.361
64.38000 165.582
64.39000 162.486
64.40000 159.921
64.41000 157.490
64.42000 159.864
64.43000 164.642
64.44000 169.449
64.45000 174.705
64.46000 180.113
64.47000 185.046
64.48000 179.407
64.49000 172.278
64.50000 166.080
64.51000 164.782
64.52000 164.197
64.53000 164.873
64.54000 169.932
64.55000 175.365
64.56000 179.222
64.57000 166.053
64.58000 155.492
64.59000 151.341
64.60000 157.369
64.61000 163.526
64.62000 169.765
64.63000 176.089
64.64000 182.379
64.65000 183.989
64.66000 182.451
64.67000 180.872
64.68000 178.131
64.69000 174.860
64.70000 172.339
64.71000 179.610
64.72000 189.904
64.73000 199.171
64.74000 194.119
64.75000 187.117
64.76000 181.447
64.77000 182.111
64.78000 183.593
64.79000 184.709
64.80000 184.665
64.81000 184.537
64.82000 184.448
64.83000 186.536
64.84000 188.157
64.85000 188.364
64.86000 186.532
64.87000 184.685
64.88000 184.750
64.89000 186.600
64.90000 188.435
64.91000 188.802
64.92000 188.278
64.93000 187.854
64.94000 189.699
64.95000 192.486
64.96000 194.790
64.97000 191.639
64.98000 186.958
64.99000 182.803
65.00000 193.469
65.01000 205.084
65.02000 214.108
65.03000 212.013
65.04000 208.647
65.05000 207.217
65.06000 211.356
65.07000 215.842
65.08000 218.834
65.09000 224.806
65.10000 229.285
65.11000 229.012
65.12000 222.545
65.13000 216.067
65.14000 218.579
65.15000 228.646
65.16000 238.586
65.17000 243.052
65.18000 244.425
65.19000 245.866
65.20000 248.564
65.21000 251.737
65.22000 254.706
65.23000 255.667
65.24000 256.116
65.25000 256.509
65.26000 248.722
65.27000 240.889
65.28000 236.589
65.29000 246.024
65.30000 256.837
65.31000 265.419
65.32000 268.159
65.33000 270.592
65.34000 272.159
65.35000 280.038
65.36000 285.879
65.37000 288.702
65.38000 287.971
65.39000 287.253
65.40000 290.569
65.41000 296.946
65.42000 303.214
65.43000 312.041
65.44000 321.826
65.45000 330.983
65.46000 330.279
65.47000 326.176
65.48000 322.325
65.49000 320.638
65.50000 319.451
65.51000 318.430
65.52000 322.643
65.53000 326.866
65.54000 331.294
65.55000 336.443
65.56000 341.656
65.57000 347.757
65.58000 355.981
65.59000 364.296
65.60000 369.454
65.61000 380.275
65.62000 388.116
65.63000 400.343
65.64000 417.215
65.65000 434.140
65.66000 457.250
65.67000 484.610
65.68000 511.345
65.69000 557.455
65.70000 610.207
65.71000 663.177
65.72000 719.075
65.73000 775.891
65.74000 834.646
65.75000 908.213
65.76000 984.867
65.77000 1049.662
65.78000 1111.686
65.79000 1163.261
65.80000 1211.550
65.81000 1249.295
65.82000 1286.245
65.83000 1309.406
65.84000 1302.594
65.85000 1294.742
65.86000 1290.062
65.87000 1328.967
65.88000 1356.807
65.89000 1360.984
65.90000 1342.676
65.91000 1324.222
65.92000 1294.748
65.93000 1258.402
65.94000 1223.112
65.95000 1149.185
65.96000 1063.563
65.97000 978.889
65.98000 905.155
65.99000 834.538
66.00000 764.241
66.01000 696.116
66.02000 628.400
66.03000 572.219
66.04000 524.216
66.05000 485.335
66.06000 451.514
66.07000 432.464
66.08000 414.363
66.09000 397.219
66.10000 381.972
66.11000 366.776
66.12000 358.097
66.13000 345.232
66.14000 336.247
66.15000 332.009
66.16000 331.828
66.17000 331.578
66.18000 327.712
66.19000 321.796
66.20000 316.094
66.21000 323.299
66.22000 334.731
66.23000 345.953
66.24000 355.064
66.25000 363.628
66.26000 373.160
66.27000 388.573
66.28000 404.978
66.29000 418.319
66.30000 429.966
66.31000 439.331
66.32000 449.705
66.33000 462.760
66.34000 475.960
66.35000 489.034
66.36000 501.879
66.37000 514.719
66.38000 521.722
66.39000 523.429
66.40000 524.586
66.41000 523.725
66.42000 521.307
66.43000 518.795
66.44000 512.612
66.45000 504.536
66.46000 496.814
66.47000 498.013
66.48000 502.031
66.49000 505.081
66.50000 499.586
66.51000 492.088
66.52000 483.488
66.53000 468.879
66.54000 453.365
66.55000 441.013
66.56000 416.825
66.57000 396.470
66.58000 378.040
66.59000 364.271
66.60000 350.710
66.61000 344.433
66.62000 350.087
66.63000 355.913
66.64000 358.935
66.65000 361.605
66.66000 363.352
66.67000 357.923
66.68000 347.483
66.69000 337.251
66.70000 333.328
66.71000 332.369
66.72000 331.461
66.73000 339.292
66.74000 349.068
66.75000 357.645
66.76000 356.877
66.77000 354.128
66.78000 351.255
66.79000 347.767
66.80000 344.197
66.81000 341.418
66.82000 348.442
66.83000 354.637
66.84000 358.939
66.85000 359.065
66.86000 359.041
66.87000 361.229
66.88000 366.707
66.89000 372.217
66.90000 369.623
66.91000 359.197
66.92000 348.939
66.93000 352.348
66.94000 364.414
66.95000 376.027
66.96000 376.650
66.97000 372.569
66.98000 368.740
66.99000 378.511
67.00000 391.002
67.01000 401.472
67.02000 397.946
67.03000 391.745
67.04000 385.850
67.05000 381.308
67.06000 376.928
67.07000 373.600
67.08000 379.044
67.09000 383.778
67.10000 387.670
67.11000 389.868
67.12000 392.018
67.13000 394.530
67.14000 397.529
67.15000 400.529
67.16000 402.992
67.17000 404.983
67.18000 406.971
67.19000 408.744
67.20000 410.392
67.21000 411.826
67.22000 408.987
67.23000 404.481
67.24000 400.298
67.25000 405.278
67.26000 411.939
67.27000 418.093
67.28000 421.114
67.29000 423.597
67.30000 425.993
67.31000 428.043
67.32000 430.056
67.33000 431.546
67.34000 426.936
67.35000 423.095
67.36000 421.991
67.37000 425.893
67.38000 429.902
67.39000 432.462
67.40000 433.258
67.41000 434.048
67.42000 437.149
67.43000 442.038
67.44000 446.857
67.45000 448.864
67.46000 449.397
67.47000 449.869
67.48000 449.337
67.49000 448.448
67.50000 447.632
67.51000 454.703
67.52000 462.682
67.53000 470.163
67.54000 474.885
67.55000 479.182
67.56000 482.437
67.57000 481.896
67.58000 481.008
67.59000 480.369
67.60000 481.686
67.61000 482.763
67.62000 482.679
67.63000 480.662
67.64000 478.616
67.65000 482.285
67.66000 492.221
67.67000 502.119
67.68000 507.017
67.69000 508.353
67.70000 509.475
67.71000 503.827
67.72000 494.953
67.73000 487.298
67.74000 496.819
67.75000 511.891
67.76000 525.549
67.77000 526.640
67.78000 525.215
67.79000 523.756
67.80000 522.122
67.81000 520.465
67.82000 522.136
67.83000 534.818
67.84000 548.370
67.85000 557.845
67.86000 548.867
67.87000 541.563
67.88000 538.848
67.89000 543.067
67.90000 547.356
67.91000 551.321
67.92000 554.968
67.93000 558.589
67.94000 560.503
67.95000 561.307
67.96000 562.458
67.97000 572.331
67.98000 585.994
67.99000 598.121
68.00000 591.672
68.01000 579.764
68.02000 569.119
68.03000 575.827
68.04000 584.613
68.05000 593.393
68.06000 602.150
68.07000 610.903
68.08000 617.158
68.09000 615.892
68.10000 614.117
68.11000 612.915
68.12000 622.953
68.13000 630.683
68.14000 633.239
68.15000 628.714
68.16000 624.157
68.17000 630.672
68.18000 646.976
68.19000 663.107
68.20000 668.488
68.21000 667.605
68.22000 666.463
68.23000 660.005
68.24000 651.443
68.25000 644.470
68.26000 654.178
68.27000 668.339
68.28000 680.813
68.29000 695.164
68.30000 707.809
68.31000 717.621
68.32000 715.878
68.33000 712.898
68.34000 712.943
68.35000 721.277
68.36000 730.085
68.37000 735.854
68.38000 744.030
68.39000 750.080
68.40000 757.293
68.41000 765.947
68.42000 774.610
68.43000 785.281
68.44000 797.553
68.45000 809.641
68.46000 822.285
68.47000 834.838
68.48000 847.508
68.49000 862.186
68.50000 877.587
68.51000 893.995
68.52000 919.659
68.53000 947.563
68.54000 971.759
68.55000 985.400
68.56000 995.607
68.57000 1010.953
68.58000 1045.305
68.59000 1081.434
68.60000 1124.781
68.61000 1186.141
68.62000 1248.358
68.63000 1287.673
68.64000 1346.041
68.65000 1388.560
68.66000 1433.672
68.67000 1481.676
68.68000 1529.841
68.69000 1602.536
68.70000 1692.921
68.71000 1781.488
68.72000 1858.466
68.73000 1927.117
68.74000 1996.206
68.75000 2071.624
68.76000 2149.119
68.77000 2226.404
68.78000 2301.985
68.79000 2377.194
68.80000 2441.316
68.81000 2563.590
68.82000 2673.296
68.83000 2797.869
68.84000 2972.388
68.85000 3150.955
68.86000 3362.414
68.87000 3648.672
68.88000 3937.822
68.89000 4113.625
68.90000 5136.631
68.91000 5873.659
68.92000 7159.762
68.93000 8995.818
68.94000 10844.894
68.95000 13902.876
68.96000 17751.033
68.97000 21499.238
68.98000 26615.410
68.99000 32068.230
69.00000 37525.520
69.01000 43038.176
69.02000 48567.363
69.03000 53887.234
69.04000 57702.598
69.05000 61220.637
69.06000 64166.371
69.07000 65706.797
69.08000 66842.617
69.09000 67794.414
69.10000 68183.898
69.11000 68534.313
69.12000 69017.117
69.13000 69774.172
69.14000 70539.641
69.15000 70986.156
69.16000 71685.969
69.17000 72178.648
69.18000 71841.164
69.19000 70757.070
69.20000 69654.461
69.21000 67398.039
69.22000 64456.707
69.23000 61611.273
69.24000 58169.445
69.25000 54692.461
69.26000 51237.199
69.27000 48015.164
69.28000 44856.375
69.29000 41872.309
69.30000 40008.168
69.31000 38343.148
69.32000 36975.660
69.33000 35842.277
69.34000 34932.547
69.35000 33972.500
69.36000 32872.504
69.37000 31764.273
69.38000 30330.016
69.39000 28280.857
69.40000 26217.260
69.41000 25065.949
69.42000 21151.340
69.43000 18436.441
69.44000 15890.286
69.45000 13480.907
69.46000 11081.985
69.47000 9153.984
69.48000 7480.201
69.49000 5873.340
69.50000 4830.834
69.51000 4048.998
69.52000 3303.836
69.53000 2902.875
69.54000 2586.565
69.55000 2293.720
69.56000 2135.586
69.57000 1998.922
69.58000 1888.972
69.59000 1771.959
69.60000 1676.498
69.61000 1592.781
69.62000 1538.819
69.63000 1486.315
69.64000 1433.733
69.65000 1381.015
69.66000 1328.294
69.67000 1300.260
69.68000 1241.099
69.69000 1200.872
69.70000 1171.371
69.71000 1149.728
69.72000 1127.858
69.73000 1098.204
69.74000 1064.725
69.75000 1032.857
69.76000 1005.022
69.77000 980.499
69.78000 957.218
69.79000 944.216
69.80000 933.502
69.81000 921.326
69.82000 901.608
69.83000 880.817
69.84000 864.454
69.85000 849.409
69.86000 837.443
69.87000 825.390
69.88000 813.131
69.89000 800.865
69.90000 791.382
69.91000 786.239
69.92000 781.146
69.93000 778.575
69.94000 758.033
69.95000 744.373
69.96000 738.595
69.97000 738.050
69.98000 737.032
69.99000 723.238
70.00000 703.726
