20.00000 553.720
20.01000 552.189
20.02000 550.439
20.03000 549.802
20.04000 553.513
20.05000 557.664
20.06000 560.714
20.07000 556.907
20.08000 553.684
20.09000 553.402
20.10000 558.365
20.11000 563.432
20.12000 565.658
20.13000 564.522
20.14000 563.384
20.15000 564.681
20.16000 567.815
20.17000 570.919
20.18000 572.866
20.19000 574.221
20.20000 574.895
20.21000 564.749
20.22000 550.858
20.23000 538.154
20.24000 544.836
20.25000 554.770
20.26000 563.494
20.27000 565.702
20.28000 566.938
20.29000 567.380
20.30000 565.005
20.31000 562.382
20.32000 560.509
20.33000 553.913
20.34000 548.723
20.35000 546.871
20.36000 550.430
20.37000 554.063
20.38000 556.777
20.39000 558.511
20.40000 560.236
20.41000 556.532
20.42000 549.162
20.43000 541.900
20.44000 537.805
20.45000 535.184
20.46000 532.813
20.47000 533.825
20.48000 535.904
20.49000 537.781
20.50000 532.670
20.51000 526.891
20.52000 524.541
20.53000 538.829
20.54000 555.324
20.55000 565.534
20.56000 555.483
20.57000 543.894
20.58000 535.860
20.59000 538.971
20.60000 541.607
20.61000 548.171
20.62000 560.510
20.63000 572.899
20.64000 575.385
20.65000 568.408
20.66000 561.487
20.67000 555.034
20.68000 548.982
20.69000 543.035
20.70000 539.574
20.71000 537.167
20.72000 535.480
20.73000 542.170
20.74000 551.259
20.75000 559.352
20.76000 558.770
20.77000 556.841
20.78000 555.867
20.79000 559.082
20.80000 562.788
20.81000 563.643
20.82000 556.134
20.83000 548.084
20.84000 542.678
20.85000 555.653
20.86000 565.663
20.87000 565.286
20.88000 551.075
20.89000 536.807
20.90000 531.488
20.91000 533.860
20.92000 536.204
20.93000 540.548
20.94000 545.897
20.95000 550.986
20.96000 551.008
20.97000 549.075
20.98000 546.942
20.99000 542.776
21.00000 538.082
21.01000 533.964
21.02000 533.662
21.03000 533.958
21.04000 535.707
21.05000 543.220
21.06000 551.329
21.07000 556.519
21.08000 553.913
21.09000 550.883
21.10000 548.916
21.11000 541.436
21.12000 535.876
21.13000 537.888
21.14000 549.013
21.15000 560.105
21.16000 557.884
21.17000 545.339
21.18000 532.997
21.19000 529.305
21.20000 530.069
21.21000 531.073
21.22000 535.994
21.23000 542.292
21.24000 548.145
21.25000 550.041
21.26000 551.005
21.27000 551.837
21.28000 549.303
21.29000 546.720
21.30000 543.164
21.31000 536.111
21.32000 528.742
21.33000 526.133
21.34000 535.106
21.35000 544.601
21.36000 550.540
21.37000 535.107
21.38000 523.743
21.39000 522.790
21.40000 533.120
21.41000 543.397
21.42000 545.995
21.43000 543.203
21.44000 540.471
21.45000 537.586
21.46000 534.747
21.47000 532.177
21.48000 533.328
21.49000 535.668
21.50000 537.311
21.51000 533.485
21.52000 528.494
21.53000 524.260
21.54000 529.380
21.55000 534.734
21.56000 538.414
21.57000 536.614
21.58000 534.388
21.59000 533.334
21.60000 534.879
21.61000 536.519
21.62000 537.505
21.63000 533.700
21.64000 530.962
21.65000 531.176
21.66000 534.261
21.67000 537.324
21.68000 538.547
21.69000 538.599
21.70000 538.650
21.71000 534.914
21.72000 529.813
21.73000 525.915
21.74000 536.340
21.75000 550.931
21.76000 563.145
21.77000 558.801
21.78000 551.276
21.79000 545.008
21.80000 557.077
21.81000 568.895
21.82000 578.530
21.83000 581.660
21.84000 584.358
21.85000 582.585
21.86000 571.786
21.87000 560.728
21.88000 554.354
21.89000 568.034
21.90000 577.684
21.91000 582.337
21.92000 582.622
21.93000 582.935
21.94000 584.867
21.95000 587.736
21.96000 590.506
21.97000 589.705
21.98000 587.633
21.99000 586.267
22.00000 592.198
22.01000 600.056
22.02000 608.354
22.03000 619.385
22.04000 630.887
22.05000 640.282
22.06000 635.149
22.07000 629.694
22.08000 626.764
22.09000 630.679
22.10000 634.978
22.11000 638.214
22.12000 639.498
22.13000 640.739
22.14000 641.423
22.15000 629.896
22.16000 621.939
22.17000 615.702
22.18000 610.820
22.19000 606.075
22.20000 607.012
22.21000 610.938
22.22000 614.698
22.23000 617.692
22.24000 620.229
22.25000 622.509
22.26000 622.460
22.27000 621.853
22.28000 621.270
22.29000 620.811
22.30000 620.373
22.31000 620.022
22.32000 618.064
22.33000 616.361
22.34000 612.167
22.35000 601.820
22.36000 591.186
22.37000 583.621
22.38000 581.184
22.39000 578.826
22.40000 577.590
22.41000 577.196
22.42000 576.908
22.43000 573.684
22.44000 568.366
22.45000 563.231
22.46000 563.969
22.47000 567.519
22.48000 570.890
22.49000 573.389
22.50000 575.435
22.51000 575.979
22.52000 564.527
22.53000 550.477
22.54000 540.249
22.55000 549.198
22.56000 560.790
22.57000 569.856
22.58000 550.929
22.59000 534.039
22.60000 521.823
22.61000 520.127
22.62000 518.829
22.63000 516.582
22.64000 512.895
22.65000 509.193
22.66000 512.552
22.67000 522.900
22.68000 533.139
22.69000 533.837
22.70000 528.367
22.71000 523.039
22.72000 521.341
22.73000 521.229
22.74000 521.123
22.75000 518.744
22.76000 515.958
22.77000 513.830
22.78000 516.375
22.79000 519.832
22.80000 522.132
22.81000 519.188
22.82000 515.603
22.83000 512.865
22.84000 515.225
22.85000 517.359
22.86000 517.899
22.87000 515.167
22.88000 512.337
22.89000 509.065
22.90000 505.182
22.91000 501.297
22.92000 503.933
22.93000 512.354
22.94000 520.706
22.95000 524.940
22.96000 526.756
22.97000 528.141
22.98000 520.599
22.99000 509.506
23.00000 499.183
23.01000 507.122
23.02000 518.723
23.03000 526.919
23.04000 513.556
23.05000 496.405
23.06000 482.931
23.07000 484.526
23.08000 487.744
23.09000 490.139
23.10000 499.699
23.11000 507.459
23.12000 510.729
23.13000 505.619
23.14000 500.319
23.15000 496.161
23.16000 493.424
23.17000 490.696
23.18000 493.900
23.19000 501.824
23.20000 509.640
23.21000 512.736
23.22000 513.310
23.23000 514.137
23.24000 519.318
23.25000 526.075
23.26000 532.292
23.27000 526.279
23.28000 518.245
23.29000 510.231
23.30000 502.330
23.31000 494.447
23.32000 488.249
23.33000 488.308
23.34000 488.958
23.35000 489.428
23.36000 499.089
23.37000 506.847
23.38000 508.042
23.39000 498.096
23.40000 487.966
23.41000 483.085
23.42000 484.089
23.43000 485.095
23.44000 483.534
23.45000 480.143
23.46000 476.943
23.47000 480.085
23.48000 486.310
23.49000 491.745
23.50000 485.657
23.51000 475.769
23.52000 466.784
23.53000 478.110
23.54000 492.070
23.55000 503.151
23.56000 499.542
23.57000 493.869
23.58000 489.981
23.59000 492.114
23.60000 494.738
23.61000 496.585
23.62000 486.116
23.63000 477.818
23.64000 476.194
23.65000 484.863
23.66000 493.646
23.67000 500.630
23.68000 505.802
23.69000 510.940
23.70000 506.385
23.71000 495.620
23.72000 485.321
23.73000 487.298
23.74000 494.714
23.75000 501.615
23.76000 502.082
23.77000 500.619
23.78000 499.306
23.79000 494.434
23.80000 489.559
23.81000 485.571
23.82000 485.665
23.83000 486.268
23.84000 487.405
23.85000 490.184
23.86000 493.078
23.87000 495.051
23.88000 485.224
23.89000 477.602
23.90000 473.794
23.91000 475.314
23.92000 476.873
23.93000 480.319
23.94000 485.474
23.95000 490.578
23.96000 493.870
23.97000 496.035
23.98000 497.824
23.99000 491.573
24.00000 482.077
24.01000 473.451
24.02000 474.237
24.03000 477.589
24.04000 480.550
24.05000 481.066
24.06000 481.134
24.07000 482.346
24.08000 488.322
24.09000 494.821
24.10000 496.779
24.11000 486.044
24.12000 474.556
24.13000 466.975
24.14000 470.242
24.15000 472.841
24.16000 476.122
24.17000 480.263
24.18000 484.403
24.19000 486.765
24.20000 487.678
24.21000 488.578
24.22000 483.550
24.23000 475.540
24.24000 467.741
24.25000 463.690
24.26000 461.017
24.27000 459.246
24.28000 465.989
24.29000 474.838
24.30000 482.537
24.31000 483.409
24.32000 483.218
24.33000 483.462
24.34000 485.342
24.35000 487.380
24.36000 489.453
24.37000 491.617
24.38000 493.784
24.39000 495.165
24.40000 491.887
24.41000 489.445
24.42000 486.480
24.43000 482.919
24.44000 479.368
24.45000 477.693
24.46000 477.400
24.47000 477.112
24.48000 475.698
24.49000 473.800
24.50000 472.095
24.51000 473.289
24.52000 475.453
24.53000 477.432
24.54000 477.868
24.55000 477.960
24.56000 478.038
24.57000 479.760
24.58000 481.412
24.59000 482.400
24.60000 481.113
24.61000 479.636
24.62000 478.798
24.63000 479.442
24.64000 480.145
24.65000 480.577
24.66000 471.781
24.67000 465.401
24.68000 464.285
24.69000 468.565
24.70000 472.887
24.71000 481.573
24.72000 493.171
24.73000 504.482
24.74000 499.032
24.75000 486.624
24.76000 475.067
24.77000 474.407
24.78000 477.066
24.79000 478.184
24.80000 467.948
24.81000 455.419
24.82000 444.886
24.83000 447.379
24.84000 450.837
24.85000 455.832
24.86000 465.619
24.87000 475.750
24.88000 480.891
24.89000 475.489
24.90000 469.746
24.91000 466.365
24.92000 463.436
24.93000 461.373
24.94000 463.034
24.95000 468.120
24.96000 473.118
24.97000 472.256
24.98000 467.844
24.99000 463.569
25.00000 469.381
25.01000 478.793
25.02000 487.763
25.03000 491.839
25.04000 494.561
25.05000 495.951
25.06000 488.598
25.07000 479.656
25.08000 472.280
25.09000 469.947
25.10000 468.492
25.11000 467.504
25.12000 467.841
25.13000 468.259
25.14000 468.814
25.15000 469.634
25.16000 470.461
25.17000 470.927
25.18000 477.799
25.19000 482.575
25.20000 480.937
25.21000 473.986
25.22000 467.177
25.23000 467.208
25.24000 471.006
25.25000 474.658
25.26000 476.160
25.27000 476.815
25.28000 477.385
25.29000 477.123
25.30000 476.652
25.31000 475.080
25.32000 467.032
25.33000 457.928
25.34000 450.571
25.35000 457.139
25.36000 463.596
25.37000 466.919
25.38000 462.142
25.39000 456.952
25.40000 457.108
25.41000 466.623
25.42000 476.309
25.43000 481.515
25.44000 464.055
25.45000 452.184
25.46000 455.553
25.47000 470.329
25.48000 484.626
25.49000 481.626
25.50000 469.956
25.51000 458.826
25.52000 463.005
25.53000 471.711
25.54000 479.268
25.55000 477.080
25.56000 472.675
25.57000 468.160
25.58000 463.057
25.59000 457.869
25.60000 453.766
25.61000 461.158
25.62000 467.886
25.63000 470.514
25.64000 463.491
25.65000 456.064
25.66000 454.152
25.67000 461.015
25.68000 467.991
25.69000 471.553
25.70000 456.458
25.71000 446.366
25.72000 441.028
25.73000 438.912
25.74000 437.111
25.75000 444.231
25.76000 455.424
25.77000 466.000
25.78000 469.538
25.79000 470.786
25.80000 470.858
25.81000 462.091
25.82000 451.509
25.83000 441.842
25.84000 436.536
25.85000 431.796
25.86000 428.133
25.87000 440.958
25.88000 452.094
25.89000 461.045
25.90000 465.309
25.91000 469.416
25.92000 468.566
25.93000 460.561
25.94000 452.501
25.95000 450.354
25.96000 453.740
25.97000 457.131
25.98000 460.801
25.99000 464.642
26.00000 468.529
26.01000 473.437
26.02000 478.770
26.03000 483.759
26.04000 476.526
26.05000 466.834
26.06000 457.234
26.07000 448.249
26.08000 439.377
26.09000 433.308
26.10000 439.291
26.11000 446.656
26.12000 452.207
26.13000 444.944
26.14000 438.628
26.15000 433.354
26.16000 430.116
26.17000 426.930
26.18000 430.251
26.19000 442.074
26.20000 453.922
26.21000 458.194
26.22000 456.090
26.23000 454.065
26.24000 456.035
26.25000 460.238
26.26000 464.115
26.27000 461.854
26.28000 457.267
26.29000 453.023
26.30000 451.089
26.31000 449.881
26.32000 449.349
26.33000 452.861
26.34000 457.045
26.35000 459.809
26.36000 457.044
26.37000 453.722
26.38000 451.284
26.39000 449.620
26.40000 448.365
26.41000 451.146
26.42000 461.101
26.43000 471.195
26.44000 473.175
26.45000 465.584
26.46000 457.996
26.47000 453.714
26.48000 451.958
26.49000 450.092
26.50000 444.119
26.51000 436.054
26.52000 428.507
26.53000 429.112
26.54000 432.530
26.55000 435.656
26.56000 435.400
26.57000 434.477
26.58000 433.437
26.59000 431.764
26.60000 429.997
26.61000 430.154
26.62000 437.118
26.63000 444.678
26.64000 450.074
26.65000 441.614
26.66000 434.703
26.67000 430.914
26.68000 432.170
26.69000 433.496
26.70000 435.937
26.71000 439.564
26.72000 443.173
26.73000 440.964
26.74000 434.821
26.75000 428.951
26.76000 431.123
26.77000 437.022
26.78000 442.391
26.79000 440.645
26.80000 436.663
26.81000 433.069
26.82000 434.366
26.83000 436.402
26.84000 436.920
26.85000 430.094
26.86000 422.298
26.87000 417.096
26.88000 420.236
26.89000 424.006
26.90000 426.617
26.91000 438.341
26.92000 447.404
26.93000 448.866
26.94000 439.184
26.95000 429.406
26.96000 425.075
26.97000 425.932
26.98000 426.783
26.99000 431.609
27.00000 438.789
27.01000 445.710
27.02000 446.509
27.03000 444.723
27.04000 443.099
27.05000 443.366
27.06000 444.171
27.07000 444.888
27.08000 441.398
27.09000 437.678
27.10000 434.894
27.11000 436.200
27.12000 437.984
27.13000 437.086
27.14000 428.343
27.15000 419.094
27.16000 412.890
27.17000 413.842
27.18000 414.693
27.19000 417.216
27.20000 421.960
27.21000 426.712
27.22000 429.801
27.23000 431.465
27.24000 433.109
27.25000 432.935
27.26000 431.760
27.27000 430.709
27.28000 432.079
27.29000 434.379
27.30000 436.690
27.31000 439.109
27.32000 441.555
27.33000 443.700
27.34000 440.159
27.35000 436.293
27.36000 433.125
27.37000 432.718
27.38000 432.596
27.39000 431.588
27.40000 428.220
27.41000 424.725
27.42000 422.459
27.43000 423.210
27.44000 423.805
27.45000 424.296
27.46000 424.663
27.47000 425.018
27.48000 422.718
27.49000 418.364
27.50000 414.081
27.51000 420.912
27.52000 433.077
27.53000 444.309
27.54000 440.400
27.55000 431.186
27.56000 422.649
27.57000 420.103
27.58000 418.964
27.59000 417.981
27.60000 421.373
27.61000 424.812
27.62000 426.989
27.63000 424.632
27.64000 421.869
27.65000 419.055
27.66000 416.121
27.67000 413.181
27.68000 411.345
27.69000 409.101
27.70000 407.478
27.71000 410.929
27.72000 419.861
27.73000 428.735
27.74000 429.719
27.75000 425.181
27.76000 420.743
27.77000 418.989
27.78000 418.519
27.79000 417.920
27.80000 415.546
27.81000 412.607
27.82000 410.891
27.83000 418.732
27.84000 428.603
27.85000 436.975
27.86000 434.574
27.87000 431.345
27.88000 428.763
27.89000 428.293
27.90000 427.987
27.91000 426.595
27.92000 422.804
27.93000 418.926
27.94000 416.597
27.95000 425.507
27.96000 431.915
27.97000 432.896
27.98000 428.617
27.99000 424.341
28.00000 420.250
28.01000 416.277
28.02000 412.415
28.03000 410.682
28.04000 409.903
28.05000 409.756
28.06000 417.113
28.07000 426.646
28.08000 434.083
28.09000 426.974
28.10000 417.079
28.11000 408.841
28.12000 407.688
28.13000 407.433
28.14000 407.726
28.15000 409.644
28.16000 411.670
28.17000 414.697
28.18000 419.743
28.19000 424.846
28.20000 427.784
28.21000 421.157
28.22000 416.486
28.23000 415.786
28.24000 418.544
28.25000 421.293
28.26000 423.556
28.27000 425.539
28.28000 427.453
28.29000 425.515
28.30000 422.275
28.31000 419.622
28.32000 423.031
28.33000 428.035
28.34000 431.948
28.35000 429.095
28.36000 425.078
28.37000 421.799
28.38000 412.266
28.39000 403.929
28.40000 399.716
28.41000 406.656
28.42000 414.218
28.43000 420.291
28.44000 423.636
28.45000 426.923
28.46000 428.731
28.47000 417.290
28.48000 409.410
28.49000 407.352
28.50000 409.870
28.51000 412.339
28.52000 412.823
28.53000 412.266
28.54000 411.731
28.55000 412.550
28.56000 413.762
28.57000 414.788
28.58000 414.130
28.59000 413.070
28.60000 411.888
28.61000 410.021
28.62000 408.050
28.63000 406.474
28.64000 409.923
28.65000 413.082
28.66000 415.356
28.67000 415.448
28.68000 415.439
28.69000 411.821
28.70000 402.187
28.71000 392.461
28.72000 387.367
28.73000 407.645
28.74000 421.296
28.75000 422.132
28.76000 413.856
28.77000 405.826
28.78000 405.594
28.79000 409.089
28.80000 412.407
28.81000 412.284
28.82000 411.144
28.83000 410.330
28.84000 412.121
28.85000 414.475
28.86000 416.484
28.87000 416.769
28.88000 416.818
28.89000 416.856
28.90000 416.603
28.91000 416.382
28.92000 415.919
28.93000 414.911
28.94000 413.882
28.95000 413.234
28.96000 413.162
28.97000 413.095
28.98000 411.058
28.99000 407.076
29.00000 403.132
29.01000 402.472
29.02000 403.929
29.03000 405.345
29.04000 405.717
29.05000 405.635
29.06000 405.557
29.07000 406.728
29.08000 408.134
29.09000 409.633
29.10000 411.800
29.11000 414.096
29.12000 415.578
29.13000 413.379
29.14000 410.732
29.15000 408.713
29.16000 393.504
29.17000 380.814
29.18000 376.643
29.19000 389.886
29.20000 403.645
29.21000 408.436
29.22000 400.928
29.23000 393.348
29.24000 392.947
29.25000 398.897
29.26000 404.770
29.27000 406.095
29.28000 404.756
29.29000 403.323
29.30000 399.944
29.31000 395.794
29.32000 391.934
29.33000 394.135
29.34000 397.588
29.35000 400.253
29.36000 397.948
29.37000 394.773
29.38000 392.239
29.39000 392.326
29.40000 392.694
29.41000 392.967
29.42000 394.631
29.43000 395.987
29.44000 397.536
29.45000 399.444
29.46000 401.361
29.47000 400.035
29.48000 394.690
29.49000 389.342
29.50000 389.182
29.51000 393.150
29.52000 397.027
29.53000 396.978
29.54000 394.838
29.55000 393.133
29.56000 398.872
29.57000 407.300
29.58000 415.051
29.59000 414.806
29.60000 412.855
29.61000 410.184
29.62000 403.445
29.63000 396.067
29.64000 391.399
29.65000 396.773
29.66000 403.088
29.67000 407.659
29.68000 403.486
29.69000 399.961
29.70000 397.497
29.71000 396.827
29.72000 396.186
29.73000 397.706
29.74000 401.641
29.75000 405.564
29.76000 406.028
29.77000 404.011
29.78000 402.087
29.79000 403.236
29.80000 405.875
29.81000 408.233
29.82000 406.496
29.83000 403.413
29.84000 400.613
29.85000 407.221
29.86000 414.882
29.87000 421.300
29.88000 421.394
29.89000 420.604
29.90000 420.229
29.91000 421.251
29.92000 422.387
29.93000 423.185
29.94000 407.444
29.95000 395.033
29.96000 394.354
29.97000 411.709
29.98000 429.263
29.99000 433.789
30.00000 425.235
30.01000 416.736
30.02000 411.189
30.03000 407.627
30.04000 404.129
30.05000 402.302
30.06000 401.213
30.07000 400.642
30.08000 406.515
30.09000 414.314
30.10000 421.304
30.11000 419.568
30.12000 416.542
30.13000 413.874
30.14000 412.848
30.15000 412.026
30.16000 412.264
30.17000 415.746
30.18000 419.454
30.19000 421.982
30.20000 403.327
30.21000 388.898
30.22000 383.838
30.23000 391.836
30.24000 399.921
30.25000 407.750
30.26000 415.350
30.27000 422.874
30.28000 423.635
30.29000 420.442
30.30000 417.069
30.31000 409.871
30.32000 401.135
30.33000 393.509
30.34000 397.843
30.35000 405.427
30.36000 412.125
30.37000 399.384
30.38000 385.393
30.39000 375.953
30.40000 385.410
30.41000 396.936
30.42000 405.156
30.43000 404.166
30.44000 402.632
30.45000 401.620
30.46000 411.593
30.47000 419.134
30.48000 419.737
30.49000 411.594
30.50000 403.443
30.51000 403.246
30.52000 409.510
30.53000 415.686
30.54000 415.065
30.55000 410.890
30.56000 406.960
30.57000 407.362
30.58000 409.353
30.59000 411.475
30.60000 414.844
30.61000 418.520
30.62000 421.717
30.63000 413.201
30.64000 404.339
30.65000 398.390
30.66000 403.405
30.67000 409.473
30.68000 412.446
30.69000 407.563
30.70000 402.294
30.71000 398.942
30.72000 403.405
30.73000 406.746
30.74000 404.646
30.75000 396.361
30.76000 388.136
30.77000 391.534
30.78000 403.464
30.79000 415.167
30.80000 413.414
30.81000 405.342
30.82000 397.959
30.83000 400.824
30.84000 407.111
30.85000 412.885
30.86000 414.408
30.87000 414.984
30.88000 415.476
30.89000 424.379
30.90000 432.898
30.91000 440.124
30.92000 442.935
30.93000 445.378
30.94000 448.887
30.95000 454.862
30.96000 460.935
30.97000 464.655
30.98000 462.336
30.99000 460.625
31.00000 465.783
31.01000 477.957
31.02000 490.105
31.03000 499.495
31.04000 507.052
31.05000 514.421
31.06000 521.828
31.07000 528.919
31.08000 537.241
31.09000 561.235
31.10000 589.989
31.11000 617.457
31.12000 635.477
31.13000 651.594
31.14000 665.136
31.15000 698.328
31.16000 728.053
31.17000 761.780
31.18000 807.942
31.19000 854.994
31.20000 897.751
31.21000 931.455
31.22000 964.870
31.23000 984.513
31.24000 1029.916
31.25000 1062.071
31.26000 1107.410
31.27000 1164.840
31.28000 1222.026
31.29000 1263.007
31.30000 1294.199
31.31000 1324.414
31.32000 1355.850
31.33000 1386.063
31.34000 1415.048
31.35000 1430.512
31.36000 1442.245
31.37000 1453.442
31.38000 1461.134
31.39000 1468.190
31.40000 1474.007
31.41000 1465.609
31.42000 1457.389
31.43000 1446.505
31.44000 1428.086
31.45000 1409.209
31.46000 1385.848
31.47000 1353.887
31.48000 1321.712
31.49000 1303.611
31.50000 1256.934
31.51000 1224.450
31.52000 1187.618
31.53000 1147.192
31.54000 1106.943
31.55000 1075.056
31.56000 1047.761
31.57000 1021.519
31.58000 981.784
31.59000 939.849
31.60000 897.811
31.61000 854.779
31.62000 811.499
31.63000 770.123
31.64000 739.901
31.65000 711.492
31.66000 688.548
31.67000 660.372
31.68000 637.049
31.69000 618.171
31.70000 610.751
31.71000 603.912
31.72000 588.914
31.73000 559.673
31.74000 530.173
31.75000 514.344
31.76000 513.482
31.77000 512.892
31.78000 509.611
31.79000 504.321
31.80000 499.161
31.81000 498.682
31.82000 500.543
31.83000 502.317
31.84000 490.460
31.85000 475.176
31.86000 460.886
31.87000 455.004
31.88000 451.029
31.89000 446.539
31.90000 439.343
31.91000 431.754
31.92000 425.756
31.93000 416.688
31.94000 409.197
31.95000 405.954
31.96000 412.682
31.97000 419.826
31.98000 420.783
31.99000 411.927
32.00000 402.948
32.01000 398.371
32.02000 398.094
32.03000 397.933
32.04000 400.383
32.05000 404.599
32.06000 408.639
32.07000 407.703
32.08000 404.503
32.09000 401.479
32.10000 400.987
32.11000 401.252
32.12000 400.884
32.13000 395.780
32.14000 389.706
32.15000 384.856
32.16000 385.811
32.17000 387.516
32.18000 388.832
32.19000 389.701
32.20000 390.365
32.21000 391.440
32.22000 393.395
32.23000 395.380
32.24000 392.306
32.25000 381.953
32.26000 371.543
32.27000 368.568
32.28000 372.527
32.29000 376.500
32.30000 381.493
32.31000 387.112
32.32000 392.384
32.33000 389.797
32.34000 383.949
32.35000 378.480
32.36000 377.009
32.37000 376.690
32.38000 376.857
32.39000 380.258
32.40000 384.255
32.41000 385.266
32.42000 373.468
32.43000 360.208
32.44000 350.220
32.45000 353.510
32.46000 356.734
32.47000 358.602
32.48000 357.827
32.49000 356.984
32.50000 358.747
32.51000 363.904
32.52000 369.069
32.53000 364.874
32.54000 352.850
32.55000 341.161
32.56000 346.211
32.57000 360.595
32.58000 374.261
32.59000 374.476
32.60000 369.609
32.61000 365.107
32.62000 360.528
32.63000 356.399
32.64000 353.046
32.65000 354.320
32.66000 356.361
32.67000 358.406
32.68000 360.465
32.69000 362.525
32.70000 364.036
32.71000 361.985
32.72000 360.255
32.73000 356.726
32.74000 350.005
32.75000 343.223
32.76000 344.365
32.77000 354.828
32.78000 365.277
32.79000 370.481
32.80000 371.697
32.81000 372.784
32.82000 369.026
32.83000 362.809
32.84000 356.784
32.85000 353.773
32.86000 351.800
32.87000 349.997
32.88000 360.242
32.89000 371.810
32.90000 380.306
32.91000 372.366
32.92000 361.994
32.93000 352.576
32.94000 346.522
32.95000 340.762
32.96000 336.654
32.97000 353.163
32.98000 366.427
32.99000 373.149
33.00000 369.331
33.01000 365.371
33.02000 364.617
33.03000 367.256
33.04000 369.883
33.05000 371.071
33.06000 371.270
33.07000 371.276
33.08000 365.671
33.09000 357.471
33.10000 349.715
33.11000 347.897
33.12000 347.939
33.13000 347.977
33.14000 346.051
33.15000 344.000
33.16000 342.405
33.17000 343.012
33.18000 343.908
33.19000 344.364
33.20000 343.406
33.21000 342.342
33.22000 341.606
33.23000 340.038
33.24000 338.837
33.25000 338.210
33.26000 338.422
33.27000 338.641
33.28000 337.095
33.29000 333.874
33.30000 330.678
33.31000 330.057
33.32000 331.022
33.33000 331.933
33.34000 331.591
33.35000 330.720
33.36000 330.396
33.37000 336.376
33.38000 344.151
33.39000 351.067
33.40000 348.625
33.41000 344.980
33.42000 341.528
33.43000 338.920
33.44000 336.409
33.45000 334.292
33.46000 333.321
33.47000 332.424
33.48000 331.823
33.49000 329.395
33.50000 327.557
33.51000 330.743
33.52000 340.583
33.53000 350.440
33.54000 351.311
33.55000 344.509
33.56000 337.788
33.57000 334.781
33.58000 333.898
33.59000 333.200
33.60000 336.074
33.61000 340.317
33.62000 343.683
33.63000 338.237
33.64000 330.514
33.65000 323.746
33.66000 322.895
33.67000 323.021
33.68000 323.809
33.69000 327.210
33.70000 330.879
33.71000 331.840
33.72000 325.610
33.73000 318.993
33.74000 314.709
33.75000 320.775
33.76000 325.366
33.77000 329.159
33.78000 331.999
33.79000 334.818
33.80000 332.892
33.81000 327.309
33.82000 321.819
33.83000 321.156
33.84000 322.920
33.85000 324.677
33.86000 326.306
33.87000 327.889
33.88000 329.008
33.89000 326.038
33.90000 322.110
33.91000 318.722
33.92000 320.141
33.93000 321.959
33.94000 324.312
33.95000 328.581
33.96000 333.021
33.97000 336.333
33.98000 336.917
33.99000 337.380
34.00000 337.669
34.01000 329.765
34.02000 323.981
34.03000 321.622
34.04000 322.951
34.05000 324.292
34.06000 327.184
34.07000 331.158
34.08000 335.044
34.09000 337.825
34.10000 339.995
34.11000 341.896
34.12000 340.107
34.13000 337.145
34.14000 334.558
34.15000 334.885
34.16000 335.829
34.17000 336.629
34.18000 331.107
34.19000 325.769
34.20000 322.823
34.21000 327.659
34.22000 333.095
34.23000 336.813
34.24000 336.744
34.25000 336.539
34.26000 336.416
34.27000 321.568
34.28000 310.923
34.29000 308.704
34.30000 314.625
34.31000 320.507
34.32000 323.288
34.33000 324.108
34.34000 324.904
34.35000 321.399
34.36000 316.321
34.37000 312.037
34.38000 317.127
34.39000 324.927
34.40000 331.190
34.41000 326.824
34.42000 320.428
34.43000 315.107
34.44000 311.328
34.45000 308.352
34.46000 308.062
34.47000 315.730
34.48000 323.922
34.49000 328.604
34.50000 326.241
34.51000 323.679
34.52000 322.206
34.53000 314.011
34.54000 308.257
34.55000 305.824
34.56000 306.276
34.57000 306.719
34.58000 306.623
34.59000 306.219
34.60000 305.829
34.61000 307.711
34.62000 310.317
34.63000 312.667
34.64000 312.404
34.65000 311.455
34.66000 310.215
34.67000 307.184
34.68000 303.845
34.69000 301.121
34.70000 307.076
34.71000 312.688
34.72000 316.715
34.73000 316.467
34.74000 315.982
34.75000 317.009
34.76000 320.801
34.77000 324.651
34.78000 326.766
34.79000 323.236
34.80000 320.793
34.81000 317.567
34.82000 313.725
34.83000 309.924
34.84000 307.771
34.85000 306.478
34.86000 305.241
34.87000 303.339
34.88000 301.347
34.89000 300.183
34.90000 306.474
34.91000 314.538
34.92000 321.204
34.93000 320.121
34.94000 317.849
34.95000 316.034
34.96000 305.844
34.97000 296.996
34.98000 293.995
34.99000 305.363
35.00000 317.390
35.01000 321.837
35.02000 313.686
35.03000 305.343
35.04000 300.981
35.05000 306.892
35.06000 310.862
35.07000 310.063
35.08000 305.882
35.09000 301.915
35.10000 304.693
35.11000 310.684
35.12000 316.370
35.13000 313.622
35.14000 308.576
35.15000 304.133
35.16000 304.482
35.17000 305.862
35.18000 307.388
35.19000 309.641
35.20000 311.993
35.21000 313.831
35.22000 313.930
35.23000 313.900
35.24000 312.906
35.25000 309.758
35.26000 306.530
35.27000 304.460
35.28000 304.139
35.29000 303.835
35.30000 306.100
35.31000 310.891
35.32000 315.626
35.33000 315.571
35.34000 312.438
35.35000 309.451
35.36000 310.126
35.37000 312.389
35.38000 314.516
35.39000 311.375
35.40000 307.096
35.41000 303.131
35.42000 301.374
35.43000 300.045
35.44000 299.888
35.45000 305.002
35.46000 310.755
35.47000 315.141
35.48000 311.743
35.49000 308.653
35.50000 305.933
35.51000 303.971
35.52000 302.030
35.53000 300.847
35.54000 300.699
35.55000 300.557
35.56000 301.551
35.57000 303.545
35.58000 305.517
35.59000 306.215
35.60000 306.169
35.61000 305.941
35.62000 301.982
35.63000 296.549
35.64000 291.495
35.65000 295.918
35.66000 302.194
35.67000 307.756
35.68000 308.833
35.69000 309.126
35.70000 308.332
35.71000 303.111
35.72000 297.417
35.73000 293.185
35.74000 301.129
35.75000 307.847
35.76000 311.851
35.77000 310.820
35.78000 309.676
35.79000 307.131
35.80000 302.853
35.81000 298.578
35.82000 300.264
35.83000 306.668
35.84000 312.938
35.85000 313.430
35.86000 310.853
35.87000 308.451
35.88000 309.036
35.89000 310.698
35.90000 312.226
35.91000 307.308
35.92000 301.524
35.93000 296.466
35.94000 295.507
35.95000 295.188
35.96000 294.588
35.97000 292.954
35.98000 291.223
35.99000 289.971
36.00000 295.206
36.01000 299.459
36.02000 301.006
36.03000 297.985
36.04000 294.891
36.05000 294.392
36.06000 296.784
36.07000 299.169
36.08000 301.078
36.09000 302.629
36.10000 304.040
36.11000 300.820
36.12000 295.360
36.13000 290.185
36.14000 289.112
36.15000 289.385
36.16000 289.633
36.17000 292.083
36.18000 294.673
36.19000 297.078
36.20000 298.550
36.21000 299.891
36.22000 299.996
36.23000 295.952
36.24000 291.572
36.25000 288.496
36.26000 294.927
36.27000 300.075
36.28000 304.595
36.29000 308.151
36.30000 311.697
36.31000 311.464
36.32000 307.451
36.33000 303.464
36.34000 300.885
36.35000 299.250
36.36000 297.597
36.37000 295.490
36.38000 293.181
36.39000 290.863
36.40000 288.428
36.41000 285.958
36.42000 283.745
36.43000 289.583
36.44000 296.067
36.45000 301.398
36.46000 301.454
36.47000 300.857
36.48000 299.593
36.49000 296.295
36.50000 292.855
36.51000 290.513
36.52000 292.371
36.53000 293.856
36.54000 296.019
36.55000 299.126
36.56000 302.235
36.57000 299.891
36.58000 292.649
36.59000 285.480
36.60000 283.077
36.61000 283.491
36.62000 283.994
36.63000 286.393
36.64000 289.552
36.65000 292.574
36.66000 294.123
36.67000 295.272
36.68000 296.286
36.69000 302.602
36.70000 308.866
36.71000 313.021
36.72000 308.446
36.73000 302.919
36.74000 298.872
36.75000 298.937
36.76000 299.244
36.77000 299.446
36.78000 293.824
36.79000 289.582
36.80000 288.003
36.81000 289.772
36.82000 291.556
36.83000 295.177
36.84000 300.284
36.85000 305.318
36.86000 302.109
36.87000 294.676
36.88000 287.633
36.89000 287.453
36.90000 289.782
36.91000 291.777
36.92000 290.647
36.93000 288.748
36.94000 287.098
36.95000 287.645
36.96000 288.411
36.97000 289.122
36.98000 289.630
36.99000 290.120
37.00000 290.756
37.01000 291.766
37.02000 292.795
37.03000 293.448
37.04000 297.802
37.05000 301.010
37.06000 302.852
37.07000 303.146
37.08000 303.419
37.09000 300.314
37.10000 294.736
37.11000 289.266
37.12000 286.935
37.13000 286.175
37.14000 285.401
37.15000 284.427
37.16000 283.387
37.17000 282.739
37.18000 285.326
37.19000 288.632
37.20000 291.458
37.21000 287.853
37.22000 284.044
37.23000 280.750
37.24000 279.215
37.25000 277.825
37.26000 277.727
37.27000 280.605
37.28000 283.602
37.29000 285.435
37.30000 284.264
37.31000 283.401
37.32000 283.287
37.33000 283.938
37.34000 284.613
37.35000 287.680
37.36000 292.334
37.37000 296.872
37.38000 293.407
37.39000 286.683
37.40000 280.554
37.41000 281.973
37.42000 285.679
37.43000 288.711
37.44000 286.814
37.45000 283.928
37.46000 281.504
37.47000 287.110
37.48000 292.623
37.49000 296.050
37.50000 293.012
37.51000 289.515
37.52000 286.483
37.53000 284.429
37.54000 282.406
37.55000 281.218
37.56000 287.350
37.57000 291.705
37.58000 288.440
37.59000 278.211
37.60000 268.139
37.61000 268.438
37.62000 274.982
37.63000 281.321
37.64000 284.864
37.65000 287.138
37.66000 289.413
37.67000 291.695
37.68000 293.978
37.69000 295.201
37.70000 289.505
37.71000 282.560
37.72000 276.838
37.73000 283.863
37.74000 290.811
37.75000 293.729
37.76000 285.276
37.77000 276.136
37.78000 271.412
37.79000 275.136
37.80000 279.067
37.81000 281.276
37.82000 279.923
37.83000 278.985
37.84000 282.101
37.85000 288.556
37.86000 294.829
37.87000 292.521
37.88000 285.512
37.89000 278.775
37.90000 276.171
37.91000 275.167
37.92000 274.482
37.93000 276.842
37.94000 279.962
37.95000 282.045
37.96000 278.074
37.97000 273.121
37.98000 269.124
37.99000 274.286
38.00000 279.207
38.01000 283.805
38.02000 287.570
38.03000 291.294
38.04000 295.076
38.05000 298.956
38.06000 302.838
38.07000 304.918
38.08000 285.870
38.09000 272.912
38.10000 270.844
38.11000 276.880
38.12000 282.826
38.13000 285.584
38.14000 286.754
38.15000 287.869
38.16000 292.429
38.17000 297.736
38.18000 302.500
38.19000 302.693
38.20000 301.853
38.21000 300.563
38.22000 296.918
38.23000 292.932
38.24000 289.783
38.25000 292.708
38.26000 295.468
38.27000 297.387
38.28000 297.335
38.29000 297.202
38.30000 297.452
38.31000 298.310
38.32000 299.175
38.33000 299.615
38.34000 305.215
38.35000 309.005
38.36000 316.526
38.37000 326.560
38.38000 336.331
38.39000 338.758
38.40000 337.850
38.41000 336.993
38.42000 347.854
38.43000 361.127
38.44000 373.806
38.45000 382.056
38.46000 389.402
38.47000 398.679
38.48000 417.081
38.49000 436.659
38.50000 451.763
38.51000 462.361
38.52000 470.498
38.53000 482.337
38.54000 502.070
38.55000 522.063
38.56000 545.515
38.57000 573.926
38.58000 602.371
38.59000 621.631
38.60000 632.345
38.61000 643.221
38.62000 665.439
38.63000 694.596
38.64000 723.234
38.65000 740.180
38.66000 752.290
38.67000 763.612
38.68000 783.374
38.69000 803.456
38.70000 821.461
38.71000 825.676
38.72000 827.357
38.73000 828.914
38.74000 829.946
38.75000 830.919
38.76000 831.652
38.77000 828.479
38.78000 825.808
38.79000 813.464
38.80000 782.335
38.81000 750.723
38.82000 730.274
38.83000 724.320
38.84000 718.433
38.85000 703.209
38.86000 680.234
38.87000 657.171
38.88000 629.747
38.89000 599.898
38.90000 570.552
38.91000 550.565
38.92000 534.104
38.93000 518.884
38.94000 507.267
38.95000 497.656
38.96000 486.727
38.97000 467.969
38.98000 447.919
38.99000 429.018
39.00000 414.565
39.01000 400.556
39.02000 390.287
39.03000 379.667
39.04000 371.451
39.05000 362.910
39.06000 353.796
39.07000 344.671
39.08000 333.855
39.09000 321.057
39.10000 308.291
39.11000 304.751
39.12000 308.164
39.13000 311.307
39.14000 304.452
39.15000 292.536
39.16000 281.374
39.17000 281.999
39.18000 286.668
39.19000 290.933
39.20000 293.403
39.21000 295.229
39.22000 295.560
39.23000 287.913
39.24000 279.089
39.25000 272.145
39.26000 271.809
39.27000 272.048
39.28000 272.217
39.29000 268.815
39.30000 266.106
39.31000 265.626
39.32000 268.727
39.33000 271.876
39.34000 275.794
39.35000 280.523
39.36000 285.229
39.37000 284.733
39.38000 280.725
39.39000 276.775
39.40000 274.487
39.41000 272.965
39.42000 271.306
39.43000 267.808
39.44000 263.735
39.45000 260.062
39.46000 257.465
39.47000 255.381
39.48000 254.339
39.49000 258.312
39.50000 262.942
39.51000 267.463
39.52000 271.632
39.53000 275.774
39.54000 278.638
39.55000 269.976
39.56000 263.164
39.57000 258.741
39.58000 257.798
39.59000 256.885
39.60000 254.935
39.61000 252.005
39.62000 249.099
39.63000 250.192
39.64000 253.705
39.65000 257.125
39.66000 258.398
39.67000 258.768
39.68000 259.206
39.69000 260.411
39.70000 261.834
39.71000 263.100
39.72000 263.789
39.73000 264.293
39.74000 263.971
39.75000 260.063
39.76000 255.738
39.77000 254.481
39.78000 262.144
39.79000 270.377
39.80000 275.888
39.81000 266.366
39.82000 259.005
39.83000 254.901
39.84000 255.095
39.85000 255.310
39.86000 255.516
39.87000 255.714
39.88000 255.909
39.89000 259.124
39.90000 263.919
39.91000 268.260
39.92000 263.903
39.93000 256.219
39.94000 248.898
39.95000 245.214
39.96000 242.467
39.97000 240.061
39.98000 243.808
39.99000 247.908
40.00000 251.343
40.01000 252.158
40.02000 252.706
40.03000 255.100
40.04000 262.381
40.05000 269.924
40.06000 274.803
40.07000 267.952
40.08000 262.769
40.09000 258.858
40.10000 256.462
40.11000 254.072
40.12000 252.531
40.13000 251.643
40.14000 250.770
40.15000 249.999
40.16000 249.304
40.17000 248.838
40.18000 252.042
40.19000 256.526
40.20000 259.913
40.21000 253.685
40.22000 245.213
40.23000 237.910
40.24000 239.223
40.25000 241.434
40.26000 243.086
40.27000 242.747
40.28000 242.231
40.29000 242.797
40.30000 245.976
40.31000 249.270
40.32000 251.323
40.33000 250.518
40.34000 249.909
40.35000 250.844
40.36000 253.437
40.37000 256.026
40.38000 258.045
40.39000 259.669
40.40000 261.256
40.41000 260.951
40.42000 259.810
40.43000 258.526
40.44000 255.288
40.45000 251.429
40.46000 247.888
40.47000 246.803
40.48000 246.237
40.49000 245.757
40.50000 245.273
40.51000 244.867
40.52000 245.019
40.53000 246.986
40.54000 249.091
40.55000 250.372
40.56000 249.842
40.57000 249.247
40.58000 248.890
40.59000 249.307
40.60000 249.608
40.61000 244.582
40.62000 234.429
40.63000 224.465
40.64000 229.582
40.65000 244.215
40.66000 258.434
40.67000 259.687
40.68000 255.625
40.69000 251.985
40.70000 253.303
40.71000 256.050
40.72000 258.042
40.73000 254.837
40.74000 250.643
40.75000 247.156
40.76000 244.758
40.77000 242.881
40.78000 241.059
40.79000 239.401
40.80000 237.753
40.81000 237.827
40.82000 241.346
40.83000 244.961
40.84000 247.037
40.85000 244.059
40.86000 241.962
40.87000 242.501
40.88000 245.322
40.89000 248.114
40.90000 249.262
40.91000 249.469
40.92000 249.668
40.93000 248.745
40.94000 247.466
40.95000 246.422
40.96000 247.784
40.97000 249.775
40.98000 250.721
40.99000 245.238
41.00000 238.656
41.01000 233.289
41.02000 235.545
41.03000 238.039
41.04000 238.536
41.05000 233.661
41.06000 228.491
41.07000 227.079
41.08000 232.518
41.09000 238.101
41.10000 241.163
41.11000 250.915
41.12000 257.602
41.13000 255.571
41.14000 246.731
41.15000 237.960
41.16000 232.024
41.17000 227.566
41.18000 223.300
41.19000 227.731
41.20000 234.727
41.21000 241.254
41.22000 243.580
41.23000 244.909
41.24000 245.356
41.25000 240.925
41.26000 235.748
41.27000 231.616
41.28000 229.317
41.29000 227.595
41.30000 228.098
41.31000 234.055
41.32000 240.261
41.33000 243.692
41.34000 242.525
41.35000 241.288
41.36000 240.643
41.37000 238.384
41.38000 236.873
41.39000 237.847
41.40000 240.577
41.41000 243.307
41.42000 246.037
41.43000 248.768
41.44000 251.359
41.45000 255.793
41.46000 260.430
41.47000 263.440
41.48000 253.595
41.49000 240.991
41.50000 231.796
41.51000 239.539
41.52000 249.592
41.53000 257.438
41.54000 254.491
41.55000 251.464
41.56000 246.600
41.57000 237.636
41.58000 228.520
41.59000 226.057
41.60000 233.603
41.61000 241.249
41.62000 244.124
41.63000 242.325
41.64000 240.537
41.65000 239.626
41.66000 239.278
41.67000 238.926
41.68000 238.475
41.69000 237.980
41.70000 237.516
41.71000 239.415
41.72000 241.780
41.73000 243.206
41.74000 238.039
41.75000 231.597
41.76000 226.773
41.77000 229.208
41.78000 232.520
41.79000 235.044
41.80000 229.381
41.81000 224.489
41.82000 223.182
41.83000 229.163
41.84000 235.357
41.85000 238.785
41.86000 238.443
41.87000 238.080
41.88000 239.376
41.89000 242.129
41.90000 244.837
41.91000 244.976
41.92000 243.619
41.93000 242.231
41.94000 240.200
41.95000 237.916
41.96000 235.792
41.97000 235.920
41.98000 236.576
41.99000 236.780
42.00000 234.150
42.01000 231.027
42.02000 228.577
42.03000 228.866
42.04000 229.446
42.05000 229.877
42.06000 233.399
42.07000 236.273
42.08000 235.849
42.09000 229.321
42.10000 222.658
42.11000 220.092
42.12000 222.573
42.13000 225.062
42.14000 224.182
42.15000 220.643
42.16000 217.192
42.17000 217.513
42.18000 219.831
42.19000 222.092
42.20000 223.382
42.21000 224.324
42.22000 225.190
42.23000 225.936
42.24000 226.577
42.25000 226.896
42.26000 225.409
42.27000 223.640
42.28000 222.941
42.29000 226.185
42.30000 229.797
42.31000 232.406
42.32000 231.101
42.33000 229.959
42.34000 231.029
42.35000 235.824
42.36000 240.678
42.37000 242.344
42.38000 240.467
42.39000 238.595
42.40000 235.504
42.41000 231.573
42.42000 227.861
42.43000 231.262
42.44000 238.093
42.45000 244.397
42.46000 243.144
42.47000 239.419
42.48000 236.039
42.49000 234.788
42.50000 234.093
42.51000 233.237
42.52000 231.563
42.53000 229.776
42.54000 227.206
42.55000 222.016
42.56000 216.615
42.57000 212.825
42.58000 218.962
42.59000 223.895
42.60000 228.861
42.61000 233.875
42.62000 238.891
42.63000 237.863
42.64000 230.810
42.65000 223.802
42.66000 221.904
42.67000 223.310
42.68000 224.681
42.69000 225.136
42.70000 225.189
42.71000 225.237
42.72000 225.229
42.73000 225.205
42.74000 225.183
42.75000 228.589
42.76000 232.151
42.77000 234.534
42.78000 231.545
42.79000 227.893
42.80000 224.292
42.81000 220.848
42.82000 217.414
42.83000 215.079
42.84000 217.965
42.85000 220.238
42.86000 222.521
42.87000 224.817
42.88000 227.111
42.89000 226.715
42.90000 223.911
42.91000 221.135
42.92000 217.416
42.93000 213.231
42.94000 209.292
42.95000 210.539
42.96000 213.860
42.97000 217.098
42.98000 219.439
42.99000 221.537
43.00000 223.389
43.01000 222.644
43.02000 221.605
43.03000 220.488
43.04000 219.045
43.05000 217.567
43.06000 217.928
43.07000 223.384
43.08000 229.137
43.09000 232.921
43.10000 228.695
43.11000 225.446
43.12000 225.611
43.13000 230.055
43.14000 234.499
43.15000 234.256
43.16000 230.228
43.17000 226.259
43.18000 226.377
43.19000 228.626
43.20000 230.662
43.21000 228.997
43.22000 225.983
43.23000 223.648
43.24000 227.660
43.25000 233.227
43.26000 238.064
43.27000 235.493
43.28000 232.299
43.29000 229.551
43.30000 228.474
43.31000 227.556
43.32000 226.259
43.33000 224.004
43.34000 221.703
43.35000 220.242
43.36000 222.431
43.37000 224.065
43.38000 224.353
43.39000 223.121
43.40000 221.889
43.41000 220.908
43.42000 220.109
43.43000 219.326
43.44000 219.579
43.45000 220.312
43.46000 220.881
43.47000 219.033
43.48000 216.382
43.49000 213.972
43.50000 213.534
43.51000 213.534
43.52000 213.533
43.53000 218.673
43.54000 223.616
43.55000 227.301
43.56000 226.706
43.57000 225.758
43.58000 224.146
43.59000 221.005
43.60000 217.804
43.61000 215.848
43.62000 215.139
43.63000 214.642
43.64000 217.095
43.65000 222.544
43.66000 227.939
43.67000 228.033
43.68000 224.620
43.69000 221.294
43.70000 220.315
43.71000 220.379
43.72000 220.407
43.73000 219.987
43.74000 219.431
43.75000 218.982
43.76000 219.315
43.77000 219.804
43.78000 220.215
43.79000 213.967
43.80000 208.069
43.81000 205.269
43.82000 212.044
43.83000 219.499
43.84000 224.640
43.85000 224.936
43.86000 225.079
43.87000 225.162
43.88000 226.373
43.89000 227.231
43.90000 226.654
43.91000 224.771
43.92000 222.909
43.93000 222.480
43.94000 222.911
43.95000 223.327
43.96000 222.651
43.97000 221.592
43.98000 220.543
43.99000 219.603
44.00000 218.694
44.01000 218.594
44.02000 223.755
44.03000 229.864
44.04000 234.893
44.05000 226.009
44.06000 217.433
44.07000 212.185
44.08000 216.299
44.09000 220.975
44.10000 222.689
44.11000 218.753
44.12000 214.679
44.13000 212.394
44.14000 207.334
44.15000 203.830
44.16000 205.191
44.17000 210.546
44.18000 215.765
44.19000 214.641
44.20000 210.054
44.21000 205.646
44.22000 208.591
44.23000 213.896
44.24000 218.720
44.25000 218.949
44.26000 218.034
44.27000 217.381
44.28000 218.248
44.29000 219.362
44.30000 220.260
44.31000 223.019
44.32000 225.407
44.33000 227.165
44.34000 227.311
44.35000 227.375
44.36000 227.141
44.37000 226.388
44.38000 225.627
44.39000 225.219
44.40000 228.761
44.41000 231.150
44.42000 228.103
44.43000 221.024
44.44000 214.121
44.45000 213.411
44.46000 215.780
44.47000 218.037
44.48000 216.776
44.49000 214.508
44.50000 212.439
44.51000 212.046
44.52000 212.030
44.53000 211.885
44.54000 211.064
44.55000 210.145
44.56000 209.421
44.57000 215.050
44.58000 219.998
44.59000 224.305
44.60000 227.120
44.61000 229.872
44.62000 232.992
44.63000 236.691
44.64000 240.397
44.65000 242.281
44.66000 232.601
44.67000 226.162
44.68000 224.855
44.69000 226.996
44.70000 229.097
44.71000 230.063
44.72000 230.514
44.73000 230.940
44.74000 234.027
44.75000 237.607
44.76000 240.690
44.77000 240.079
44.78000 238.717
44.79000 238.086
44.80000 240.903
44.81000 244.161
44.82000 246.673
44.83000 245.263
44.84000 243.920
44.85000 242.029
44.86000 238.974
44.87000 235.881
44.88000 236.703
44.89000 243.124
44.90000 249.587
44.91000 249.972
44.92000 244.728
44.93000 239.569
44.94000 240.283
44.95000 244.580
44.96000 248.793
44.97000 251.142
44.98000 252.723
44.99000 254.199
45.00000 255.792
45.01000 257.266
45.02000 258.744
45.03000 260.248
45.04000 261.756
45.05000 262.721
45.06000 261.370
45.07000 259.757
45.08000 258.543
45.09000 260.578
45.10000 262.327
45.11000 265.520
45.12000 271.508
45.13000 277.568
45.14000 278.704
45.15000 273.465
45.16000 268.206
45.17000 265.221
45.18000 264.135
45.19000 263.079
45.20000 263.453
45.21000 264.618
45.22000 265.679
45.23000 264.782
45.24000 263.150
45.25000 261.641
45.26000 264.307
45.27000 267.647
45.28000 271.058
45.29000 274.888
45.30000 278.786
45.31000 280.486
45.32000 273.703
45.33000 266.076
45.34000 260.490
45.35000 257.477
45.36000 255.253
45.37000 253.352
45.38000 252.018
45.39000 250.695
45.40000 250.743
45.41000 252.394
45.42000 254.042
45.43000 253.838
45.44000 252.249
45.45000 250.672
45.46000 249.558
45.47000 248.676
45.48000 247.778
45.49000 246.613
45.50000 245.358
45.51000 244.211
45.52000 246.943
45.53000 250.156
45.54000 252.969
45.55000 253.656
45.56000 254.030
45.57000 254.998
45.58000 258.050
45.59000 261.282
45.60000 263.583
45.61000 257.077
45.62000 251.835
45.63000 247.501
45.64000 244.622
45.65000 241.761
45.66000 241.189
45.67000 243.021
45.68000 244.844
45.69000 240.431
45.70000 231.864
45.71000 223.596
45.72000 223.945
45.73000 228.254
45.74000 232.200
45.75000 231.337
45.76000 228.977
45.77000 226.850
45.78000 228.377
45.79000 230.381
45.80000 232.295
45.81000 233.777
45.82000 235.202
45.83000 236.046
45.84000 235.035
45.85000 233.886
45.86000 233.092
45.87000 235.691
45.88000 237.732
45.89000 236.528
45.90000 230.610
45.91000 224.653
45.92000 222.264
45.93000 223.241
45.94000 224.209
45.95000 222.779
45.96000 219.916
45.97000 217.173
45.98000 217.224
45.99000 218.443
46.00000 219.336
46.01000 216.494
46.02000 212.593
46.03000 209.127
46.04000 208.707
46.05000 208.835
46.06000 208.744
46.07000 207.699
46.08000 206.544
46.09000 205.491
46.10000 204.736
46.11000 203.999
46.12000 203.507
46.13000 208.724
46.14000 212.704
46.15000 211.916
46.16000 204.851
46.17000 197.772
46.18000 199.011
46.19000 207.307
46.20000 215.501
46.21000 218.906
46.22000 219.596
46.23000 220.158
46.24000 218.289
46.25000 215.491
46.26000 212.451
46.27000 206.986
46.28000 200.898
46.29000 195.568
46.30000 201.060
46.31000 207.322
46.32000 211.688
46.33000 208.617
46.34000 204.790
46.35000 202.342
46.36000 203.534
46.37000 204.920
46.38000 205.816
46.39000 205.321
46.40000 204.938
46.41000 204.761
46.42000 204.827
46.43000 204.889
46.44000 203.976
46.45000 202.315
46.46000 200.682
46.47000 197.207
46.48000 192.935
46.49000 188.910
46.50000 188.851
46.51000 190.170
46.52000 191.680
46.53000 194.859
46.54000 198.427
46.55000 201.501
46.56000 198.445
46.57000 195.078
46.58000 192.627
46.59000 193.442
46.60000 194.546
46.61000 194.668
46.62000 192.427
46.63000 190.083
46.64000 188.624
46.65000 194.311
46.66000 198.481
46.67000 199.887
46.68000 198.337
46.69000 196.797
46.70000 196.691
46.71000 197.577
46.72000 198.444
46.73000 197.219
46.74000 195.110
46.75000 193.351
46.76000 196.339
46.77000 200.828
46.78000 204.498
46.79000 201.831
46.80000 197.831
46.81000 194.444
46.82000 203.469
46.83000 212.412
46.84000 217.749
46.85000 211.422
46.86000 204.203
46.87000 199.206
46.88000 199.078
46.89000 199.123
46.90000 199.150
46.91000 185.135
46.92000 175.099
46.93000 175.414
46.94000 185.663
46.95000 195.830
46.96000 199.549
46.97000 199.211
46.98000 198.882
46.99000 197.337
47.00000 195.379
47.01000 193.470
47.02000 192.135
47.03000 190.967
47.04000 189.967
47.05000 190.125
47.06000 190.503
47.07000 190.816
47.08000 190.403
47.09000 189.991
47.10000 189.339
47.11000 187.981
47.12000 186.578
47.13000 186.665
47.14000 189.726
47.15000 192.871
47.16000 194.674
47.17000 196.391
47.18000 197.584
47.19000 193.913
47.20000 186.043
47.21000 178.333
47.22000 179.274
47.23000 185.161
47.24000 190.840
47.25000 188.994
47.26000 184.515
47.27000 180.743
47.28000 184.152
47.29000 189.435
47.30000 193.416
47.31000 189.413
47.32000 184.050
47.33000 179.680
47.34000 183.357
47.35000 187.044
47.36000 189.436
47.37000 188.354
47.38000 187.081
47.39000 188.016
47.40000 192.962
47.41000 197.991
47.42000 200.746
47.43000 184.285
47.44000 172.977
47.45000 171.932
47.46000 178.881
47.47000 185.689
47.48000 186.841
47.49000 185.050
47.50000 183.336
47.51000 185.095
47.52000 187.875
47.53000 190.256
47.54000 189.076
47.55000 187.054
47.56000 184.893
47.57000 181.961
47.58000 178.912
47.59000 176.479
47.60000 180.846
47.61000 184.868
47.62000 187.814
47.63000 188.131
47.64000 188.328
47.65000 188.200
47.66000 187.534
47.67000 186.860
47.68000 186.509
47.69000 187.574
47.70000 188.272
47.71000 185.878
47.72000 181.304
47.73000 176.851
47.74000 176.121
47.75000 177.155
47.76000 178.135
47.77000 182.483
47.78000 187.489
47.79000 191.647
47.80000 189.132
47.81000 185.191
47.82000 182.172
47.83000 183.727
47.84000 185.902
47.85000 187.599
47.86000 191.962
47.87000 195.606
47.88000 195.885
47.89000 188.672
47.90000 181.184
47.91000 176.698
47.92000 176.716
47.93000 176.777
47.94000 178.303
47.95000 181.259
47.96000 184.180
47.97000 184.093
47.98000 182.086
47.99000 180.103
48.00000 178.726
48.01000 177.611
48.02000 176.563
48.03000 177.884
48.04000 179.721
48.05000 180.812
48.06000 176.688
48.07000 171.558
48.08000 168.015
48.09000 171.573
48.10000 175.986
48.11000 179.346
48.12000 188.294
48.13000 195.630
48.14000 198.678
48.15000 193.032
48.16000 187.135
48.17000 183.446
48.18000 182.759
48.19000 182.088
48.20000 180.001
48.21000 176.674
48.22000 173.381
48.23000 172.042
48.24000 171.837
48.25000 171.802
48.26000 175.187
48.27000 179.917
48.28000 184.313
48.29000 184.610
48.30000 183.897
48.31000 183.430
48.32000 184.502
48.33000 185.841
48.34000 186.699
48.35000 185.613
48.36000 184.322
48.37000 183.363
48.38000 180.307
48.39000 177.841
48.40000 177.193
48.41000 179.900
48.42000 182.681
48.43000 184.942
48.44000 186.563
48.45000 188.179
48.46000 185.994
48.47000 180.824
48.48000 175.766
48.49000 175.395
48.50000 177.500
48.51000 179.291
48.52000 175.780
48.53000 170.372
48.54000 165.403
48.55000 169.839
48.56000 175.815
48.57000 180.885
48.58000 180.875
48.59000 180.077
48.60000 179.429
48.61000 179.334
48.62000 179.290
48.63000 179.258
48.64000 179.250
48.65000 179.245
48.66000 179.421
48.67000 179.903
48.68000 180.389
48.69000 181.117
48.70000 182.113
48.71000 183.105
48.72000 185.707
48.73000 189.427
48.74000 192.966
48.75000 190.638
48.76000 185.488
48.77000 180.606
48.78000 179.542
48.79000 179.722
48.80000 179.886
48.81000 180.827
48.82000 181.807
48.83000 182.629
48.84000 182.651
48.85000 182.563
48.86000 182.778
48.87000 184.008
48.88000 185.319
48.89000 186.239
48.90000 179.487
48.91000 174.157
48.92000 172.564
48.93000 176.665
48.94000 180.826
48.95000 182.198
48.96000 180.797
48.97000 179.406
48.98000 175.293
48.99000 169.502
49.00000 164.050
49.01000 167.270
49.02000 174.288
49.03000 180.780
49.04000 180.806
49.05000 178.916
49.06000 177.224
49.07000 174.467
49.08000 171.878
49.09000 170.845
49.10000 176.885
49.11000 183.794
49.12000 187.749
49.13000 182.740
49.14000 177.116
49.15000 173.294
49.16000 173.720
49.17000 174.134
49.18000 175.041
49.19000 176.627
49.20000 178.217
49.21000 178.309
49.22000 177.063
49.23000 175.830
49.24000 176.781
49.25000 178.971
49.26000 181.261
49.27000 185.617
49.28000 190.797
49.29000 195.197
49.30000 191.290
49.31000 185.146
49.32000 179.726
49.33000 176.550
49.34000 174.152
49.35000 171.763
49.36000 169.414
49.37000 167.070
49.38000 164.322
49.39000 160.460
49.40000 156.533
49.41000 153.952
49.42000 162.354
49.43000 168.725
49.44000 172.761
49.45000 173.883
49.46000 174.984
49.47000 172.086
49.48000 165.970
49.49000 159.942
49.50000 164.326
49.51000 174.001
49.52000 183.140
49.53000 182.984
49.54000 179.448
49.55000 176.424
49.56000 178.162
49.57000 181.063
49.58000 183.582
49.59000 184.475
49.60000 185.016
49.61000 184.361
49.62000 179.245
49.63000 173.705
49.64000 169.659
49.65000 169.371
49.66000 169.266
49.67000 169.199
49.68000 170.275
49.69000 171.070
49.70000 171.275
49.71000 170.816
49.72000 170.352
49.73000 169.248
49.74000 167.678
49.75000 166.138
49.76000 166.266
49.77000 167.173
49.78000 167.941
49.79000 166.668
49.80000 164.720
49.81000 163.381
49.82000 167.025
49.83000 171.771
49.84000 175.824
49.85000 173.942
49.86000 171.652
49.87000 169.991
49.88000 170.465
49.89000 171.113
49.90000 170.045
49.91000 165.042
49.92000 159.884
49.93000 156.736
49.94000 168.116
49.95000 176.370
49.96000 179.436
49.97000 177.253
49.98000 175.081
49.99000 173.961
50.00000 173.535
50.01000 173.120
50.02000 174.562
50.03000 176.725
50.04000 178.735
50.05000 178.817
50.06000 178.319
50.07000 177.457
50.08000 173.952
50.09000 169.919
50.10000 166.536
50.11000 169.488
50.12000 172.606
50.13000 174.630
50.14000 173.284
50.15000 171.701
50.16000 170.663
50.17000 170.761
50.18000 170.896
50.19000 170.974
50.20000 178.568
50.21000 183.951
50.22000 187.624
50.23000 189.743
50.24000 191.799
50.25000 189.807
50.26000 185.391
50.27000 181.115
50.28000 175.471
50.29000 169.611
50.30000 164.622
50.31000 169.109
50.32000 176.188
50.33000 182.315
50.34000 182.273
50.35000 181.124
50.36000 180.178
50.37000 175.421
50.38000 171.164
50.39000 169.582
50.40000 175.505
50.41000 181.876
50.42000 185.333
50.43000 183.247
50.44000 181.027
50.45000 179.784
50.46000 178.549
50.47000 177.696
50.48000 178.219
50.49000 179.868
50.50000 181.543
50.51000 184.438
50.52000 187.996
50.53000 191.415
50.54000 193.373
50.55000 194.701
50.56000 195.941
50.57000 196.357
50.58000 196.569
50.59000 196.912
50.60000 198.023
50.61000 199.258
50.62000 200.253
50.63000 194.097
50.64000 188.536
50.65000 186.713
50.66000 194.440
50.67000 202.645
50.68000 207.759
50.69000 207.528
50.70000 207.202
50.71000 207.028
50.72000 206.061
50.73000 205.406
50.74000 205.405
50.75000 205.888
50.76000 206.340
50.77000 205.706
50.78000 204.533
50.79000 203.415
50.80000 205.449
50.81000 208.315
50.82000 210.370
50.83000 205.646
50.84000 199.401
50.85000 193.801
50.86000 191.572
50.87000 189.828
50.88000 188.452
50.89000 188.774
50.90000 189.147
50.91000 190.497
50.92000 194.124
50.93000 197.844
50.94000 198.450
50.95000 194.158
50.96000 189.808
50.97000 187.600
50.98000 184.239
50.99000 182.020
51.00000 183.266
51.01000 186.835
51.02000 190.219
51.03000 188.525
51.04000 184.540
51.05000 180.779
51.06000 184.292
51.07000 189.553
51.08000 193.534
51.09000 188.032
51.10000 180.605
51.11000 174.254
51.12000 172.956
51.13000 172.303
51.14000 171.800
51.15000 170.844
51.16000 170.061
51.17000 171.150
51.18000 176.210
51.19000 181.400
51.20000 182.871
51.21000 179.040
51.22000 175.169
51.23000 171.446
51.24000 167.861
51.25000 164.324
51.26000 164.099
51.27000 165.887
51.28000 167.670
51.29000 169.354
51.30000 170.996
51.31000 172.531
51.32000 175.434
51.33000 178.413
51.34000 180.565
51.35000 177.255
51.36000 172.948
51.37000 169.497
51.38000 169.683
51.39000 170.278
51.40000 170.726
51.41000 166.722
51.42000 163.378
51.43000 161.027
51.44000 160.595
51.45000 160.211
51.46000 160.325
51.47000 161.082
51.48000 161.840
51.49000 161.451
51.50000 160.111
51.51000 158.838
51.52000 160.771
51.53000 164.477
51.54000 168.023
51.55000 168.622
51.56000 168.118
51.57000 167.651
51.58000 161.030
51.59000 153.696
51.60000 147.295
51.61000 146.402
51.62000 146.411
51.63000 147.245
51.64000 151.251
51.65000 155.571
51.66000 158.732
51.67000 162.265
51.68000 165.006
51.69000 166.817
51.70000 166.992
51.71000 167.136
51.72000 167.411
51.73000 167.840
51.74000 168.269
51.75000 166.434
51.76000 162.924
51.77000 159.555
51.78000 161.350
51.79000 165.742
51.80000 169.608
51.81000 165.325
51.82000 158.260
51.83000 151.811
51.84000 149.321
51.85000 147.912
51.86000 147.331
51.87000 151.135
51.88000 155.580
51.89000 159.561
51.90000 161.922
51.91000 164.142
51.92000 165.722
51.93000 165.392
51.94000 165.080
51.95000 164.392
51.96000 163.103
51.97000 161.806
51.98000 163.825
51.99000 169.318
52.00000 174.782
52.01000 173.566
52.02000 167.874
52.03000 162.365
52.04000 162.087
52.05000 164.207
52.06000 165.834
52.07000 160.964
52.08000 154.077
52.09000 147.871
52.10000 147.898
52.11000 149.049
52.12000 150.751
52.13000 155.083
52.14000 159.758
52.15000 163.966
52.16000 166.693
52.17000 169.310
52.18000 171.116
52.19000 167.246
52.20000 164.194
52.21000 159.829
52.22000 153.561
52.23000 147.278
52.24000 145.519
52.25000 148.013
52.26000 150.486
52.27000 149.926
52.28000 147.538
52.29000 145.334
52.30000 147.363
52.31000 151.159
52.32000 154.629
52.33000 154.391
52.34000 153.105
52.35000 151.964
52.36000 152.291
52.37000 152.812
52.38000 153.063
52.39000 152.150
52.40000 151.103
52.41000 151.125
52.42000 154.235
52.43000 157.541
52.44000 159.750
52.45000 158.906
52.46000 158.222
52.47000 159.187
52.48000 162.315
52.49000 165.448
52.50000 165.983
52.51000 164.320
52.52000 162.678
52.53000 161.149
52.54000 159.720
52.55000 158.424
52.56000 159.617
52.57000 161.758
52.58000 163.486
52.59000 161.118
52.60000 157.701
52.61000 154.711
52.62000 154.933
52.63000 155.583
52.64000 156.138
52.65000 156.323
52.66000 156.470
52.67000 156.589
52.68000 156.634
52.69000 156.676
52.70000 156.703
52.71000 155.346
52.72000 154.335
52.73000 155.105
52.74000 157.983
52.75000 160.845
52.76000 159.364
52.77000 154.566
52.78000 149.849
52.79000 149.397
52.80000 151.067
52.81000 152.872
52.82000 156.833
52.83000 161.540
52.84000 166.220
52.85000 170.662
52.86000 175.049
52.87000 178.826
52.88000 167.630
52.89000 156.253
52.90000 147.113
52.91000 145.918
52.92000 145.422
52.93000 146.161
52.94000 149.864
52.95000 153.697
52.96000 156.080
52.97000 159.288
52.98000 161.607
52.99000 159.771
53.00000 153.507
53.01000 147.280
53.02000 145.714
53.03000 147.370
53.04000 148.989
53.05000 152.626
53.06000 157.011
53.07000 161.057
53.08000 160.501
53.09000 158.495
53.10000 156.951
53.11000 158.960
53.12000 161.715
53.13000 164.045
53.14000 163.475
53.15000 162.675
53.16000 161.567
53.17000 159.463
53.18000 157.284
53.19000 156.244
53.20000 157.695
53.21000 159.233
53.22000 160.153
53.23000 161.527
53.24000 162.505
53.25000 162.761
53.26000 162.329
53.27000 161.869
53.28000 159.278
53.29000 155.350
53.30000 151.535
53.31000 153.311
53.32000 157.248
53.33000 160.871
53.34000 160.833
53.35000 159.745
53.36000 158.330
53.37000 154.670
53.38000 150.587
53.39000 147.195
53.40000 151.130
53.41000 155.096
53.42000 157.769
53.43000 156.646
53.44000 155.277
53.45000 153.835
53.46000 152.248
53.47000 150.658
53.48000 149.747
53.49000 150.620
53.50000 151.235
53.51000 151.147
53.52000 150.455
53.53000 149.823
53.54000 152.440
53.55000 156.910
53.56000 161.221
53.57000 162.086
53.58000 161.649
53.59000 161.039
53.60000 158.675
53.61000 155.855
53.62000 153.393
53.63000 153.118
53.64000 153.215
53.65000 153.295
53.66000 154.790
53.67000 156.132
53.68000 156.888
53.69000 156.078
53.70000 155.183
53.71000 153.858
53.72000 151.752
53.73000 149.630
53.74000 148.469
53.75000 157.354
53.76000 163.454
53.77000 164.281
53.78000 161.013
53.79000 157.822
53.80000 157.706
53.81000 159.183
53.82000 160.596
53.83000 154.908
53.84000 147.285
53.85000 140.701
53.86000 143.343
53.87000 148.162
53.88000 152.363
53.89000 153.175
53.90000 153.472
53.91000 153.709
53.92000 156.836
53.93000 159.570
53.94000 158.776
53.95000 149.390
53.96000 139.617
53.97000 136.124
53.98000 142.974
53.99000 149.977
54.00000 153.621
54.01000 158.100
54.02000 161.082
54.03000 158.095
54.04000 150.914
54.05000 144.029
54.06000 146.248
54.07000 152.766
54.08000 158.947
54.09000 154.633
54.10000 147.560
54.11000 141.646
54.12000 144.826
54.13000 149.946
54.14000 154.462
54.15000 156.003
54.16000 157.140
54.17000 158.026
54.18000 151.109
54.19000 145.113
54.20000 141.403
54.21000 142.766
54.22000 144.315
54.23000 145.866
54.24000 147.419
54.25000 148.972
54.26000 151.122
54.27000 153.852
54.28000 156.519
54.29000 153.934
54.30000 148.004
54.31000 142.249
54.32000 140.806
54.33000 141.218
54.34000 141.605
54.35000 146.132
54.36000 151.361
54.37000 156.079
54.38000 157.246
54.39000 157.729
54.40000 157.792
54.41000 155.981
54.42000 153.945
54.43000 152.396
54.44000 155.500
54.45000 158.185
54.46000 158.184
54.47000 152.755
54.48000 147.170
54.49000 144.148
54.50000 144.599
54.51000 145.069
54.52000 147.213
54.53000 150.817
54.54000 154.373
54.55000 155.262
54.56000 154.605
54.57000 154.040
54.58000 155.300
54.59000 157.275
54.60000 159.110
54.61000 157.660
54.62000 155.569
54.63000 154.016
54.64000 155.815
54.65000 158.192
54.66000 160.208
54.67000 160.769
54.68000 161.176
54.69000 161.478
54.70000 155.574
54.71000 150.718
54.72000 148.156
54.73000 149.814
54.74000 151.564
54.75000 151.322
54.76000 148.642
54.77000 145.960
54.78000 146.694
54.79000 150.106
54.80000 153.447
54.81000 153.810
54.82000 152.604
54.83000 151.645
54.84000 154.826
54.85000 159.484
54.86000 163.763
54.87000 160.470
54.88000 155.913
54.89000 151.611
54.90000 148.726
54.91000 146.061
54.92000 144.027
54.93000 144.302
54.94000 144.791
54.95000 145.143
54.96000 147.431
54.97000 149.254
54.98000 149.565
54.99000 147.345
55.00000 145.086
55.01000 144.353
55.02000 145.303
55.03000 146.250
55.04000 151.569
55.05000 159.929
55.06000 168.027
55.07000 167.708
55.08000 163.355
55.09000 158.891
55.10000 152.865
55.11000 146.332
55.12000 140.407
55.13000 145.492
55.14000 152.084
55.15000 157.143
55.16000 154.503
55.17000 150.800
55.18000 148.607
55.19000 151.435
55.20000 154.663
55.21000 156.925
55.22000 155.140
55.23000 153.674
55.24000 151.642
55.25000 148.749
55.26000 145.847
55.27000 144.455
55.28000 144.557
55.29000 144.659
55.30000 145.245
55.31000 146.132
55.32000 147.107
55.33000 150.311
55.34000 154.489
55.35000 158.346
55.36000 158.288
55.37000 157.073
55.38000 155.986
55.39000 155.716
55.40000 155.620
55.41000 156.554
55.42000 162.157
55.43000 168.331
55.44000 174.366
55.45000 179.978
55.46000 185.562
55.47000 189.353
55.48000 179.777
55.49000 172.334
55.50000 171.238
55.51000 178.880
55.52000 186.574
55.53000 191.259
55.54000 193.268
55.55000 195.256
55.56000 200.210
55.57000 206.759
55.58000 213.077
55.59000 214.589
55.60000 214.188
55.61000 214.597
55.62000 223.572
55.63000 234.848
55.64000 244.790
55.65000 256.763
55.66000 267.394
55.67000 276.719
55.68000 280.694
55.69000 284.092
55.70000 290.341
55.71000 304.447
55.72000 319.008
55.73000 328.566
55.74000 334.063
55.75000 338.039
55.76000 342.104
55.77000 346.279
55.78000 350.472
55.79000 360.224
55.80000 374.436
55.81000 388.439
55.82000 398.231
55.83000 405.548
55.84000 413.078
55.85000 424.276
55.86000 436.804
55.87000 448.364
55.88000 450.969
55.89000 451.393
55.90000 451.761
55.91000 458.232
55.92000 464.565
55.93000 469.630
55.94000 469.977
55.95000 469.879
55.96000 468.675
55.97000 464.697
55.98000 460.585
55.99000 457.981
56.00000 453.916
56.01000 450.951
56.02000 449.151
56.03000 448.659
56.04000 448.158
56.05000 445.825
56.06000 442.165
56.07000 438.576
56.08000 435.740
56.09000 433.362
56.10000 430.515
56.11000 420.815
56.12000 408.854
56.13000 396.301
56.14000 378.923
56.15000 360.482
56.16000 344.743
56.17000 342.207
56.18000 341.636
56.19000 339.268
56.20000 330.832
56.21000 321.899
56.22000 314.140
56.23000 309.065
56.24000 304.096
56.25000 301.067
56.26000 284.992
56.27000 273.399
56.28000 265.853
56.29000 262.388
56.30000 258.919
56.31000 255.131
56.32000 251.133
56.33000 247.237
56.34000 241.704
56.35000 235.734
56.36000 229.840
56.37000 224.901
56.38000 220.250
56.39000 216.052
56.40000 215.144
56.41000 214.889
56.42000 214.676
56.43000 204.596
56.44000 195.187
56.45000 187.485
56.46000 185.030
56.47000 182.944
56.48000 180.043
56.49000 175.447
56.50000 170.798
56.51000 168.079
56.52000 171.424
56.53000 173.806
56.54000 173.859
56.55000 171.803
56.56000 169.720
56.57000 165.875
56.58000 160.979
56.59000 156.240
56.60000 159.065
56.61000 164.622
56.62000 169.855
56.63000 171.578
56.64000 172.343
56.65000 172.508
56.66000 168.798
56.67000 164.394
56.68000 160.773
56.69000 157.392
56.70000 154.635
56.71000 152.333
56.72000 151.304
56.73000 150.350
56.74000 147.956
56.75000 142.831
56.76000 137.640
56.77000 134.736
56.78000 140.903
56.79000 145.187
56.80000 145.943
56.81000 143.822
56.82000 141.753
56.83000 142.091
56.84000 143.734
56.85000 145.313
56.86000 146.567
56.87000 147.628
56.88000 148.657
56.89000 149.366
56.90000 149.997
56.91000 150.299
56.92000 148.699
56.93000 146.793
56.94000 145.258
56.95000 147.842
56.96000 150.261
56.97000 151.884
56.98000 151.480
56.99000 150.976
57.00000 150.244
57.01000 149.118
57.02000 147.985
57.03000 147.380
57.04000 148.916
57.05000 149.949
57.06000 148.162
57.07000 144.298
57.08000 140.632
57.09000 143.867
57.10000 150.512
57.11000 156.841
57.12000 161.389
57.13000 165.048
57.14000 167.527
57.15000 160.168
57.16000 150.606
57.17000 142.699
57.18000 143.387
57.19000 145.307
57.20000 146.820
57.21000 145.897
57.22000 144.993
57.23000 143.713
57.24000 141.558
57.25000 139.368
57.26000 137.371
57.27000 135.675
57.28000 133.983
57.29000 133.126
57.30000 133.380
57.31000 133.565
57.32000 135.249
57.33000 137.934
57.34000 140.524
57.35000 140.486
57.36000 139.266
57.37000 138.115
57.38000 135.780
57.39000 133.309
57.40000 130.870
57.41000 128.674
57.42000 126.527
57.43000 125.937
57.44000 132.641
57.45000 140.272
57.46000 146.147
57.47000 145.627
57.48000 144.852
57.49000 144.384
57.50000 144.568
57.51000 144.773
57.52000 143.889
57.53000 141.458
57.54000 139.015
57.55000 137.010
57.56000 135.407
57.57000 133.867
57.58000 136.486
57.59000 141.628
57.60000 146.478
57.61000 144.884
57.62000 140.647
57.63000 136.690
57.64000 140.233
57.65000 145.332
57.66000 149.793
57.67000 150.063
57.68000 149.570
57.69000 148.594
57.70000 145.573
57.71000 142.322
57.72000 139.882
57.73000 138.451
57.74000 137.382
57.75000 136.769
57.76000 137.034
57.77000 137.322
57.78000 138.827
57.79000 141.899
57.80000 144.973
57.81000 144.700
57.82000 141.660
57.83000 138.664
57.84000 137.778
57.85000 138.054
57.86000 138.227
57.87000 136.513
57.88000 134.096
57.89000 131.862
57.90000 134.152
57.91000 137.227
57.92000 139.682
57.93000 138.498
57.94000 136.719
57.95000 135.689
57.96000 137.532
57.97000 139.657
57.98000 141.212
57.99000 139.567
58.00000 138.171
58.01000 138.363
58.02000 141.334
58.03000 144.357
58.04000 144.145
58.05000 140.176
58.06000 136.213
58.07000 137.679
58.08000 143.172
58.09000 148.505
58.10000 147.993
58.11000 144.550
58.12000 141.237
58.13000 139.947
58.14000 139.344
58.15000 138.795
58.16000 141.316
58.17000 144.172
58.18000 145.762
58.19000 140.664
58.20000 134.589
58.21000 130.489
58.22000 133.266
58.23000 136.633
58.24000 139.026
58.25000 136.735
58.26000 134.841
58.27000 135.450
58.28000 140.044
58.29000 144.689
58.30000 144.169
58.31000 138.253
58.32000 132.369
58.33000 135.061
58.34000 143.469
58.35000 151.587
58.36000 151.500
58.37000 147.663
58.38000 143.835
58.39000 140.123
58.40000 136.448
58.41000 133.137
58.42000 130.235
58.43000 127.762
58.44000 126.469
58.45000 130.789
58.46000 135.837
58.47000 139.693
58.48000 139.771
58.49000 139.570
58.50000 139.431
58.51000 134.453
58.52000 130.593
58.53000 131.166
58.54000 138.143
58.55000 145.172
58.56000 147.108
58.57000 144.274
58.58000 141.465
58.59000 139.658
58.60000 138.492
58.61000 137.347
58.62000 136.697
58.63000 136.252
58.64000 135.974
58.65000 137.570
58.66000 139.693
58.67000 141.579
58.68000 141.408
58.69000 140.929
58.70000 140.127
58.71000 137.931
58.72000 135.575
58.73000 133.651
58.74000 132.971
58.75000 132.369
58.76000 131.967
58.77000 134.259
58.78000 136.009
58.79000 137.008
58.80000 137.025
58.81000 137.038
58.82000 137.200
58.83000 137.488
58.84000 137.773
58.85000 138.605
58.86000 139.713
58.87000 140.565
58.88000 136.575
58.89000 130.750
58.90000 125.496
58.91000 125.877
58.92000 127.698
58.93000 129.291
58.94000 130.787
58.95000 132.056
58.96000 133.097
58.97000 133.252
58.98000 133.317
58.99000 133.877
59.00000 135.737
59.01000 137.666
59.02000 138.909
59.03000 135.658
59.04000 133.220
59.05000 132.060
59.06000 132.408
59.07000 132.759
59.08000 133.288
59.09000 133.954
59.10000 134.607
59.11000 134.579
59.12000 134.217
59.13000 133.923
59.14000 134.703
59.15000 135.855
59.16000 136.696
59.17000 134.841
59.18000 132.364
59.19000 130.231
59.20000 129.582
59.21000 129.219
59.22000 128.525
59.23000 126.657
59.24000 124.687
59.25000 124.435
59.26000 128.295
59.27000 132.333
59.28000 134.841
59.29000 132.459
59.30000 130.696
59.31000 130.152
59.32000 130.904
59.33000 131.653
59.34000 132.013
59.35000 132.106
59.36000 132.196
59.37000 133.059
59.38000 134.229
59.39000 135.319
59.40000 135.332
59.41000 135.006
59.42000 134.887
59.43000 136.356
59.44000 138.158
59.45000 139.681
59.46000 135.918
59.47000 132.184
59.48000 129.200
59.49000 128.629
59.50000 128.240
59.51000 128.242
59.52000 129.097
59.53000 129.981
59.54000 130.509
59.55000 130.990
59.56000 131.332
59.57000 130.835
59.58000 129.539
59.59000 128.303
59.60000 131.584
59.61000 137.692
59.62000 143.623
59.63000 143.320
59.64000 140.530
59.65000 137.853
59.66000 136.479
59.67000 135.478
59.68000 134.613
59.69000 134.680
59.70000 134.923
59.71000 135.125
59.72000 129.313
59.73000 123.926
59.74000 121.840
59.75000 129.417
59.76000 137.617
59.77000 142.379
59.78000 140.313
59.79000 138.061
59.80000 136.773
59.81000 130.295
59.82000 125.761
59.83000 125.545
59.84000 129.034
59.85000 132.489
59.86000 134.198
59.87000 134.914
59.88000 135.603
59.89000 132.745
59.90000 128.773
59.91000 125.588
59.92000 130.351
59.93000 137.175
59.94000 142.801
59.95000 141.130
59.96000 138.222
59.97000 135.856
59.98000 137.533
59.99000 139.243
60.00000 139.441
60.01000 135.610
60.02000 131.561
60.03000 129.759
60.04000 132.019
60.05000 134.361
60.06000 135.641
60.07000 140.306
60.08000 143.494
60.09000 141.523
60.10000 135.558
60.11000 129.694
60.12000 127.824
60.13000 128.020
60.14000 128.207
60.15000 125.475
60.16000 121.979
60.17000 119.255
60.18000 123.377
60.19000 129.108
60.20000 133.910
60.21000 133.635
60.22000 132.591
60.23000 131.759
60.24000 126.806
60.25000 122.512
60.26000 120.840
60.27000 125.533
60.28000 130.512
60.29000 134.014
60.30000 135.090
60.31000 136.130
60.32000 136.670
60.33000 135.098
60.34000 134.048
60.35000 134.456
60.36000 135.886
60.37000 137.247
60.38000 136.491
60.39000 134.738
60.40000 133.076
60.41000 129.475
60.42000 125.586
60.43000 122.291
60.44000 123.646
60.45000 125.988
60.46000 127.943
60.47000 127.985
60.48000 127.769
60.49000 127.602
60.50000 129.119
60.51000 130.431
60.52000 131.267
60.53000 131.047
60.54000 130.788
60.55000 130.732
60.56000 130.975
60.57000 131.222
60.58000 133.093
60.59000 136.539
60.60000 139.918
60.61000 137.766
60.62000 132.101
60.63000 126.549
60.64000 123.755
60.65000 122.146
60.66000 120.635
60.67000 126.448
60.68000 133.687
60.69000 139.618
60.70000 136.468
60.71000 131.576
60.72000 127.092
60.73000 124.417
60.74000 121.957
60.75000 120.088
60.76000 123.928
60.77000 127.245
60.78000 129.166
60.79000 128.273
60.80000 127.299
60.81000 126.418
60.82000 125.663
60.83000 124.909
60.84000 127.639
60.85000 133.397
60.86000 139.049
60.87000 138.690
60.88000 134.861
60.89000 131.236
60.90000 131.676
60.91000 133.706
60.92000 135.591
60.93000 132.845
60.94000 129.266
60.95000 126.702
60.96000 130.428
60.97000 135.237
60.98000 138.379
60.99000 134.812
61.00000 130.539
61.01000 127.374
61.02000 132.846
61.03000 137.469
61.04000 139.590
61.05000 137.123
61.06000 134.557
61.07000 133.672
61.08000 134.840
61.09000 136.011
61.10000 135.303
61.11000 133.128
61.12000 130.985
61.13000 130.177
61.14000 130.071
61.15000 130.219
61.16000 134.627
61.17000 140.550
61.18000 145.988
61.19000 143.877
61.20000 140.387
61.21000 137.291
61.22000 136.391
61.23000 135.830
61.24000 135.327
61.25000 135.035
61.26000 134.763
61.27000 134.567
61.28000 135.110
61.29000 135.553
61.30000 136.620
61.31000 138.730
61.32000 140.857
61.33000 140.253
61.34000 136.647
61.35000 133.055
61.36000 133.408
61.37000 136.539
61.38000 139.519
61.39000 137.691
61.40000 133.565
61.41000 129.896
61.42000 132.685
61.43000 137.568
61.44000 141.995
61.45000 146.510
61.46000 150.509
61.47000 153.171
61.48000 149.144
61.49000 144.197
61.50000 142.193
61.51000 149.951
61.52000 158.486
61.53000 164.458
61.54000 179.577
61.55000 191.268
61.56000 200.102
61.57000 204.612
61.58000 209.076
61.59000 214.376
61.60000 220.499
61.61000 226.580
61.62000 233.947
61.63000 242.017
61.64000 250.091
61.65000 258.249
61.66000 266.444
61.67000 273.797
61.68000 270.918
61.69000 265.023
61.70000 259.751
61.71000 263.113
61.72000 267.512
61.73000 270.463
61.74000 266.873
61.75000 262.486
61.76000 258.241
61.77000 254.424
61.78000 250.636
61.79000 248.067
61.80000 221.041
61.81000 200.346
61.82000 187.598
61.83000 185.762
61.84000 183.989
61.85000 178.598
61.86000 169.998
61.87000 161.488
61.88000 155.612
61.89000 151.376
61.90000 147.311
61.91000 146.788
61.92000 147.671
61.93000 148.174
61.94000 144.670
61.95000 140.094
61.96000 136.062
61.97000 137.567
61.98000 139.702
61.99000 141.087
62.00000 139.410
62.01000 137.403
62.02000 135.706
62.03000 134.858
62.04000 134.059
62.05000 133.535
62.06000 138.626
62.07000 142.464
62.08000 143.952
62.09000 142.526
62.10000 141.094
62.11000 140.731
62.12000 141.223
62.13000 141.707
62.14000 144.891
62.15000 149.379
62.16000 153.439
62.17000 150.153
62.18000 144.212
62.19000 138.960
62.20000 140.062
62.21000 142.706
62.22000 145.000
62.23000 142.819
62.24000 140.362
62.25000 138.246
62.26000 137.393
62.27000 136.658
62.28000 136.888
62.29000 139.533
62.30000 142.293
62.31000 144.039
62.32000 147.873
62.33000 150.678
62.34000 151.866
62.35000 151.247
62.36000 150.608
62.37000 147.044
62.38000 141.365
62.39000 135.799
62.40000 135.663
62.41000 138.069
62.42000 140.416
62.43000 141.906
62.44000 143.115
62.45000 143.982
62.46000 142.075
62.47000 139.560
62.48000 137.414
62.49000 141.122
62.50000 144.932
62.51000 146.134
62.52000 138.545
62.53000 130.239
62.54000 125.963
62.55000 130.876
62.56000 136.146
62.57000 139.354
62.58000 140.323
62.59000 140.997
62.60000 141.400
62.61000 141.529
62.62000 141.682
62.63000 144.036
62.64000 147.833
62.65000 151.532
62.66000 151.330
62.67000 149.492
62.68000 147.751
62.69000 147.226
62.70000 147.066
62.71000 146.886
62.72000 146.569
62.73000 146.225
62.74000 145.936
62.75000 148.692
62.76000 151.298
62.77000 151.097
62.78000 142.294
62.79000 132.889
62.80000 127.623
62.81000 130.951
62.82000 134.545
62.83000 136.644
62.84000 140.464
62.85000 143.158
62.86000 144.508
62.87000 144.644
62.88000 144.825
62.89000 147.852
62.90000 152.573
62.91000 157.141
62.92000 154.671
62.93000 149.658
62.94000 145.026
62.95000 144.493
62.96000 145.076
62.97000 145.749
62.98000 147.002
62.99000 148.358
63.00000 149.472
63.01000 144.428
63.02000 139.730
63.03000 137.561
63.04000 142.452
63.05000 147.760
63.06000 152.110
63.07000 154.647
63.08000 157.141
63.09000 158.535
63.10000 155.802
63.11000 153.904
63.12000 153.199
63.13000 153.467
63.14000 153.698
63.15000 152.309
63.16000 150.043
63.17000 147.867
63.18000 146.650
63.19000 145.841
63.20000 145.204
63.21000 146.180
63.22000 147.555
63.23000 148.694
63.24000 148.475
63.25000 148.039
63.26000 147.688
63.27000 146.755
63.28000 145.953
63.29000 145.568
63.30000 146.243
63.31000 146.971
63.32000 146.425
63.33000 143.687
63.34000 140.911
63.35000 139.433
63.36000 149.912
63.37000 157.007
63.38000 155.303
63.39000 147.132
63.40000 139.121
63.41000 136.606
63.42000 136.800
63.43000 136.985
63.44000 140.868
63.45000 145.608
63.46000 149.856
63.47000 150.022
63.48000 149.278
63.49000 148.568
63.50000 148.040
63.51000 147.538
63.52000 147.142
63.53000 145.393
63.54000 143.901
63.55000 143.898
63.56000 147.340
63.57000 150.921
63.58000 153.735
63.59000 155.350
63.60000 156.950
63.61000 157.760
63.62000 151.899
63.63000 148.006
63.64000 146.965
63.65000 147.826
63.66000 148.728
63.67000 150.788
63.68000 153.368
63.69000 155.801
63.70000 155.354
63.71000 154.142
63.72000 153.384
63.73000 155.968
63.74000 159.226
63.75000 161.297
63.76000 157.825
63.77000 153.651
63.78000 150.439
63.79000 153.679
63.80000 156.608
63.81000 157.796
63.82000 155.313
63.83000 152.713
63.84000 150.836
63.85000 149.984
63.86000 149.139
63.87000 151.438
63.88000 156.618
63.89000 161.716
63.90000 161.342
63.91000 157.662
63.92000 154.198
63.93000 155.508
63.94000 158.771
63.95000 161.817
63.96000 159.161
63.97000 155.325
63.98000 151.675
63.99000 149.244
64.00000 147.035
64.01000 145.687
64.02000 147.977
64.03000 150.674
64.04000 152.697
64.05000 157.100
64.06000 160.652
64.07000 161.826
64.08000 158.430
64.09000 154.921
64.10000 152.065
64.11000 150.044
64.12000 148.029
64.13000 148.375
64.14000 150.665
64.15000 152.993
64.16000 157.144
64.17000 162.297
64.18000 167.180
64.19000 167.165
64.20000 165.325
64.21000 163.626
64.22000 162.302
64.23000 161.198
64.24000 159.734
64.25000 156.154
64.26000 152.230
64.27000 150.674
64.28000 158.181
64.29000 166.577
64.30000 172.711
64.31000 164.654
64.32000 157.886
64.33000 153.763
64.34000 154.263
64.35000 154.848
64.36000 155.064
64.37000 154.854
64.38000 154.644
64.39000 157.725
64.40000 163.224
64.41000 168.565
64.42000 168.195
64.43000 164.968
64.44000 162.204
64.45000 166.532
64.46000 173.266
64.47000 179.408
64.48000 179.626
64.49000 178.626
64.50000 176.025
64.51000 164.990
64.52000 152.729
64.53000 144.644
64.54000 151.069
64.55000 158.733
64.56000 164.174
64.57000 172.544
64.58000 179.007
64.59000 180.484
64.60000 174.048
64.61000 167.511
64.62000 165.171
64.63000 167.197
64.64000 169.214
64.65000 168.690
64.66000 166.476
64.67000 164.441
64.68000 167.439
64.69000 172.730
64.70000 177.305
64.71000 172.517
64.72000 164.838
64.73000 157.925
64.74000 161.758
64.75000 167.050
64.76000 172.210
64.77000 176.744
64.78000 181.198
64.79000 183.432
64.80000 178.655
64.81000 173.363
64.82000 169.718
64.83000 175.015
64.84000 179.215
64.85000 181.335
64.86000 180.459
64.87000 179.560
64.88000 181.087
64.89000 184.880
64.90000 188.640
64.91000 185.122
64.92000 177.285
64.93000 169.634
64.94000 166.193
64.95000 164.500
64.96000 163.536
64.97000 170.798
64.98000 180.369
64.99000 188.865
65.00000 191.916
65.01000 193.688
65.02000 195.319
65.03000 196.340
65.04000 197.292
65.05000 197.734
65.06000 196.711
65.07000 195.596
65.08000 194.853
65.09000 195.346
65.10000 195.735
65.11000 195.897
65.12000 195.763
65.13000 195.630
65.14000 196.496
65.15000 198.200
65.16000 199.883
65.17000 202.090
65.18000 204.525
65.19000 206.907
65.20000 208.309
65.21000 209.339
65.22000 210.130
65.23000 208.557
65.24000 206.382
65.25000 204.481
65.26000 214.060
65.27000 223.895
65.28000 231.129
65.29000 228.246
65.30000 224.347
65.31000 223.338
65.32000 229.894
65.33000 236.847
65.34000 241.324
65.35000 233.563
65.36000 227.725
65.37000 227.644
65.38000 234.341
65.39000 241.029
65.40000 243.546
65.41000 242.897
65.42000 242.259
65.43000 251.057
65.44000 264.190
65.45000 276.579
65.46000 277.283
65.47000 273.962
65.48000 270.954
65.49000 270.656
65.50000 270.982
65.51000 271.262
65.52000 277.236
65.53000 283.006
65.54000 287.771
65.55000 288.988
65.56000 289.894
65.57000 292.129
65.58000 297.534
65.59000 303.075
65.60000 306.513
65.61000 308.306
65.62000 309.579
65.63000 316.771
65.64000 330.232
65.65000 343.721
65.66000 360.510
65.67000 379.567
65.68000 398.188
65.69000 422.635
65.70000 448.634
65.71000 475.565
65.72000 514.988
65.73000 558.329
65.74000 603.946
65.75000 666.960
65.76000 733.601
65.77000 789.931
65.78000 841.338
65.79000 883.795
65.80000 925.679
65.81000 965.724
65.82000 1005.630
65.83000 1034.413
65.84000 1039.017
65.85000 1042.782
65.86000 1045.027
65.87000 1065.226
65.88000 1079.652
65.89000 1086.124
65.90000 1085.036
65.91000 1083.727
65.92000 1065.577
65.93000 1036.925
65.94000 1009.107
65.95000 957.677
65.96000 899.419
65.97000 840.915
65.98000 779.567
65.99000 717.409
66.00000 656.682
66.01000 605.675
66.02000 556.494
66.03000 515.691
66.04000 478.405
66.05000 447.931
66.06000 419.028
66.07000 394.711
66.08000 370.689
66.09000 349.942
66.10000 335.679
66.11000 321.592
66.12000 313.547
66.13000 313.600
66.14000 313.668
66.15000 316.008
66.16000 320.289
66.17000 324.425
66.18000 320.849
66.19000 312.902
66.20000 305.242
66.21000 301.876
66.22000 300.262
66.23000 299.136
66.24000 302.915
66.25000 307.964
66.26000 313.773
66.27000 324.204
66.28000 335.414
66.29000 344.531
66.30000 357.034
66.31000 367.524
66.32000 378.878
66.33000 392.529
66.34000 406.303
66.35000 417.033
66.36000 422.278
66.37000 427.412
66.38000 430.211
66.39000 444.697
66.40000 454.603
66.41000 450.609
66.42000 435.890
66.43000 421.703
66.44000 428.341
66.45000 445.721
66.46000 462.339
66.47000 452.349
66.48000 434.391
66.49000 417.870
66.50000 414.023
66.51000 413.147
66.52000 410.837
66.53000 400.717
66.54000 389.417
66.55000 380.422
66.56000 367.781
66.57000 357.327
66.58000 349.395
66.59000 347.573
66.60000 346.022
66.61000 341.411
66.62000 331.789
66.63000 322.093
66.64000 317.064
66.65000 316.131
66.66000 315.524
66.67000 317.629
66.68000 321.630
66.69000 325.606
66.70000 328.798
66.71000 331.622
66.72000 334.299
66.73000 329.232
66.74000 322.294
66.75000 316.390
66.76000 318.539
66.77000 322.395
66.78000 326.039
66.79000 328.644
66.80000 331.108
66.81000 333.026
66.82000 329.173
66.83000 325.751
66.84000 324.323
66.85000 327.296
66.86000 330.427
66.87000 331.039
66.88000 327.906
66.89000 324.737
66.90000 328.922
66.91000 340.216
66.92000 351.383
66.93000 352.322
66.94000 346.781
66.95000 341.378
66.96000 339.312
66.97000 338.673
66.98000 338.073
66.99000 335.240
67.00000 332.069
67.01000 330.360
67.02000 338.766
67.03000 349.105
67.04000 357.974
67.05000 360.324
67.06000 361.898
67.07000 363.094
67.08000 364.502
67.09000 365.620
67.10000 368.316
67.11000 374.183
67.12000 380.140
67.13000 383.052
67.14000 381.864
67.15000 380.655
67.16000 380.909
67.17000 382.433
67.18000 383.967
67.19000 386.080
67.20000 388.527
67.21000 390.866
67.22000 391.073
67.23000 390.448
67.24000 389.867
67.25000 387.302
67.26000 384.520
67.27000 381.765
67.28000 379.179
67.29000 376.623
67.30000 375.333
67.31000 379.121
67.32000 383.442
67.33000 386.640
67.34000 396.637
67.35000 404.687
67.36000 406.760
67.37000 397.896
67.38000 388.799
67.39000 385.711
67.40000 389.937
67.41000 394.171
67.42000 401.809
67.43000 412.065
67.44000 421.984
67.45000 418.116
67.46000 407.026
67.47000 396.807
67.48000 401.034
67.49000 410.391
67.50000 418.977
67.51000 419.352
67.52000 417.943
67.53000 417.312
67.54000 421.000
67.55000 425.352
67.56000 430.255
67.57000 437.162
67.58000 444.253
67.59000 449.359
67.60000 444.327
67.61000 440.115
67.62000 439.858
67.63000 446.180
67.64000 452.603
67.65000 457.388
67.66000 460.378
67.67000 463.355
67.68000 462.691
67.69000 459.475
67.70000 456.344
67.71000 455.888
67.72000 456.707
67.73000 457.663
67.74000 460.533
67.75000 464.023
67.76000 467.185
67.77000 470.064
67.78000 472.548
67.79000 473.639
67.80000 467.776
67.81000 460.960
67.82000 457.368
67.83000 464.439
67.84000 472.354
67.85000 477.887
67.86000 485.590
67.87000 491.472
67.88000 496.703
67.89000 500.950
67.90000 505.187
67.91000 507.858
67.92000 508.988
67.93000 510.110
67.94000 512.804
67.95000 516.451
67.96000 520.108
67.97000 523.998
67.98000 527.988
67.99000 531.288
68.00000 526.227
68.01000 518.708
68.02000 511.987
68.03000 513.078
68.04000 515.352
68.05000 518.609
68.06000 526.298
68.07000 534.525
68.08000 542.646
68.09000 550.450
68.10000 558.233
68.11000 563.505
68.12000 566.781
68.13000 569.180
68.14000 575.382
68.15000 586.792
68.16000 598.222
68.17000 598.078
68.18000 587.700
68.19000 577.433
68.20000 582.767
68.21000 596.895
68.22000 610.667
68.23000 617.122
68.24000 620.683
68.25000 624.057
68.26000 625.465
68.27000 626.348
68.28000 627.126
68.29000 634.153
68.30000 641.148
68.31000 649.988
68.32000 666.349
68.33000 683.515
68.34000 694.802
68.35000 689.981
68.36000 684.238
68.37000 680.477
68.38000 692.506
68.39000 701.609
68.40000 709.712
68.41000 716.579
68.42000 723.450
68.43000 732.563
68.44000 743.464
68.45000 754.202
68.46000 757.274
68.47000 756.302
68.48000 755.441
68.49000 756.492
68.50000 758.231
68.51000 761.983
68.52000 784.226
68.53000 810.945
68.54000 834.113
68.55000 837.236
68.56000 837.223
68.57000 844.199
68.58000 877.017
68.59000 912.253
68.60000 946.306
68.61000 977.407
68.62000 1008.367
68.63000 1027.932
68.64000 1098.088
68.65000 1149.519
68.66000 1201.770
68.67000 1254.934
68.68000 1308.124
68.69000 1365.301
68.70000 1425.353
68.71000 1484.198
68.72000 1534.468
68.73000 1578.832
68.74000 1622.362
68.75000 1653.822
68.76000 1681.320
68.77000 1712.801
68.78000 1776.545
68.79000 1847.354
68.80000 1907.725
68.81000 1995.613
68.82000 2072.790
68.83000 2152.200
68.84000 2239.116
68.85000 2326.639
68.86000 2433.795
68.87000 2585.597
68.88000 2739.125
68.89000 2832.470
68.90000 3356.634
68.91000 3734.243
68.92000 4433.837
68.93000 5455.929
68.94000 6487.645
68.95000 8413.026
68.96000 10922.531
68.97000 13366.856
68.98000 17169.184
68.99000 21365.197
69.00000 25587.449
69.01000 30134.854
69.02000 34779.316
69.03000 39289.188
69.04000 42831.676
69.05000 46182.980
69.06000 48989.109
69.07000 50767.488
69.08000 52139.992
69.09000 53249.035
69.10000 53553.082
69.11000 53801.184
69.12000 54105.555
69.13000 54526.492
69.14000 54951.000
69.15000 55198.633
69.16000 56231.219
69.17000 56960.660
69.18000 57313.363
69.19000 57327.242
69.20000 57318.984
69.21000 55931.012
69.22000 53724.043
69.23000 51589.027
69.24000 48529.070
69.25000 45288.098
69.26000 42098.352
69.27000 39458.641
69.28000 36968.082
69.29000 34574.676
69.30000 32803.984
69.31000 31144.008
69.32000 29780.668
69.33000 28874.762
69.34000 28171.861
69.35000 27486.617
69.36000 26850.484
69.37000 26217.240
69.38000 25363.701
69.39000 24094.676
69.40000 22815.895
69.41000 22102.443
69.42000 18850.797
69.43000 16594.857
69.44000 14371.309
69.45000 12174.016
69.46000 9987.703
69.47000 8295.790
69.48000 6870.769
69.49000 5502.724
69.50000 4548.696
69.51000 3798.155
69.52000 3080.828
69.53000 2675.230
69.54000 2346.298
69.55000 2043.442
69.56000 1890.301
69.57000 1761.021
69.58000 1657.012
69.59000 1554.916
69.60000 1472.252
69.61000 1399.878
69.62000 1353.577
69.63000 1308.554
69.64000 1261.220
69.65000 1209.919
69.66000 1158.550
69.67000 1131.235
69.68000 1096.871
69.69000 1073.471
69.70000 1049.187
69.71000 1024.255
69.72000 999.496
69.73000 980.676
69.74000 964.773
69.75000 949.636
69.76000 917.625
69.77000 882.786
69.78000 849.725
69.79000 831.373
69.80000 816.295
69.81000 803.414
69.82000 801.873
69.83000 801.946
69.84000 802.003
69.85000 769.773
69.86000 741.809
69.87000 723.455
69.88000 727.286
69.89000 732.006
69.90000 732.977
69.91000 728.105
69.92000 723.165
69.93000 720.671
69.94000 715.644
69.95000 712.237
69.96000 704.407
69.97000 693.638
69.98000 682.748
69.99000 668.563
70.00000 652.905
