20.00000 557.566
20.01000 558.162
20.02000 558.843
20.03000 559.809
20.04000 561.892
20.05000 564.087
20.06000 565.700
20.07000 554.456
20.08000 545.236
20.09000 538.987
20.10000 538.034
20.11000 537.184
20.12000 543.052
20.13000 556.869
20.14000 570.666
20.15000 576.203
20.16000 575.444
20.17000 574.730
20.18000 575.730
20.19000 577.606
20.20000 579.117
20.21000 574.844
20.22000 568.569
20.23000 562.830
20.24000 563.728
20.25000 565.893
20.26000 566.223
20.27000 556.660
20.28000 545.624
20.29000 539.204
20.30000 549.158
20.31000 560.553
20.32000 568.693
20.33000 560.874
20.34000 554.377
20.35000 548.244
20.36000 542.702
20.37000 537.168
20.38000 536.755
20.39000 541.795
20.40000 546.813
20.41000 551.547
20.42000 556.033
20.43000 560.124
20.44000 552.524
20.45000 539.490
20.46000 527.705
20.47000 532.791
20.48000 543.190
20.49000 552.580
20.50000 555.727
20.51000 557.343
20.52000 558.484
20.53000 557.317
20.54000 555.844
20.55000 552.344
20.56000 542.310
20.57000 531.781
20.58000 524.480
20.59000 532.874
20.60000 539.609
20.61000 540.880
20.62000 534.115
20.63000 527.281
20.64000 529.011
20.65000 538.924
20.66000 548.758
20.67000 551.718
20.68000 550.392
20.69000 549.072
20.70000 547.899
20.71000 546.788
20.72000 545.909
20.73000 547.738
20.74000 550.341
20.75000 552.658
20.76000 546.811
20.77000 540.392
20.78000 536.156
20.79000 541.498
20.80000 547.964
20.81000 550.544
20.82000 541.721
20.83000 532.160
20.84000 525.741
20.85000 540.512
20.86000 551.913
20.87000 555.363
20.88000 548.220
20.89000 541.037
20.90000 542.297
20.91000 550.812
20.92000 559.227
20.93000 557.790
20.94000 550.912
20.95000 544.399
20.96000 544.974
20.97000 548.283
20.98000 550.402
20.99000 540.481
21.00000 527.430
21.01000 515.982
21.02000 529.553
21.03000 544.852
21.04000 556.439
21.05000 553.290
21.06000 548.619
21.07000 547.446
21.08000 555.618
21.09000 564.298
21.10000 569.930
21.11000 556.242
21.12000 545.927
21.13000 541.837
21.14000 545.237
21.15000 548.644
21.16000 549.988
21.17000 549.731
21.18000 549.478
21.19000 546.553
21.20000 542.383
21.21000 538.818
21.22000 545.131
21.23000 554.915
21.24000 563.381
21.25000 560.148
21.26000 554.160
21.27000 548.990
21.28000 544.595
21.29000 540.965
21.30000 536.513
21.31000 529.102
21.32000 521.424
21.33000 519.362
21.34000 530.967
21.35000 543.187
21.36000 550.831
21.37000 546.430
21.38000 543.127
21.39000 542.946
21.40000 546.149
21.41000 549.353
21.42000 552.477
21.43000 555.544
21.44000 558.545
21.45000 551.253
21.46000 539.594
21.47000 529.003
21.48000 533.201
21.49000 542.130
21.50000 549.948
21.51000 549.064
21.52000 546.326
21.53000 544.003
21.54000 549.457
21.55000 554.912
21.56000 557.116
21.57000 548.674
21.58000 539.404
21.59000 532.597
21.60000 531.251
21.61000 530.104
21.62000 529.414
21.63000 526.877
21.64000 525.060
21.65000 530.251
21.66000 542.253
21.67000 554.144
21.68000 556.808
21.69000 553.598
21.70000 550.478
21.71000 544.159
21.72000 536.842
21.73000 530.510
21.74000 535.897
21.75000 544.692
21.76000 553.056
21.77000 558.419
21.78000 563.206
21.79000 567.193
21.80000 560.810
21.81000 554.493
21.82000 549.630
21.83000 549.100
21.84000 548.859
21.85000 552.121
21.86000 562.458
21.87000 572.998
21.88000 579.075
21.89000 579.079
21.90000 579.063
21.91000 583.497
21.92000 591.822
21.93000 600.120
21.94000 606.940
21.95000 612.905
21.96000 618.665
21.97000 617.280
21.98000 613.340
21.99000 609.524
22.00000 606.985
22.01000 604.785
22.02000 603.758
22.03000 610.030
22.04000 617.563
22.05000 623.716
22.06000 630.265
22.07000 635.658
22.08000 639.361
22.09000 638.482
22.10000 637.346
22.11000 636.063
22.12000 634.510
22.13000 632.952
22.14000 632.093
22.15000 643.411
22.16000 651.190
22.17000 647.491
22.18000 634.742
22.19000 622.208
22.20000 618.630
22.21000 619.764
22.22000 620.850
22.23000 621.117
22.24000 621.092
22.25000 621.252
22.26000 623.087
22.27000 625.323
22.28000 626.184
22.29000 619.385
22.30000 611.401
22.31000 605.015
22.32000 601.980
22.33000 599.776
22.34000 596.322
22.35000 589.783
22.36000 583.100
22.37000 579.771
22.38000 582.048
22.39000 584.413
22.40000 585.653
22.41000 591.823
22.42000 595.962
22.43000 593.757
22.44000 587.029
22.45000 580.377
22.46000 576.198
22.47000 573.204
22.48000 570.361
22.49000 566.783
22.50000 563.259
22.51000 559.499
22.52000 553.848
22.53000 547.787
22.54000 543.095
22.55000 545.277
22.56000 548.406
22.57000 550.854
22.58000 551.140
22.59000 551.231
22.60000 548.502
22.61000 539.427
22.62000 530.113
22.63000 525.475
22.64000 527.936
22.65000 530.471
22.66000 526.022
22.67000 514.663
22.68000 503.375
22.69000 498.411
22.70000 497.536
22.71000 496.916
22.72000 502.754
22.73000 511.411
22.74000 519.552
22.75000 522.418
22.76000 523.612
22.77000 524.468
22.78000 522.926
22.79000 520.915
22.80000 517.414
22.81000 507.167
22.82000 496.096
22.83000 487.642
22.84000 509.945
22.85000 529.180
22.86000 536.932
22.87000 521.140
22.88000 504.646
22.89000 495.717
22.90000 497.194
22.91000 498.734
22.92000 504.112
22.93000 512.892
22.94000 521.546
22.95000 522.703
22.96000 519.457
22.97000 516.227
22.98000 513.346
22.99000 510.604
23.00000 508.051
23.01000 510.050
23.02000 512.959
23.03000 514.827
23.04000 510.105
23.05000 504.224
23.06000 500.589
23.07000 506.153
23.08000 512.708
23.09000 517.587
23.10000 518.382
23.11000 518.817
23.12000 519.949
23.13000 522.383
23.14000 524.847
23.15000 524.575
23.16000 520.901
23.17000 517.223
23.18000 510.757
23.19000 502.094
23.20000 493.578
23.21000 491.473
23.22000 492.795
23.23000 494.158
23.24000 496.249
23.25000 498.602
23.26000 500.767
23.27000 499.486
23.28000 497.592
23.29000 496.067
23.30000 496.638
23.31000 497.540
23.32000 497.817
23.33000 495.779
23.34000 493.522
23.35000 491.887
23.36000 497.494
23.37000 502.066
23.38000 505.989
23.39000 508.808
23.40000 511.610
23.41000 511.879
23.42000 509.309
23.43000 506.746
23.44000 507.485
23.45000 510.590
23.46000 513.486
23.47000 509.455
23.48000 502.054
23.49000 495.224
23.50000 496.723
23.51000 500.969
23.52000 504.827
23.53000 505.964
23.54000 506.440
23.55000 507.372
23.56000 510.638
23.57000 514.232
23.58000 513.711
23.59000 499.302
23.60000 483.758
23.61000 472.822
23.62000 474.810
23.63000 476.699
23.64000 478.245
23.65000 479.260
23.66000 480.270
23.67000 485.057
23.68000 493.649
23.69000 502.187
23.70000 497.149
23.71000 483.396
23.72000 470.210
23.73000 471.968
23.74000 480.348
23.75000 488.103
23.76000 488.055
23.77000 485.668
23.78000 483.527
23.79000 483.088
23.80000 483.000
23.81000 483.480
23.82000 486.570
23.83000 489.986
23.84000 492.527
23.85000 492.380
23.86000 492.045
23.87000 491.816
23.88000 494.006
23.89000 495.698
23.90000 496.371
23.91000 495.619
23.92000 494.856
23.93000 491.484
23.94000 485.753
23.95000 480.078
23.96000 477.568
23.97000 476.957
23.98000 476.687
23.99000 483.685
24.00000 493.617
24.01000 501.708
24.02000 489.893
24.03000 472.654
24.04000 457.419
24.05000 461.751
24.06000 468.513
24.07000 476.205
24.08000 487.772
24.09000 499.765
24.10000 506.136
24.11000 496.794
24.12000 486.519
24.13000 479.739
24.14000 482.404
24.15000 484.534
24.16000 486.104
24.17000 486.963
24.18000 487.811
24.19000 484.829
24.20000 478.728
24.21000 472.711
24.22000 473.037
24.23000 476.696
24.24000 479.947
24.25000 475.956
24.26000 469.303
24.27000 463.869
24.28000 469.954
24.29000 478.886
24.30000 486.658
24.31000 486.187
24.32000 484.657
24.33000 483.376
24.34000 483.030
24.35000 482.775
24.36000 483.139
24.37000 485.082
24.38000 487.102
24.39000 488.389
24.40000 483.464
24.41000 479.805
24.42000 478.567
24.43000 480.090
24.44000 481.594
24.45000 479.233
24.46000 474.025
24.47000 468.915
24.48000 465.466
24.49000 462.932
24.50000 460.668
24.51000 462.452
24.52000 465.590
24.53000 468.742
24.54000 472.010
24.55000 475.304
24.56000 478.123
24.57000 477.809
24.58000 477.166
24.59000 477.627
24.60000 481.874
24.61000 486.437
24.62000 488.828
24.63000 486.178
24.64000 483.325
24.65000 481.575
24.66000 485.982
24.67000 489.192
24.68000 486.525
24.69000 477.833
24.70000 469.210
24.71000 467.589
24.72000 470.640
24.73000 473.616
24.74000 473.124
24.75000 471.165
24.76000 469.919
24.77000 477.799
24.78000 488.459
24.79000 497.606
24.80000 495.596
24.81000 491.332
24.82000 487.748
24.83000 487.765
24.84000 488.161
24.85000 488.814
24.86000 490.270
24.87000 491.783
24.88000 489.937
24.89000 480.993
24.90000 471.819
24.91000 466.419
24.92000 463.723
24.93000 461.834
24.94000 459.773
24.95000 457.552
24.96000 455.405
24.97000 458.263
24.98000 464.154
24.99000 469.860
25.00000 470.947
25.01000 470.183
25.02000 469.741
25.03000 472.853
25.04000 476.948
25.05000 479.685
25.06000 473.503
25.07000 465.699
25.08000 459.263
25.09000 465.491
25.10000 471.789
25.11000 476.248
25.12000 475.490
25.13000 474.413
25.14000 471.328
25.15000 464.375
25.16000 457.327
25.17000 453.356
25.18000 450.141
25.19000 447.910
25.20000 445.377
25.21000 442.592
25.22000 439.960
25.23000 444.636
25.24000 453.338
25.25000 461.707
25.26000 467.107
25.27000 471.131
25.28000 475.037
25.29000 477.818
25.30000 480.317
25.31000 481.835
25.32000 477.592
25.33000 472.410
25.34000 468.222
25.35000 459.637
25.36000 452.302
25.37000 448.401
25.38000 453.373
25.39000 458.797
25.40000 462.464
25.41000 463.053
25.42000 463.586
25.43000 463.872
25.44000 471.936
25.45000 477.411
25.46000 474.904
25.47000 466.423
25.48000 458.002
25.49000 451.746
25.50000 446.574
25.51000 441.643
25.52000 447.830
25.53000 457.076
25.54000 463.906
25.55000 450.224
25.56000 431.878
25.57000 419.809
25.58000 440.873
25.59000 466.767
25.60000 487.244
25.61000 477.431
25.62000 467.467
25.63000 458.399
25.64000 451.440
25.65000 444.569
25.66000 442.558
25.67000 448.279
25.68000 454.099
25.69000 457.070
25.70000 449.606
25.71000 444.666
25.72000 447.683
25.73000 456.094
25.74000 464.086
25.75000 460.237
25.76000 450.982
25.77000 442.236
25.78000 442.860
25.79000 446.095
25.80000 448.937
25.81000 448.829
25.82000 448.115
25.83000 447.391
25.84000 446.614
25.85000 445.831
25.86000 445.226
25.87000 446.321
25.88000 447.289
25.89000 449.570
25.90000 454.667
25.91000 459.858
25.92000 461.930
25.93000 459.501
25.94000 457.037
25.95000 453.257
25.96000 448.249
25.97000 443.258
25.98000 439.515
25.99000 436.540
26.00000 433.841
26.01000 437.423
26.02000 443.618
26.03000 449.413
26.04000 450.032
26.05000 449.274
26.06000 449.245
26.07000 454.097
26.08000 459.853
26.09000 463.690
26.10000 459.271
26.11000 453.907
26.12000 449.864
26.13000 457.251
26.14000 463.597
26.15000 466.452
26.16000 462.489
26.17000 458.349
26.18000 452.538
26.19000 444.545
26.20000 436.551
26.21000 434.593
26.22000 437.714
26.23000 440.874
26.24000 446.070
26.25000 452.404
26.26000 458.076
26.27000 451.306
26.28000 439.820
26.29000 429.192
26.30000 429.090
26.31000 431.411
26.32000 434.031
26.33000 438.436
26.34000 443.137
26.35000 447.073
26.36000 448.027
26.37000 448.680
26.38000 449.160
26.39000 448.475
26.40000 447.899
26.41000 448.661
26.42000 451.801
26.43000 454.988
26.44000 455.490
26.45000 452.826
26.46000 450.164
26.47000 448.602
26.48000 447.882
26.49000 447.092
26.50000 443.675
26.51000 438.921
26.52000 434.482
26.53000 435.017
26.54000 437.269
26.55000 439.328
26.56000 442.187
26.57000 444.892
26.58000 447.325
26.59000 448.299
26.60000 449.056
26.61000 448.693
26.62000 444.368
26.63000 439.696
26.64000 436.362
26.65000 437.976
26.66000 439.370
26.67000 443.691
26.68000 452.739
26.69000 461.852
26.70000 464.727
26.71000 460.981
26.72000 457.252
26.73000 451.074
26.74000 443.299
26.75000 435.852
26.76000 438.026
26.77000 444.660
26.78000 450.710
26.79000 448.921
26.80000 444.671
26.81000 440.835
26.82000 439.919
26.83000 439.651
26.84000 438.121
26.85000 430.494
26.86000 422.060
26.87000 416.066
26.88000 417.915
26.89000 420.357
26.90000 422.048
26.91000 422.187
26.92000 422.251
26.93000 424.477
26.94000 429.875
26.95000 435.300
26.96000 437.456
26.97000 436.497
26.98000 435.546
26.99000 434.912
27.00000 434.483
27.01000 434.254
27.02000 438.730
27.03000 445.193
27.04000 451.002
27.05000 449.232
27.06000 445.299
27.07000 441.799
27.08000 435.031
27.09000 428.619
27.10000 423.778
27.11000 425.805
27.12000 428.636
27.13000 431.113
27.14000 432.558
27.15000 433.936
27.16000 434.860
27.17000 434.079
27.18000 433.465
27.19000 433.617
27.20000 434.784
27.21000 435.955
27.22000 436.519
27.23000 436.562
27.24000 436.605
27.25000 434.191
27.26000 430.474
27.27000 426.818
27.28000 424.318
27.29000 422.264
27.30000 420.504
27.31000 421.716
27.32000 423.698
27.33000 425.436
27.34000 426.005
27.35000 426.323
27.36000 427.160
27.37000 430.053
27.38000 433.158
27.39000 434.741
27.40000 432.269
27.41000 429.578
27.42000 427.834
27.43000 425.278
27.44000 423.396
27.45000 422.851
27.46000 423.909
27.47000 424.973
27.48000 426.363
27.49000 428.005
27.50000 429.621
27.51000 432.949
27.52000 437.025
27.53000 440.581
27.54000 435.703
27.55000 427.869
27.56000 421.836
27.57000 431.729
27.58000 445.362
27.59000 457.125
27.60000 443.733
27.61000 429.144
27.62000 417.799
27.63000 418.105
27.64000 419.457
27.65000 418.611
27.66000 412.433
27.67000 406.016
27.68000 402.007
27.69000 411.689
27.70000 418.817
27.71000 421.534
27.72000 419.486
27.73000 417.430
27.74000 414.386
27.75000 410.651
27.76000 406.998
27.77000 414.025
27.78000 425.589
27.79000 436.051
27.80000 431.319
27.81000 421.742
27.82000 413.628
27.83000 416.946
27.84000 422.691
27.85000 427.564
27.86000 422.213
27.87000 416.574
27.88000 412.534
27.89000 413.717
27.90000 415.303
27.91000 416.229
27.92000 415.693
27.93000 415.104
27.94000 414.750
27.95000 410.652
27.96000 407.714
27.97000 410.219
27.98000 418.000
27.99000 425.686
28.00000 425.610
28.01000 420.609
28.02000 415.747
28.03000 422.056
28.04000 432.607
28.05000 442.372
28.06000 442.819
28.07000 440.564
28.08000 437.704
28.09000 430.650
28.10000 422.793
28.11000 416.252
28.12000 417.828
28.13000 419.935
28.14000 421.979
28.15000 423.839
28.16000 425.687
28.17000 426.220
28.18000 424.105
28.19000 421.915
28.20000 420.655
28.21000 419.088
28.22000 417.989
28.23000 416.146
28.24000 413.654
28.25000 411.251
28.26000 413.810
28.27000 419.231
28.28000 424.464
28.29000 421.966
28.30000 416.770
28.31000 412.492
28.32000 417.670
28.33000 425.339
28.34000 430.561
28.35000 420.619
28.36000 408.067
28.37000 397.820
28.38000 407.947
28.39000 417.982
28.40000 423.904
28.41000 418.701
28.42000 412.877
28.43000 412.983
28.44000 423.958
28.45000 435.167
28.46000 441.333
28.47000 426.091
28.48000 415.583
28.49000 411.714
28.50000 413.062
28.51000 414.444
28.52000 417.202
28.53000 420.683
28.54000 424.016
28.55000 419.964
28.56000 413.737
28.57000 408.494
28.58000 412.133
28.59000 417.891
28.60000 421.840
28.61000 415.736
28.62000 408.084
28.63000 401.967
28.64000 398.659
28.65000 396.195
28.66000 396.421
28.67000 403.277
28.68000 410.440
28.69000 411.374
28.70000 401.925
28.71000 392.316
28.72000 387.284
28.73000 391.417
28.74000 394.231
28.75000 398.752
28.76000 404.486
28.77000 410.107
28.78000 412.144
28.79000 412.470
28.80000 412.779
28.81000 416.168
28.82000 420.216
28.83000 423.143
28.84000 417.142
28.85000 409.214
28.86000 402.046
28.87000 398.684
28.88000 395.845
28.89000 393.626
28.90000 401.293
28.91000 408.038
28.92000 412.358
28.93000 411.233
28.94000 409.905
28.95000 406.568
28.96000 400.192
28.97000 393.785
28.98000 392.502
28.99000 396.271
29.00000 400.034
29.01000 403.307
29.02000 406.263
29.03000 409.207
29.04000 411.846
29.05000 414.354
29.06000 416.711
29.07000 415.030
29.08000 412.410
29.09000 408.934
29.10000 399.414
29.11000 388.716
29.12000 381.618
29.13000 390.770
29.14000 401.901
29.15000 410.393
29.16000 405.705
29.17000 401.306
29.18000 398.409
29.19000 398.584
29.20000 398.851
29.21000 400.551
29.22000 404.217
29.23000 407.893
29.24000 410.357
29.25000 411.746
29.26000 413.081
29.27000 411.166
29.28000 407.348
29.29000 403.529
29.30000 399.679
29.31000 395.817
29.32000 392.224
29.33000 398.807
29.34000 407.213
29.35000 413.813
29.36000 409.016
29.37000 402.224
29.38000 397.165
29.39000 399.188
29.40000 401.972
29.41000 404.042
29.42000 412.961
29.43000 420.204
29.44000 422.910
29.45000 417.171
29.46000 411.242
29.47000 407.307
29.48000 405.846
29.49000 404.394
29.50000 401.296
29.51000 396.902
29.52000 392.620
29.53000 393.115
29.54000 396.155
29.55000 399.447
29.56000 407.049
29.57000 416.208
29.58000 424.631
29.59000 412.586
29.60000 397.390
29.61000 384.409
29.62000 383.958
29.63000 385.473
29.64000 388.001
29.65000 394.281
29.66000 400.913
29.67000 405.713
29.68000 402.238
29.69000 399.267
29.70000 396.734
29.71000 394.943
29.72000 393.164
29.73000 393.859
29.74000 397.320
29.75000 400.770
29.76000 401.455
29.77000 400.154
29.78000 398.885
29.79000 398.658
29.80000 398.936
29.81000 399.292
29.82000 400.772
29.83000 402.621
29.84000 404.300
29.85000 397.408
29.86000 389.659
29.87000 384.898
29.88000 395.340
29.89000 407.909
29.90000 416.037
29.91000 409.215
29.92000 401.177
29.93000 395.527
29.94000 393.458
29.95000 391.997
29.96000 395.090
29.97000 405.185
29.98000 415.357
29.99000 418.955
30.00000 415.955
30.01000 412.974
30.02000 417.014
30.03000 425.525
30.04000 433.678
30.05000 432.482
30.06000 427.155
30.07000 421.443
30.08000 410.943
30.09000 399.010
30.10000 388.316
30.11000 403.859
30.12000 421.972
30.13000 434.858
30.14000 423.748
30.15000 409.658
30.16000 399.510
30.17000 401.425
30.18000 404.181
30.19000 406.060
30.20000 408.310
30.21000 410.000
30.22000 416.192
30.23000 428.658
30.24000 441.156
30.25000 440.004
30.26000 426.549
30.27000 413.226
30.28000 409.114
30.29000 410.451
30.30000 411.537
30.31000 407.274
30.32000 400.857
30.33000 395.082
30.34000 396.205
30.35000 399.203
30.36000 401.851
30.37000 403.885
30.38000 405.547
30.39000 406.867
30.40000 406.766
30.41000 406.510
30.42000 406.491
30.43000 407.132
30.44000 407.813
30.45000 408.261
30.46000 404.386
30.47000 401.454
30.48000 399.505
30.49000 398.794
30.50000 398.092
30.51000 398.786
30.52000 400.615
30.53000 402.418
30.54000 403.326
30.55000 403.737
30.56000 404.341
30.57000 408.366
30.58000 413.644
30.59000 417.260
30.60000 405.231
30.61000 389.347
30.62000 375.532
30.63000 385.781
30.64000 397.806
30.65000 407.619
30.66000 409.104
30.67000 409.790
30.68000 410.387
30.69000 410.754
30.70000 411.110
30.71000 411.336
30.72000 408.256
30.73000 405.976
30.74000 407.916
30.75000 414.653
30.76000 421.371
30.77000 423.978
30.78000 423.566
30.79000 423.162
30.80000 421.901
30.81000 420.279
30.82000 418.861
30.83000 420.483
30.84000 423.120
30.85000 425.800
30.86000 428.841
30.87000 431.963
30.88000 434.634
30.89000 439.290
30.90000 443.455
30.91000 446.410
30.92000 445.232
30.93000 443.710
30.94000 443.014
30.95000 444.225
30.96000 445.514
30.97000 446.303
30.98000 458.872
30.99000 467.971
31.00000 481.000
31.01000 498.045
31.02000 514.994
31.03000 522.169
31.04000 522.841
31.05000 523.497
31.06000 538.775
31.07000 559.629
31.08000 580.528
31.09000 602.016
31.10000 623.681
31.11000 646.455
31.12000 677.362
31.13000 709.906
31.14000 737.249
31.15000 771.165
31.16000 800.114
31.17000 829.332
31.18000 859.383
31.19000 889.493
31.20000 926.463
31.21000 977.887
31.22000 1029.774
31.23000 1060.278
31.24000 1115.931
31.25000 1155.307
31.26000 1201.333
31.27000 1253.455
31.28000 1305.453
31.29000 1349.223
31.30000 1388.022
31.31000 1425.605
31.32000 1449.543
31.33000 1466.915
31.34000 1484.940
31.35000 1510.146
31.36000 1537.336
31.37000 1561.537
31.38000 1566.188
31.39000 1567.296
31.40000 1568.208
31.41000 1555.980
31.42000 1544.707
31.43000 1532.053
31.44000 1515.492
31.45000 1498.695
31.46000 1477.873
31.47000 1449.329
31.48000 1420.594
31.49000 1404.428
31.50000 1348.013
31.51000 1308.742
31.52000 1265.530
31.53000 1219.065
31.54000 1172.508
31.55000 1121.596
31.56000 1068.292
31.57000 1017.045
31.58000 981.569
31.59000 953.831
31.60000 925.529
31.61000 891.814
31.62000 856.743
31.63000 822.027
31.64000 789.382
31.65000 757.075
31.66000 730.983
31.67000 703.498
31.68000 681.043
31.69000 659.056
31.70000 638.276
31.71000 617.558
31.72000 598.593
31.73000 582.689
31.74000 566.840
31.75000 558.336
31.76000 553.920
31.77000 550.861
31.78000 538.482
31.79000 519.149
31.80000 500.089
31.81000 490.825
31.82000 486.458
31.83000 482.294
31.84000 474.044
31.85000 465.107
31.86000 456.224
31.87000 447.797
31.88000 439.473
31.89000 431.315
31.90000 424.036
31.91000 416.883
31.92000 411.231
31.93000 415.997
31.94000 420.537
31.95000 422.488
31.96000 418.360
31.97000 413.979
31.98000 409.936
31.99000 406.427
32.00000 402.924
32.01000 401.139
32.02000 398.783
32.03000 397.229
32.04000 398.583
32.05000 401.901
32.06000 405.050
32.07000 403.436
32.08000 399.654
32.09000 396.081
32.10000 390.231
32.11000 384.217
32.12000 379.198
32.13000 381.619
32.14000 385.564
32.15000 388.023
32.16000 383.432
32.17000 377.930
32.18000 373.681
32.19000 377.568
32.20000 381.123
32.21000 381.981
32.22000 377.070
32.23000 371.967
32.24000 369.995
32.25000 372.529
32.26000 375.098
32.27000 377.120
32.28000 378.633
32.29000 380.231
32.30000 387.894
32.31000 399.278
32.32000 409.951
32.33000 404.500
32.34000 392.361
32.35000 381.009
32.36000 375.572
32.37000 372.139
32.38000 369.309
32.39000 370.495
32.40000 372.421
32.41000 373.718
32.42000 372.319
32.43000 370.611
32.44000 369.325
32.45000 379.048
32.46000 387.196
32.47000 388.496
32.48000 376.458
32.49000 364.074
32.50000 358.303
32.51000 361.144
32.52000 364.019
32.53000 366.237
32.54000 367.897
32.55000 369.498
32.56000 368.123
32.57000 365.089
32.58000 362.180
32.59000 361.591
32.60000 361.880
32.61000 362.147
32.62000 356.733
32.63000 350.572
32.64000 346.217
32.65000 352.630
32.66000 360.826
32.67000 367.001
32.68000 365.325
32.69000 362.862
32.70000 361.056
32.71000 361.494
32.72000 361.924
32.73000 360.270
32.74000 354.923
32.75000 349.505
32.76000 347.680
32.77000 350.077
32.78000 352.475
32.79000 354.340
32.80000 355.790
32.81000 357.248
32.82000 358.953
32.83000 360.784
32.84000 362.621
32.85000 364.550
32.86000 366.510
32.87000 368.301
32.88000 369.961
32.89000 371.409
32.90000 371.770
32.91000 366.320
32.92000 360.010
32.93000 356.203
32.94000 361.222
32.95000 367.011
32.96000 371.139
32.97000 379.707
32.98000 386.385
32.99000 387.612
33.00000 380.055
33.01000 372.380
33.02000 368.743
33.03000 369.377
33.04000 370.009
33.05000 366.024
33.06000 358.953
33.07000 351.961
33.08000 347.282
33.09000 343.673
33.10000 340.379
33.11000 341.303
33.12000 343.548
33.13000 345.573
33.14000 347.752
33.15000 349.693
33.16000 349.817
33.17000 341.174
33.18000 331.378
33.19000 323.338
33.20000 320.925
33.21000 318.935
33.22000 317.559
33.23000 329.807
33.24000 339.375
33.25000 344.825
33.26000 344.254
33.27000 343.630
33.28000 342.917
33.29000 342.118
33.30000 341.325
33.31000 340.760
33.32000 340.344
33.33000 339.868
33.34000 338.011
33.35000 335.571
33.36000 333.338
33.37000 333.481
33.38000 334.301
33.39000 335.030
33.40000 335.687
33.41000 336.246
33.42000 336.836
33.43000 337.558
33.44000 338.296
33.45000 338.815
33.46000 338.699
33.47000 338.541
33.48000 338.436
33.49000 337.017
33.50000 335.938
33.51000 334.760
33.52000 333.450
33.53000 332.143
33.54000 333.298
33.55000 336.554
33.56000 339.771
33.57000 339.104
33.58000 336.308
33.59000 333.223
33.60000 324.579
33.61000 313.802
33.62000 304.520
33.63000 310.236
33.64000 319.829
33.65000 328.235
33.66000 330.811
33.67000 332.178
33.68000 333.180
33.69000 332.743
33.70000 332.158
33.71000 331.097
33.72000 328.771
33.73000 326.377
33.74000 324.826
33.75000 320.148
33.76000 316.679
33.77000 316.636
33.78000 320.689
33.79000 324.741
33.80000 326.766
33.81000 327.227
33.82000 327.681
33.83000 327.157
33.84000 326.164
33.85000 325.081
33.86000 322.561
33.87000 319.537
33.88000 316.845
33.89000 317.061
33.90000 317.959
33.91000 318.733
33.92000 319.735
33.93000 320.614
33.94000 322.112
33.95000 325.828
33.96000 329.742
33.97000 332.289
33.98000 331.528
33.99000 330.620
34.00000 330.053
34.01000 335.710
34.02000 339.854
34.03000 339.864
34.04000 335.423
34.05000 331.021
34.06000 331.603
34.07000 335.664
34.08000 339.635
34.09000 335.794
34.10000 328.594
34.11000 321.584
34.12000 317.196
34.13000 313.641
34.14000 310.406
34.15000 309.659
34.16000 309.439
34.17000 309.253
34.18000 314.270
34.19000 319.059
34.20000 322.031
34.21000 319.089
34.22000 315.691
34.23000 312.700
34.24000 310.604
34.25000 308.539
34.26000 307.301
34.27000 309.967
34.28000 311.888
34.29000 316.397
34.30000 323.407
34.31000 330.350
34.32000 331.922
34.33000 330.094
34.34000 328.318
34.35000 322.925
34.36000 316.330
34.37000 310.372
34.38000 311.926
34.39000 315.654
34.40000 319.378
34.41000 323.079
34.42000 326.776
34.43000 329.853
34.44000 332.621
34.45000 334.883
34.46000 333.440
34.47000 321.029
34.48000 307.895
34.49000 301.842
34.50000 310.010
34.51000 318.579
34.52000 323.506
34.53000 330.011
34.54000 334.564
34.55000 336.254
34.56000 335.457
34.57000 334.587
34.58000 329.673
34.59000 322.433
34.60000 315.447
34.61000 312.354
34.62000 310.869
34.63000 309.363
34.64000 307.633
34.65000 305.844
34.66000 304.913
34.67000 309.281
34.68000 314.556
34.69000 318.860
34.70000 315.183
34.71000 311.494
34.72000 309.097
34.73000 310.186
34.74000 311.468
34.75000 312.126
34.76000 311.644
34.77000 311.138
34.78000 310.860
34.79000 313.430
34.80000 315.207
34.81000 317.856
34.82000 321.188
34.83000 324.445
34.84000 324.631
34.85000 323.211
34.86000 321.852
34.87000 318.083
34.88000 313.774
34.89000 309.932
34.90000 310.299
34.91000 311.667
34.92000 313.725
34.93000 319.609
34.94000 326.080
34.95000 331.249
34.96000 321.723
34.97000 312.943
34.98000 305.084
34.99000 299.484
35.00000 293.988
35.01000 294.171
35.02000 303.792
35.03000 313.557
35.04000 318.663
35.05000 306.934
35.06000 299.028
35.07000 296.315
35.08000 297.285
35.09000 298.454
35.10000 305.894
35.11000 316.323
35.12000 326.220
35.13000 320.452
35.14000 310.465
35.15000 301.229
35.16000 297.956
35.17000 295.966
35.18000 295.892
35.19000 305.371
35.20000 316.156
35.21000 324.579
35.22000 325.604
35.23000 325.955
35.24000 324.207
35.25000 317.759
35.26000 311.135
35.27000 306.108
35.28000 303.487
35.29000 300.891
35.30000 303.737
35.31000 311.933
35.32000 320.025
35.33000 319.127
35.34000 312.451
35.35000 305.923
35.36000 303.101
35.37000 301.888
35.38000 300.747
35.39000 304.431
35.40000 309.086
35.41000 313.076
35.42000 312.375
35.43000 310.763
35.44000 310.084
35.45000 313.600
35.46000 317.624
35.47000 320.693
35.48000 319.495
35.49000 318.324
35.50000 319.304
35.51000 324.670
35.52000 330.164
35.53000 328.385
35.54000 316.658
35.55000 304.878
35.56000 301.502
35.57000 305.543
35.58000 309.541
35.59000 310.994
35.60000 310.961
35.61000 310.826
35.62000 308.593
35.63000 305.531
35.64000 302.684
35.65000 299.517
35.66000 296.580
35.67000 294.266
35.68000 295.860
35.69000 298.138
35.70000 299.835
35.71000 299.172
35.72000 298.256
35.73000 297.576
35.74000 300.166
35.75000 302.325
35.76000 302.690
35.77000 299.724
35.78000 296.684
35.79000 297.028
35.80000 301.554
35.81000 306.084
35.82000 308.494
35.83000 309.214
35.84000 309.882
35.85000 308.346
35.86000 305.639
35.87000 302.975
35.88000 301.032
35.89000 299.349
35.90000 297.802
35.91000 303.375
35.92000 309.890
35.93000 315.109
35.94000 313.019
35.95000 309.787
35.96000 306.795
35.97000 304.693
35.98000 302.673
35.99000 301.213
36.00000 295.006
36.01000 290.070
36.02000 289.973
36.03000 298.044
36.04000 306.248
36.05000 306.041
36.06000 296.465
36.07000 286.917
36.08000 282.725
36.09000 282.394
36.10000 282.100
36.11000 283.035
36.12000 284.565
36.13000 286.038
36.14000 286.686
36.15000 287.065
36.16000 287.409
36.17000 286.609
36.18000 285.682
36.19000 285.718
36.20000 290.637
36.21000 296.237
36.22000 300.420
36.23000 299.849
36.24000 298.894
36.25000 298.223
36.26000 301.978
36.27000 304.951
36.28000 303.253
36.29000 294.395
36.30000 285.458
36.31000 282.127
36.32000 284.404
36.33000 286.667
36.34000 286.935
36.35000 285.915
36.36000 284.942
36.37000 285.173
36.38000 285.935
36.39000 286.811
36.40000 289.112
36.41000 291.838
36.42000 294.280
36.43000 293.190
36.44000 291.629
36.45000 289.796
36.46000 286.722
36.47000 283.493
36.48000 283.839
36.49000 295.095
36.50000 307.107
36.51000 315.285
36.52000 313.218
36.53000 311.440
36.54000 306.477
36.55000 297.088
36.56000 287.674
36.57000 284.491
36.58000 286.904
36.59000 289.293
36.60000 290.199
36.61000 290.226
36.62000 290.214
36.63000 289.362
36.64000 288.174
36.65000 287.220
36.66000 288.768
36.67000 290.993
36.68000 292.958
36.69000 293.070
36.70000 292.883
36.71000 293.475
36.72000 297.293
36.73000 301.464
36.74000 301.356
36.75000 289.355
36.76000 276.655
36.77000 268.292
36.78000 281.399
36.79000 291.425
36.80000 293.840
36.81000 286.689
36.82000 279.523
36.83000 278.185
36.84000 281.566
36.85000 284.899
36.86000 289.285
36.87000 294.096
36.88000 298.551
36.89000 296.747
36.90000 292.654
36.91000 289.052
36.92000 290.046
36.93000 292.168
36.94000 294.013
36.95000 296.888
36.96000 299.479
36.97000 301.000
36.98000 298.500
36.99000 295.615
37.00000 294.978
37.01000 300.032
37.02000 305.363
37.03000 308.751
37.04000 298.941
37.05000 291.652
37.06000 288.912
37.07000 291.326
37.08000 293.733
37.09000 293.944
37.10000 292.549
37.11000 291.181
37.12000 290.956
37.13000 291.279
37.14000 291.607
37.15000 291.996
37.16000 292.404
37.17000 292.741
37.18000 292.478
37.19000 292.083
37.20000 291.745
37.21000 289.613
37.22000 287.600
37.23000 284.679
37.24000 278.660
37.25000 272.384
37.26000 269.290
37.27000 273.532
37.28000 278.068
37.29000 280.842
37.30000 280.810
37.31000 280.763
37.32000 282.710
37.33000 286.688
37.34000 290.615
37.35000 289.374
37.36000 284.706
37.37000 280.155
37.38000 281.103
37.39000 284.354
37.40000 287.700
37.41000 292.237
37.42000 297.134
37.43000 301.880
37.44000 305.526
37.45000 308.951
37.46000 311.826
37.47000 306.639
37.48000 301.472
37.49000 296.473
37.50000 291.997
37.51000 287.559
37.52000 285.396
37.53000 288.013
37.54000 290.783
37.55000 292.409
37.56000 286.069
37.57000 281.561
37.58000 280.557
37.59000 282.755
37.60000 284.914
37.61000 284.539
37.62000 282.638
37.63000 280.798
37.64000 284.277
37.65000 289.619
37.66000 294.497
37.67000 294.281
37.68000 292.663
37.69000 290.687
37.70000 286.375
37.71000 281.640
37.72000 277.740
37.73000 275.183
37.74000 273.203
37.75000 271.772
37.76000 271.892
37.77000 272.105
37.78000 273.412
37.79000 276.814
37.80000 280.266
37.81000 282.206
37.82000 284.409
37.83000 285.936
37.84000 286.635
37.85000 286.653
37.86000 286.620
37.87000 284.254
37.88000 280.609
37.89000 277.105
37.90000 274.677
37.91000 272.775
37.92000 271.234
37.93000 273.137
37.94000 275.900
37.95000 278.378
37.96000 279.195
37.97000 279.743
37.98000 280.185
37.99000 289.803
38.00000 298.347
38.01000 301.206
38.02000 289.452
38.03000 276.961
38.04000 270.301
38.05000 273.793
38.06000 277.467
38.07000 279.436
38.08000 282.369
38.09000 284.378
38.10000 287.590
38.11000 291.698
38.12000 295.622
38.13000 293.042
38.14000 287.220
38.15000 281.671
38.16000 286.103
38.17000 293.341
38.18000 300.018
38.19000 301.968
38.20000 302.849
38.21000 303.455
38.22000 302.623
38.23000 301.582
38.24000 300.760
38.25000 289.038
38.26000 278.888
38.27000 276.348
38.28000 291.629
38.29000 307.646
38.30000 316.424
38.31000 313.753
38.32000 310.940
38.33000 309.508
38.34000 318.431
38.35000 324.399
38.36000 328.563
38.37000 331.511
38.38000 334.391
38.39000 335.360
38.40000 335.462
38.41000 335.558
38.42000 350.599
38.43000 368.618
38.44000 386.771
38.45000 405.930
38.46000 425.294
38.47000 443.569
38.48000 456.690
38.49000 469.148
38.50000 478.760
38.51000 494.055
38.52000 506.506
38.53000 519.443
38.54000 533.418
38.55000 547.427
38.56000 564.881
38.57000 587.277
38.58000 609.708
38.59000 631.085
38.60000 651.474
38.61000 671.851
38.62000 691.416
38.63000 710.486
38.64000 729.260
38.65000 741.360
38.66000 750.700
38.67000 759.432
38.68000 764.198
38.69000 767.517
38.70000 772.392
38.71000 787.594
38.72000 804.694
38.73000 818.603
38.74000 818.870
38.75000 817.587
38.76000 816.621
38.77000 808.127
38.78000 801.116
38.79000 793.249
38.80000 783.721
38.81000 774.150
38.82000 756.360
38.83000 727.897
38.84000 699.421
38.85000 674.168
38.86000 651.676
38.87000 629.332
38.88000 614.301
38.89000 603.337
38.90000 592.000
38.91000 573.719
38.92000 552.821
38.93000 533.499
38.94000 504.112
38.95000 475.432
38.96000 447.525
38.97000 424.211
38.98000 401.656
38.99000 383.452
39.00000 382.103
39.01000 382.436
39.02000 382.680
39.03000 369.513
39.04000 358.806
39.05000 346.708
39.06000 332.149
39.07000 317.543
39.08000 309.690
39.09000 309.754
39.10000 309.829
39.11000 305.447
39.12000 297.748
39.13000 290.134
39.14000 285.725
39.15000 282.938
39.16000 280.117
39.17000 276.771
39.18000 273.245
39.19000 270.023
39.20000 271.306
39.21000 273.364
39.22000 275.056
39.23000 274.792
39.24000 274.239
39.25000 275.218
39.26000 281.581
39.27000 288.412
39.28000 293.279
39.29000 289.192
39.30000 285.785
39.31000 283.019
39.32000 281.283
39.33000 279.560
39.34000 278.156
39.35000 277.088
39.36000 276.026
39.37000 271.826
39.38000 265.553
39.39000 259.436
39.40000 257.815
39.41000 258.267
39.42000 258.717
39.43000 259.145
39.44000 259.565
39.45000 259.944
39.46000 262.900
39.47000 265.966
39.48000 268.467
39.49000 268.262
39.50000 267.701
39.51000 267.733
39.52000 269.664
39.53000 271.736
39.54000 273.168
39.55000 264.800
39.56000 258.254
39.57000 255.741
39.58000 259.107
39.59000 262.522
39.60000 262.288
39.61000 258.602
39.62000 254.946
39.63000 256.598
39.64000 261.457
39.65000 266.043
39.66000 264.262
39.67000 259.808
39.68000 255.534
39.69000 253.323
39.70000 251.697
39.71000 250.251
39.72000 253.461
39.73000 257.002
39.74000 260.116
39.75000 261.374
39.76000 262.417
39.77000 261.770
39.78000 256.207
39.79000 250.330
39.80000 246.396
39.81000 261.739
39.82000 273.501
39.83000 277.976
39.84000 272.833
39.85000 267.646
39.86000 263.669
39.87000 260.722
39.88000 257.810
39.89000 257.776
39.90000 259.326
39.91000 260.707
39.92000 258.843
39.93000 255.739
39.94000 253.037
39.95000 254.354
39.96000 256.706
39.97000 258.767
39.98000 263.568
39.99000 268.082
40.00000 271.598
40.01000 271.189
40.02000 270.381
40.03000 268.594
40.04000 264.218
40.05000 259.703
40.06000 256.783
40.07000 260.402
40.08000 263.144
40.09000 266.470
40.10000 270.489
40.11000 274.489
40.12000 273.560
40.13000 268.843
40.14000 264.205
40.15000 259.824
40.16000 255.714
40.17000 251.861
40.18000 252.133
40.19000 253.842
40.20000 255.452
40.21000 256.190
40.22000 256.725
40.23000 257.186
40.24000 253.003
40.25000 248.866
40.26000 245.179
40.27000 243.100
40.28000 241.164
40.29000 239.154
40.30000 236.962
40.31000 234.762
40.32000 233.391
40.33000 241.738
40.34000 247.854
40.35000 252.535
40.36000 255.678
40.37000 258.800
40.38000 259.360
40.39000 258.138
40.40000 256.943
40.41000 253.923
40.42000 250.208
40.43000 246.802
40.44000 247.622
40.45000 249.781
40.46000 252.237
40.47000 256.998
40.48000 262.245
40.49000 266.690
40.50000 258.127
40.51000 249.496
40.52000 242.061
40.53000 238.507
40.54000 235.250
40.55000 236.504
40.56000 247.677
40.57000 259.203
40.58000 266.109
40.59000 259.121
40.60000 254.069
40.61000 251.407
40.62000 251.047
40.63000 250.693
40.64000 250.867
40.65000 251.374
40.66000 251.866
40.67000 244.658
40.68000 234.689
40.69000 225.773
40.70000 229.227
40.71000 236.247
40.72000 242.642
40.73000 244.722
40.74000 245.982
40.75000 247.029
40.76000 244.579
40.77000 242.209
40.78000 240.373
40.79000 240.117
40.80000 239.964
40.81000 240.064
40.82000 240.673
40.83000 241.295
40.84000 241.653
40.85000 237.887
40.86000 235.239
40.87000 231.736
40.88000 227.494
40.89000 223.427
40.90000 228.942
40.91000 239.951
40.92000 250.573
40.93000 248.668
40.94000 242.298
40.95000 236.756
40.96000 239.683
40.97000 244.828
40.98000 249.195
40.99000 248.777
41.00000 247.541
41.01000 246.534
41.02000 245.225
41.03000 244.130
41.04000 242.954
41.05000 241.562
41.06000 240.158
41.07000 238.573
41.08000 236.659
41.09000 234.738
41.10000 233.684
41.11000 247.546
41.12000 257.072
41.13000 257.683
41.14000 251.329
41.15000 245.073
41.16000 242.758
41.17000 242.500
41.18000 242.253
41.19000 244.013
41.20000 246.315
41.21000 247.916
41.22000 243.238
41.23000 237.071
41.24000 232.548
41.25000 237.107
41.26000 243.055
41.27000 247.804
41.28000 242.149
41.29000 236.820
41.30000 234.425
41.31000 239.217
41.32000 244.337
41.33000 246.506
41.34000 243.784
41.35000 240.989
41.36000 239.529
41.37000 235.629
41.38000 233.018
41.39000 234.224
41.40000 238.128
41.41000 242.026
41.42000 245.753
41.43000 249.398
41.44000 252.857
41.45000 251.504
41.46000 248.828
41.47000 246.237
41.48000 244.325
41.49000 242.558
41.50000 240.913
41.51000 239.870
41.52000 238.910
41.53000 238.160
41.54000 236.231
41.55000 234.619
41.56000 233.407
41.57000 233.091
41.58000 232.807
41.59000 234.098
41.60000 237.759
41.61000 241.443
41.62000 242.200
41.63000 240.090
41.64000 238.013
41.65000 238.659
41.66000 241.050
41.67000 243.215
41.68000 239.737
41.69000 233.816
41.70000 228.253
41.71000 223.014
41.72000 218.320
41.73000 215.204
41.74000 223.168
41.75000 233.276
41.76000 241.475
41.77000 241.110
41.78000 239.710
41.79000 238.643
41.80000 238.186
41.81000 237.859
41.82000 237.797
41.83000 238.274
41.84000 238.767
41.85000 239.254
41.86000 239.734
41.87000 240.213
41.88000 238.552
41.89000 235.011
41.90000 231.575
41.91000 234.243
41.92000 240.465
41.93000 246.282
41.94000 243.853
41.95000 238.173
41.96000 232.893
41.97000 233.673
41.98000 235.832
41.99000 237.703
42.00000 237.773
42.01000 237.528
42.02000 237.790
42.03000 240.104
42.04000 242.636
42.05000 244.517
42.06000 242.599
42.07000 240.940
42.08000 238.762
42.09000 235.623
42.10000 232.462
42.11000 230.100
42.12000 228.722
42.13000 227.348
42.14000 226.738
42.15000 226.734
42.16000 226.766
42.17000 228.371
42.18000 230.809
42.19000 233.203
42.20000 234.867
42.21000 236.267
42.22000 237.554
42.23000 236.673
42.24000 235.418
42.25000 234.118
42.26000 232.557
42.27000 230.956
42.28000 229.262
42.29000 227.228
42.30000 225.163
42.31000 223.671
42.32000 221.725
42.33000 220.216
42.34000 221.738
42.35000 228.362
42.36000 235.068
42.37000 239.978
42.38000 242.894
42.39000 245.798
42.40000 243.001
42.41000 236.174
42.42000 229.573
42.43000 230.301
42.44000 234.564
42.45000 238.283
42.46000 234.193
42.47000 227.548
42.48000 221.518
42.49000 221.476
42.50000 222.592
42.51000 224.225
42.52000 228.476
42.53000 233.090
42.54000 235.338
42.55000 229.665
42.56000 223.354
42.57000 218.926
42.58000 226.760
42.59000 233.045
42.60000 236.532
42.61000 235.744
42.62000 234.910
42.63000 234.877
42.64000 235.644
42.65000 236.406
42.66000 237.612
42.67000 239.086
42.68000 240.212
42.69000 232.367
42.70000 220.579
42.71000 210.106
42.72000 215.819
42.73000 226.346
42.74000 235.772
42.75000 232.565
42.76000 227.596
42.77000 223.998
42.78000 226.652
42.79000 230.077
42.80000 231.270
42.81000 225.670
42.82000 219.601
42.83000 215.473
42.84000 212.814
42.85000 210.861
42.86000 208.865
42.87000 206.807
42.88000 204.754
42.89000 209.709
42.90000 220.941
42.91000 232.060
42.92000 232.105
42.93000 225.742
42.94000 219.671
42.95000 219.717
42.96000 222.211
42.97000 224.985
42.98000 230.750
42.99000 237.322
43.00000 243.122
43.01000 240.134
43.02000 236.214
43.03000 232.114
43.04000 227.272
43.05000 222.350
43.06000 218.790
43.07000 219.008
43.08000 219.446
43.09000 219.735
43.10000 224.804
43.11000 228.618
43.12000 229.058
43.13000 225.269
43.14000 221.471
43.15000 218.802
43.16000 217.046
43.17000 215.314
43.18000 218.782
43.19000 224.865
43.20000 230.510
43.21000 228.530
43.22000 223.770
43.23000 219.100
43.24000 215.272
43.25000 211.650
43.26000 208.503
43.27000 212.499
43.28000 216.872
43.29000 220.282
43.30000 220.089
43.31000 219.553
43.32000 219.477
43.33000 220.561
43.34000 221.701
43.35000 222.425
43.36000 221.616
43.37000 221.009
43.38000 221.289
43.39000 222.568
43.40000 223.850
43.41000 225.360
43.42000 227.036
43.43000 228.679
43.44000 226.397
43.45000 222.348
43.46000 218.763
43.47000 222.025
43.48000 227.560
43.49000 231.826
43.50000 225.658
43.51000 217.176
43.52000 209.929
43.53000 213.430
43.54000 217.662
43.55000 221.107
43.56000 221.877
43.57000 222.426
43.58000 223.005
43.59000 223.653
43.60000 224.304
43.61000 224.701
43.62000 222.715
43.63000 221.275
43.64000 221.821
43.65000 224.382
43.66000 226.883
43.67000 223.412
43.68000 215.992
43.69000 208.758
43.70000 214.566
43.71000 225.661
43.72000 235.983
43.73000 236.556
43.74000 234.185
43.75000 231.864
43.76000 229.908
43.77000 228.025
43.78000 226.444
43.79000 219.887
43.80000 213.907
43.81000 209.271
43.82000 208.791
43.83000 208.605
43.84000 209.220
43.85000 211.515
43.86000 213.864
43.87000 215.241
43.88000 214.042
43.89000 213.185
43.90000 213.041
43.91000 213.545
43.92000 214.057
43.93000 215.052
43.94000 216.338
43.95000 217.584
43.96000 221.299
43.97000 225.760
43.98000 229.638
43.99000 227.150
44.00000 222.916
44.01000 218.846
44.02000 215.845
44.03000 213.037
44.04000 210.725
44.05000 210.348
44.06000 210.215
44.07000 211.489
44.08000 216.722
44.09000 222.192
44.10000 226.366
44.11000 228.066
44.12000 229.707
44.13000 230.627
44.14000 222.643
44.15000 217.097
44.16000 216.735
44.17000 220.626
44.18000 224.470
44.19000 226.080
44.20000 226.472
44.21000 226.848
44.22000 223.839
44.23000 219.850
44.24000 215.784
44.25000 210.995
44.26000 206.026
44.27000 203.366
44.28000 214.139
44.29000 227.082
44.30000 237.521
44.31000 232.539
44.32000 227.274
44.33000 224.187
44.34000 226.683
44.35000 229.458
44.36000 228.824
44.37000 222.272
44.38000 215.614
44.39000 212.053
44.40000 212.298
44.41000 212.469
44.42000 212.771
44.43000 213.168
44.44000 213.624
44.45000 216.131
44.46000 219.657
44.47000 223.018
44.48000 224.300
44.49000 224.840
44.50000 225.206
44.51000 224.113
44.52000 222.691
44.53000 221.657
44.54000 222.647
44.55000 223.930
44.56000 224.943
44.57000 223.316
44.58000 221.833
44.59000 220.762
44.60000 220.656
44.61000 220.589
44.62000 224.365
44.63000 234.200
44.64000 244.109
44.65000 249.144
44.66000 242.507
44.67000 238.068
44.68000 234.675
44.69000 231.985
44.70000 229.501
44.71000 232.744
44.72000 238.581
44.73000 244.091
44.74000 241.312
44.75000 236.431
44.76000 232.198
44.77000 232.774
44.78000 234.329
44.79000 235.646
44.80000 235.845
44.81000 235.900
44.82000 235.942
44.83000 235.369
44.84000 234.879
44.85000 235.650
44.86000 239.105
44.87000 242.648
44.88000 245.641
44.89000 247.847
44.90000 250.046
44.91000 251.567
44.92000 252.460
44.93000 253.319
44.94000 251.903
44.95000 249.099
44.96000 246.500
44.97000 248.467
44.98000 252.319
44.99000 255.919
45.00000 259.456
45.01000 262.651
45.02000 265.451
45.03000 265.642
45.04000 265.354
45.05000 265.005
45.06000 264.397
45.07000 263.760
45.08000 263.281
45.09000 263.764
45.10000 264.190
45.11000 266.609
45.12000 272.890
45.13000 279.269
45.14000 284.435
45.15000 288.030
45.16000 291.615
45.17000 287.685
45.18000 277.516
45.19000 267.585
45.20000 269.360
45.21000 277.627
45.22000 285.258
45.23000 281.137
45.24000 272.600
45.25000 264.710
45.26000 269.372
45.27000 276.405
45.28000 282.244
45.29000 281.010
45.30000 278.613
45.31000 275.834
45.32000 271.582
45.33000 267.184
45.34000 263.963
45.35000 263.461
45.36000 263.182
45.37000 264.440
45.38000 268.407
45.39000 272.425
45.40000 274.245
45.41000 273.496
45.42000 272.745
45.43000 269.255
45.44000 263.738
45.45000 258.438
45.46000 261.118
45.47000 267.824
45.48000 273.890
45.49000 270.008
45.50000 262.721
45.51000 256.067
45.52000 258.019
45.53000 261.502
45.54000 264.346
45.55000 263.795
45.56000 262.744
45.57000 260.634
45.58000 254.808
45.59000 248.660
45.60000 244.284
45.61000 247.834
45.62000 250.796
45.63000 253.510
45.64000 255.827
45.65000 258.139
45.66000 258.568
45.67000 257.018
45.68000 255.474
45.69000 252.746
45.70000 249.252
45.71000 245.762
45.72000 242.396
45.73000 239.087
45.74000 235.874
45.75000 233.933
45.76000 232.389
45.77000 230.997
45.78000 236.897
45.79000 243.400
45.80000 247.803
45.81000 242.145
45.82000 235.171
45.83000 230.556
45.84000 233.456
45.85000 236.917
45.86000 239.306
45.87000 238.704
45.88000 238.175
45.89000 237.200
45.90000 235.577
45.91000 233.948
45.92000 229.149
45.93000 221.360
45.94000 213.636
45.95000 212.063
45.96000 214.258
45.97000 216.410
45.98000 217.541
45.99000 218.244
46.00000 218.948
46.01000 219.650
46.02000 220.353
46.03000 220.977
46.04000 223.467
46.05000 225.929
46.06000 226.346
46.07000 217.904
46.08000 208.437
46.09000 203.101
46.10000 209.745
46.11000 217.149
46.12000 222.100
46.13000 217.966
46.14000 214.722
46.15000 211.726
46.16000 209.056
46.17000 206.393
46.18000 207.070
46.19000 210.581
46.20000 214.049
46.21000 215.582
46.22000 216.014
46.23000 216.497
46.24000 217.947
46.25000 219.765
46.26000 220.857
46.27000 214.710
46.28000 206.703
46.29000 199.693
46.30000 200.945
46.31000 203.204
46.32000 203.975
46.33000 198.909
46.34000 193.250
46.35000 190.019
46.36000 193.198
46.37000 196.718
46.38000 198.993
46.39000 196.354
46.40000 194.353
46.41000 192.644
46.42000 191.282
46.43000 189.922
46.44000 189.078
46.45000 188.627
46.46000 188.185
46.47000 186.645
46.48000 184.614
46.49000 182.919
46.50000 186.614
46.51000 192.181
46.52000 197.333
46.53000 198.856
46.54000 199.535
46.55000 200.120
46.56000 201.197
46.57000 202.172
46.58000 203.339
46.59000 205.191
46.60000 207.103
46.61000 206.217
46.62000 198.596
46.63000 190.678
46.64000 185.749
46.65000 191.585
46.66000 195.898
46.67000 198.473
46.68000 199.191
46.69000 199.896
46.70000 199.223
46.71000 197.593
46.72000 196.000
46.73000 193.061
46.74000 189.641
46.75000 186.397
46.76000 185.530
46.77000 185.414
46.78000 185.470
46.79000 186.856
46.80000 188.521
46.81000 189.931
46.82000 187.062
46.83000 184.183
46.84000 183.242
46.85000 188.577
46.86000 194.391
46.87000 198.720
46.88000 199.791
46.89000 200.746
46.90000 201.318
46.91000 201.120
46.92000 200.974
46.93000 198.385
46.94000 193.450
46.95000 188.584
46.96000 189.130
46.97000 193.082
46.98000 196.921
46.99000 197.805
47.00000 197.452
47.01000 197.106
47.02000 196.847
47.03000 196.614
47.04000 196.068
47.05000 193.382
47.06000 190.289
47.07000 187.719
47.08000 191.778
47.09000 195.784
47.10000 198.377
47.11000 196.813
47.12000 194.978
47.13000 191.425
47.14000 184.441
47.15000 177.363
47.16000 173.304
47.17000 186.224
47.18000 195.303
47.19000 196.684
47.20000 191.422
47.21000 186.274
47.22000 187.287
47.23000 191.824
47.24000 196.199
47.25000 201.248
47.26000 206.242
47.27000 210.244
47.28000 204.146
47.29000 195.411
47.30000 187.628
47.31000 185.685
47.32000 184.736
47.33000 183.964
47.34000 186.866
47.35000 189.550
47.36000 191.580
47.37000 191.859
47.38000 192.041
47.39000 189.187
47.40000 180.817
47.41000 172.331
47.42000 167.683
47.43000 182.831
47.44000 193.242
47.45000 194.790
47.46000 189.435
47.47000 184.245
47.48000 185.725
47.49000 190.673
47.50000 195.409
47.51000 190.693
47.52000 183.196
47.53000 176.442
47.54000 176.330
47.55000 177.788
47.56000 178.900
47.57000 178.102
47.58000 177.014
47.59000 176.146
47.60000 182.923
47.61000 188.952
47.62000 193.092
47.63000 192.618
47.64000 191.934
47.65000 189.884
47.66000 185.578
47.67000 181.238
47.68000 178.976
47.69000 176.011
47.70000 174.034
47.71000 175.730
47.72000 180.015
47.73000 184.225
47.74000 186.085
47.75000 186.833
47.76000 187.543
47.77000 188.455
47.78000 189.355
47.79000 190.112
47.80000 189.746
47.81000 189.139
47.82000 188.537
47.83000 187.952
47.84000 187.370
47.85000 186.917
47.86000 185.686
47.87000 184.657
47.88000 183.592
47.89000 182.449
47.90000 181.302
47.91000 181.625
47.92000 184.152
47.93000 186.700
47.94000 185.695
47.95000 181.222
47.96000 176.796
47.97000 176.328
47.98000 178.389
47.99000 180.516
48.00000 184.284
48.01000 188.759
48.02000 192.962
48.03000 191.856
48.04000 189.433
48.05000 187.307
48.06000 187.253
48.07000 187.600
48.08000 187.462
48.09000 185.160
48.10000 182.596
48.11000 180.645
48.12000 179.084
48.13000 177.877
48.14000 177.474
48.15000 178.701
48.16000 179.976
48.17000 181.536
48.18000 183.483
48.19000 185.431
48.20000 186.669
48.21000 187.282
48.22000 187.843
48.23000 185.387
48.24000 181.180
48.25000 177.123
48.26000 176.107
48.27000 176.287
48.28000 176.455
48.29000 178.508
48.30000 180.812
48.31000 182.627
48.32000 181.383
48.33000 179.608
48.34000 179.179
48.35000 184.198
48.36000 189.794
48.37000 193.947
48.38000 189.828
48.39000 186.264
48.40000 185.052
48.41000 188.176
48.42000 191.396
48.43000 193.060
48.44000 192.814
48.45000 192.563
48.46000 189.631
48.47000 184.602
48.48000 179.674
48.49000 179.030
48.50000 180.648
48.51000 182.111
48.52000 180.965
48.53000 178.885
48.54000 176.974
48.55000 174.449
48.56000 172.064
48.57000 170.733
48.58000 175.304
48.59000 180.792
48.60000 185.564
48.61000 187.707
48.62000 189.606
48.63000 190.977
48.64000 190.732
48.65000 190.486
48.66000 190.841
48.67000 192.204
48.68000 193.583
48.69000 192.973
48.70000 190.159
48.71000 187.354
48.72000 186.977
48.73000 188.324
48.74000 189.472
48.75000 184.181
48.76000 175.794
48.77000 168.068
48.78000 169.811
48.79000 174.639
48.80000 179.020
48.81000 182.155
48.82000 184.684
48.83000 186.401
48.84000 184.032
48.85000 181.098
48.86000 178.672
48.87000 177.942
48.88000 177.347
48.89000 176.931
48.90000 177.652
48.91000 178.231
48.92000 179.194
48.93000 180.743
48.94000 182.298
48.95000 181.505
48.96000 178.379
48.97000 175.273
48.98000 173.536
48.99000 172.702
49.00000 171.960
49.01000 173.603
49.02000 176.291
49.03000 178.559
49.04000 175.678
49.05000 171.272
49.06000 167.328
49.07000 172.948
49.08000 179.488
49.09000 184.643
49.10000 183.496
49.11000 181.576
49.12000 180.254
49.13000 180.748
49.14000 181.366
49.15000 181.786
49.16000 183.860
49.17000 185.445
49.18000 185.118
49.19000 182.151
49.20000 179.168
49.21000 176.456
49.22000 173.986
49.23000 171.541
49.24000 172.970
49.25000 176.603
49.26000 180.147
49.27000 181.840
49.28000 182.794
49.29000 183.887
49.30000 186.454
49.31000 189.417
49.32000 192.031
49.33000 189.618
49.34000 186.772
49.35000 183.332
49.36000 177.447
49.37000 171.297
49.38000 168.264
49.39000 173.843
49.40000 179.923
49.41000 183.918
49.42000 176.277
49.43000 170.456
49.44000 167.364
49.45000 167.681
49.46000 168.008
49.47000 168.477
49.48000 169.060
49.49000 169.635
49.50000 171.559
49.51000 174.129
49.52000 176.580
49.53000 176.982
49.54000 176.639
49.55000 176.186
49.56000 174.717
49.57000 173.000
49.58000 171.508
49.59000 174.936
49.60000 178.520
49.61000 181.711
49.62000 183.430
49.63000 185.011
49.64000 184.679
49.65000 179.530
49.66000 174.149
49.67000 170.737
49.68000 169.516
49.69000 168.657
49.70000 169.111
49.71000 171.043
49.72000 172.969
49.73000 173.803
49.74000 173.843
49.75000 173.882
49.76000 173.333
49.77000 172.528
49.78000 171.834
49.79000 172.763
49.80000 174.228
49.81000 175.683
49.82000 177.048
49.83000 178.393
49.84000 179.541
49.85000 176.695
49.86000 173.823
49.87000 171.697
49.88000 172.096
49.89000 172.704
49.90000 173.575
49.91000 175.050
49.92000 176.549
49.93000 177.464
49.94000 178.797
49.95000 179.753
49.96000 179.772
49.97000 178.842
49.98000 177.899
49.99000 175.755
50.00000 172.818
50.01000 169.956
50.02000 170.554
50.03000 172.591
50.04000 174.296
50.05000 171.817
50.06000 168.077
50.07000 165.347
50.08000 169.951
50.09000 176.019
50.10000 181.108
50.11000 179.141
50.12000 176.769
50.13000 174.933
50.14000 174.754
50.15000 174.692
50.16000 175.330
50.17000 177.430
50.18000 179.577
50.19000 180.833
50.20000 180.162
50.21000 179.679
50.22000 178.340
50.23000 176.222
50.24000 174.138
50.25000 174.172
50.26000 175.474
50.27000 176.735
50.28000 174.758
50.29000 171.650
50.30000 169.002
50.31000 171.359
50.32000 175.086
50.33000 178.501
50.34000 179.892
50.35000 180.919
50.36000 181.765
50.37000 182.047
50.38000 182.227
50.39000 182.912
50.40000 185.010
50.41000 187.192
50.42000 188.043
50.43000 186.360
50.44000 184.617
50.45000 183.640
50.46000 190.305
50.47000 194.935
50.48000 196.619
50.49000 195.892
50.50000 195.192
50.51000 195.757
50.52000 197.010
50.53000 198.214
50.54000 193.061
50.55000 186.040
50.56000 179.952
50.57000 182.718
50.58000 187.681
50.59000 192.078
50.60000 193.192
50.61000 193.777
50.62000 194.249
50.63000 193.307
50.64000 192.430
50.65000 191.910
50.66000 192.301
50.67000 192.737
50.68000 192.375
50.69000 190.635
50.70000 188.869
50.71000 187.926
50.72000 201.583
50.73000 210.855
50.74000 211.381
50.75000 205.440
50.76000 199.655
50.77000 199.338
50.78000 201.731
50.79000 204.012
50.80000 205.092
50.81000 205.721
50.82000 206.174
50.83000 205.168
50.84000 203.834
50.85000 202.472
50.86000 200.964
50.87000 199.434
50.88000 198.227
50.89000 200.219
50.90000 202.032
50.91000 202.827
50.92000 201.254
50.93000 199.585
50.94000 197.200
50.95000 193.693
50.96000 190.171
50.97000 188.385
50.98000 184.848
50.99000 182.456
51.00000 177.597
51.01000 171.087
51.02000 164.831
51.03000 165.580
51.04000 169.491
51.05000 173.183
51.06000 174.052
51.07000 174.058
51.08000 173.776
51.09000 171.364
51.10000 168.519
51.11000 166.232
51.12000 166.565
51.13000 167.233
51.14000 167.747
51.15000 167.332
51.16000 166.951
51.17000 167.923
51.18000 171.765
51.19000 175.702
51.20000 177.814
51.21000 177.326
51.22000 176.818
51.23000 177.088
51.24000 178.075
51.25000 179.017
51.26000 176.796
51.27000 172.652
51.28000 168.542
51.29000 165.205
51.30000 162.186
51.31000 159.365
51.32000 160.270
51.33000 162.029
51.34000 164.085
51.35000 168.090
51.36000 172.453
51.37000 176.054
51.38000 176.424
51.39000 176.428
51.40000 176.432
51.41000 170.390
51.42000 165.376
51.43000 163.958
51.44000 169.484
51.45000 175.185
51.46000 177.283
51.47000 174.729
51.48000 172.160
51.49000 167.823
51.50000 162.032
51.51000 156.334
51.52000 155.164
51.53000 156.499
51.54000 157.899
51.55000 160.504
51.56000 163.561
51.57000 166.385
51.58000 164.239
51.59000 161.189
51.60000 158.680
51.61000 159.363
51.62000 160.568
51.63000 161.507
51.64000 161.416
51.65000 161.223
51.66000 161.082
51.67000 162.374
51.68000 163.428
51.69000 162.955
51.70000 159.800
51.71000 156.595
51.72000 155.421
51.73000 156.613
51.74000 157.804
51.75000 158.544
51.76000 158.942
51.77000 159.366
51.78000 160.745
51.79000 162.606
51.80000 164.457
51.81000 166.154
51.82000 167.800
51.83000 169.301
51.84000 167.900
51.85000 166.068
51.86000 163.935
51.87000 160.206
51.88000 156.243
51.89000 154.158
51.90000 158.635
51.91000 163.677
51.92000 167.263
51.93000 164.863
51.94000 162.843
51.95000 160.851
51.96000 158.904
51.97000 156.957
51.98000 157.038
51.99000 159.244
52.00000 161.439
52.01000 159.882
52.02000 155.822
52.03000 152.015
52.04000 155.459
52.05000 162.226
52.06000 168.406
52.07000 166.844
52.08000 162.879
52.09000 159.306
52.10000 162.394
52.11000 166.308
52.12000 169.704
52.13000 170.621
52.14000 171.215
52.15000 169.910
52.16000 162.572
52.17000 154.786
52.18000 149.413
52.19000 153.354
52.20000 156.553
52.21000 159.348
52.22000 161.559
52.23000 163.765
52.24000 163.928
52.25000 162.172
52.26000 160.431
52.27000 158.978
52.28000 157.727
52.29000 156.483
52.30000 155.409
52.31000 154.406
52.32000 153.448
52.33000 152.996
52.34000 152.686
52.35000 152.411
52.36000 153.434
52.37000 154.529
52.38000 155.343
52.39000 154.939
52.40000 154.395
52.41000 153.470
52.42000 151.447
52.43000 149.354
52.44000 147.956
52.45000 147.309
52.46000 146.845
52.47000 149.771
52.48000 157.146
52.49000 164.531
52.50000 165.895
52.51000 162.165
52.52000 158.481
52.53000 158.268
52.54000 159.958
52.55000 161.577
52.56000 161.843
52.57000 161.595
52.58000 161.722
52.59000 165.562
52.60000 170.354
52.61000 174.548
52.62000 173.883
52.63000 172.619
52.64000 172.024
52.65000 174.049
52.66000 176.339
52.67000 175.656
52.68000 167.141
52.69000 158.212
52.70000 152.449
52.71000 156.220
52.72000 159.113
52.73000 158.879
52.74000 154.942
52.75000 151.014
52.76000 150.639
52.77000 152.978
52.78000 155.276
52.79000 155.384
52.80000 154.406
52.81000 153.681
52.82000 156.978
52.83000 161.669
52.84000 165.810
52.85000 165.166
52.86000 163.412
52.87000 161.902
52.88000 157.330
52.89000 153.069
52.90000 149.934
52.91000 150.790
52.92000 151.999
52.93000 152.593
52.94000 151.712
52.95000 150.766
52.96000 150.178
52.97000 151.238
52.98000 152.018
52.99000 152.954
53.00000 154.055
53.01000 155.157
53.02000 156.399
53.03000 157.738
53.04000 159.046
53.05000 156.178
53.06000 151.566
53.07000 147.347
53.08000 148.436
53.09000 151.199
53.10000 153.857
53.11000 155.712
53.12000 157.399
53.13000 158.827
53.14000 155.051
53.15000 151.311
53.16000 149.446
53.17000 153.627
53.18000 158.267
53.19000 161.525
53.20000 161.760
53.21000 161.889
53.22000 161.966
53.23000 162.413
53.24000 162.731
53.25000 160.410
53.26000 155.565
53.27000 150.779
53.28000 150.611
53.29000 153.340
53.30000 155.991
53.31000 156.485
53.32000 156.086
53.33000 155.614
53.34000 154.299
53.35000 152.742
53.36000 151.908
53.37000 156.018
53.38000 161.064
53.39000 165.254
53.40000 164.497
53.41000 163.390
53.42000 162.910
53.43000 164.268
53.44000 165.746
53.45000 165.924
53.46000 163.512
53.47000 161.029
53.48000 159.608
53.49000 172.751
53.50000 181.972
53.51000 182.856
53.52000 176.568
53.53000 170.323
53.54000 166.324
53.55000 163.607
53.56000 160.986
53.57000 160.986
53.58000 161.939
53.59000 162.557
53.60000 159.789
53.61000 156.140
53.62000 152.512
53.63000 149.014
53.64000 145.539
53.65000 142.708
53.66000 147.458
53.67000 151.978
53.68000 154.584
53.69000 152.073
53.70000 149.283
53.71000 149.803
53.72000 156.322
53.73000 162.965
53.74000 166.598
53.75000 159.851
53.76000 155.215
53.77000 154.423
53.78000 156.617
53.79000 158.739
53.80000 158.032
53.81000 155.858
53.82000 153.777
53.83000 156.134
53.84000 159.783
53.85000 162.806
53.86000 160.260
53.87000 156.401
53.88000 153.303
53.89000 154.372
53.90000 156.075
53.91000 157.432
53.92000 161.908
53.93000 165.747
53.94000 167.631
53.95000 164.755
53.96000 161.663
53.97000 159.169
53.98000 157.658
53.99000 156.162
54.00000 155.383
54.01000 152.530
54.02000 150.614
54.03000 150.299
54.04000 151.111
54.05000 151.981
54.06000 154.649
54.07000 158.166
54.08000 161.501
54.09000 158.747
54.10000 154.410
54.11000 150.457
54.12000 149.506
54.13000 149.195
54.14000 148.587
54.15000 146.511
54.16000 144.235
54.17000 142.462
54.18000 144.988
54.19000 147.267
54.20000 148.841
54.21000 148.849
54.22000 148.800
54.23000 149.677
54.24000 151.938
54.25000 154.212
54.26000 153.653
54.27000 150.338
54.28000 147.056
54.29000 146.551
54.30000 147.816
54.31000 149.091
54.32000 150.594
54.33000 152.196
54.34000 153.700
54.35000 150.012
54.36000 145.269
54.37000 141.304
54.38000 142.759
54.39000 145.255
54.40000 147.625
54.41000 149.430
54.42000 151.166
54.43000 152.488
54.44000 153.640
54.45000 154.539
54.46000 156.117
54.47000 159.072
54.48000 162.066
54.49000 164.953
54.50000 167.695
54.51000 170.435
54.52000 169.150
54.53000 164.352
54.54000 159.587
54.55000 156.730
54.56000 154.978
54.57000 153.083
54.58000 148.311
54.59000 142.413
54.60000 136.932
54.61000 135.848
54.62000 135.918
54.63000 135.972
54.64000 135.929
54.65000 135.870
54.66000 136.580
54.67000 140.395
54.68000 144.539
54.69000 147.610
54.70000 150.122
54.71000 152.047
54.72000 152.901
54.73000 151.782
54.74000 150.621
54.75000 148.229
54.76000 144.329
54.77000 140.433
54.78000 142.395
54.79000 148.946
54.80000 155.358
54.81000 155.962
54.82000 153.508
54.83000 151.163
54.84000 150.665
54.85000 150.826
54.86000 150.974
54.87000 150.368
54.88000 149.667
54.89000 149.503
54.90000 152.340
54.91000 155.642
54.92000 157.729
54.93000 155.368
54.94000 152.597
54.95000 150.598
54.96000 153.391
54.97000 155.702
54.98000 156.043
54.99000 153.085
55.00000 150.076
55.01000 148.916
55.02000 149.795
55.03000 150.673
55.04000 151.543
55.05000 152.400
55.06000 153.312
55.07000 155.968
55.08000 159.462
55.09000 162.499
55.10000 159.041
55.11000 153.472
55.12000 148.422
55.13000 153.768
55.14000 160.472
55.15000 165.315
55.16000 160.808
55.17000 155.012
55.18000 150.010
55.19000 147.651
55.20000 145.503
55.21000 143.999
55.22000 150.017
55.23000 154.784
55.24000 157.115
55.25000 155.743
55.26000 154.333
55.27000 153.721
55.28000 153.898
55.29000 154.075
55.30000 155.593
55.31000 157.943
55.32000 160.389
55.33000 165.277
55.34000 171.232
55.35000 176.401
55.36000 171.975
55.37000 164.713
55.38000 158.216
55.39000 159.453
55.40000 161.850
55.41000 164.604
55.42000 168.975
55.43000 173.543
55.44000 176.726
55.45000 175.717
55.46000 174.421
55.47000 173.542
55.48000 176.579
55.49000 178.932
55.50000 181.971
55.51000 185.954
55.52000 189.942
55.53000 193.754
55.54000 197.407
55.55000 201.023
55.56000 205.247
55.57000 209.728
55.58000 214.147
55.59000 217.280
55.60000 219.900
55.61000 222.747
55.62000 227.992
55.63000 233.882
55.64000 239.075
55.65000 248.714
55.66000 257.699
55.67000 266.342
55.68000 273.582
55.69000 280.671
55.70000 289.811
55.71000 304.601
55.72000 319.719
55.73000 329.642
55.74000 331.715
55.75000 333.109
55.76000 337.163
55.77000 344.531
55.78000 351.920
55.79000 363.513
55.80000 378.476
55.81000 393.220
55.82000 403.561
55.83000 411.312
55.84000 419.063
55.85000 426.807
55.86000 434.548
55.87000 443.160
55.88000 459.834
55.89000 478.471
55.90000 494.647
55.91000 489.356
55.92000 481.965
55.93000 476.285
55.94000 476.967
55.95000 478.249
55.96000 477.710
55.97000 472.597
55.98000 467.264
55.99000 463.886
56.00000 459.909
56.01000 457.017
56.02000 454.243
56.03000 451.601
56.04000 448.957
56.05000 445.844
56.06000 442.393
56.07000 439.009
56.08000 429.412
56.09000 417.265
56.10000 405.410
56.11000 397.837
56.12000 391.677
56.13000 385.084
56.14000 374.957
56.15000 364.052
56.16000 354.744
56.17000 350.208
56.18000 346.953
56.19000 342.468
56.20000 333.825
56.21000 324.841
56.22000 315.238
56.23000 304.218
56.24000 293.143
56.25000 286.392
56.26000 275.007
56.27000 266.833
56.28000 259.588
56.29000 253.280
56.30000 247.009
56.31000 244.184
56.32000 243.625
56.33000 243.080
56.34000 239.330
56.35000 234.396
56.36000 229.555
56.37000 225.881
56.38000 222.557
56.39000 219.469
56.40000 218.085
56.41000 217.040
56.42000 216.164
56.43000 212.231
56.44000 208.642
56.45000 203.495
56.46000 193.562
56.47000 183.293
56.48000 175.872
56.49000 174.385
56.50000 173.082
56.51000 172.320
56.52000 169.739
56.53000 167.914
56.54000 166.482
56.55000 165.405
56.56000 164.344
56.57000 164.278
56.58000 164.806
56.59000 165.317
56.60000 165.400
56.61000 165.315
56.62000 165.130
56.63000 163.855
56.64000 162.283
56.65000 161.083
56.66000 162.285
56.67000 163.917
56.68000 165.259
56.69000 164.579
56.70000 163.837
56.71000 161.923
56.72000 156.732
56.73000 151.347
56.74000 148.921
56.75000 152.110
56.76000 155.433
56.77000 157.292
56.78000 154.994
56.79000 153.389
56.80000 150.368
56.81000 146.193
56.82000 142.068
56.83000 140.210
56.84000 139.584
56.85000 138.982
56.86000 142.261
56.87000 146.667
56.88000 150.439
56.89000 148.228
56.90000 144.537
56.91000 141.378
56.92000 141.296
56.93000 141.707
56.94000 142.038
56.95000 147.865
56.96000 153.026
56.97000 156.489
56.98000 155.627
56.99000 154.551
57.00000 152.030
57.01000 147.017
57.02000 141.960
57.03000 139.262
57.04000 137.962
57.05000 137.086
57.06000 137.762
57.07000 139.582
57.08000 141.504
57.09000 146.926
57.10000 154.078
57.11000 160.890
57.12000 160.486
57.13000 157.872
57.14000 154.936
57.15000 149.322
57.16000 143.108
57.17000 138.281
57.18000 140.662
57.19000 144.076
57.20000 146.766
57.21000 148.094
57.22000 149.067
57.23000 148.171
57.24000 142.938
57.25000 137.528
57.26000 135.303
57.27000 138.071
57.28000 140.898
57.29000 142.330
57.30000 144.291
57.31000 145.571
57.32000 143.421
57.33000 138.981
57.34000 134.690
57.35000 134.507
57.36000 136.173
57.37000 137.744
57.38000 137.343
57.39000 136.423
57.40000 135.517
57.41000 134.713
57.42000 133.929
57.43000 133.757
57.44000 136.449
57.45000 139.507
57.46000 141.860
57.47000 145.095
57.48000 147.706
57.49000 148.604
57.50000 145.880
57.51000 143.038
57.52000 141.015
57.53000 140.156
57.54000 139.305
57.55000 137.548
57.56000 134.957
57.57000 132.386
57.58000 131.176
57.59000 130.791
57.60000 130.513
57.61000 132.609
57.62000 135.677
57.63000 138.543
57.64000 140.449
57.65000 141.936
57.66000 143.010
57.67000 141.363
57.68000 139.220
57.69000 137.911
57.70000 140.132
57.71000 142.750
57.72000 144.715
57.73000 148.904
57.74000 152.284
57.75000 151.807
57.76000 143.901
57.77000 135.810
57.78000 130.984
57.79000 130.361
57.80000 129.754
57.81000 131.539
57.82000 135.294
57.83000 139.002
57.84000 140.451
57.85000 140.654
57.86000 140.830
57.87000 140.522
57.88000 140.033
57.89000 139.581
57.90000 141.393
57.91000 143.529
57.92000 145.011
57.93000 142.644
57.94000 139.649
57.95000 137.831
57.96000 140.535
57.97000 143.684
57.98000 145.986
57.99000 141.119
58.00000 137.082
58.01000 135.332
58.02000 137.592
58.03000 139.926
58.04000 139.787
58.05000 136.776
58.06000 133.771
58.07000 133.986
58.08000 136.595
58.09000 139.098
58.10000 137.759
58.11000 134.493
58.12000 131.411
58.13000 131.152
58.14000 131.854
58.15000 132.494
58.16000 131.766
58.17000 130.844
58.18000 129.846
58.19000 128.454
58.20000 127.003
58.21000 126.654
58.22000 130.141
58.23000 133.956
58.24000 136.668
58.25000 131.965
58.26000 128.147
58.27000 128.236
58.28000 134.544
58.29000 140.932
58.30000 142.860
58.31000 140.130
58.32000 137.414
58.33000 136.489
58.34000 136.775
58.35000 137.096
58.36000 138.404
58.37000 140.164
58.38000 141.977
58.39000 144.498
58.40000 147.238
58.41000 149.706
58.42000 143.522
58.43000 136.537
58.44000 130.876
58.45000 131.521
58.46000 132.983
58.47000 134.602
58.48000 136.713
58.49000 138.860
58.50000 140.341
58.51000 135.094
58.52000 130.984
58.53000 129.937
58.54000 133.316
58.55000 136.730
58.56000 138.264
58.57000 138.037
58.58000 137.812
58.59000 135.830
58.60000 132.822
58.61000 129.794
58.62000 126.286
58.63000 122.578
58.64000 119.579
58.65000 124.605
58.66000 131.889
58.67000 138.358
58.68000 132.718
58.69000 125.883
58.70000 121.176
58.71000 125.631
58.72000 131.137
58.73000 134.614
58.74000 132.239
58.75000 129.497
58.76000 127.667
58.77000 131.656
58.78000 134.723
58.79000 135.401
58.80000 132.953
58.81000 130.500
58.82000 132.159
58.83000 137.285
58.84000 142.347
58.85000 142.918
58.86000 141.025
58.87000 139.231
58.88000 139.299
58.89000 140.074
58.90000 140.707
58.91000 139.946
58.92000 138.828
58.93000 137.850
58.94000 137.418
58.95000 137.125
58.96000 136.651
58.97000 135.473
58.98000 134.224
58.99000 133.104
59.00000 132.322
59.01000 131.559
59.02000 131.067
59.03000 130.763
59.04000 130.544
59.05000 128.550
59.06000 124.462
59.07000 120.387
59.08000 120.170
59.09000 122.891
59.10000 125.565
59.11000 127.954
59.12000 130.122
59.13000 132.265
59.14000 134.011
59.15000 135.619
59.16000 136.974
59.17000 136.139
59.18000 134.796
59.19000 133.640
59.20000 134.959
59.21000 136.387
59.22000 137.502
59.23000 137.509
59.24000 137.418
59.25000 138.567
59.26000 142.683
59.27000 146.928
59.28000 149.564
59.29000 139.857
59.30000 132.747
59.31000 129.584
59.32000 130.615
59.33000 131.650
59.34000 133.069
59.35000 134.752
59.36000 136.396
59.37000 136.670
59.38000 136.322
59.39000 135.841
59.40000 133.569
59.41000 130.734
59.42000 128.495
59.43000 130.822
59.44000 134.104
59.45000 136.880
59.46000 139.174
59.47000 141.040
59.48000 142.298
59.49000 141.599
59.50000 140.752
59.51000 139.615
59.52000 137.848
59.53000 136.059
59.54000 134.991
59.55000 126.914
59.56000 121.143
59.57000 118.676
59.58000 119.360
59.59000 120.079
59.60000 123.518
59.61000 128.658
59.62000 133.650
59.63000 133.806
59.64000 132.013
59.65000 130.170
59.66000 127.725
59.67000 125.108
59.68000 123.272
59.69000 126.763
59.70000 131.258
59.71000 134.989
59.72000 131.478
59.73000 127.874
59.74000 126.611
59.75000 132.199
59.76000 138.229
59.77000 141.460
59.78000 139.136
59.79000 136.659
59.80000 135.243
59.81000 133.909
59.82000 132.979
59.83000 132.787
59.84000 133.227
59.85000 133.673
59.86000 134.425
59.87000 135.351
59.88000 136.244
59.89000 134.727
59.90000 132.428
59.91000 130.571
59.92000 133.170
59.93000 136.925
59.94000 139.856
59.95000 137.768
59.96000 134.829
59.97000 132.438
59.98000 129.493
59.99000 127.042
60.00000 125.340
60.01000 125.636
60.02000 126.041
60.03000 127.603
60.04000 131.257
60.05000 134.954
60.06000 136.973
60.07000 135.668
60.08000 134.765
60.09000 133.199
60.10000 131.120
60.11000 129.148
60.12000 131.386
60.13000 135.801
60.14000 140.024
60.15000 135.486
60.16000 128.402
60.17000 122.397
60.18000 125.947
60.19000 131.744
60.20000 136.276
60.21000 133.898
60.22000 130.474
60.23000 127.746
60.24000 125.762
60.25000 124.215
60.26000 123.394
60.27000 124.336
60.28000 125.357
60.29000 127.201
60.30000 130.398
60.31000 133.615
60.32000 135.286
60.33000 124.821
60.34000 117.812
60.35000 118.941
60.36000 125.771
60.37000 132.381
60.38000 132.279
60.39000 129.016
60.40000 125.923
60.41000 125.990
60.42000 126.982
60.43000 128.036
60.44000 129.581
60.45000 131.230
60.46000 132.223
60.47000 129.988
60.48000 127.316
60.49000 125.236
60.50000 123.608
60.51000 122.339
60.52000 121.731
60.53000 122.583
60.54000 123.488
60.55000 124.907
60.56000 127.090
60.57000 129.281
60.58000 131.185
60.59000 132.811
60.60000 134.409
60.61000 133.758
60.62000 131.676
60.63000 129.572
60.64000 126.899
60.65000 123.982
60.66000 121.244
60.67000 124.647
60.68000 129.376
60.69000 133.821
60.70000 136.291
60.71000 138.384
60.72000 139.978
60.73000 139.354
60.74000 138.466
60.75000 137.790
60.76000 135.123
60.77000 132.921
60.78000 129.812
60.79000 124.873
60.80000 119.882
60.81000 118.084
60.82000 120.600
60.83000 123.137
60.84000 126.858
60.85000 131.602
60.86000 136.278
60.87000 137.091
60.88000 135.675
60.89000 134.308
60.90000 133.938
60.91000 133.957
60.92000 133.974
60.93000 134.873
60.94000 135.894
60.95000 136.549
60.96000 134.937
60.97000 132.935
60.98000 131.392
60.99000 131.701
61.00000 132.204
61.01000 132.577
61.02000 133.397
61.03000 134.053
61.04000 134.105
61.05000 133.050
61.06000 131.970
61.07000 132.066
61.08000 133.598
61.09000 135.131
61.10000 136.281
61.11000 137.125
61.12000 137.951
61.13000 138.006
61.14000 137.654
61.15000 137.179
61.16000 134.641
61.17000 131.369
61.18000 128.365
61.19000 130.396
61.20000 133.282
61.21000 136.126
61.22000 138.741
61.23000 141.322
61.24000 143.136
61.25000 142.155
61.26000 140.918
61.27000 140.026
61.28000 138.567
61.29000 137.429
61.30000 136.660
61.31000 136.509
61.32000 136.368
61.33000 135.419
61.34000 133.583
61.35000 131.753
61.36000 133.619
61.37000 138.072
61.38000 142.351
61.39000 141.119
61.40000 137.253
61.41000 133.813
61.42000 136.413
61.43000 140.972
61.44000 145.104
61.45000 143.120
61.46000 140.204
61.47000 137.656
61.48000 136.945
61.49000 136.487
61.50000 139.211
61.51000 152.496
61.52000 166.620
61.53000 176.504
61.54000 181.710
61.55000 185.512
61.56000 190.615
61.57000 197.688
61.58000 204.781
61.59000 214.619
61.60000 227.168
61.61000 239.630
61.62000 245.994
61.63000 248.384
61.64000 250.647
61.65000 249.690
61.66000 247.331
61.67000 245.344
61.68000 247.896
61.69000 251.784
61.70000 255.262
61.71000 260.209
61.72000 264.773
61.73000 267.762
61.74000 263.638
61.75000 258.646
61.76000 252.602
61.77000 243.382
61.78000 233.946
61.79000 227.546
61.80000 220.623
61.81000 215.448
61.82000 206.799
61.83000 193.381
61.84000 179.937
61.85000 170.553
61.86000 164.771
61.87000 159.048
61.88000 156.165
61.89000 154.972
61.90000 153.746
61.91000 151.824
61.92000 149.625
61.93000 147.289
61.94000 143.500
61.95000 139.322
61.96000 135.640
61.97000 133.878
61.98000 132.649
61.99000 132.150
62.00000 134.635
62.01000 137.440
62.02000 140.245
62.03000 143.051
62.04000 145.857
62.05000 147.697
62.06000 147.958
62.07000 148.123
62.08000 146.552
62.09000 142.824
62.10000 139.096
62.11000 137.288
62.12000 137.015
62.13000 136.746
62.14000 138.335
62.15000 140.839
62.16000 143.269
62.17000 144.431
62.18000 145.135
62.19000 146.070
62.20000 149.132
62.21000 152.710
62.22000 155.815
62.23000 152.439
62.24000 148.696
62.25000 146.008
62.26000 147.234
62.27000 148.828
62.28000 149.573
62.29000 148.196
62.30000 146.717
62.31000 145.781
62.32000 145.366
62.33000 145.071
62.34000 142.256
62.35000 136.623
62.36000 131.022
62.37000 130.831
62.38000 134.552
62.39000 138.198
62.40000 138.852
62.41000 138.083
62.42000 137.212
62.43000 134.853
62.44000 132.004
62.45000 130.037
62.46000 135.238
62.47000 142.014
62.48000 147.794
62.49000 143.331
62.50000 138.367
62.51000 134.906
62.52000 136.508
62.53000 138.523
62.54000 140.195
62.55000 141.087
62.56000 141.948
62.57000 142.472
62.58000 143.492
62.59000 144.225
62.60000 143.768
62.61000 142.118
62.62000 140.478
62.63000 139.860
62.64000 139.913
62.65000 139.964
62.66000 139.113
62.67000 137.922
62.68000 136.761
62.69000 135.969
62.70000 135.289
62.71000 135.139
62.72000 138.816
62.73000 143.251
62.74000 146.967
62.75000 150.790
62.76000 153.980
62.77000 154.336
62.78000 146.012
62.79000 137.081
62.80000 131.695
62.81000 133.673
62.82000 135.878
62.83000 137.167
62.84000 136.717
62.85000 136.393
62.86000 137.480
62.87000 139.841
62.88000 142.187
62.89000 143.569
62.90000 144.379
62.91000 145.162
62.92000 144.046
62.93000 142.269
62.94000 140.686
62.95000 141.209
62.96000 142.303
62.97000 142.828
62.98000 139.683
62.99000 135.884
63.00000 132.762
63.01000 140.201
63.02000 147.263
63.03000 152.865
63.04000 154.393
63.05000 155.679
63.06000 155.282
63.07000 151.698
63.08000 148.039
63.09000 145.994
63.10000 146.286
63.11000 146.491
63.12000 146.055
63.13000 145.097
63.14000 144.216
63.15000 146.855
63.16000 151.400
63.17000 155.765
63.18000 154.060
63.19000 150.382
63.20000 147.169
63.21000 148.347
63.22000 150.607
63.23000 151.163
63.24000 141.897
63.25000 131.060
63.26000 122.335
63.27000 128.289
63.28000 134.263
63.29000 139.970
63.30000 145.000
63.31000 149.995
63.32000 151.983
63.33000 148.794
63.34000 145.516
63.35000 143.770
63.36000 140.150
63.37000 137.713
63.38000 140.356
63.39000 146.733
63.40000 152.978
63.41000 154.658
63.42000 154.089
63.43000 153.548
63.44000 150.053
63.45000 145.903
63.46000 142.734
63.47000 147.710
63.48000 154.503
63.49000 159.338
63.50000 154.027
63.51000 147.268
63.52000 141.945
63.53000 144.432
63.54000 146.947
63.55000 148.328
63.56000 147.085
63.57000 145.736
63.58000 143.703
63.59000 140.600
63.60000 137.485
63.61000 135.910
63.62000 142.165
63.63000 146.341
63.64000 149.566
63.65000 152.158
63.66000 154.603
63.67000 153.076
63.68000 149.766
63.69000 146.644
63.70000 147.540
63.71000 149.480
63.72000 150.938
63.73000 148.861
63.74000 146.070
63.75000 144.275
63.76000 147.129
63.77000 150.572
63.78000 153.221
63.79000 148.911
63.80000 145.106
63.81000 143.612
63.82000 146.992
63.83000 150.528
63.84000 153.107
63.85000 154.329
63.86000 155.542
63.87000 155.127
63.88000 153.221
63.89000 151.358
63.90000 152.405
63.91000 155.213
63.92000 157.877
63.93000 157.386
63.94000 155.605
63.95000 153.941
63.96000 153.594
63.97000 153.608
63.98000 153.305
63.99000 150.918
64.00000 148.153
64.01000 146.513
64.02000 149.618
64.03000 153.255
64.04000 155.984
64.05000 162.385
64.06000 167.559
64.07000 169.352
64.08000 164.649
64.09000 159.786
64.10000 155.865
64.11000 153.153
64.12000 150.449
64.13000 148.587
64.14000 147.426
64.15000 146.324
64.16000 148.034
64.17000 151.291
64.18000 154.633
64.19000 159.511
64.20000 164.962
64.21000 169.996
64.22000 167.373
64.23000 163.301
64.24000 159.221
64.25000 155.097
64.26000 150.965
64.27000 148.346
64.28000 151.517
64.29000 155.256
64.30000 157.988
64.31000 161.166
64.32000 163.634
64.33000 165.544
64.34000 166.478
64.35000 167.394
64.36000 165.691
64.37000 160.955
64.38000 156.229
64.39000 160.373
64.40000 171.064
64.41000 181.427
64.42000 179.987
64.43000 172.641
64.44000 165.716
64.45000 165.243
64.46000 166.959
64.47000 168.524
64.48000 171.021
64.49000 173.423
64.50000 174.862
64.51000 171.232
64.52000 166.865
64.53000 164.474
64.54000 168.952
64.55000 174.015
64.56000 177.611
64.57000 173.417
64.58000 169.979
64.59000 166.971
64.60000 164.647
64.61000 162.331
64.62000 161.956
64.63000 163.602
64.64000 165.240
64.65000 168.578
64.66000 173.010
64.67000 177.269
64.68000 176.644
64.69000 173.792
64.70000 171.258
64.71000 172.867
64.72000 175.755
64.73000 178.355
64.74000 179.142
64.75000 179.506
64.76000 179.960
64.77000 180.843
64.78000 181.781
64.79000 180.754
64.80000 173.516
64.81000 165.822
64.82000 160.523
64.83000 170.680
64.84000 178.693
64.85000 181.420
64.86000 176.536
64.87000 171.591
64.88000 170.404
64.89000 172.726
64.90000 175.027
64.91000 174.973
64.92000 173.501
64.93000 172.138
64.94000 173.234
64.95000 175.350
64.96000 177.315
64.97000 177.570
64.98000 177.345
64.99000 177.145
65.00000 180.765
65.01000 184.514
65.02000 187.437
65.03000 186.816
65.04000 185.790
65.05000 186.973
65.06000 194.509
65.07000 202.442
65.08000 207.730
65.09000 208.130
65.10000 208.333
65.11000 208.104
65.12000 207.314
65.13000 206.523
65.14000 206.603
65.15000 207.415
65.16000 208.217
65.17000 210.368
65.18000 213.197
65.19000 215.772
65.20000 213.605
65.21000 209.643
65.22000 206.104
65.23000 206.718
65.24000 208.389
65.25000 209.850
65.26000 214.361
65.27000 218.657
65.28000 222.933
65.29000 227.127
65.30000 231.313
65.31000 233.627
65.32000 231.038
65.33000 228.192
65.34000 226.359
65.35000 232.098
65.36000 236.395
65.37000 240.642
65.38000 244.833
65.39000 249.019
65.40000 252.345
65.41000 255.019
65.42000 257.646
65.43000 260.267
65.44000 262.798
65.45000 264.924
65.46000 260.698
65.47000 254.283
65.48000 249.409
65.49000 257.841
65.50000 269.342
65.51000 279.235
65.52000 279.072
65.53000 277.673
65.54000 277.332
65.55000 280.729
65.56000 284.452
65.57000 289.336
65.58000 296.988
65.59000 304.759
65.60000 309.581
65.61000 313.952
65.62000 317.093
65.63000 322.036
65.64000 328.889
65.65000 335.827
65.66000 352.944
65.67000 377.056
65.68000 400.618
65.69000 432.693
65.70000 467.188
65.71000 502.607
65.72000 550.398
65.73000 602.068
65.74000 654.073
65.75000 708.648
65.76000 763.758
65.77000 810.342
65.78000 869.146
65.79000 919.680
65.80000 960.054
65.81000 967.833
65.82000 973.157
65.83000 984.920
65.84000 1010.680
65.85000 1036.926
65.86000 1052.572
65.87000 1068.152
65.88000 1079.191
65.89000 1074.761
65.90000 1055.632
65.91000 1036.484
65.92000 1015.863
65.93000 994.323
65.94000 973.410
65.95000 932.660
65.96000 886.047
65.97000 838.538
65.98000 780.665
65.99000 719.839
66.00000 659.811
66.01000 605.203
66.02000 551.614
66.03000 507.153
66.04000 461.970
66.05000 424.561
66.06000 392.303
66.07000 375.082
66.08000 358.827
66.09000 345.208
66.10000 336.806
66.11000 328.546
66.12000 323.828
66.13000 324.290
66.14000 324.624
66.15000 321.097
66.16000 314.268
66.17000 307.443
66.18000 300.811
66.19000 294.289
66.20000 288.002
66.21000 291.414
66.22000 298.122
66.23000 305.042
66.24000 314.091
66.25000 323.690
66.26000 333.080
66.27000 341.206
66.28000 349.118
66.29000 355.553
66.30000 374.012
66.31000 390.087
66.32000 403.039
66.33000 407.693
66.34000 411.898
66.35000 416.641
66.36000 422.355
66.37000 428.089
66.38000 431.216
66.39000 439.312
66.40000 444.872
66.41000 449.187
66.42000 452.540
66.43000 455.789
66.44000 454.949
66.45000 451.999
66.46000 449.179
66.47000 439.275
66.48000 427.750
66.49000 417.195
66.50000 415.181
66.51000 415.168
66.52000 414.217
66.53000 408.152
66.54000 401.315
66.55000 395.872
66.56000 372.236
66.57000 351.869
66.58000 337.498
66.59000 337.648
66.60000 338.445
66.61000 339.084
66.62000 339.464
66.63000 339.841
66.64000 340.037
66.65000 324.907
66.66000 314.731
66.67000 309.741
66.68000 308.371
66.69000 307.042
66.70000 306.959
66.71000 307.461
66.72000 307.937
66.73000 311.328
66.74000 315.306
66.75000 319.510
66.76000 325.476
66.77000 331.814
66.78000 336.206
66.79000 331.039
66.80000 324.589
66.81000 319.569
66.82000 322.323
66.83000 324.995
66.84000 326.376
66.85000 324.911
66.86000 323.344
66.87000 320.664
66.88000 316.329
66.89000 311.980
66.90000 316.228
66.91000 328.788
66.92000 341.222
66.93000 343.374
66.94000 339.014
66.95000 334.768
66.96000 333.289
66.97000 332.993
66.98000 332.716
66.99000 338.352
67.00000 345.049
67.01000 351.316
67.02000 354.613
67.03000 357.342
67.04000 359.001
67.05000 355.914
67.06000 352.261
67.07000 349.487
67.08000 347.720
67.09000 346.384
67.10000 348.458
67.11000 357.387
67.12000 366.511
67.13000 370.594
67.14000 367.888
67.15000 365.148
67.16000 364.336
67.17000 365.199
67.18000 366.114
67.19000 369.920
67.20000 375.392
67.21000 380.516
67.22000 378.720
67.23000 374.226
67.24000 370.054
67.25000 370.358
67.26000 371.692
67.27000 373.811
67.28000 380.772
67.29000 388.566
67.30000 394.588
67.31000 393.499
67.32000 391.665
67.33000 390.308
67.34000 397.129
67.35000 402.775
67.36000 407.205
67.37000 409.412
67.38000 411.571
67.39000 412.208
67.40000 410.993
67.41000 409.775
67.42000 408.074
67.43000 406.005
67.44000 403.957
67.45000 402.779
67.46000 402.057
67.47000 401.933
67.48000 411.754
67.49000 425.105
67.50000 437.357
67.51000 437.876
67.52000 435.848
67.53000 433.271
67.54000 427.649
67.55000 421.559
67.56000 417.074
67.57000 418.430
67.58000 420.320
67.59000 421.680
67.60000 434.070
67.61000 443.947
67.62000 449.263
67.63000 446.989
67.64000 444.599
67.65000 447.150
67.66000 455.120
67.67000 463.059
67.68000 464.528
67.69000 461.436
67.70000 458.419
67.71000 457.751
67.72000 458.203
67.73000 458.836
67.74000 462.017
67.75000 466.021
67.76000 469.649
67.77000 478.024
67.78000 486.310
67.79000 492.636
67.80000 489.183
67.81000 484.391
67.82000 481.451
67.83000 484.639
67.84000 488.311
67.85000 490.878
67.86000 495.780
67.87000 499.549
67.88000 504.073
67.89000 509.735
67.90000 515.408
67.91000 517.223
67.92000 515.242
67.93000 513.275
67.94000 515.226
67.95000 519.627
67.96000 523.675
67.97000 518.842
67.98000 510.152
67.99000 502.269
68.00000 504.153
68.01000 508.908
68.02000 513.158
68.03000 522.756
68.04000 532.027
68.05000 539.862
68.06000 541.226
68.07000 541.804
68.08000 541.817
68.09000 540.131
68.10000 538.330
68.11000 537.110
68.12000 550.798
68.13000 561.329
68.14000 568.660
68.15000 571.610
68.16000 574.533
68.17000 576.282
68.18000 576.993
68.19000 577.696
68.20000 586.777
68.21000 600.442
68.22000 613.610
68.23000 616.615
68.24000 615.597
68.25000 614.562
68.26000 613.354
68.27000 612.099
68.28000 610.993
68.29000 622.427
68.30000 634.165
68.31000 643.075
68.32000 640.453
68.33000 636.598
68.34000 638.162
68.35000 654.572
68.36000 671.832
68.37000 683.138
68.38000 679.669
68.39000 676.875
68.40000 679.872
68.41000 690.036
68.42000 700.223
68.43000 711.149
68.44000 722.666
68.45000 734.011
68.46000 747.057
68.47000 760.590
68.48000 773.436
68.49000 774.557
68.50000 771.451
68.51000 769.851
68.52000 782.099
68.53000 797.698
68.54000 811.224
68.55000 833.543
68.56000 853.717
68.57000 876.196
68.58000 907.194
68.59000 938.989
68.60000 971.429
68.61000 1005.479
68.62000 1039.605
68.63000 1061.170
68.64000 1129.623
68.65000 1179.776
68.66000 1232.950
68.67000 1289.492
68.68000 1346.023
68.69000 1400.477
68.70000 1453.435
68.71000 1505.328
68.72000 1564.497
68.73000 1624.803
68.74000 1684.836
68.75000 1740.918
68.76000 1795.703
68.77000 1849.555
68.78000 1895.846
68.79000 1940.481
68.80000 1978.536
68.81000 2071.191
68.82000 2155.558
68.83000 2243.253
68.84000 2342.126
68.85000 2441.905
68.86000 2562.128
68.87000 2728.845
68.88000 2897.360
68.89000 2999.816
68.90000 3560.348
68.91000 3964.136
68.92000 4790.578
68.93000 6040.347
68.94000 7300.503
68.95000 9525.118
68.96000 12380.130
68.97000 15160.986
68.98000 19246.998
68.99000 23691.258
69.00000 28142.408
69.01000 32678.918
69.02000 37240.906
69.03000 41649.297
69.04000 44953.660
69.05000 48039.836
69.06000 50623.969
69.07000 52162.820
69.08000 53334.406
69.09000 54282.984
69.10000 54550.148
69.11000 54769.961
69.12000 55069.773
69.13000 55535.309
69.14000 56005.922
69.15000 56280.445
69.16000 57440.223
69.17000 58259.402
69.18000 58472.770
69.19000 58141.293
69.20000 57787.605
69.21000 56049.309
69.22000 53489.117
69.23000 51012.391
69.24000 47845.152
69.25000 44591.797
69.26000 41397.855
69.27000 38841.797
69.28000 36458.715
69.29000 34186.426
69.30000 32624.297
69.31000 31188.430
69.32000 30009.150
69.33000 29161.545
69.34000 28495.240
69.35000 27811.756
69.36000 27080.469
69.37000 26346.373
69.38000 25363.488
69.39000 23911.381
69.40000 22448.256
69.41000 21631.957
69.42000 18197.906
69.43000 15815.829
69.44000 13569.551
69.45000 11433.345
69.46000 9308.414
69.47000 7691.242
69.48000 6348.172
69.49000 5058.802
69.50000 4197.650
69.51000 3538.831
69.52000 2910.044
69.53000 2563.132
69.54000 2285.542
69.55000 2025.736
69.56000 1868.028
69.57000 1726.592
69.58000 1612.803
69.59000 1521.287
69.60000 1448.783
69.61000 1389.446
69.62000 1363.473
69.63000 1339.135
69.64000 1300.287
69.65000 1236.545
69.66000 1172.376
69.67000 1138.254
69.68000 1101.142
69.69000 1075.882
69.70000 1050.884
69.71000 1026.079
69.72000 1001.331
69.73000 978.536
69.74000 956.700
69.75000 935.914
69.76000 917.397
69.77000 900.953
69.78000 883.300
69.79000 855.651
69.80000 825.777
69.81000 799.213
69.82000 789.732
69.83000 782.681
69.84000 777.132
69.85000 775.809
69.86000 775.031
69.87000 773.226
69.88000 769.053
69.89000 764.785
69.90000 754.941
69.91000 736.407
69.92000 717.772
69.93000 708.364
69.94000 697.404
69.95000 690.072
69.96000 682.587
69.97000 675.000
69.98000 667.541
69.99000 663.499
70.00000 660.988
