20.00000 566.543
20.01000 560.413
20.02000 553.406
20.03000 547.955
20.04000 548.581
20.05000 549.821
20.06000 550.731
20.07000 557.269
20.08000 562.554
20.09000 563.848
20.10000 558.025
20.11000 552.062
20.12000 545.360
20.13000 537.783
20.14000 530.224
20.15000 535.204
20.16000 549.660
20.17000 563.781
20.18000 565.160
20.19000 560.034
20.20000 554.986
20.21000 551.156
20.22000 547.749
20.23000 544.632
20.24000 548.868
20.25000 554.148
20.26000 558.057
20.27000 554.576
20.28000 549.993
20.29000 547.353
20.30000 551.604
20.31000 556.461
20.32000 559.931
20.33000 552.285
20.34000 546.081
20.35000 544.522
20.36000 550.492
20.37000 556.565
20.38000 561.991
20.39000 566.729
20.40000 571.444
20.41000 572.655
20.42000 571.459
20.43000 570.077
20.44000 563.181
20.45000 553.721
20.46000 544.809
20.47000 543.296
20.48000 544.114
20.49000 544.853
20.50000 538.878
20.51000 532.389
20.52000 527.892
20.53000 533.054
20.54000 539.496
20.55000 545.159
20.56000 548.306
20.57000 551.263
20.58000 553.313
20.59000 556.902
20.60000 559.645
20.61000 557.298
20.62000 547.467
20.63000 537.571
20.64000 536.055
20.65000 542.547
20.66000 548.988
20.67000 549.019
20.68000 545.101
20.69000 541.421
20.70000 543.366
20.71000 547.693
20.72000 552.374
20.73000 561.170
20.74000 571.144
20.75000 580.026
20.76000 581.326
20.77000 581.211
20.78000 578.931
20.79000 567.161
20.80000 554.277
20.81000 545.180
20.82000 547.192
20.83000 549.923
20.84000 551.757
20.85000 545.946
20.86000 541.475
20.87000 542.695
20.88000 551.496
20.89000 560.322
20.90000 560.072
20.91000 552.022
20.92000 544.066
20.93000 539.854
20.94000 537.824
20.95000 535.907
20.96000 536.173
20.97000 537.280
20.98000 538.851
20.99000 545.111
21.00000 552.588
21.01000 559.148
21.02000 555.695
21.03000 551.270
21.04000 548.258
21.05000 550.848
21.06000 554.017
21.07000 555.590
21.08000 552.899
21.09000 549.976
21.10000 548.080
21.11000 532.386
21.12000 520.686
21.13000 515.441
21.14000 517.964
21.15000 520.508
21.16000 524.318
21.17000 529.111
21.18000 533.825
21.19000 541.080
21.20000 549.376
21.21000 556.858
21.22000 551.069
21.23000 540.617
21.24000 532.034
21.25000 540.043
21.26000 551.961
21.27000 562.249
21.28000 560.202
21.29000 556.876
21.30000 554.569
21.31000 555.932
21.32000 557.626
21.33000 558.149
21.34000 555.822
21.35000 553.367
21.36000 551.831
21.37000 554.872
21.38000 557.116
21.39000 555.375
21.40000 549.318
21.41000 543.310
21.42000 544.020
21.43000 549.446
21.44000 554.755
21.45000 555.607
21.46000 554.407
21.47000 553.283
21.48000 553.218
21.49000 553.491
21.50000 553.456
21.51000 551.009
21.52000 548.048
21.53000 545.535
21.54000 552.151
21.55000 558.734
21.56000 563.609
21.57000 562.892
21.58000 561.741
21.59000 563.035
21.60000 569.748
21.61000 576.658
21.62000 580.814
21.63000 566.467
21.64000 556.140
21.65000 554.311
21.66000 560.746
21.67000 567.223
21.68000 577.203
21.69000 589.412
21.70000 601.283
21.71000 611.025
21.72000 619.421
21.73000 627.148
21.74000 626.916
21.75000 624.369
21.76000 623.983
21.77000 638.645
21.78000 656.197
21.79000 670.819
21.80000 690.155
21.81000 706.644
21.82000 722.070
21.83000 734.328
21.84000 746.376
21.85000 757.423
21.86000 766.448
21.87000 775.415
21.88000 780.585
21.89000 804.979
21.90000 822.125
21.91000 830.354
21.92000 830.792
21.93000 831.363
21.94000 839.519
21.95000 852.062
21.96000 864.172
21.97000 870.830
21.98000 875.091
21.99000 878.941
22.00000 878.536
22.01000 877.008
22.02000 875.606
22.03000 874.988
22.04000 874.505
22.05000 874.110
22.06000 865.677
22.07000 858.081
22.08000 848.247
22.09000 832.339
22.10000 816.092
22.11000 802.000
22.12000 791.873
22.13000 781.832
22.14000 776.301
22.15000 765.975
22.16000 758.836
22.17000 746.760
22.18000 730.791
22.19000 714.974
22.20000 705.509
22.21000 699.386
22.22000 693.521
22.23000 684.920
22.24000 675.989
22.25000 666.772
22.26000 654.972
22.27000 642.554
22.28000 633.342
22.29000 642.009
22.30000 653.439
22.31000 662.582
22.32000 647.682
22.33000 633.848
22.34000 621.003
22.35000 610.598
22.36000 600.308
22.37000 591.891
22.38000 586.606
22.39000 581.369
22.40000 578.623
22.41000 587.112
22.42000 592.810
22.43000 590.268
22.44000 581.847
22.45000 573.378
22.46000 563.359
22.47000 552.598
22.48000 542.381
22.49000 541.053
22.50000 542.493
22.51000 543.810
22.52000 544.147
22.53000 544.271
22.54000 543.732
22.55000 539.861
22.56000 535.532
22.57000 532.145
22.58000 521.828
22.59000 513.150
22.60000 509.306
22.61000 516.344
22.62000 523.792
22.63000 529.209
22.64000 531.543
22.65000 533.845
22.66000 531.195
22.67000 523.644
22.68000 516.185
22.69000 516.878
22.70000 522.843
22.71000 528.339
22.72000 521.927
22.73000 510.319
22.74000 499.401
22.75000 503.079
22.76000 510.376
22.77000 516.034
22.78000 510.066
22.79000 501.827
22.80000 495.745
22.81000 499.433
22.82000 504.315
22.83000 508.042
22.84000 512.630
22.85000 516.292
22.86000 517.591
22.87000 514.046
22.88000 510.356
22.89000 509.137
22.90000 511.317
22.91000 513.517
22.92000 515.867
22.93000 518.349
22.94000 520.733
22.95000 517.204
22.96000 510.203
22.97000 503.601
22.98000 505.291
22.99000 510.278
23.00000 514.919
23.01000 515.977
23.02000 516.065
23.03000 516.771
23.04000 521.391
23.05000 526.698
23.06000 528.263
23.07000 514.494
23.08000 499.074
23.09000 487.595
23.10000 490.308
23.11000 493.056
23.12000 497.840
23.13000 506.425
23.14000 515.096
23.15000 516.758
23.16000 509.701
23.17000 502.630
23.18000 500.934
23.19000 503.534
23.20000 506.011
23.21000 503.124
23.22000 497.371
23.23000 492.030
23.24000 493.795
23.25000 498.135
23.26000 502.127
23.27000 498.336
23.28000 493.255
23.29000 489.108
23.30000 490.258
23.31000 492.241
23.32000 494.395
23.33000 497.178
23.34000 500.020
23.35000 502.079
23.36000 505.965
23.37000 509.017
23.38000 511.094
23.39000 511.516
23.40000 511.911
23.41000 507.069
23.42000 496.353
23.43000 485.671
23.44000 484.884
23.45000 491.213
23.46000 497.270
23.47000 494.265
23.48000 486.852
23.49000 479.669
23.50000 475.835
23.51000 473.105
23.52000 470.624
23.53000 475.183
23.54000 480.581
23.55000 484.155
23.56000 478.418
23.57000 471.373
23.58000 466.137
23.59000 467.009
23.60000 468.379
23.61000 469.343
23.62000 485.708
23.63000 498.566
23.64000 506.247
23.65000 505.947
23.66000 505.558
23.67000 505.608
23.68000 506.101
23.69000 506.590
23.70000 500.543
23.71000 490.350
23.72000 480.618
23.73000 483.014
23.74000 490.783
23.75000 498.000
23.76000 498.331
23.77000 496.597
23.78000 495.042
23.79000 494.174
23.80000 493.535
23.81000 492.494
23.82000 489.602
23.83000 486.478
23.84000 483.092
23.85000 478.900
23.86000 474.652
23.87000 471.754
23.88000 484.358
23.89000 494.140
23.90000 496.579
23.91000 488.755
23.92000 480.865
23.93000 479.127
23.94000 482.952
23.95000 486.739
23.96000 488.457
23.97000 488.930
23.98000 489.453
23.99000 491.047
24.00000 493.074
24.01000 494.688
24.02000 491.834
24.03000 487.763
24.04000 484.166
24.05000 487.291
24.06000 491.027
24.07000 493.069
24.08000 488.054
24.09000 482.262
24.10000 480.316
24.11000 489.114
24.12000 498.551
24.13000 504.778
24.14000 510.629
24.15000 514.935
24.16000 511.450
24.17000 498.110
24.18000 484.766
24.19000 482.269
24.20000 488.611
24.21000 494.865
24.22000 491.813
24.23000 483.944
24.24000 476.468
24.25000 475.977
24.26000 478.054
24.27000 479.698
24.28000 477.243
24.29000 473.776
24.30000 470.759
24.31000 479.979
24.32000 489.523
24.33000 495.510
24.34000 488.070
24.35000 479.336
24.36000 472.768
24.37000 471.714
24.38000 470.932
24.39000 470.435
24.40000 471.960
24.41000 473.095
24.42000 473.451
24.43000 472.918
24.44000 472.416
24.45000 477.447
24.46000 486.555
24.47000 495.489
24.48000 499.849
24.49000 501.874
24.50000 502.659
24.51000 484.906
24.52000 460.945
24.53000 440.692
24.54000 451.280
24.55000 468.767
24.56000 483.732
24.57000 480.077
24.58000 474.748
24.59000 468.807
24.60000 460.772
24.61000 452.561
24.62000 448.234
24.63000 452.912
24.64000 457.954
24.65000 461.046
24.66000 467.543
24.67000 472.227
24.68000 473.789
24.69000 472.152
24.70000 470.544
24.71000 471.952
24.72000 475.371
24.73000 478.707
24.74000 483.075
24.75000 487.690
24.76000 491.988
24.77000 492.224
24.78000 491.221
24.79000 489.886
24.80000 486.100
24.81000 481.818
24.82000 478.219
24.83000 471.697
24.84000 465.952
24.85000 462.341
24.86000 465.385
24.87000 468.908
24.88000 472.143
24.89000 474.774
24.90000 477.385
24.91000 478.923
24.92000 477.076
24.93000 475.756
24.94000 476.039
24.95000 477.796
24.96000 479.531
24.97000 479.823
24.98000 479.241
24.99000 478.676
25.00000 474.129
25.01000 468.282
25.02000 462.909
25.03000 462.781
25.04000 464.106
25.05000 465.703
25.06000 469.092
25.07000 472.807
25.08000 475.871
25.09000 479.449
25.10000 482.442
25.11000 484.305
25.12000 482.958
25.13000 481.415
25.14000 477.174
25.15000 467.738
25.16000 458.174
25.17000 452.785
25.18000 461.296
25.19000 467.231
25.20000 467.810
25.21000 463.952
25.22000 460.184
25.23000 460.772
25.24000 463.758
25.25000 466.630
25.26000 462.922
25.27000 457.144
25.28000 453.151
25.29000 466.374
25.30000 483.922
25.31000 497.788
25.32000 490.029
25.33000 478.741
25.34000 469.618
25.35000 469.227
25.36000 469.608
25.37000 469.773
25.38000 469.379
25.39000 468.957
25.40000 468.347
25.41000 467.408
25.42000 466.463
25.43000 465.955
25.44000 467.225
25.45000 468.095
25.46000 469.175
25.47000 470.412
25.48000 471.519
25.49000 467.943
25.50000 462.020
25.51000 456.372
25.52000 454.527
25.53000 454.014
25.54000 453.843
25.55000 456.563
25.56000 459.941
25.57000 463.430
25.58000 467.506
25.59000 471.667
25.60000 474.957
25.61000 466.005
25.62000 457.973
25.63000 453.028
25.64000 455.353
25.65000 457.982
25.66000 458.419
25.67000 455.368
25.68000 452.273
25.69000 450.692
25.70000 451.772
25.71000 452.499
25.72000 453.342
25.73000 454.264
25.74000 455.117
25.75000 454.006
25.76000 451.997
25.77000 450.100
25.78000 452.294
25.79000 455.472
25.80000 458.186
25.81000 457.419
25.82000 455.938
25.83000 455.112
25.84000 457.405
25.85000 460.101
25.86000 462.185
25.87000 454.426
25.88000 447.696
25.89000 442.017
25.90000 438.591
25.91000 435.241
25.92000 436.513
25.93000 444.455
25.94000 452.450
25.95000 456.103
25.96000 455.692
25.97000 455.324
25.98000 458.009
25.99000 462.571
26.00000 466.740
26.01000 461.909
26.02000 453.335
26.03000 445.314
26.04000 447.844
26.05000 452.836
26.06000 456.543
26.07000 451.656
26.08000 445.179
26.09000 440.678
26.10000 444.679
26.11000 449.654
26.12000 453.404
26.13000 445.571
26.14000 438.868
26.15000 435.766
26.16000 439.697
26.17000 443.811
26.18000 445.271
26.19000 443.264
26.20000 441.244
26.21000 442.442
26.22000 446.342
26.23000 450.180
26.24000 450.903
26.25000 449.883
26.26000 449.150
26.27000 453.798
26.28000 460.486
26.29000 466.674
26.30000 467.980
26.31000 468.034
26.32000 467.206
26.33000 461.108
26.34000 454.134
26.35000 447.761
26.36000 443.733
26.37000 439.940
26.38000 437.155
26.39000 442.295
26.40000 446.589
26.41000 448.759
26.42000 447.154
26.43000 445.475
26.44000 448.446
26.45000 456.902
26.46000 465.345
26.47000 467.036
26.48000 463.612
26.49000 460.141
26.50000 454.868
26.51000 448.680
26.52000 442.970
26.53000 444.815
26.54000 449.267
26.55000 453.338
26.56000 448.908
26.57000 443.226
26.58000 439.540
26.59000 446.566
26.60000 455.183
26.61000 461.101
26.62000 457.477
26.63000 453.017
26.64000 449.834
26.65000 444.453
26.66000 440.276
26.67000 440.829
26.68000 449.026
26.69000 457.326
26.70000 460.942
26.71000 459.584
26.72000 458.232
26.73000 452.511
26.74000 443.882
26.75000 435.509
26.76000 434.669
26.77000 437.322
26.78000 439.913
26.79000 441.678
26.80000 443.184
26.81000 444.543
26.82000 443.379
26.83000 441.893
26.84000 439.759
26.85000 434.488
26.86000 428.802
26.87000 426.275
26.88000 433.900
26.89000 442.292
26.90000 448.106
26.91000 452.095
26.92000 455.050
26.93000 456.010
26.94000 454.046
26.95000 452.056
26.96000 450.317
26.97000 448.818
26.98000 447.330
26.99000 448.941
27.00000 452.425
27.01000 455.725
27.02000 454.671
27.03000 451.779
27.04000 448.965
27.05000 447.055
27.06000 445.404
27.07000 443.934
27.08000 440.745
27.09000 437.694
27.10000 435.339
27.11000 436.024
27.12000 437.065
27.13000 438.671
27.14000 441.934
27.15000 445.303
27.16000 447.563
27.17000 453.119
27.18000 457.309
27.19000 455.567
27.20000 445.946
27.21000 436.301
27.22000 436.077
27.23000 443.926
27.24000 451.681
27.25000 453.534
27.26000 452.071
27.27000 450.658
27.28000 450.200
27.29000 450.110
27.30000 449.500
27.31000 443.653
27.32000 436.449
27.33000 430.133
27.34000 427.865
27.35000 426.505
27.36000 426.099
27.37000 429.466
27.38000 433.220
27.39000 436.573
27.40000 438.861
27.41000 441.090
27.42000 442.535
27.43000 440.659
27.44000 439.236
27.45000 434.793
27.46000 426.727
27.47000 418.706
27.48000 423.594
27.49000 438.463
27.50000 453.087
27.51000 449.718
27.52000 437.461
27.53000 425.704
27.54000 422.058
27.55000 421.254
27.56000 420.727
27.57000 422.645
27.58000 425.137
27.59000 427.288
27.60000 435.181
27.61000 442.614
27.62000 448.174
27.63000 447.006
27.64000 445.235
27.65000 441.745
27.66000 434.084
27.67000 426.236
27.68000 421.334
27.69000 418.898
27.70000 417.167
27.71000 419.251
27.72000 425.456
27.73000 431.628
27.74000 433.367
27.75000 432.004
27.76000 430.670
27.77000 430.092
27.78000 429.878
27.79000 429.841
27.80000 432.243
27.81000 435.423
27.82000 437.631
27.83000 432.246
27.84000 425.248
27.85000 419.313
27.86000 420.206
27.87000 421.726
27.88000 422.075
27.89000 418.604
27.90000 414.837
27.91000 413.291
27.92000 416.657
27.93000 420.200
27.94000 422.328
27.95000 425.220
27.96000 427.281
27.97000 430.101
27.98000 433.658
27.99000 437.162
28.00000 436.370
28.01000 432.851
28.02000 429.430
28.03000 426.797
28.04000 424.615
28.05000 422.858
28.06000 426.149
28.07000 430.903
28.08000 434.722
28.09000 432.043
28.10000 428.121
28.11000 424.855
28.12000 430.484
28.13000 436.024
28.14000 438.892
28.15000 433.825
28.16000 428.233
28.17000 426.327
28.18000 431.847
28.19000 437.577
28.20000 440.876
28.21000 434.524
28.22000 430.041
28.23000 424.182
28.24000 417.124
28.25000 410.284
28.26000 415.615
28.27000 427.966
28.28000 439.888
28.29000 434.917
28.30000 424.024
28.31000 414.245
28.32000 415.943
28.33000 420.664
28.34000 424.280
28.35000 421.048
28.36000 416.638
28.37000 413.037
28.38000 417.269
28.39000 421.403
28.40000 423.989
28.41000 422.387
28.42000 420.552
28.43000 417.264
28.44000 411.316
28.45000 405.311
28.46000 402.007
28.47000 404.929
28.48000 406.960
28.49000 411.571
28.50000 418.211
28.51000 424.603
28.52000 420.831
28.53000 411.726
28.54000 403.007
28.55000 402.901
28.56000 405.661
28.57000 408.389
28.58000 410.843
28.59000 413.231
28.60000 415.667
28.61000 418.370
28.62000 421.115
28.63000 423.308
28.64000 424.977
28.65000 426.286
28.66000 425.218
28.67000 418.295
28.68000 411.101
28.69000 408.880
28.70000 414.948
28.71000 421.144
28.72000 424.389
28.73000 410.120
28.74000 400.512
28.75000 399.604
28.76000 404.882
28.77000 410.192
28.78000 416.484
28.79000 423.247
28.80000 429.666
28.81000 424.831
28.82000 417.005
28.83000 410.005
28.84000 409.578
28.85000 410.570
28.86000 410.943
28.87000 408.220
28.88000 405.072
28.89000 402.612
28.90000 411.455
28.91000 419.228
28.92000 423.488
28.93000 419.865
28.94000 415.946
28.95000 413.503
28.96000 413.294
28.97000 413.108
28.98000 410.636
28.99000 405.909
29.00000 401.251
29.01000 402.685
29.02000 408.047
29.03000 413.314
29.04000 416.206
29.05000 418.064
29.06000 419.811
29.07000 417.075
29.08000 413.371
29.09000 409.880
29.10000 407.896
29.11000 406.206
29.12000 404.708
29.13000 404.080
29.14000 403.557
29.15000 403.158
29.16000 404.975
29.17000 406.525
29.18000 408.678
29.19000 412.064
29.20000 415.485
29.21000 410.022
29.22000 392.373
29.23000 374.660
29.24000 371.574
29.25000 381.436
29.26000 391.247
29.27000 398.028
29.28000 403.033
29.29000 407.828
29.30000 408.257
29.31000 406.956
29.32000 405.745
29.33000 412.586
29.34000 420.712
29.35000 426.768
29.36000 419.765
29.37000 410.474
29.38000 402.753
29.39000 401.444
29.40000 400.822
29.41000 400.360
29.42000 402.890
29.43000 404.991
29.44000 405.035
29.45000 401.249
29.46000 397.377
29.47000 396.700
29.48000 399.987
29.49000 403.279
29.50000 404.051
29.51000 402.815
29.52000 401.644
29.53000 403.275
29.54000 406.398
29.55000 409.418
29.56000 410.664
29.57000 411.271
29.58000 411.828
29.59000 407.549
29.60000 402.679
29.61000 398.751
29.62000 400.159
29.63000 402.403
29.64000 405.036
29.65000 409.111
29.66000 413.321
29.67000 416.369
29.68000 412.245
29.69000 408.816
29.70000 404.745
29.71000 399.586
29.72000 394.410
29.73000 395.681
29.74000 404.157
29.75000 412.608
29.76000 416.051
29.77000 415.879
29.78000 415.851
29.79000 420.589
29.80000 427.638
29.81000 434.138
29.82000 432.666
29.83000 428.573
29.84000 424.854
29.85000 413.904
29.86000 402.827
29.87000 393.564
29.88000 393.524
29.89000 394.775
29.90000 397.863
29.91000 407.134
29.92000 416.908
29.93000 423.779
29.94000 426.308
29.95000 428.097
29.96000 434.058
29.97000 446.434
29.98000 458.881
29.99000 461.172
30.00000 453.266
30.01000 445.411
30.02000 439.247
30.03000 434.265
30.04000 429.554
30.05000 431.937
30.06000 437.454
30.07000 442.382
30.08000 439.995
30.09000 435.421
30.10000 431.321
30.11000 428.967
30.12000 427.213
30.13000 426.800
30.14000 432.544
30.15000 439.053
30.16000 443.375
30.17000 441.001
30.18000 438.160
30.19000 436.224
30.20000 435.804
30.21000 435.526
30.22000 434.918
30.23000 433.850
30.24000 432.780
30.25000 431.503
30.26000 430.040
30.27000 428.592
30.28000 427.318
30.29000 426.172
30.30000 424.873
30.31000 420.332
30.32000 414.485
30.33000 409.447
30.34000 413.105
30.35000 419.126
30.36000 424.445
30.37000 430.348
30.38000 435.535
30.39000 438.316
30.40000 431.107
30.41000 422.804
30.42000 418.388
30.43000 424.807
30.44000 431.865
30.45000 436.518
30.46000 427.357
30.47000 420.365
30.48000 419.446
30.49000 426.184
30.50000 432.934
30.51000 434.653
30.52000 432.286
30.53000 429.953
30.54000 431.346
30.55000 434.658
30.56000 437.695
30.57000 435.876
30.58000 432.277
30.59000 429.019
30.60000 428.959
30.61000 429.687
30.62000 430.321
30.63000 436.539
30.64000 442.606
30.65000 445.961
30.66000 439.110
30.67000 431.281
30.68000 426.850
30.69000 431.048
30.70000 435.671
30.71000 438.612
30.72000 442.022
30.73000 444.505
30.74000 446.148
30.75000 446.837
30.76000 447.520
30.77000 447.378
30.78000 446.630
30.79000 445.897
30.80000 451.768
30.81000 460.559
30.82000 469.235
30.83000 476.207
30.84000 482.610
30.85000 488.417
30.86000 489.293
30.87000 489.068
30.88000 488.876
30.89000 502.123
30.90000 514.909
30.91000 527.668
30.92000 540.338
30.93000 553.000
30.94000 561.567
30.95000 560.663
30.96000 559.378
30.97000 558.591
30.98000 593.670
30.99000 619.087
31.00000 648.694
31.01000 682.582
31.02000 716.524
31.03000 756.008
31.04000 799.181
31.05000 841.280
31.06000 885.828
31.07000 929.419
31.08000 972.791
31.09000 1013.385
31.10000 1053.135
31.11000 1096.366
31.12000 1165.164
31.13000 1239.112
31.14000 1301.240
31.15000 1402.350
31.16000 1490.699
31.17000 1580.148
31.18000 1673.016
31.19000 1766.129
31.20000 1856.626
31.21000 1941.610
31.22000 2026.417
31.23000 2076.274
31.24000 2211.207
31.25000 2306.788
31.26000 2389.617
31.27000 2460.754
31.28000 2531.658
31.29000 2587.116
31.30000 2633.243
31.31000 2677.925
31.32000 2708.664
31.33000 2732.358
31.34000 2754.205
31.35000 2755.713
31.36000 2751.609
31.37000 2742.798
31.38000 2703.189
31.39000 2657.996
31.40000 2620.744
31.41000 2583.181
31.42000 2552.236
31.43000 2511.910
31.44000 2445.040
31.45000 2376.558
31.46000 2301.548
31.47000 2214.009
31.48000 2126.161
31.49000 2076.737
31.50000 1973.674
31.51000 1902.001
31.52000 1832.218
31.53000 1763.995
31.54000 1695.441
31.55000 1611.084
31.56000 1518.047
31.57000 1428.600
31.58000 1354.854
31.59000 1291.233
31.60000 1228.958
31.61000 1179.614
31.62000 1133.507
31.63000 1087.068
31.64000 1038.686
31.65000 989.988
31.66000 950.657
31.67000 912.798
31.68000 882.137
31.69000 848.602
31.70000 807.656
31.71000 766.334
31.72000 733.580
31.73000 715.782
31.74000 698.256
31.75000 688.852
31.76000 657.653
31.77000 636.357
31.78000 619.752
31.79000 606.647
31.80000 593.543
31.81000 580.486
31.82000 567.452
31.83000 555.026
31.84000 543.345
31.85000 532.745
31.86000 522.553
31.87000 515.809
31.88000 509.845
31.89000 503.132
31.90000 492.469
31.91000 481.232
31.92000 472.352
31.93000 466.128
31.94000 461.313
31.95000 455.699
31.96000 448.211
31.97000 440.644
31.98000 435.466
31.99000 434.074
32.00000 432.731
32.01000 432.046
32.02000 423.176
32.03000 417.263
32.04000 415.602
32.05000 416.814
32.06000 417.885
32.07000 414.993
32.08000 410.296
32.09000 405.859
32.10000 403.583
32.11000 402.105
32.12000 400.854
32.13000 401.302
32.14000 402.099
32.15000 402.304
32.16000 399.701
32.17000 396.736
32.18000 394.447
32.19000 389.616
32.20000 385.637
32.21000 383.103
32.22000 383.657
32.23000 384.314
32.24000 386.012
32.25000 389.206
32.26000 392.412
32.27000 389.776
32.28000 381.692
32.29000 373.687
32.30000 371.235
32.31000 372.191
32.32000 373.314
32.33000 378.250
32.34000 384.767
32.35000 390.861
32.36000 390.464
32.37000 388.451
32.38000 386.100
32.39000 381.500
32.40000 376.485
32.41000 372.309
32.42000 371.729
32.43000 371.560
32.44000 371.433
32.45000 366.362
32.46000 362.151
32.47000 362.259
32.48000 370.781
32.49000 379.521
32.50000 381.542
32.51000 374.812
32.52000 368.052
32.53000 367.088
32.54000 370.982
32.55000 374.775
32.56000 373.565
32.57000 369.564
32.58000 365.585
32.59000 362.001
32.60000 358.567
32.61000 355.391
32.62000 366.568
32.63000 379.888
32.64000 391.001
32.65000 388.957
32.66000 384.735
32.67000 380.606
32.68000 376.834
32.69000 373.098
32.70000 370.358
32.71000 369.653
32.72000 369.191
32.73000 368.228
32.74000 366.378
32.75000 364.511
32.76000 362.959
32.77000 361.777
32.78000 360.599
32.79000 364.773
32.80000 372.952
32.81000 381.060
32.82000 386.504
32.83000 390.595
32.84000 394.512
32.85000 395.694
32.86000 395.934
32.87000 396.154
32.88000 397.288
32.89000 398.484
32.90000 399.514
32.91000 399.661
32.92000 399.677
32.93000 399.317
32.94000 397.632
32.95000 395.831
32.96000 394.547
32.97000 398.352
32.98000 401.420
32.99000 401.057
33.00000 395.168
33.01000 389.204
33.02000 383.800
33.03000 378.988
33.04000 374.201
33.05000 372.494
33.06000 372.898
33.07000 373.158
33.08000 369.200
33.09000 363.294
33.10000 357.703
33.11000 356.334
33.12000 356.286
33.13000 356.244
33.14000 351.466
33.15000 346.403
33.16000 342.394
33.17000 343.460
33.18000 345.196
33.19000 346.404
33.20000 345.923
33.21000 345.316
33.22000 344.895
33.23000 344.126
33.24000 343.538
33.25000 343.884
33.26000 345.596
33.27000 347.319
33.28000 348.933
33.29000 350.442
33.30000 351.939
33.31000 350.012
33.32000 346.025
33.33000 342.258
33.34000 343.652
33.35000 347.218
33.36000 350.453
33.37000 349.855
33.38000 348.165
33.39000 346.663
33.40000 349.213
33.41000 352.088
33.42000 354.000
33.43000 351.720
33.44000 348.951
33.45000 346.021
33.46000 342.619
33.47000 339.186
33.48000 336.886
33.49000 338.845
33.50000 340.384
33.51000 341.101
33.52000 340.731
33.53000 340.356
33.54000 340.461
33.55000 340.978
33.56000 341.488
33.57000 343.566
33.58000 346.458
33.59000 348.969
33.60000 344.119
33.61000 336.446
33.62000 329.858
33.63000 334.159
33.64000 341.275
33.65000 347.512
33.66000 349.860
33.67000 351.313
33.68000 350.640
33.69000 341.582
33.70000 331.665
33.71000 323.353
33.72000 319.303
33.73000 315.482
33.74000 313.009
33.75000 328.276
33.76000 339.708
33.77000 344.183
33.78000 340.337
33.79000 336.486
33.80000 335.094
33.81000 335.599
33.82000 336.095
33.83000 337.288
33.84000 338.790
33.85000 340.118
33.86000 338.648
33.87000 336.202
33.88000 333.875
33.89000 332.604
33.90000 331.580
33.91000 330.697
33.92000 331.208
33.93000 331.818
33.94000 332.016
33.95000 330.732
33.96000 329.315
33.97000 329.118
33.98000 331.870
33.99000 334.753
34.00000 336.552
34.01000 334.188
34.02000 332.440
34.03000 328.910
34.04000 323.460
34.05000 318.042
34.06000 316.844
34.07000 318.590
34.08000 320.298
34.09000 323.550
34.10000 327.364
34.11000 331.028
34.12000 332.625
34.13000 333.564
34.14000 334.533
34.15000 335.725
34.16000 336.966
34.17000 338.017
34.18000 334.038
34.19000 330.138
34.20000 327.643
34.21000 329.721
34.22000 332.151
34.23000 332.345
34.24000 327.605
34.25000 322.688
34.26000 319.739
34.27000 324.371
34.28000 327.712
34.29000 331.003
34.30000 334.247
34.31000 337.419
34.32000 334.781
34.33000 328.467
34.34000 322.331
34.35000 320.566
34.36000 320.665
34.37000 320.711
34.38000 320.132
34.39000 319.372
34.40000 318.710
34.41000 318.716
34.42000 318.849
34.43000 318.961
34.44000 324.276
34.45000 329.189
34.46000 330.745
34.47000 322.360
34.48000 313.322
34.49000 310.929
34.50000 321.881
34.51000 333.209
34.52000 339.722
34.53000 329.069
34.54000 321.559
34.55000 318.921
34.56000 320.514
34.57000 322.059
34.58000 320.990
34.59000 318.418
34.60000 315.936
34.61000 316.715
34.62000 318.646
34.63000 320.227
34.64000 318.234
34.65000 315.303
34.66000 312.202
34.67000 308.052
34.68000 303.723
34.69000 300.191
34.70000 315.283
34.71000 329.219
34.72000 338.368
34.73000 334.612
34.74000 330.140
34.75000 325.423
34.76000 320.259
34.77000 315.085
34.78000 312.244
34.79000 313.676
34.80000 314.660
34.81000 313.248
34.82000 309.959
34.83000 306.776
34.84000 307.934
34.85000 311.363
34.86000 314.646
34.87000 317.850
34.88000 320.810
34.89000 323.348
34.90000 322.099
34.91000 319.948
34.92000 318.891
34.93000 323.900
34.94000 329.839
34.95000 334.583
34.96000 324.295
34.97000 314.876
34.98000 308.291
34.99000 308.671
35.00000 309.371
35.01000 309.642
35.02000 309.202
35.03000 308.751
35.04000 308.515
35.05000 304.317
35.06000 301.504
35.07000 302.917
35.08000 307.325
35.09000 311.648
35.10000 313.268
35.11000 313.600
35.12000 313.915
35.13000 317.139
35.14000 320.980
35.15000 324.264
35.16000 323.131
35.17000 321.048
35.18000 319.133
35.19000 318.055
35.20000 317.092
35.21000 316.340
35.22000 313.645
35.23000 311.374
35.24000 308.843
35.25000 305.730
35.26000 302.596
35.27000 304.031
35.28000 312.359
35.29000 320.757
35.30000 319.818
35.31000 309.701
35.32000 299.700
35.33000 299.771
35.34000 306.317
35.35000 312.754
35.36000 316.467
35.37000 318.997
35.38000 321.375
35.39000 321.718
35.40000 321.487
35.41000 320.743
35.42000 316.393
35.43000 311.343
35.44000 308.523
35.45000 315.739
35.46000 324.173
35.47000 330.603
35.48000 326.950
35.49000 323.536
35.50000 319.478
35.51000 314.105
35.52000 308.694
35.53000 306.555
35.54000 308.891
35.55000 311.252
35.56000 311.023
35.57000 308.512
35.58000 306.063
35.59000 307.275
35.60000 310.626
35.61000 313.717
35.62000 311.470
35.63000 307.113
35.64000 303.061
35.65000 302.765
35.66000 303.402
35.67000 303.745
35.68000 302.232
35.69000 300.396
35.70000 299.628
35.71000 303.207
35.72000 307.251
35.73000 310.257
35.74000 310.266
35.75000 310.140
35.76000 307.156
35.77000 298.867
35.78000 290.460
35.79000 286.791
35.80000 288.982
35.81000 291.185
35.82000 296.027
35.83000 302.940
35.84000 309.616
35.85000 306.114
35.86000 297.207
35.87000 288.900
35.88000 290.834
35.89000 296.457
35.90000 301.626
35.91000 302.864
35.92000 303.121
35.93000 303.619
35.94000 305.475
35.95000 307.542
35.96000 309.200
35.97000 309.345
35.98000 309.349
35.99000 309.351
36.00000 301.450
36.01000 295.098
36.02000 292.571
36.03000 296.497
36.04000 300.528
36.05000 302.043
36.06000 300.756
36.07000 299.472
36.08000 301.389
36.09000 305.574
36.10000 309.603
36.11000 308.549
36.12000 305.036
36.13000 301.946
36.14000 304.969
36.15000 309.996
36.16000 314.561
36.17000 308.115
36.18000 300.294
36.19000 295.066
36.20000 302.978
36.21000 312.723
36.22000 319.381
36.23000 315.681
36.24000 311.142
36.25000 307.955
36.26000 303.998
36.27000 300.979
36.28000 298.268
36.29000 296.028
36.30000 293.794
36.31000 291.519
36.32000 289.203
36.33000 286.902
36.34000 284.409
36.35000 281.830
36.36000 279.330
36.37000 278.906
36.38000 279.395
36.39000 279.765
36.40000 278.646
36.41000 277.083
36.42000 275.684
36.43000 282.663
36.44000 290.201
36.45000 295.297
36.46000 289.219
36.47000 281.758
36.48000 277.964
36.49000 285.363
36.50000 293.539
36.51000 299.105
36.52000 295.246
36.53000 292.148
36.54000 290.726
36.55000 291.634
36.56000 292.561
36.57000 298.784
36.58000 309.766
36.59000 320.638
36.60000 319.269
36.61000 310.824
36.62000 302.473
36.63000 296.090
36.64000 290.498
36.65000 285.589
36.66000 288.016
36.67000 292.431
36.68000 296.329
36.69000 294.946
36.70000 292.943
36.71000 291.008
36.72000 289.354
36.73000 287.732
36.74000 287.168
36.75000 289.545
36.76000 292.094
36.77000 293.773
36.78000 296.968
36.79000 299.347
36.80000 296.772
36.81000 287.970
36.82000 279.169
36.83000 278.103
36.84000 283.301
36.85000 288.426
36.86000 287.179
36.87000 282.631
36.88000 278.311
36.89000 277.983
36.90000 279.115
36.91000 280.755
36.92000 287.155
36.93000 294.725
36.94000 301.305
36.95000 299.975
36.96000 297.766
36.97000 295.401
36.98000 292.454
36.99000 289.451
37.00000 288.989
37.01000 294.961
37.02000 301.247
37.03000 305.242
37.04000 301.520
37.05000 298.722
37.06000 298.197
37.07000 300.247
37.08000 302.274
37.09000 299.803
37.10000 294.039
37.11000 288.387
37.12000 288.537
37.13000 291.426
37.14000 294.344
37.15000 297.692
37.16000 301.183
37.17000 303.700
37.18000 298.169
37.19000 290.849
37.20000 284.591
37.21000 289.194
37.22000 294.375
37.23000 297.967
37.24000 296.147
37.25000 293.878
37.26000 291.616
37.27000 289.368
37.28000 287.121
37.29000 285.746
37.30000 286.045
37.31000 286.273
37.32000 288.507
37.33000 292.782
37.34000 297.019
37.35000 297.405
37.36000 295.238
37.37000 293.124
37.38000 290.431
37.39000 287.613
37.40000 284.982
37.41000 284.720
37.42000 285.175
37.43000 285.446
37.44000 284.370
37.45000 283.024
37.46000 281.893
37.47000 279.372
37.48000 277.127
37.49000 277.391
37.50000 285.433
37.51000 294.029
37.52000 300.205
37.53000 301.294
37.54000 302.223
37.55000 302.767
37.56000 298.211
37.57000 294.974
37.58000 292.500
37.59000 290.723
37.60000 288.888
37.61000 283.172
37.62000 275.120
37.63000 267.323
37.64000 275.094
37.65000 288.444
37.66000 300.477
37.67000 298.053
37.68000 291.652
37.69000 285.696
37.70000 282.636
37.71000 280.099
37.72000 278.010
37.73000 286.994
37.74000 295.400
37.75000 298.887
37.76000 288.494
37.77000 277.264
37.78000 271.530
37.79000 276.312
37.80000 281.352
37.81000 284.184
37.82000 278.091
37.83000 273.855
37.84000 275.315
37.85000 281.465
37.86000 287.539
37.87000 290.021
37.88000 290.535
37.89000 291.029
37.90000 289.435
37.91000 287.218
37.92000 284.944
37.93000 282.140
37.94000 279.203
37.95000 277.631
37.96000 284.027
37.97000 291.714
37.98000 297.919
37.99000 299.767
38.00000 300.924
38.01000 301.176
38.02000 299.100
38.03000 296.907
38.04000 294.437
38.05000 291.485
38.06000 288.523
38.07000 286.937
38.08000 287.399
38.09000 287.711
38.10000 287.005
38.11000 285.542
38.12000 284.197
38.13000 287.022
38.14000 291.928
38.15000 296.603
38.16000 294.845
38.17000 291.199
38.18000 288.567
38.19000 294.474
38.20000 302.310
38.21000 308.748
38.22000 307.844
38.23000 305.878
38.24000 304.325
38.25000 303.792
38.26000 303.432
38.27000 303.723
38.28000 305.536
38.29000 307.412
38.30000 310.906
38.31000 316.961
38.32000 323.047
38.33000 326.144
38.34000 332.588
38.35000 336.885
38.36000 338.615
38.37000 338.614
38.38000 338.865
38.39000 346.171
38.40000 356.679
38.41000 366.603
38.42000 372.154
38.43000 376.014
38.44000 380.895
38.45000 393.386
38.46000 407.431
38.47000 420.876
38.48000 431.482
38.49000 441.723
38.50000 449.625
38.51000 448.880
38.52000 447.790
38.53000 450.367
38.54000 460.767
38.55000 471.426
38.56000 480.516
38.57000 487.354
38.58000 494.173
38.59000 500.591
38.60000 506.632
38.61000 512.658
38.62000 517.593
38.63000 521.861
38.64000 525.861
38.65000 523.832
38.66000 519.309
38.67000 515.080
38.68000 509.100
38.69000 503.226
38.70000 498.257
38.71000 499.294
38.72000 501.435
38.73000 501.663
38.74000 493.716
38.75000 484.839
38.76000 478.158
38.77000 475.270
38.78000 473.194
38.79000 466.412
38.80000 450.489
38.81000 434.332
38.82000 420.688
38.83000 410.308
38.84000 399.953
38.85000 396.920
38.86000 400.007
38.87000 402.908
38.88000 396.591
38.89000 385.148
38.90000 374.013
38.91000 368.605
38.92000 365.355
38.93000 362.350
38.94000 350.007
38.95000 336.798
38.96000 326.010
38.97000 329.612
38.98000 335.588
38.99000 338.075
39.00000 327.049
39.01000 314.675
39.02000 305.606
39.03000 303.157
39.04000 301.532
39.05000 300.275
39.06000 299.670
39.07000 299.078
39.08000 297.012
39.09000 293.218
39.10000 289.431
39.11000 288.388
39.12000 289.411
39.13000 290.290
39.14000 285.825
39.15000 278.654
39.16000 272.029
39.17000 273.932
39.18000 278.762
39.19000 283.174
39.20000 276.238
39.21000 267.764
39.22000 261.372
39.23000 266.081
39.24000 272.427
39.25000 276.511
39.26000 272.641
39.27000 268.081
39.28000 264.832
39.29000 260.586
39.30000 257.318
39.31000 257.499
39.32000 263.220
39.33000 269.015
39.34000 269.940
39.35000 265.728
39.36000 261.537
39.37000 261.100
39.38000 263.207
39.39000 265.243
39.40000 265.187
39.41000 264.167
39.42000 263.560
39.43000 268.459
39.44000 275.078
39.45000 281.046
39.46000 278.238
39.47000 274.172
39.48000 270.038
39.49000 265.573
39.50000 261.065
39.51000 257.656
39.52000 257.764
39.53000 258.135
39.54000 258.391
39.55000 262.963
39.56000 266.513
39.57000 266.866
39.58000 262.561
39.59000 258.217
39.60000 257.232
39.61000 259.426
39.62000 261.601
39.63000 257.046
39.64000 248.467
39.65000 240.310
39.66000 241.978
39.67000 247.772
39.68000 253.483
39.69000 258.240
39.70000 262.727
39.71000 266.716
39.72000 263.031
39.73000 258.587
39.74000 255.173
39.75000 256.233
39.76000 257.813
39.77000 258.034
39.78000 254.303
39.79000 250.321
39.80000 247.656
39.81000 258.875
39.82000 267.471
39.83000 269.684
39.84000 263.471
39.85000 257.223
39.86000 253.086
39.87000 250.748
39.88000 248.438
39.89000 251.502
39.90000 257.447
39.91000 263.041
39.92000 261.908
39.93000 258.201
39.94000 254.931
39.95000 256.028
39.96000 258.251
39.97000 260.197
39.98000 259.978
39.99000 259.478
40.00000 259.936
40.01000 264.163
40.02000 268.775
40.03000 271.582
40.04000 269.609
40.05000 267.381
40.06000 265.939
40.07000 261.978
40.08000 259.044
40.09000 258.101
40.10000 259.530
40.11000 260.944
40.12000 257.451
40.13000 250.187
40.14000 243.045
40.15000 241.496
40.16000 242.778
40.17000 244.362
40.18000 250.814
40.19000 258.960
40.20000 266.222
40.21000 265.717
40.22000 263.400
40.23000 261.402
40.24000 256.422
40.25000 251.820
40.26000 248.667
40.27000 250.693
40.28000 253.178
40.29000 254.485
40.30000 252.950
40.31000 251.289
40.32000 250.253
40.33000 254.001
40.34000 256.752
40.35000 257.047
40.36000 254.708
40.37000 252.374
40.38000 250.893
40.39000 250.006
40.40000 249.138
40.41000 246.182
40.42000 242.411
40.43000 239.202
40.44000 243.671
40.45000 250.575
40.46000 256.848
40.47000 258.227
40.48000 258.574
40.49000 258.868
40.50000 257.352
40.51000 255.880
40.52000 253.409
40.53000 247.695
40.54000 241.732
40.55000 238.020
40.56000 239.255
40.57000 240.667
40.58000 241.513
40.59000 239.775
40.60000 238.524
40.61000 240.779
40.62000 246.408
40.63000 251.998
40.64000 254.478
40.65000 254.995
40.66000 255.497
40.67000 250.661
40.68000 243.904
40.69000 237.584
40.70000 236.394
40.71000 236.682
40.72000 236.674
40.73000 234.619
40.74000 232.174
40.75000 230.141
40.76000 240.222
40.77000 249.752
40.78000 255.348
40.79000 249.326
40.80000 242.542
40.81000 237.278
40.82000 235.056
40.83000 232.919
40.84000 231.693
40.85000 228.534
40.86000 226.323
40.87000 227.465
40.88000 231.508
40.89000 235.503
40.90000 236.862
40.91000 236.709
40.92000 236.562
40.93000 239.473
40.94000 243.331
40.95000 246.715
40.96000 245.270
40.97000 242.559
40.98000 240.278
40.99000 240.634
41.00000 241.441
41.01000 242.099
41.02000 249.195
41.03000 255.545
41.04000 259.512
41.05000 257.069
41.06000 254.272
41.07000 250.928
41.08000 246.585
41.09000 242.221
41.10000 239.828
41.11000 247.862
41.12000 253.387
41.13000 253.840
41.14000 250.330
41.15000 246.793
41.16000 242.141
41.17000 236.906
41.18000 231.896
41.19000 237.273
41.20000 245.707
41.21000 252.472
41.22000 244.297
41.23000 232.576
41.24000 223.112
41.25000 226.107
41.26000 231.008
41.27000 234.920
41.28000 239.517
41.29000 243.280
41.30000 245.509
41.31000 243.981
41.32000 242.281
41.33000 242.067
41.34000 244.312
41.35000 246.595
41.36000 247.787
41.37000 245.874
41.38000 244.604
41.39000 246.724
41.40000 251.241
41.41000 255.521
41.42000 252.399
41.43000 245.761
41.44000 239.464
41.45000 238.434
41.46000 239.049
41.47000 239.577
41.48000 239.419
41.49000 239.115
41.50000 239.268
41.51000 241.701
41.52000 244.443
41.53000 246.584
41.54000 242.423
41.55000 238.710
41.56000 236.580
41.57000 237.982
41.58000 239.514
41.59000 241.130
41.60000 242.872
41.61000 244.615
41.62000 244.333
41.63000 242.069
41.64000 239.801
41.65000 237.299
41.66000 234.647
41.67000 232.236
41.68000 235.852
41.69000 242.076
41.70000 247.923
41.71000 248.847
41.72000 248.373
41.73000 247.523
41.74000 244.027
41.75000 240.019
41.76000 236.846
41.77000 237.421
41.78000 238.449
41.79000 239.232
41.80000 241.815
41.81000 243.944
41.82000 243.485
41.83000 237.765
41.84000 231.892
41.85000 228.741
41.86000 229.304
41.87000 229.887
41.88000 227.812
41.89000 223.404
41.90000 219.118
41.91000 221.916
41.92000 228.839
41.93000 235.697
41.94000 241.225
41.95000 246.229
41.96000 250.881
41.97000 241.461
41.98000 229.579
41.99000 219.236
42.00000 218.538
42.01000 219.518
42.02000 220.578
42.03000 221.959
42.04000 223.375
42.05000 224.426
42.06000 231.305
42.07000 236.909
42.08000 236.334
42.09000 224.325
42.10000 212.062
42.11000 210.026
42.12000 220.591
42.13000 231.171
42.14000 234.539
42.15000 232.190
42.16000 229.834
42.17000 227.175
42.18000 224.356
42.19000 221.785
42.20000 223.427
42.21000 226.583
42.22000 229.483
42.23000 232.802
42.24000 235.857
42.25000 238.158
42.26000 236.234
42.27000 233.651
42.28000 231.073
42.29000 228.514
42.30000 225.958
42.31000 224.110
42.32000 227.272
42.33000 229.878
42.34000 232.611
42.35000 235.555
42.36000 238.504
42.37000 238.776
42.38000 236.078
42.39000 233.387
42.40000 229.500
42.41000 224.798
42.42000 220.362
42.43000 224.614
42.44000 233.056
42.45000 240.929
42.46000 240.639
42.47000 237.679
42.48000 234.993
42.49000 230.054
42.50000 225.259
42.51000 220.651
42.52000 216.991
42.53000 213.461
42.54000 211.836
42.55000 216.583
42.56000 221.842
42.57000 225.533
42.58000 227.290
42.59000 228.564
42.60000 228.778
42.61000 227.375
42.62000 225.954
42.63000 227.763
42.64000 232.793
42.65000 237.790
42.66000 236.162
42.67000 230.310
42.68000 224.694
42.69000 225.176
42.70000 228.335
42.71000 231.488
42.72000 234.552
42.73000 237.589
42.74000 240.309
42.75000 235.281
42.76000 229.560
42.77000 224.657
42.78000 223.480
42.79000 222.761
42.80000 223.837
42.81000 230.375
42.82000 237.290
42.83000 241.993
42.84000 233.946
42.85000 227.648
42.86000 226.838
42.87000 233.629
42.88000 240.465
42.89000 241.528
42.90000 237.421
42.91000 233.356
42.92000 232.380
42.93000 233.212
42.94000 233.946
42.95000 232.634
42.96000 230.503
42.97000 228.723
42.98000 230.700
42.99000 233.691
43.00000 236.331
43.01000 232.811
43.02000 228.834
43.03000 225.797
43.04000 226.643
43.05000 227.911
43.06000 228.638
43.07000 227.867
43.08000 227.009
43.09000 226.444
43.10000 226.753
43.11000 226.996
43.12000 226.869
43.13000 226.280
43.14000 225.685
43.15000 223.817
43.16000 220.922
43.17000 218.068
43.18000 220.635
43.19000 225.958
43.20000 231.063
43.21000 232.353
43.22000 232.253
43.23000 231.674
43.24000 226.631
43.25000 220.494
43.26000 215.162
43.27000 217.684
43.28000 220.897
43.29000 224.470
43.30000 229.391
43.31000 234.440
43.32000 235.053
43.33000 224.469
43.34000 213.341
43.35000 206.277
43.36000 219.268
43.37000 228.945
43.38000 232.978
43.39000 230.635
43.40000 228.302
43.41000 228.689
43.42000 231.062
43.43000 233.388
43.44000 232.684
43.45000 230.577
43.46000 228.585
43.47000 228.290
43.48000 228.559
43.49000 228.821
43.50000 229.033
43.51000 229.234
43.52000 229.406
43.53000 227.515
43.54000 225.676
43.55000 224.316
43.56000 224.584
43.57000 224.986
43.58000 224.812
43.59000 223.313
43.60000 221.761
43.61000 220.813
43.62000 222.001
43.63000 222.868
43.64000 222.389
43.65000 220.544
43.66000 218.739
43.67000 220.861
43.68000 225.581
43.69000 230.181
43.70000 225.771
43.71000 217.726
43.72000 210.548
43.73000 214.317
43.74000 221.391
43.75000 227.800
43.76000 229.365
43.77000 229.960
43.78000 230.459
43.79000 226.384
43.80000 222.513
43.81000 219.731
43.82000 220.314
43.83000 221.136
43.84000 223.932
43.85000 230.865
43.86000 237.930
43.87000 242.072
43.88000 233.545
43.89000 227.475
43.90000 220.795
43.91000 213.559
43.92000 206.468
43.93000 208.803
43.94000 216.799
43.95000 224.542
43.96000 224.352
43.97000 221.125
43.98000 218.422
43.99000 221.444
44.00000 226.036
44.01000 229.835
44.02000 228.483
44.03000 226.203
44.04000 224.325
44.05000 224.220
44.06000 224.295
44.07000 225.364
44.08000 229.226
44.09000 233.256
44.10000 234.397
44.11000 230.026
44.12000 225.521
44.13000 222.994
44.14000 230.289
44.15000 235.357
44.16000 233.912
44.17000 227.120
44.18000 220.428
44.19000 218.366
44.20000 218.833
44.21000 219.282
44.22000 225.087
44.23000 232.378
44.24000 238.715
44.25000 235.951
44.26000 230.921
44.27000 227.136
44.28000 230.597
44.29000 235.228
44.30000 238.964
44.31000 237.325
44.32000 235.569
44.33000 233.587
44.34000 231.028
44.35000 228.440
44.36000 228.417
44.37000 232.844
44.38000 237.351
44.39000 239.762
44.40000 255.731
44.41000 266.566
44.42000 264.752
44.43000 253.556
44.44000 242.688
44.45000 243.412
44.46000 249.897
44.47000 256.077
44.48000 256.349
44.49000 254.755
44.50000 253.903
44.51000 259.282
44.52000 266.065
44.53000 271.245
44.54000 268.051
44.55000 263.649
44.56000 260.175
44.57000 265.485
44.58000 270.341
44.59000 276.070
44.60000 283.836
44.61000 291.686
44.62000 299.809
44.63000 308.363
44.64000 316.921
44.65000 321.270
44.66000 336.868
44.67000 347.271
44.68000 352.154
44.69000 353.328
44.70000 354.646
44.71000 359.936
44.72000 367.025
44.73000 373.718
44.74000 381.489
44.75000 388.921
44.76000 396.374
44.77000 403.991
44.78000 411.641
44.79000 417.938
44.80000 417.859
44.81000 416.963
44.82000 416.272
44.83000 427.981
44.84000 437.971
44.85000 446.538
44.86000 452.077
44.87000 457.516
44.88000 460.976
44.89000 461.604
44.90000 462.209
44.91000 463.374
44.92000 465.055
44.93000 466.751
44.94000 469.443
44.95000 472.744
44.96000 475.866
44.97000 474.970
44.98000 472.417
44.99000 470.031
45.00000 456.584
45.01000 441.584
45.02000 428.835
45.03000 430.988
45.04000 435.872
45.05000 437.761
45.06000 426.887
45.07000 414.568
45.08000 405.303
45.09000 408.749
45.10000 412.059
45.11000 411.987
45.12000 405.368
45.13000 398.583
45.14000 392.935
45.15000 388.761
45.16000 384.597
45.17000 377.759
45.18000 368.715
45.19000 359.741
45.20000 354.195
45.21000 350.551
45.22000 347.071
45.23000 346.638
45.24000 347.350
45.25000 348.008
45.26000 337.742
45.27000 326.047
45.28000 316.661
45.29000 320.950
45.30000 327.486
45.31000 331.760
45.32000 327.295
45.33000 321.962
45.34000 318.056
45.35000 315.621
45.36000 313.801
45.37000 309.217
45.38000 299.763
45.39000 290.218
45.40000 285.517
45.41000 286.476
45.42000 287.440
45.43000 289.231
45.44000 291.627
45.45000 293.882
45.46000 290.931
45.47000 285.352
45.48000 280.164
45.49000 281.046
45.50000 284.006
45.51000 286.709
45.52000 280.607
45.53000 273.401
45.54000 267.058
45.55000 265.302
45.56000 264.219
45.57000 263.060
45.58000 261.632
45.59000 260.181
45.60000 259.148
45.61000 258.992
45.62000 258.903
45.63000 254.279
45.64000 242.395
45.65000 230.415
45.66000 226.619
45.67000 231.428
45.68000 236.213
45.69000 239.284
45.70000 241.160
45.71000 242.914
45.72000 241.141
45.73000 237.746
45.74000 234.542
45.75000 233.860
45.76000 233.964
45.77000 234.057
45.78000 229.778
45.79000 225.228
45.80000 222.442
45.81000 228.111
45.82000 234.884
45.83000 239.003
45.84000 234.665
45.85000 229.695
45.86000 226.263
45.87000 224.684
45.88000 223.545
45.89000 225.322
45.90000 231.336
45.91000 237.386
45.92000 238.471
45.93000 234.874
45.94000 231.308
45.95000 227.380
45.96000 223.305
45.97000 219.345
45.98000 218.051
45.99000 217.874
46.00000 217.574
46.01000 215.890
46.02000 213.813
46.03000 211.967
46.04000 208.311
46.05000 204.846
46.06000 202.842
46.07000 207.165
46.08000 212.219
46.09000 216.689
46.10000 219.463
46.11000 222.130
46.12000 223.913
46.13000 213.850
46.14000 206.157
46.15000 203.242
46.16000 206.616
46.17000 210.013
46.18000 209.867
46.19000 206.716
46.20000 203.604
46.21000 204.642
46.22000 207.931
46.23000 210.923
46.24000 208.234
46.25000 203.377
46.26000 199.187
46.27000 201.623
46.28000 205.762
46.29000 209.385
46.30000 203.529
46.31000 197.147
46.32000 193.023
46.33000 197.757
46.34000 203.390
46.35000 207.547
46.36000 207.801
46.37000 207.848
46.38000 207.878
46.39000 206.337
46.40000 205.187
46.41000 202.296
46.42000 197.337
46.43000 192.398
46.44000 193.369
46.45000 198.866
46.46000 204.271
46.47000 204.430
46.48000 201.985
46.49000 199.603
46.50000 198.235
46.51000 197.218
46.52000 196.461
46.53000 197.976
46.54000 200.019
46.55000 201.779
46.56000 203.735
46.57000 205.417
46.58000 206.357
46.59000 204.654
46.60000 202.718
46.61000 201.252
46.62000 200.919
46.63000 200.636
46.64000 200.459
46.65000 200.330
46.66000 200.237
46.67000 199.015
46.68000 196.585
46.69000 194.177
46.70000 194.522
46.71000 196.777
46.72000 198.982
46.73000 197.836
46.74000 195.238
46.75000 192.905
46.76000 194.164
46.77000 196.558
46.78000 198.510
46.79000 197.050
46.80000 194.873
46.81000 193.029
46.82000 196.174
46.83000 199.364
46.84000 201.744
46.85000 201.502
46.86000 201.060
46.87000 198.672
46.88000 192.015
46.89000 185.206
46.90000 181.132
46.91000 186.740
46.92000 190.782
46.93000 190.786
46.94000 186.913
46.95000 183.111
46.96000 184.781
46.97000 189.894
46.98000 194.861
46.99000 198.506
47.00000 201.434
47.01000 203.783
47.02000 199.342
47.03000 192.950
47.04000 188.003
47.05000 192.981
47.06000 199.841
47.07000 205.543
47.08000 203.247
47.09000 200.568
47.10000 198.194
47.11000 196.720
47.12000 195.304
47.13000 193.489
47.14000 190.881
47.15000 188.250
47.16000 186.742
47.17000 194.335
47.18000 199.667
47.19000 199.755
47.20000 195.316
47.21000 190.949
47.22000 190.441
47.23000 192.141
47.24000 193.780
47.25000 195.140
47.26000 196.317
47.27000 196.826
47.28000 190.536
47.29000 182.471
47.30000 175.921
47.31000 178.663
47.32000 182.988
47.33000 186.512
47.34000 186.651
47.35000 186.479
47.36000 185.429
47.37000 182.027
47.38000 178.495
47.39000 177.622
47.40000 181.576
47.41000 185.632
47.42000 187.853
47.43000 191.658
47.44000 194.265
47.45000 193.538
47.46000 190.217
47.47000 187.000
47.48000 187.988
47.49000 191.164
47.50000 194.203
47.51000 189.082
47.52000 181.630
47.53000 174.972
47.54000 175.397
47.55000 177.496
47.56000 180.118
47.57000 185.608
47.58000 191.536
47.59000 196.265
47.60000 196.205
47.61000 195.808
47.62000 193.529
47.63000 186.657
47.64000 179.576
47.65000 175.268
47.66000 175.544
47.67000 175.888
47.68000 176.067
47.69000 175.709
47.70000 175.488
47.71000 178.211
47.72000 183.009
47.73000 187.675
47.74000 188.264
47.75000 186.922
47.76000 185.648
47.77000 184.626
47.78000 183.758
47.79000 183.430
47.80000 187.360
47.81000 192.200
47.82000 196.348
47.83000 197.065
47.84000 197.316
47.85000 197.512
47.86000 191.852
47.87000 186.976
47.88000 184.680
47.89000 188.128
47.90000 191.787
47.91000 191.347
47.92000 184.759
47.93000 178.111
47.94000 177.047
47.95000 181.436
47.96000 185.734
47.97000 182.414
47.98000 174.225
47.99000 166.510
48.00000 170.560
48.01000 179.684
48.02000 188.255
48.03000 187.367
48.04000 184.038
48.05000 180.905
48.06000 179.142
48.07000 177.644
48.08000 177.210
48.09000 181.535
48.10000 186.433
48.11000 190.161
48.12000 189.121
48.13000 188.050
48.14000 188.448
48.15000 191.823
48.16000 195.284
48.17000 196.278
48.18000 193.922
48.19000 191.548
48.20000 188.030
48.21000 183.517
48.22000 179.082
48.23000 179.140
48.24000 181.808
48.25000 184.352
48.26000 184.415
48.27000 183.502
48.28000 182.653
48.29000 186.058
48.30000 190.149
48.31000 193.682
48.32000 193.729
48.33000 193.173
48.34000 192.442
48.35000 191.009
48.36000 189.501
48.37000 188.382
48.38000 188.427
48.39000 188.514
48.40000 186.766
48.41000 181.633
48.42000 176.426
48.43000 174.458
48.44000 176.470
48.45000 178.489
48.46000 181.630
48.47000 185.641
48.48000 189.499
48.49000 186.965
48.50000 181.053
48.51000 175.636
48.52000 178.554
48.53000 184.457
48.54000 189.880
48.55000 188.555
48.56000 185.924
48.57000 183.175
48.58000 179.763
48.59000 176.248
48.60000 173.719
48.61000 174.813
48.62000 176.242
48.63000 177.274
48.64000 173.316
48.65000 170.101
48.66000 169.696
48.67000 174.003
48.68000 178.385
48.69000 180.070
48.70000 178.767
48.71000 177.468
48.72000 176.055
48.73000 174.575
48.74000 173.181
48.75000 174.615
48.76000 177.409
48.77000 180.334
48.78000 185.140
48.79000 190.560
48.80000 195.477
48.81000 190.190
48.82000 183.567
48.83000 177.871
48.84000 176.850
48.85000 176.475
48.86000 176.318
48.87000 176.886
48.88000 177.511
48.89000 177.950
48.90000 175.674
48.91000 173.874
48.92000 173.758
48.93000 176.210
48.94000 178.688
48.95000 178.555
48.96000 175.825
48.97000 173.113
48.98000 169.658
48.99000 165.781
49.00000 162.180
49.01000 165.664
49.02000 172.251
49.03000 178.729
49.04000 183.862
49.05000 188.596
49.06000 192.834
49.07000 183.174
49.08000 172.367
49.09000 164.314
49.10000 168.786
49.11000 174.795
49.12000 179.459
49.13000 180.037
49.14000 180.335
49.15000 180.538
49.16000 175.008
49.17000 170.752
49.18000 169.122
49.19000 171.119
49.20000 173.140
49.21000 175.656
49.22000 178.616
49.23000 181.546
49.24000 182.796
49.25000 183.050
49.26000 183.206
49.27000 181.315
49.28000 178.606
49.29000 176.172
49.30000 176.657
49.31000 177.929
49.32000 179.051
49.33000 176.522
49.34000 173.785
49.35000 171.744
49.36000 172.564
49.37000 173.695
49.38000 175.870
49.39000 180.932
49.40000 186.161
49.41000 189.598
49.42000 178.696
49.43000 170.429
49.44000 168.314
49.45000 173.884
49.46000 179.465
49.47000 181.206
49.48000 179.855
49.49000 178.523
49.50000 178.497
49.51000 179.151
49.52000 179.780
49.53000 179.985
49.54000 180.035
49.55000 180.212
49.56000 181.558
49.57000 183.190
49.58000 184.607
49.59000 179.081
49.60000 173.435
49.61000 168.582
49.62000 166.690
49.63000 165.078
49.64000 165.297
49.65000 170.128
49.66000 175.181
49.67000 178.385
49.68000 180.556
49.69000 182.119
49.70000 180.388
49.71000 174.949
49.72000 169.538
49.73000 169.159
49.74000 172.443
49.75000 175.663
49.76000 178.105
49.77000 180.091
49.78000 181.757
49.79000 178.729
49.80000 174.146
49.81000 170.178
49.82000 171.246
49.83000 173.427
49.84000 175.289
49.85000 174.248
49.86000 173.026
49.87000 171.690
49.88000 169.963
49.89000 168.204
49.90000 168.622
49.91000 174.031
49.92000 179.637
49.93000 183.058
49.94000 181.494
49.95000 180.336
49.96000 179.899
49.97000 180.194
49.98000 180.482
49.99000 180.164
50.00000 179.445
50.01000 178.745
50.02000 179.327
50.03000 180.428
50.04000 181.483
50.05000 181.976
50.06000 182.300
50.07000 181.821
50.08000 175.508
50.09000 168.031
50.10000 161.760
50.11000 170.452
50.12000 179.246
50.13000 185.994
50.14000 186.440
50.15000 186.441
50.16000 186.890
50.17000 188.273
50.18000 189.685
50.19000 190.512
50.20000 189.410
50.21000 188.626
50.22000 188.262
50.23000 188.282
50.24000 188.311
50.25000 188.993
50.26000 190.065
50.27000 191.103
50.28000 191.541
50.29000 191.727
50.30000 192.140
50.31000 195.038
50.32000 198.615
50.33000 201.267
50.34000 197.926
50.35000 193.508
50.36000 189.874
50.37000 198.409
50.38000 206.532
50.39000 212.037
50.40000 210.197
50.41000 207.918
50.42000 207.455
50.43000 210.446
50.44000 213.521
50.45000 215.243
50.46000 216.254
50.47000 216.960
50.48000 220.770
50.49000 227.121
50.50000 233.344
50.51000 233.666
50.52000 230.776
50.53000 227.999
50.54000 231.276
50.55000 236.436
50.56000 241.069
50.57000 240.691
50.58000 239.070
50.59000 237.082
50.60000 232.968
50.61000 228.511
50.62000 224.918
50.63000 232.072
50.64000 238.726
50.65000 241.742
50.66000 235.459
50.67000 228.712
50.68000 225.574
50.69000 228.682
50.70000 231.901
50.71000 233.620
50.72000 231.274
50.73000 229.685
50.74000 230.458
50.75000 232.978
50.76000 235.379
50.77000 233.596
50.78000 229.740
50.79000 226.066
50.80000 222.827
50.81000 219.960
50.82000 217.332
50.83000 216.695
50.84000 216.505
50.85000 216.528
50.86000 217.654
50.87000 218.939
50.88000 219.952
50.89000 213.852
50.90000 208.479
50.91000 204.424
50.92000 203.438
50.93000 202.577
50.94000 201.873
50.95000 201.416
50.96000 200.962
50.97000 200.731
50.98000 199.108
50.99000 197.998
51.00000 194.552
51.01000 189.541
51.02000 184.679
51.03000 183.898
51.04000 184.959
51.05000 185.960
51.06000 189.301
51.07000 193.020
51.08000 196.007
51.09000 193.575
51.10000 190.043
51.11000 186.022
51.12000 179.699
51.13000 173.082
51.14000 167.984
51.15000 167.665
51.16000 167.686
51.17000 167.927
51.18000 168.635
51.19000 169.358
51.20000 170.760
51.21000 173.129
51.22000 175.506
51.23000 175.642
51.24000 173.711
51.25000 171.801
51.26000 171.304
51.27000 171.666
51.28000 172.108
51.29000 174.338
51.30000 177.304
51.31000 180.075
51.32000 176.436
51.33000 171.518
51.34000 167.212
51.35000 166.938
51.36000 167.400
51.37000 168.160
51.38000 170.182
51.39000 172.347
51.40000 173.974
51.41000 170.659
51.42000 167.829
51.43000 166.762
51.44000 169.098
51.45000 171.520
51.46000 172.123
51.47000 170.378
51.48000 168.626
51.49000 166.242
51.50000 163.341
51.51000 160.477
51.52000 159.467
51.53000 159.482
51.54000 159.591
51.55000 161.414
51.56000 163.881
51.57000 166.160
51.58000 164.411
51.59000 161.931
51.60000 160.317
51.61000 163.815
51.62000 168.151
51.63000 171.354
51.64000 170.190
51.65000 168.594
51.66000 167.426
51.67000 168.211
51.68000 168.895
51.69000 169.010
51.70000 168.125
51.71000 167.222
51.72000 166.168
51.73000 164.940
51.74000 163.714
51.75000 163.612
51.76000 164.348
51.77000 165.044
51.78000 164.302
51.79000 162.836
51.80000 161.480
51.81000 161.816
51.82000 162.730
51.83000 163.564
51.84000 162.630
51.85000 161.442
51.86000 160.291
51.87000 159.331
51.88000 158.398
51.89000 158.133
51.90000 160.202
51.91000 162.472
51.92000 164.086
51.93000 162.055
51.94000 160.392
51.95000 158.550
51.96000 156.424
51.97000 154.294
51.98000 154.943
51.99000 158.505
52.00000 162.049
52.01000 161.245
52.02000 157.528
52.03000 153.970
52.04000 154.967
52.05000 158.050
52.06000 161.043
52.07000 162.831
52.08000 164.244
52.09000 165.519
52.10000 164.537
52.11000 163.267
52.12000 161.943
52.13000 160.361
52.14000 158.745
52.15000 156.969
52.16000 154.685
52.17000 152.364
52.18000 150.762
52.19000 156.794
52.20000 161.520
52.21000 164.057
52.22000 163.424
52.23000 162.764
52.24000 163.132
52.25000 164.465
52.26000 165.786
52.27000 163.192
52.28000 158.273
52.29000 153.637
52.30000 155.537
52.31000 160.165
52.32000 164.381
52.33000 163.901
52.34000 162.096
52.35000 160.492
52.36000 161.591
52.37000 162.980
52.38000 163.322
52.39000 159.144
52.40000 154.444
52.41000 151.895
52.42000 155.562
52.43000 159.622
52.44000 162.334
52.45000 169.500
52.46000 174.898
52.47000 175.075
52.48000 168.404
52.49000 161.710
52.50000 159.597
52.51000 161.359
52.52000 163.100
52.53000 163.186
52.54000 162.363
52.55000 161.419
52.56000 158.195
52.57000 154.102
52.58000 150.670
52.59000 153.777
52.60000 158.560
52.61000 162.746
52.62000 165.875
52.63000 168.406
52.64000 169.878
52.65000 167.210
52.66000 164.123
52.67000 161.147
52.68000 158.462
52.69000 155.792
52.70000 154.069
52.71000 156.133
52.72000 157.696
52.73000 158.820
52.74000 159.424
52.75000 160.026
52.76000 160.310
52.77000 160.351
52.78000 160.392
52.79000 157.330
52.80000 152.837
52.81000 148.775
52.82000 151.550
52.83000 156.693
52.84000 161.165
52.85000 159.790
52.86000 157.058
52.87000 154.705
52.88000 154.482
52.89000 154.563
52.90000 155.297
52.91000 158.354
52.92000 161.616
52.93000 162.782
52.94000 158.920
52.95000 154.838
52.96000 152.300
52.97000 155.856
52.98000 158.477
52.99000 160.738
53.00000 162.614
53.01000 164.466
53.02000 163.331
53.03000 160.130
53.04000 157.001
53.05000 157.230
53.06000 158.947
53.07000 160.705
53.08000 163.033
53.09000 165.541
53.10000 167.665
53.11000 166.843
53.12000 165.403
53.13000 164.185
53.14000 156.171
53.15000 148.708
53.16000 143.876
53.17000 147.533
53.18000 151.836
53.19000 154.780
53.20000 154.756
53.21000 154.627
53.22000 154.550
53.23000 162.081
53.24000 167.470
53.25000 166.214
53.26000 158.602
53.27000 151.057
53.28000 148.802
53.29000 149.865
53.30000 150.897
53.31000 150.802
53.32000 150.259
53.33000 149.707
53.34000 149.051
53.35000 148.365
53.36000 147.871
53.37000 148.696
53.38000 149.771
53.39000 150.663
53.40000 150.596
53.41000 150.447
53.42000 150.421
53.43000 150.757
53.44000 151.117
53.45000 151.108
53.46000 150.366
53.47000 149.604
53.48000 149.167
53.49000 157.749
53.50000 163.768
53.51000 165.224
53.52000 162.754
53.53000 160.350
53.54000 161.560
53.55000 164.830
53.56000 167.984
53.57000 163.564
53.58000 156.655
53.59000 150.161
53.60000 147.869
53.61000 146.670
53.62000 145.663
53.63000 145.822
53.64000 146.181
53.65000 146.472
53.66000 150.761
53.67000 154.603
53.68000 157.592
53.69000 158.305
53.70000 158.893
53.71000 159.620
53.72000 160.601
53.73000 161.586
53.74000 162.125
53.75000 159.527
53.76000 157.737
53.77000 156.021
53.78000 154.363
53.79000 152.711
53.80000 151.286
53.81000 149.978
53.82000 148.728
53.83000 152.458
53.84000 157.563
53.85000 162.062
53.86000 161.169
53.87000 159.005
53.88000 157.060
53.89000 156.311
53.90000 155.744
53.91000 155.292
53.92000 152.983
53.93000 150.985
53.94000 150.624
53.95000 154.250
53.96000 158.056
53.97000 158.433
53.98000 153.161
53.99000 147.806
54.00000 145.019
54.01000 152.881
54.02000 158.145
54.03000 156.531
54.04000 150.083
54.05000 143.805
54.06000 142.718
54.07000 144.084
54.08000 145.379
54.09000 146.471
54.10000 147.417
54.11000 148.663
54.12000 152.262
54.13000 156.362
54.14000 158.724
54.15000 152.502
54.16000 145.119
54.17000 139.365
54.18000 151.333
54.19000 161.969
54.20000 167.671
54.21000 162.420
54.22000 156.770
54.23000 153.464
54.24000 153.666
54.25000 153.901
54.26000 152.580
54.27000 149.744
54.28000 146.981
54.29000 150.226
54.30000 157.297
54.31000 163.983
54.32000 161.175
54.33000 154.282
54.34000 147.810
54.35000 145.299
54.36000 144.062
54.37000 143.200
54.38000 144.961
54.39000 147.226
54.40000 149.883
54.41000 154.285
54.42000 158.896
54.43000 162.404
54.44000 159.598
54.45000 157.059
54.46000 154.814
54.47000 153.160
54.48000 151.523
54.49000 149.619
54.50000 147.352
54.51000 145.084
54.52000 145.214
54.53000 147.437
54.54000 149.680
54.55000 153.114
54.56000 157.237
54.57000 161.307
54.58000 164.324
54.59000 166.928
54.60000 169.347
54.61000 163.031
54.62000 155.250
54.63000 148.674
54.64000 149.598
54.65000 151.819
54.66000 153.770
54.67000 154.635
54.68000 155.384
54.69000 155.940
54.70000 160.126
54.71000 163.535
54.72000 164.444
54.73000 160.754
54.74000 156.965
54.75000 155.176
54.76000 155.838
54.77000 156.505
54.78000 154.614
54.79000 150.724
54.80000 146.959
54.81000 148.418
54.82000 152.629
54.83000 156.640
54.84000 157.293
54.85000 156.747
54.86000 156.246
54.87000 155.849
54.88000 155.518
54.89000 155.545
54.90000 157.579
54.91000 159.923
54.92000 162.162
54.93000 164.018
54.94000 165.838
54.95000 167.151
54.96000 169.365
54.97000 171.095
54.98000 170.085
54.99000 164.493
55.00000 158.830
55.01000 155.143
55.02000 153.636
55.03000 152.137
55.04000 153.681
55.05000 157.362
55.06000 161.044
55.07000 164.767
55.08000 168.510
55.09000 171.754
55.10000 167.892
55.11000 161.720
55.12000 156.124
55.13000 161.123
55.14000 167.561
55.15000 171.711
55.16000 164.373
55.17000 155.450
55.18000 150.308
55.19000 157.745
55.20000 166.186
55.21000 172.098
55.22000 172.696
55.23000 172.997
55.24000 170.336
55.25000 163.178
55.26000 155.972
55.27000 154.329
55.28000 158.197
55.29000 162.039
55.30000 167.336
55.31000 173.479
55.32000 179.441
55.33000 180.764
55.34000 180.061
55.35000 179.479
55.36000 180.376
55.37000 181.709
55.38000 182.903
55.39000 184.464
55.40000 185.890
55.41000 187.640
55.42000 190.868
55.43000 194.276
55.44000 197.912
55.45000 202.237
55.46000 206.609
55.47000 209.577
55.48000 212.619
55.49000 214.889
55.50000 219.097
55.51000 225.972
55.52000 232.862
55.53000 237.522
55.54000 240.197
55.55000 242.844
55.56000 246.869
55.57000 251.598
55.58000 256.329
55.59000 261.096
55.60000 265.878
55.61000 270.471
55.62000 273.071
55.63000 275.136
55.64000 276.956
55.65000 289.423
55.66000 301.785
55.67000 313.459
55.68000 322.309
55.69000 330.856
55.70000 339.649
55.71000 349.123
55.72000 358.637
55.73000 364.882
55.74000 367.210
55.75000 368.858
55.76000 370.752
55.77000 372.954
55.78000 375.173
55.79000 383.247
55.80000 396.017
55.81000 408.600
55.82000 411.721
55.83000 409.841
55.84000 407.677
55.85000 400.611
55.86000 391.767
55.87000 384.857
55.88000 395.857
55.89000 411.218
55.90000 424.551
55.91000 406.310
55.92000 386.529
55.93000 371.080
55.94000 371.747
55.95000 373.935
55.96000 374.089
55.97000 369.139
55.98000 363.943
55.99000 360.653
56.00000 362.054
56.01000 363.126
56.02000 360.313
56.03000 353.138
56.04000 345.966
56.05000 339.804
56.06000 334.375
56.07000 329.053
56.08000 323.109
56.09000 317.096
56.10000 311.182
56.11000 306.717
56.12000 302.729
56.13000 298.670
56.14000 294.027
56.15000 289.256
56.16000 285.184
56.17000 284.497
56.18000 284.320
56.19000 280.731
56.20000 265.619
56.21000 249.564
56.22000 238.143
56.23000 237.321
56.24000 236.915
56.25000 236.667
56.26000 233.873
56.27000 231.856
56.28000 228.258
56.29000 223.067
56.30000 217.883
56.31000 213.314
56.32000 209.150
56.33000 205.093
56.34000 204.310
56.35000 204.947
56.36000 205.254
56.37000 201.418
56.38000 196.338
56.39000 191.657
56.40000 189.860
56.41000 188.637
56.42000 187.612
56.43000 186.350
56.44000 185.277
56.45000 185.000
56.46000 187.173
56.47000 189.518
56.48000 188.275
56.49000 179.557
56.50000 170.606
56.51000 165.371
56.52000 165.475
56.53000 165.573
56.54000 163.318
56.55000 158.933
56.56000 154.606
56.57000 153.971
56.58000 155.541
56.59000 157.060
56.60000 158.394
56.61000 159.584
56.62000 160.720
56.63000 161.269
56.64000 161.659
56.65000 162.062
56.66000 162.553
56.67000 163.060
56.68000 163.477
56.69000 157.185
56.70000 151.408
56.71000 147.062
56.72000 146.723
56.73000 146.621
56.74000 146.465
56.75000 146.205
56.76000 145.943
56.77000 145.797
56.78000 148.572
56.79000 150.499
56.80000 151.374
56.81000 151.391
56.82000 151.369
56.83000 149.539
56.84000 146.727
56.85000 144.027
56.86000 146.276
56.87000 150.085
56.88000 153.202
56.89000 149.768
56.90000 144.713
56.91000 140.492
56.92000 141.090
56.93000 142.461
56.94000 143.565
56.95000 147.368
56.96000 150.666
56.97000 152.709
56.98000 151.552
56.99000 150.237
57.00000 148.814
57.01000 147.205
57.02000 145.592
57.03000 144.732
57.04000 146.115
57.05000 147.046
57.06000 145.612
57.07000 142.436
57.08000 139.364
57.09000 139.882
57.10000 142.174
57.11000 144.358
57.12000 144.466
57.13000 143.921
57.14000 143.327
57.15000 142.312
57.16000 141.204
57.17000 140.586
57.18000 142.514
57.19000 144.807
57.20000 146.615
57.21000 141.476
57.22000 136.890
57.23000 134.658
57.24000 137.893
57.25000 141.350
57.26000 143.741
57.27000 144.462
57.28000 145.163
57.29000 145.518
57.30000 140.714
57.31000 137.537
57.32000 138.475
57.33000 142.160
57.34000 145.614
57.35000 142.761
57.36000 137.068
57.37000 131.697
57.38000 135.933
57.39000 142.501
57.40000 148.229
57.41000 147.756
57.42000 146.028
57.43000 144.849
57.44000 146.237
57.45000 147.952
57.46000 149.272
57.47000 150.177
57.48000 150.869
57.49000 151.030
57.50000 150.067
57.51000 149.068
57.52000 148.317
57.53000 147.918
57.54000 147.521
57.55000 146.231
57.56000 144.119
57.57000 142.052
57.58000 142.979
57.59000 145.722
57.60000 148.263
57.61000 146.335
57.62000 142.575
57.63000 139.062
57.64000 137.824
57.65000 137.272
57.66000 137.332
57.67000 141.410
57.68000 146.220
57.69000 149.770
57.70000 147.983
57.71000 145.596
57.72000 143.804
57.73000 143.524
57.74000 143.377
57.75000 143.309
57.76000 143.392
57.77000 143.479
57.78000 143.246
57.79000 142.601
57.80000 141.956
57.81000 140.034
57.82000 137.063
57.83000 134.158
57.84000 134.448
57.85000 136.499
57.86000 138.399
57.87000 137.535
57.88000 135.640
57.89000 133.889
57.90000 140.978
57.91000 149.332
57.92000 156.351
57.93000 155.525
57.94000 153.418
57.95000 150.373
57.96000 143.731
57.97000 136.734
57.98000 131.619
57.99000 133.403
58.00000 135.051
58.01000 136.286
58.02000 136.793
58.03000 137.288
58.04000 138.415
58.05000 140.278
58.06000 142.137
58.07000 139.888
58.08000 134.600
58.09000 129.456
58.10000 129.499
58.11000 132.147
58.12000 134.959
58.13000 140.313
58.14000 146.533
58.15000 152.208
58.16000 146.874
58.17000 139.919
58.18000 134.328
58.19000 135.944
58.20000 138.612
58.21000 140.968
58.22000 142.239
58.23000 143.417
58.24000 144.254
58.25000 150.826
58.26000 156.012
58.27000 157.420
58.28000 152.814
58.29000 148.131
58.30000 143.577
58.31000 139.158
58.32000 134.762
58.33000 136.052
58.34000 141.136
58.35000 145.978
58.36000 143.922
58.37000 138.713
58.38000 133.842
58.39000 133.391
58.40000 134.308
58.41000 135.134
58.42000 136.542
58.43000 137.882
58.44000 139.766
58.45000 144.240
58.46000 149.050
58.47000 152.007
58.48000 149.094
58.49000 145.748
58.50000 143.441
58.51000 141.537
58.52000 140.117
58.53000 138.335
58.54000 136.030
58.55000 133.721
58.56000 131.619
58.57000 129.712
58.58000 127.821
58.59000 130.496
58.60000 135.880
58.61000 140.991
58.62000 139.879
58.63000 136.175
58.64000 132.847
58.65000 133.767
58.66000 135.883
58.67000 137.762
58.68000 138.421
58.69000 138.796
58.70000 139.574
58.71000 142.087
58.72000 144.798
58.73000 146.355
58.74000 144.582
58.75000 142.599
58.76000 141.276
58.77000 140.070
58.78000 139.179
58.79000 137.344
58.80000 134.274
58.81000 131.204
58.82000 131.591
58.83000 134.891
58.84000 138.151
58.85000 140.537
58.86000 142.386
58.87000 144.100
58.88000 143.282
58.89000 141.504
58.90000 139.690
58.91000 137.515
58.92000 135.249
58.93000 133.267
58.94000 132.053
58.95000 131.122
58.96000 130.696
58.97000 132.244
58.98000 133.990
58.99000 136.197
59.00000 139.613
59.01000 143.092
59.02000 145.335
59.03000 137.605
59.04000 131.818
59.05000 128.096
59.06000 126.814
59.07000 125.540
59.08000 125.274
59.09000 125.774
59.10000 126.266
59.11000 127.391
59.12000 128.789
59.13000 130.176
59.14000 131.381
59.15000 132.523
59.16000 133.466
59.17000 132.679
59.18000 131.491
59.19000 130.469
59.20000 132.275
59.21000 134.161
59.22000 135.288
59.23000 133.733
59.24000 131.943
59.25000 129.765
59.26000 126.661
59.27000 123.516
59.28000 121.563
59.29000 125.295
59.30000 128.038
59.31000 130.838
59.32000 133.698
59.33000 136.536
59.34000 136.625
59.35000 134.818
59.36000 133.052
59.37000 133.270
59.38000 134.360
59.39000 135.240
59.40000 133.287
59.41000 130.444
59.42000 127.555
59.43000 124.314
59.44000 121.000
59.45000 118.197
59.46000 125.373
59.47000 132.483
59.48000 138.628
59.49000 141.670
59.50000 144.477
59.51000 144.906
59.52000 140.152
59.53000 135.217
59.54000 132.271
59.55000 129.650
59.56000 127.794
59.57000 127.486
59.58000 128.656
59.59000 129.826
59.60000 131.061
59.61000 132.338
59.62000 133.578
59.63000 133.972
59.64000 134.006
59.65000 133.897
59.66000 132.115
59.67000 129.855
59.68000 128.528
59.69000 133.554
59.70000 139.777
59.71000 144.943
59.72000 145.753
59.73000 146.001
59.74000 144.742
59.75000 139.071
59.76000 133.115
59.77000 129.928
59.78000 132.237
59.79000 134.696
59.80000 136.103
59.81000 134.503
59.82000 133.379
59.83000 134.151
59.84000 136.549
59.85000 138.860
59.86000 136.532
59.87000 131.567
59.88000 126.781
59.89000 125.679
59.90000 125.976
59.91000 126.798
59.92000 132.908
59.93000 140.389
59.94000 146.482
59.95000 144.114
59.96000 140.314
59.97000 137.222
59.98000 135.815
59.99000 134.808
60.00000 134.340
60.01000 135.310
60.02000 136.358
60.03000 135.451
60.04000 131.009
60.05000 126.494
60.06000 124.029
60.07000 130.957
60.08000 135.703
60.09000 133.788
60.10000 126.718
60.11000 119.831
60.12000 120.154
60.13000 124.207
60.14000 128.083
60.15000 130.724
60.16000 132.779
60.17000 134.365
60.18000 131.789
60.19000 128.235
60.20000 125.303
60.21000 125.769
60.22000 126.750
60.23000 127.532
60.24000 126.512
60.25000 125.559
60.26000 125.732
60.27000 128.642
60.28000 131.675
60.29000 133.644
60.30000 133.867
60.31000 134.063
60.32000 134.166
60.33000 132.114
60.34000 130.725
60.35000 129.027
60.36000 127.112
60.37000 125.251
60.38000 125.057
60.39000 125.649
60.40000 126.209
60.41000 127.369
60.42000 128.614
60.43000 130.017
60.44000 132.656
60.45000 135.558
60.46000 137.461
60.47000 134.444
60.48000 130.764
60.49000 127.898
60.50000 129.533
60.51000 131.114
60.52000 132.725
60.53000 134.404
60.54000 136.085
60.55000 136.114
60.56000 133.681
60.57000 131.225
60.58000 131.190
60.59000 133.505
60.60000 135.793
60.61000 135.924
60.62000 134.684
60.63000 133.463
60.64000 132.706
60.65000 132.150
60.66000 131.627
60.67000 134.285
60.68000 137.550
60.69000 140.104
60.70000 137.719
60.71000 134.387
60.72000 131.415
60.73000 130.045
60.74000 128.865
60.75000 127.969
60.76000 135.203
60.77000 141.316
60.78000 144.702
60.79000 142.591
60.80000 140.323
60.81000 136.859
60.82000 131.779
60.83000 126.692
60.84000 124.384
60.85000 124.497
60.86000 124.635
60.87000 126.227
60.88000 128.658
60.89000 131.117
60.90000 134.131
60.91000 137.362
60.92000 140.363
60.93000 140.796
60.94000 140.576
60.95000 140.400
60.96000 140.497
60.97000 140.640
60.98000 139.780
60.99000 134.882
61.00000 129.559
61.01000 125.615
61.02000 125.054
61.03000 124.766
61.04000 126.020
61.05000 130.104
61.06000 134.250
61.07000 138.352
61.08000 142.399
61.09000 146.439
61.10000 145.084
61.11000 139.513
61.12000 134.123
61.13000 136.200
61.14000 142.200
61.15000 147.867
61.16000 147.991
61.17000 146.140
61.18000 144.441
61.19000 140.909
61.20000 137.368
61.21000 134.572
61.22000 135.919
61.23000 137.904
61.24000 139.061
61.25000 137.189
61.26000 135.040
61.27000 133.491
61.28000 130.215
61.29000 127.643
61.30000 128.398
61.31000 134.702
61.32000 141.092
61.33000 143.513
61.34000 141.570
61.35000 139.632
61.36000 138.063
61.37000 136.769
61.38000 135.469
61.39000 133.982
61.40000 132.406
61.41000 131.228
61.42000 135.684
61.43000 141.966
61.44000 147.661
61.45000 146.945
61.46000 145.092
61.47000 144.582
61.48000 150.798
61.49000 157.939
61.50000 165.382
61.51000 173.831
61.52000 182.360
61.53000 188.329
61.54000 208.662
61.55000 224.442
61.56000 240.013
61.57000 255.266
61.58000 270.517
61.59000 286.767
61.60000 304.005
61.61000 321.124
61.62000 330.065
61.63000 333.672
61.64000 337.402
61.65000 344.246
61.66000 352.446
61.67000 360.083
61.68000 360.886
61.69000 359.673
61.70000 358.589
61.71000 359.582
61.72000 360.802
61.73000 361.435
61.74000 359.419
61.75000 357.080
61.76000 351.116
61.77000 334.214
61.78000 316.568
61.79000 304.601
61.80000 272.529
61.81000 248.168
61.82000 228.159
61.83000 214.125
61.84000 200.128
61.85000 185.409
61.86000 170.050
61.87000 154.851
61.88000 151.841
61.89000 155.884
61.90000 159.752
61.91000 160.027
61.92000 158.876
61.93000 157.915
61.94000 158.964
61.95000 160.551
61.96000 161.950
61.97000 157.188
61.98000 152.153
61.99000 148.378
62.00000 149.754
62.01000 151.684
62.02000 151.981
62.03000 147.794
62.04000 143.349
62.05000 140.434
62.06000 142.839
62.07000 144.696
62.08000 146.396
62.09000 147.900
62.10000 149.398
62.11000 149.454
62.12000 148.355
62.13000 147.272
62.14000 146.659
62.15000 146.307
62.16000 145.853
62.17000 143.655
62.18000 140.827
62.19000 138.499
62.20000 140.790
62.21000 144.203
62.22000 147.164
62.23000 146.902
62.24000 146.247
62.25000 145.354
62.26000 143.573
62.27000 141.708
62.28000 139.924
62.29000 138.343
62.30000 136.771
62.31000 135.776
62.32000 138.522
62.33000 140.556
62.34000 141.798
62.35000 142.153
62.36000 142.505
62.37000 142.584
62.38000 142.466
62.39000 142.350
62.40000 145.936
62.41000 151.114
62.42000 155.920
62.43000 155.312
62.44000 152.921
62.45000 150.340
62.46000 146.204
62.47000 141.727
62.48000 137.907
62.49000 141.002
62.50000 144.421
62.51000 145.978
62.52000 141.260
62.53000 136.031
62.54000 134.173
62.55000 140.000
62.56000 146.127
62.57000 149.856
62.58000 151.730
62.59000 153.054
62.60000 151.849
62.61000 148.102
62.62000 144.398
62.63000 144.759
62.64000 147.786
62.65000 150.735
62.66000 149.884
62.67000 147.471
62.68000 145.044
62.69000 142.451
62.70000 139.808
62.71000 137.559
62.72000 138.161
62.73000 139.327
62.74000 140.304
62.75000 137.692
62.76000 135.150
62.77000 134.653
62.78000 140.426
62.79000 146.637
62.80000 150.744
62.81000 150.480
62.82000 150.081
62.83000 149.848
62.84000 150.367
62.85000 150.735
62.86000 150.253
62.87000 149.006
62.88000 147.752
62.89000 146.063
62.90000 144.115
62.91000 142.230
62.92000 145.857
62.93000 151.380
62.94000 156.219
62.95000 153.672
62.96000 149.116
62.97000 145.324
62.98000 146.446
62.99000 148.445
63.00000 150.088
63.01000 150.326
63.02000 150.394
63.03000 150.862
63.04000 152.444
63.05000 154.093
63.06000 153.567
63.07000 148.928
63.08000 144.192
63.09000 141.546
63.10000 144.636
63.11000 146.786
63.12000 147.982
63.13000 148.402
63.14000 148.844
63.15000 150.328
63.16000 152.376
63.17000 154.343
63.18000 152.400
63.19000 149.239
63.20000 146.335
63.21000 145.845
63.22000 145.951
63.23000 146.795
63.24000 151.892
63.25000 157.670
63.26000 162.322
63.27000 160.866
63.28000 159.209
63.29000 157.569
63.30000 155.973
63.31000 154.378
63.32000 152.502
63.33000 150.141
63.34000 147.772
63.35000 146.510
63.36000 151.221
63.37000 154.434
63.38000 157.614
63.39000 160.771
63.40000 163.903
63.41000 166.148
63.42000 167.956
63.43000 169.677
63.44000 163.197
63.45000 154.657
63.46000 147.419
63.47000 150.987
63.48000 156.968
63.49000 162.176
63.50000 163.383
63.51000 164.020
63.52000 164.521
63.53000 157.915
63.54000 152.145
63.55000 147.788
63.56000 146.701
63.57000 145.745
63.58000 147.423
63.59000 153.216
63.60000 159.058
63.61000 162.012
63.62000 163.273
63.63000 164.122
63.64000 165.504
63.65000 167.242
63.66000 168.974
63.67000 170.575
63.68000 172.116
63.69000 173.570
63.70000 165.015
63.71000 154.386
63.72000 145.403
63.73000 148.516
63.74000 154.068
63.75000 157.863
63.76000 153.460
63.77000 148.016
63.78000 143.828
63.79000 149.474
63.80000 154.499
63.81000 157.741
63.82000 157.225
63.83000 156.588
63.84000 154.842
63.85000 151.523
63.86000 148.193
63.87000 148.553
63.88000 152.296
63.89000 156.026
63.90000 158.925
63.91000 161.321
63.92000 163.649
63.93000 164.481
63.94000 164.701
63.95000 164.907
63.96000 162.557
63.97000 159.787
63.98000 158.031
63.99000 162.921
64.00000 169.017
64.01000 172.647
64.02000 165.858
64.03000 157.904
64.04000 151.935
64.05000 158.297
64.06000 163.852
64.07000 167.477
64.08000 167.395
64.09000 167.221
64.10000 165.057
64.11000 160.342
64.12000 155.622
64.13000 156.023
64.14000 160.643
64.15000 165.166
64.16000 165.101
64.17000 162.514
64.18000 159.979
64.19000 158.395
64.20000 157.166
64.21000 156.031
64.22000 156.373
64.23000 157.011
64.24000 158.365
64.25000 163.915
64.26000 170.149
64.27000 175.030
64.28000 174.739
64.29000 173.940
64.30000 173.356
64.31000 169.131
64.32000 165.730
64.33000 164.561
64.34000 167.289
64.35000 170.088
64.36000 170.333
64.37000 167.622
64.38000 164.914
64.39000 164.057
64.40000 164.578
64.41000 165.093
64.42000 165.380
64.43000 165.551
64.44000 165.865
64.45000 168.351
64.46000 171.575
64.47000 174.516
64.48000 173.295
64.49000 171.376
64.50000 169.653
64.51000 168.969
64.52000 168.436
64.53000 168.526
64.54000 170.782
64.55000 173.222
64.56000 174.955
64.57000 176.967
64.58000 178.507
64.59000 179.245
64.60000 178.709
64.61000 178.156
64.62000 180.820
64.63000 186.832
64.64000 192.811
64.65000 193.075
64.66000 189.517
64.67000 186.069
64.68000 185.736
64.69000 186.821
64.70000 187.775
64.71000 187.010
64.72000 185.714
64.73000 184.547
64.74000 186.842
64.75000 189.477
64.76000 192.075
64.77000 194.503
64.78000 196.910
64.79000 197.738
64.80000 193.583
64.81000 189.062
64.82000 185.949
64.83000 188.092
64.84000 189.834
64.85000 191.032
64.86000 191.449
64.87000 191.860
64.88000 193.702
64.89000 196.881
64.90000 200.033
64.91000 202.429
64.92000 204.326
64.93000 206.235
64.94000 208.441
64.95000 210.769
64.96000 213.111
64.97000 215.593
64.98000 218.116
64.99000 220.355
65.00000 220.935
65.01000 221.173
65.02000 220.660
65.03000 216.928
65.04000 212.829
65.05000 212.058
65.06000 220.861
65.07000 230.262
65.08000 236.530
65.09000 241.455
65.10000 245.076
65.11000 246.565
65.12000 245.272
65.13000 243.969
65.14000 243.887
65.15000 244.830
65.16000 245.762
65.17000 251.930
65.18000 260.785
65.19000 269.478
65.20000 275.143
65.21000 279.661
65.22000 284.155
65.23000 288.397
65.24000 292.575
65.25000 296.229
65.26000 294.560
65.27000 292.376
65.28000 292.000
65.29000 298.657
65.30000 306.019
65.31000 312.188
65.32000 315.230
65.33000 318.109
65.34000 319.962
65.35000 314.798
65.36000 310.929
65.37000 313.535
65.38000 323.764
65.39000 333.990
65.40000 341.048
65.41000 345.699
65.42000 350.270
65.43000 349.154
65.44000 345.285
65.45000 341.764
65.46000 343.733
65.47000 347.593
65.48000 351.362
65.49000 354.347
65.50000 357.151
65.51000 359.564
65.52000 370.682
65.53000 381.186
65.54000 389.610
65.55000 390.689
65.56000 391.127
65.57000 393.077
65.58000 398.634
65.59000 404.347
65.60000 407.891
65.61000 426.574
65.62000 440.163
65.63000 455.546
65.64000 472.830
65.65000 490.174
65.66000 514.744
65.67000 544.280
65.68000 573.140
65.69000 625.296
65.70000 685.576
65.71000 747.223
65.72000 827.189
65.73000 912.897
65.74000 997.764
65.75000 1076.200
65.76000 1153.297
65.77000 1218.465
65.78000 1307.331
65.79000 1384.277
65.80000 1450.992
65.81000 1484.885
65.82000 1516.306
65.83000 1545.316
65.84000 1569.086
65.85000 1592.675
65.86000 1606.737
65.87000 1619.527
65.88000 1628.583
65.89000 1623.982
65.90000 1606.406
65.91000 1588.612
65.92000 1554.329
65.93000 1509.762
65.94000 1466.491
65.95000 1387.431
65.96000 1298.077
65.97000 1208.047
65.98000 1110.202
65.99000 1010.130
66.00000 911.636
66.01000 823.861
66.02000 738.099
66.03000 666.946
66.04000 616.967
66.05000 577.706
66.06000 539.423
66.07000 503.996
66.08000 468.752
66.09000 440.072
66.10000 424.385
66.11000 409.050
66.12000 400.292
66.13000 389.372
66.14000 381.750
66.15000 377.381
66.16000 375.793
66.17000 374.214
66.18000 373.142
66.19000 372.357
66.20000 371.601
66.21000 375.201
66.22000 380.156
66.23000 385.552
66.24000 395.373
66.25000 406.338
66.26000 417.434
66.27000 429.327
66.28000 441.354
66.29000 451.135
66.30000 469.409
66.31000 485.038
66.32000 502.113
66.33000 523.036
66.34000 544.165
66.35000 562.180
66.36000 574.584
66.37000 586.874
66.38000 593.576
66.39000 587.074
66.40000 582.622
66.41000 585.674
66.42000 594.515
66.43000 603.162
66.44000 604.191
66.45000 601.291
66.46000 598.518
66.47000 585.312
66.48000 569.627
66.49000 554.281
66.50000 541.931
66.51000 530.282
66.52000 516.055
66.53000 487.773
66.54000 457.371
66.55000 433.167
66.56000 423.151
66.57000 416.098
66.58000 410.491
66.59000 408.385
66.60000 406.435
66.61000 402.147
66.62000 394.031
66.63000 385.860
66.64000 381.621
66.65000 389.000
66.66000 393.923
66.67000 390.923
66.68000 382.390
66.69000 374.018
66.70000 370.550
66.71000 369.386
66.72000 368.282
66.73000 370.502
66.74000 373.523
66.75000 375.760
66.76000 371.898
66.77000 366.744
66.78000 363.045
66.79000 366.490
66.80000 370.896
66.81000 374.324
66.82000 377.342
66.83000 379.719
66.84000 380.766
66.85000 378.875
66.86000 376.878
66.87000 380.310
66.88000 391.815
66.89000 403.394
66.90000 408.314
66.91000 406.795
66.92000 405.257
66.93000 402.276
66.94000 398.380
66.95000 394.612
66.96000 393.934
66.97000 394.578
66.98000 395.182
66.99000 395.981
67.00000 396.761
67.01000 398.614
67.02000 407.892
67.03000 418.588
67.04000 426.397
67.05000 421.405
67.06000 414.888
67.07000 409.939
67.08000 408.250
67.09000 407.092
67.10000 410.265
67.11000 422.141
67.12000 434.263
67.13000 441.540
67.14000 442.291
67.15000 443.007
67.16000 438.556
67.17000 429.630
67.18000 420.894
67.19000 422.703
67.20000 430.581
67.21000 438.520
67.22000 447.662
67.23000 457.272
67.24000 466.194
67.25000 471.864
67.26000 476.205
67.27000 478.232
67.28000 465.951
67.29000 451.213
67.30000 439.429
67.31000 439.500
67.32000 440.813
67.33000 441.785
67.34000 455.501
67.35000 466.694
67.36000 472.875
67.37000 469.886
67.38000 466.702
67.39000 467.920
67.40000 474.494
67.41000 481.068
67.42000 483.777
67.43000 483.456
67.44000 483.197
67.45000 485.510
67.46000 489.170
67.47000 492.843
67.48000 496.723
67.49000 500.676
67.50000 504.304
67.51000 503.010
67.52000 500.812
67.53000 498.910
67.54000 498.656
67.55000 498.654
67.56000 499.432
67.57000 503.048
67.58000 506.924
67.59000 509.714
67.60000 524.275
67.61000 535.842
67.62000 541.568
67.63000 537.576
67.64000 533.436
67.65000 526.973
67.66000 517.964
67.67000 508.990
67.68000 515.406
67.69000 532.571
67.70000 549.395
67.71000 555.442
67.72000 556.351
67.73000 557.376
67.74000 560.051
67.75000 563.259
67.76000 566.167
67.77000 562.305
67.78000 557.615
67.79000 554.305
67.80000 557.888
67.81000 562.414
67.82000 567.072
67.83000 572.162
67.84000 577.287
67.85000 580.870
67.86000 583.238
67.87000 584.993
67.88000 589.545
67.89000 598.320
67.90000 607.137
67.91000 615.272
67.92000 622.734
67.93000 630.144
67.94000 630.093
67.95000 625.318
67.96000 620.789
67.97000 622.445
67.98000 626.788
67.99000 631.708
68.00000 643.607
68.01000 657.559
68.02000 670.030
68.03000 666.217
68.04000 660.136
68.05000 656.363
68.06000 662.993
68.07000 670.885
68.08000 676.832
68.09000 676.921
68.10000 676.614
68.11000 676.406
68.12000 684.216
68.13000 690.214
68.14000 691.812
68.15000 687.388
68.16000 682.933
68.17000 683.213
68.18000 687.681
68.19000 692.101
68.20000 700.518
68.21000 711.030
68.22000 721.402
68.23000 728.894
68.24000 735.247
68.25000 741.957
68.26000 752.414
68.27000 763.871
68.28000 773.963
68.29000 780.106
68.30000 784.803
68.31000 788.899
68.32000 790.547
68.33000 791.932
68.34000 794.489
68.35000 800.257
68.36000 806.208
68.37000 810.107
68.38000 822.941
68.39000 832.522
68.40000 842.177
68.41000 851.921
68.42000 861.667
68.43000 871.736
68.44000 882.063
68.45000 892.235
68.46000 910.104
68.47000 931.406
68.48000 952.087
68.49000 962.151
68.50000 968.389
68.51000 975.789
68.52000 993.883
68.53000 1014.564
68.54000 1032.496
68.55000 1060.052
68.56000 1084.797
68.57000 1113.766
68.58000 1158.356
68.59000 1204.407
68.60000 1252.970
68.61000 1307.800
68.62000 1362.929
68.63000 1397.765
68.64000 1491.999
68.65000 1560.981
68.66000 1632.418
68.67000 1706.593
68.68000 1780.803
68.69000 1860.227
68.70000 1943.411
68.71000 2024.923
68.72000 2110.772
68.73000 2195.374
68.74000 2279.913
68.75000 2363.547
68.76000 2446.883
68.77000 2532.568
68.78000 2637.294
68.79000 2746.190
68.80000 2839.034
68.81000 3004.753
68.82000 3152.740
68.83000 3312.108
68.84000 3509.712
68.85000 3710.414
68.86000 3954.407
68.87000 4296.847
68.88000 4643.093
68.89000 4853.610
68.90000 5978.783
68.91000 6789.283
68.92000 8269.811
68.93000 10421.435
68.94000 12589.608
68.95000 16294.388
68.96000 21003.535
68.97000 25590.369
68.98000 31957.197
68.99000 38775.598
69.00000 45599.047
69.01000 52485.023
69.02000 59389.664
69.03000 66059.016
69.04000 71037.148
69.05000 75681.047
69.06000 79569.492
69.07000 81802.867
69.08000 83489.000
69.09000 84922.781
69.10000 85585.500
69.11000 86194.633
69.12000 86826.016
69.13000 87503.469
69.14000 88182.336
69.15000 88578.336
69.16000 89847.617
69.17000 90743.430
69.18000 90587.273
69.19000 89485.023
69.20000 88355.016
69.21000 85495.078
69.22000 81608.250
69.23000 77848.141
69.24000 73585.828
69.25000 69369.672
69.26000 65166.379
69.27000 61101.305
69.28000 57073.711
69.29000 53244.828
69.30000 50689.605
69.31000 48360.836
69.32000 46448.211
69.33000 45069.074
69.34000 43984.383
69.35000 42835.219
69.36000 41506.711
69.37000 40167.652
69.38000 38426.480
69.39000 35926.910
69.40000 33409.531
69.41000 32005.049
69.42000 27053.969
69.43000 23620.146
69.44000 20404.615
69.45000 17366.020
69.46000 14340.313
69.47000 11895.003
69.48000 9763.009
69.49000 7716.258
69.50000 6308.845
69.51000 5211.398
69.52000 4164.877
69.53000 3596.308
69.54000 3145.284
69.55000 2730.939
69.56000 2527.170
69.57000 2356.961
69.58000 2220.024
69.59000 2089.781
69.60000 1984.657
69.61000 1880.538
69.62000 1778.964
69.63000 1677.515
69.64000 1594.110
69.65000 1541.663
69.66000 1489.747
69.67000 1462.141
69.68000 1405.483
69.69000 1366.870
69.70000 1323.266
69.71000 1276.004
69.72000 1229.200
69.73000 1198.060
69.74000 1174.617
69.75000 1152.302
69.76000 1126.227
69.77000 1100.927
69.78000 1076.210
69.79000 1056.311
69.80000 1037.484
69.81000 1019.848
69.82000 1008.354
69.83000 997.735
69.84000 989.378
69.85000 953.266
69.86000 922.493
69.87000 898.075
69.88000 888.327
69.89000 879.167
69.90000 872.261
69.91000 868.869
69.92000 865.518
69.93000 863.826
69.94000 851.820
69.95000 843.735
69.96000 830.151
69.97000 812.917
69.98000 795.783
69.99000 781.379
70.00000 768.197
