20.00000 543.000
20.01000 547.958
20.02000 553.625
20.03000 559.217
20.04000 564.518
20.05000 569.789
20.06000 573.662
20.07000 564.682
20.08000 557.213
20.09000 548.664
20.10000 538.191
20.11000 527.680
20.12000 526.029
20.13000 534.861
20.14000 543.689
20.15000 550.969
20.16000 557.030
20.17000 563.147
20.18000 571.414
20.19000 580.776
20.20000 588.857
20.21000 576.595
20.22000 557.293
20.23000 539.638
20.24000 542.856
20.25000 550.018
20.26000 556.177
20.27000 556.940
20.28000 556.898
20.29000 555.640
20.30000 550.071
20.31000 544.122
20.32000 539.872
20.33000 536.575
20.34000 534.090
20.35000 535.020
20.36000 541.484
20.37000 548.024
20.38000 550.813
20.39000 549.609
20.40000 548.409
20.41000 549.341
20.42000 551.719
20.43000 554.007
20.44000 553.655
20.45000 552.075
20.46000 550.673
20.47000 551.664
20.48000 553.410
20.49000 554.987
20.50000 559.095
20.51000 563.172
20.52000 565.114
20.53000 556.699
20.54000 546.910
20.55000 538.604
20.56000 535.079
20.57000 531.917
20.58000 529.724
20.59000 527.403
20.60000 525.652
20.61000 526.822
20.62000 532.285
20.63000 537.787
20.64000 543.716
20.65000 550.053
20.66000 556.340
20.67000 553.998
20.68000 546.383
20.69000 539.086
20.70000 539.320
20.71000 542.745
20.72000 545.509
20.73000 540.603
20.74000 533.500
20.75000 527.175
20.76000 532.936
20.77000 539.925
20.78000 545.495
20.79000 544.848
20.80000 543.471
20.81000 543.354
20.82000 546.935
20.83000 550.755
20.84000 553.320
20.85000 546.141
20.86000 540.612
20.87000 536.152
20.88000 533.115
20.89000 530.095
20.90000 533.956
20.91000 543.730
20.92000 553.389
20.93000 551.643
20.94000 543.604
20.95000 536.183
20.96000 540.835
20.97000 550.145
20.98000 558.335
20.99000 555.195
21.00000 549.109
21.01000 543.771
21.02000 545.233
21.03000 547.480
21.04000 548.786
21.05000 546.361
21.06000 543.550
21.07000 540.820
21.08000 538.304
21.09000 535.801
21.10000 534.176
21.11000 525.169
21.12000 518.462
21.13000 515.119
21.14000 515.824
21.15000 516.556
21.16000 521.844
21.17000 530.666
21.18000 539.345
21.19000 541.182
21.20000 539.530
21.21000 538.035
21.22000 539.098
21.23000 541.060
21.24000 542.395
21.25000 538.167
21.26000 532.628
21.27000 527.847
21.28000 534.310
21.29000 541.243
21.30000 546.222
21.31000 544.158
21.32000 541.460
21.33000 541.826
21.34000 549.652
21.35000 557.814
21.36000 562.919
21.37000 564.613
21.38000 565.799
21.39000 560.543
21.40000 548.306
21.41000 536.148
21.42000 534.938
21.43000 541.411
21.44000 547.744
21.45000 544.161
21.46000 536.232
21.47000 529.150
21.48000 533.799
21.49000 542.200
21.50000 549.586
21.51000 549.026
21.52000 546.772
21.53000 544.860
21.54000 542.333
21.55000 540.144
21.56000 538.154
21.57000 536.811
21.58000 535.520
21.59000 535.286
21.60000 537.396
21.61000 539.591
21.62000 540.912
21.63000 545.236
21.64000 548.331
21.65000 548.569
21.66000 546.027
21.67000 543.479
21.68000 540.366
21.69000 536.893
21.70000 533.516
21.71000 537.616
21.72000 544.571
21.73000 550.744
21.74000 547.598
21.75000 541.741
21.76000 537.732
21.77000 546.598
21.78000 557.936
21.79000 567.381
21.80000 567.571
21.81000 566.810
21.82000 569.362
21.83000 581.779
21.84000 594.851
21.85000 602.285
21.86000 598.332
21.87000 594.053
21.88000 591.586
21.89000 606.446
21.90000 616.908
21.91000 617.344
21.92000 609.019
21.93000 600.895
21.94000 604.177
21.95000 614.056
21.96000 623.594
21.97000 625.701
21.98000 624.945
21.99000 623.957
22.00000 620.573
22.01000 616.555
22.02000 613.627
22.03000 617.473
22.04000 622.488
22.05000 626.584
22.06000 623.576
22.07000 620.500
22.08000 619.547
22.09000 624.351
22.10000 629.478
22.11000 634.643
22.12000 639.878
22.13000 645.114
22.14000 647.999
22.15000 648.062
22.16000 648.096
22.17000 646.704
22.18000 644.188
22.19000 641.489
22.20000 631.202
22.21000 616.922
22.22000 603.243
22.23000 602.828
22.24000 606.855
22.25000 610.762
22.26000 613.580
22.27000 616.138
22.28000 617.857
22.29000 614.897
22.30000 611.214
22.31000 608.268
22.32000 615.622
22.33000 622.334
22.34000 626.582
22.35000 624.743
22.36000 622.620
22.37000 615.858
22.38000 601.338
22.39000 586.697
22.40000 579.018
22.41000 583.772
22.42000 587.026
22.43000 594.331
22.44000 604.526
22.45000 614.466
22.46000 616.274
22.47000 614.186
22.48000 612.204
22.49000 586.662
22.50000 556.020
22.51000 529.610
22.52000 537.027
22.53000 551.769
22.54000 564.176
22.55000 564.870
22.56000 563.950
22.57000 563.230
22.58000 556.367
22.59000 550.497
22.60000 542.264
22.61000 528.711
22.62000 514.958
22.63000 511.415
22.64000 523.372
22.65000 535.490
22.66000 538.795
22.67000 533.381
22.68000 528.018
22.69000 527.134
22.70000 529.146
22.71000 530.917
22.72000 526.557
22.73000 519.522
22.74000 512.906
22.75000 507.098
22.76000 502.011
22.77000 497.587
22.78000 497.867
22.79000 499.066
22.80000 500.208
22.81000 501.097
22.82000 501.954
22.83000 502.608
22.84000 502.182
22.85000 501.788
22.86000 502.464
22.87000 505.336
22.88000 508.273
22.89000 506.981
22.90000 499.870
22.91000 492.727
22.92000 490.315
22.93000 492.108
22.94000 493.931
22.95000 497.527
22.96000 502.165
22.97000 506.695
22.98000 508.975
22.99000 510.361
23.00000 511.651
23.01000 508.573
23.02000 504.733
23.03000 502.445
23.04000 509.978
23.05000 519.238
23.06000 526.038
23.07000 522.758
23.08000 518.392
23.09000 515.143
23.10000 518.365
23.11000 521.162
23.12000 518.623
23.13000 506.122
23.14000 493.395
23.15000 487.868
23.16000 491.297
23.17000 494.746
23.18000 500.259
23.19000 507.394
23.20000 514.405
23.21000 515.968
23.22000 514.622
23.23000 513.155
23.24000 509.613
23.25000 505.319
23.26000 501.368
23.27000 499.949
23.28000 499.230
23.29000 497.949
23.30000 493.476
23.31000 488.500
23.32000 484.973
23.33000 486.832
23.34000 489.197
23.35000 490.911
23.36000 490.527
23.37000 490.155
23.38000 489.885
23.39000 489.789
23.40000 489.697
23.41000 494.006
23.42000 503.252
23.43000 512.469
23.44000 513.003
23.45000 507.296
23.46000 501.536
23.47000 494.019
23.48000 485.648
23.49000 477.916
23.50000 479.502
23.51000 484.161
23.52000 488.394
23.53000 486.254
23.54000 483.124
23.55000 481.607
23.56000 488.330
23.57000 496.209
23.58000 500.471
23.59000 492.522
23.60000 483.575
23.61000 477.280
23.62000 488.191
23.63000 496.970
23.64000 500.856
23.65000 497.198
23.66000 493.455
23.67000 492.222
23.68000 493.516
23.69000 494.802
23.70000 497.348
23.71000 500.672
23.72000 503.722
23.73000 499.533
23.74000 492.137
23.75000 485.687
23.76000 491.037
23.77000 499.928
23.78000 507.899
23.79000 500.480
23.80000 491.327
23.81000 484.650
23.82000 489.365
23.83000 495.501
23.84000 499.464
23.85000 496.754
23.86000 493.576
23.87000 491.408
23.88000 494.393
23.89000 496.744
23.90000 494.010
23.91000 484.168
23.92000 474.284
23.93000 474.007
23.94000 482.415
23.95000 490.742
23.96000 491.622
23.97000 488.136
23.98000 484.926
23.99000 487.616
24.00000 492.688
24.01000 497.173
24.02000 495.316
24.03000 491.730
24.04000 488.561
24.05000 495.644
24.06000 503.344
24.07000 508.323
24.08000 501.976
24.09000 494.384
24.10000 487.653
24.11000 483.329
24.12000 479.147
24.13000 476.388
24.14000 480.602
24.15000 483.832
24.16000 487.139
24.17000 490.546
24.18000 493.938
24.19000 491.616
24.20000 484.639
24.21000 477.760
24.22000 479.838
24.23000 486.579
24.24000 492.983
24.25000 493.396
24.26000 491.606
24.27000 489.763
24.28000 487.415
24.29000 484.943
24.30000 482.791
24.31000 479.284
24.32000 476.105
24.33000 475.204
24.34000 482.903
24.35000 491.429
24.36000 494.587
24.37000 484.074
24.38000 472.885
24.39000 465.759
24.40000 464.406
24.41000 463.497
24.42000 462.248
24.43000 460.614
24.44000 459.014
24.45000 463.516
24.46000 472.512
24.47000 481.337
24.48000 483.599
24.49000 482.655
24.50000 481.233
24.51000 472.661
24.52000 461.694
24.53000 453.715
24.54000 470.585
24.55000 493.017
24.56000 512.212
24.57000 510.244
24.58000 506.029
24.59000 499.924
24.60000 487.339
24.61000 474.212
24.62000 466.133
24.63000 469.764
24.64000 473.868
24.65000 476.385
24.66000 477.499
24.67000 478.285
24.68000 481.576
24.69000 487.434
24.70000 493.263
24.71000 496.189
24.72000 497.178
24.73000 498.143
24.74000 494.785
24.75000 489.720
24.76000 484.763
24.77000 481.190
24.78000 478.039
24.79000 474.174
24.80000 465.055
24.81000 454.875
24.82000 446.317
24.83000 462.888
24.84000 479.360
24.85000 489.957
24.86000 482.234
24.87000 473.194
24.88000 465.940
24.89000 462.461
24.90000 459.104
24.91000 457.128
24.92000 469.389
24.93000 478.111
24.94000 482.248
24.95000 482.168
24.96000 482.021
24.97000 477.397
24.98000 470.062
24.99000 462.956
25.00000 463.699
25.01000 467.446
25.02000 471.029
25.03000 472.796
25.04000 474.059
25.05000 475.254
25.06000 476.007
25.07000 476.678
25.08000 477.232
25.09000 475.775
25.10000 474.390
25.11000 472.207
25.12000 467.758
25.13000 463.171
25.14000 462.596
25.15000 469.740
25.16000 477.077
25.17000 481.210
25.18000 480.738
25.19000 480.400
25.20000 480.756
25.21000 481.688
25.22000 482.440
25.23000 474.587
25.24000 461.995
25.25000 449.885
25.26000 458.587
25.27000 474.023
25.28000 488.071
25.29000 488.728
25.30000 486.021
25.31000 483.247
25.32000 480.071
25.33000 476.831
25.34000 474.212
25.35000 466.868
25.36000 460.516
25.37000 456.999
25.38000 460.803
25.39000 464.981
25.40000 468.581
25.41000 471.169
25.42000 473.739
25.43000 475.119
25.44000 474.044
25.45000 473.303
25.46000 471.693
25.47000 469.433
25.48000 467.235
25.49000 467.307
25.50000 468.515
25.51000 469.668
25.52000 467.621
25.53000 464.713
25.54000 461.337
25.55000 453.981
25.56000 445.720
25.57000 440.659
25.58000 452.490
25.59000 466.784
25.60000 478.088
25.61000 473.294
25.62000 468.337
25.63000 465.802
25.64000 468.970
25.65000 472.376
25.66000 473.418
25.67000 470.698
25.68000 467.930
25.69000 466.517
25.70000 458.093
25.71000 452.507
25.72000 454.709
25.73000 462.191
25.74000 469.488
25.75000 471.521
25.76000 471.151
25.77000 470.802
25.78000 462.283
25.79000 452.141
25.80000 443.238
25.81000 443.643
25.82000 445.960
25.83000 449.925
25.84000 461.731
25.85000 474.555
25.86000 484.463
25.87000 471.572
25.88000 460.014
25.89000 452.839
25.90000 455.066
25.91000 457.609
25.92000 458.319
25.93000 456.385
25.94000 454.430
25.95000 456.247
25.96000 461.591
25.97000 466.890
25.98000 468.889
25.99000 468.858
26.00000 468.654
26.01000 464.494
26.02000 458.689
26.03000 453.258
26.04000 450.313
26.05000 448.272
26.06000 446.777
26.07000 448.932
26.08000 451.763
26.09000 454.312
26.10000 455.651
26.11000 456.852
26.12000 457.757
26.13000 451.005
26.14000 445.342
26.15000 440.564
26.16000 437.514
26.17000 434.509
26.18000 435.711
26.19000 442.411
26.20000 449.127
26.21000 450.434
26.22000 447.193
26.23000 444.001
26.24000 443.296
26.25000 443.981
26.26000 444.794
26.27000 447.994
26.28000 452.100
26.29000 455.899
26.30000 447.096
26.31000 436.297
26.32000 427.738
26.33000 432.574
26.34000 439.635
26.35000 446.183
26.36000 450.735
26.37000 455.086
26.38000 458.280
26.39000 459.265
26.40000 459.937
26.41000 460.410
26.42000 460.527
26.43000 460.637
26.44000 461.265
26.45000 462.502
26.46000 463.738
26.47000 458.676
26.48000 448.888
26.49000 439.422
26.50000 442.134
26.51000 451.043
26.52000 459.298
26.53000 457.220
26.54000 451.575
26.55000 446.414
26.56000 441.397
26.57000 436.967
26.58000 433.199
26.59000 432.982
26.60000 433.291
26.61000 433.560
26.62000 433.685
26.63000 433.798
26.64000 433.879
26.65000 433.069
26.66000 432.422
26.67000 433.315
26.68000 436.696
26.69000 440.111
26.70000 440.661
26.71000 438.168
26.72000 435.688
26.73000 437.775
26.74000 442.947
26.75000 448.010
26.76000 449.840
26.77000 450.172
26.78000 450.110
26.79000 444.763
26.80000 437.754
26.81000 431.429
26.82000 434.553
26.83000 439.032
26.84000 443.312
26.85000 446.633
26.86000 449.827
26.87000 450.261
26.88000 441.819
26.89000 432.707
26.90000 426.396
26.91000 440.550
26.92000 451.739
26.93000 454.758
26.94000 445.798
26.95000 436.734
26.96000 433.218
26.97000 434.985
26.98000 436.738
26.99000 439.009
27.00000 441.557
27.01000 443.951
27.02000 442.724
27.03000 439.967
27.04000 437.194
27.05000 434.235
27.06000 431.221
27.07000 428.540
27.08000 427.224
27.09000 426.304
27.10000 424.717
27.11000 420.217
27.12000 415.376
27.13000 413.390
27.14000 419.753
27.15000 426.653
27.16000 431.282
27.17000 429.370
27.18000 427.818
27.19000 426.842
27.20000 426.629
27.21000 426.427
27.22000 430.673
27.23000 438.730
27.24000 446.691
27.25000 444.136
27.26000 435.821
27.27000 427.564
27.28000 420.454
27.29000 413.786
27.30000 408.295
27.31000 414.661
27.32000 424.102
27.33000 432.379
27.34000 439.977
27.35000 446.402
27.36000 450.906
27.37000 447.807
27.38000 443.928
27.39000 441.224
27.40000 441.653
27.41000 442.251
27.42000 442.639
27.43000 436.376
27.44000 431.692
27.45000 431.149
27.46000 435.574
27.47000 439.984
27.48000 438.108
27.49000 431.372
27.50000 424.747
27.51000 428.243
27.52000 436.687
27.53000 444.692
27.54000 445.578
27.55000 443.968
27.56000 441.653
27.57000 433.093
27.58000 423.066
27.59000 414.415
27.60000 419.066
27.61000 424.719
27.62000 428.519
27.63000 425.667
27.64000 422.219
27.65000 420.519
27.66000 423.062
27.67000 425.795
27.68000 427.503
27.69000 430.556
27.70000 432.773
27.71000 432.837
27.72000 430.578
27.73000 428.309
27.74000 425.033
27.75000 421.051
27.76000 417.155
27.77000 416.856
27.78000 418.192
27.79000 419.270
27.80000 416.782
27.81000 413.157
27.82000 410.116
27.83000 411.636
27.84000 414.126
27.85000 416.237
27.86000 415.364
27.87000 414.295
27.88000 414.662
27.89000 419.713
27.90000 425.128
27.91000 426.228
27.92000 417.790
27.93000 409.007
27.94000 403.732
27.95000 408.947
27.96000 412.724
27.97000 414.177
27.98000 413.378
27.99000 412.634
28.00000 416.320
28.01000 422.818
28.02000 429.134
28.03000 427.344
28.04000 422.339
28.05000 417.952
28.06000 420.908
28.07000 425.992
28.08000 430.375
28.09000 429.893
28.10000 428.479
28.11000 427.302
28.12000 425.967
28.13000 424.846
28.14000 423.582
28.15000 421.894
28.16000 420.178
28.17000 418.279
28.18000 416.012
28.19000 413.734
28.20000 412.423
28.21000 410.897
28.22000 409.833
28.23000 412.666
28.24000 418.895
28.25000 425.008
28.26000 424.653
28.27000 420.567
28.28000 416.623
28.29000 416.744
28.30000 418.354
28.31000 418.869
28.32000 408.106
28.33000 394.375
28.34000 383.614
28.35000 391.261
28.36000 402.075
28.37000 410.903
28.38000 418.057
28.39000 423.765
28.40000 426.258
28.41000 420.051
28.42000 413.360
28.43000 411.301
28.44000 417.735
28.45000 424.351
28.46000 427.991
28.47000 424.247
28.48000 421.640
28.49000 414.338
28.50000 403.346
28.51000 392.658
28.52000 394.516
28.53000 402.957
28.54000 411.040
28.55000 412.961
28.56000 412.709
28.57000 412.537
28.58000 413.080
28.59000 413.794
28.60000 414.483
28.61000 415.036
28.62000 415.567
28.63000 415.992
28.64000 411.075
28.65000 406.705
28.66000 404.461
28.67000 407.450
28.68000 410.681
28.69000 413.588
28.70000 415.955
28.71000 418.314
28.72000 419.550
28.73000 410.740
28.74000 404.809
28.75000 404.391
28.76000 407.891
28.77000 411.400
28.78000 415.166
28.79000 419.055
28.80000 422.746
28.81000 419.022
28.82000 413.368
28.83000 408.786
28.84000 412.729
28.85000 418.514
28.86000 423.016
28.87000 421.104
28.88000 418.311
28.89000 416.128
28.90000 411.178
28.91000 407.053
28.92000 404.496
28.93000 405.459
28.94000 406.554
28.95000 404.860
28.96000 398.946
28.97000 392.989
28.98000 395.696
28.99000 406.948
29.00000 418.000
29.01000 411.672
29.02000 394.137
29.03000 377.541
29.04000 384.645
29.05000 402.062
29.06000 418.436
29.07000 412.982
29.08000 402.132
29.09000 392.534
29.10000 391.799
29.11000 392.790
29.12000 395.243
29.13000 404.300
29.14000 414.161
29.15000 421.685
29.16000 416.848
29.17000 412.376
29.18000 407.445
29.19000 401.579
29.20000 395.686
29.21000 392.758
29.22000 393.898
29.23000 395.062
29.24000 399.863
29.25000 407.878
29.26000 415.757
29.27000 415.608
29.28000 410.758
29.29000 406.314
29.30000 410.257
29.31000 417.524
29.32000 424.285
29.33000 418.069
29.34000 409.317
29.35000 403.541
29.36000 416.539
29.37000 432.824
29.38000 441.697
29.39000 420.281
29.40000 395.616
29.41000 377.271
29.42000 385.687
29.43000 393.429
29.44000 399.137
29.45000 401.063
29.46000 402.904
29.47000 402.710
29.48000 399.995
29.49000 397.278
29.50000 393.780
29.51000 389.677
29.52000 385.719
29.53000 387.996
29.54000 393.595
29.55000 398.786
29.56000 396.974
29.57000 392.632
29.58000 388.639
29.59000 387.744
29.60000 387.616
29.61000 387.999
29.62000 391.265
29.63000 394.983
29.64000 398.023
29.65000 398.551
29.66000 398.843
29.67000 399.054
29.68000 391.627
29.69000 385.646
29.70000 383.411
29.71000 387.515
29.72000 391.724
29.73000 397.810
29.74000 405.995
29.75000 414.152
29.76000 412.833
29.77000 404.738
29.78000 396.988
29.79000 400.585
29.80000 409.686
29.81000 418.098
29.82000 416.513
29.83000 411.641
29.84000 407.216
29.85000 399.392
29.86000 391.822
29.87000 386.429
29.88000 392.117
29.89000 399.355
29.90000 405.278
29.91000 406.777
29.92000 407.917
29.93000 408.718
29.94000 411.322
29.95000 413.347
29.96000 414.696
29.97000 415.008
29.98000 415.307
29.99000 418.047
30.00000 423.235
30.01000 428.390
30.02000 422.525
30.03000 409.633
30.04000 397.138
30.05000 395.046
30.06000 397.548
30.07000 400.056
30.08000 402.626
30.09000 405.215
30.10000 407.535
30.11000 410.523
30.12000 413.248
30.13000 415.834
30.14000 417.786
30.15000 419.660
30.16000 419.584
30.17000 413.541
30.18000 407.081
30.19000 402.679
30.20000 416.663
30.21000 427.536
30.22000 430.290
30.23000 421.726
30.24000 413.092
30.25000 410.686
30.26000 413.894
30.27000 417.070
30.28000 422.228
30.29000 428.430
30.30000 434.113
30.31000 428.751
30.32000 418.943
30.33000 409.915
30.34000 409.297
30.35000 410.963
30.36000 412.435
30.37000 412.999
30.38000 413.346
30.39000 412.680
30.40000 407.807
30.41000 402.473
30.42000 399.783
30.43000 404.463
30.44000 409.578
30.45000 412.950
30.46000 406.758
30.47000 402.028
30.48000 400.460
30.49000 402.879
30.50000 405.301
30.51000 404.395
30.52000 400.786
30.53000 397.227
30.54000 392.503
30.55000 387.300
30.56000 382.404
30.57000 382.916
30.58000 385.410
30.59000 388.614
30.60000 398.487
30.61000 410.004
30.62000 420.020
30.63000 418.535
30.64000 415.701
30.65000 414.132
30.66000 417.328
30.67000 420.981
30.68000 423.462
30.69000 422.970
30.70000 422.330
30.71000 421.924
30.72000 413.382
30.73000 407.074
30.74000 406.913
30.75000 413.740
30.76000 420.546
30.77000 422.359
30.78000 420.506
30.79000 418.688
30.80000 414.670
30.81000 409.755
30.82000 405.072
30.83000 403.848
30.84000 403.779
30.85000 404.292
30.86000 409.634
30.87000 416.053
30.88000 421.544
30.89000 433.794
30.90000 444.936
30.91000 454.175
30.92000 456.909
30.93000 459.101
30.94000 463.002
30.95000 470.854
30.96000 478.865
30.97000 483.771
30.98000 484.716
30.99000 485.359
31.00000 495.766
31.01000 516.149
31.02000 536.442
31.03000 547.583
31.04000 552.636
31.05000 557.564
31.06000 565.015
31.07000 573.211
31.08000 582.835
31.09000 610.638
31.10000 643.962
31.11000 676.612
31.12000 704.309
31.13000 731.008
31.14000 753.440
31.15000 782.296
31.16000 807.014
31.17000 835.708
31.18000 876.763
31.19000 918.703
31.20000 964.982
31.21000 1020.405
31.22000 1076.121
31.23000 1108.875
31.24000 1154.918
31.25000 1187.460
31.26000 1233.616
31.27000 1292.253
31.28000 1350.672
31.29000 1394.498
31.30000 1429.511
31.31000 1463.427
31.32000 1490.208
31.33000 1512.789
31.34000 1534.881
31.35000 1551.603
31.36000 1566.842
31.37000 1581.738
31.38000 1594.385
31.39000 1606.625
31.40000 1616.714
31.41000 1611.470
31.42000 1605.742
31.43000 1596.034
31.44000 1575.062
31.45000 1553.406
31.46000 1527.886
31.47000 1494.953
31.48000 1461.836
31.49000 1443.204
31.50000 1369.525
31.51000 1318.269
31.52000 1280.227
31.53000 1253.097
31.54000 1225.717
31.55000 1186.381
31.56000 1140.479
31.57000 1096.348
31.58000 1049.108
31.59000 1003.762
31.60000 958.368
31.61000 912.513
31.62000 866.542
31.63000 822.775
31.64000 791.913
31.65000 763.149
31.66000 739.919
31.67000 705.395
31.68000 676.429
31.69000 648.939
31.70000 625.255
31.71000 601.764
31.72000 582.814
31.73000 571.792
31.74000 560.914
31.75000 555.077
31.76000 546.438
31.77000 540.525
31.78000 532.244
31.79000 522.198
31.80000 512.099
31.81000 500.133
31.82000 487.233
31.83000 474.934
31.84000 468.276
31.85000 463.873
31.86000 459.044
31.87000 450.607
31.88000 441.352
31.89000 434.534
31.90000 440.542
31.91000 448.414
31.92000 454.634
31.93000 442.016
31.94000 430.596
31.95000 419.583
31.96000 409.525
31.97000 399.508
31.98000 395.651
31.99000 401.568
32.00000 407.608
32.01000 410.687
32.02000 410.598
32.03000 410.533
32.04000 409.942
32.05000 408.995
32.06000 407.985
32.07000 405.208
32.08000 401.626
32.09000 398.243
32.10000 397.266
32.11000 397.051
32.12000 396.259
32.13000 391.149
32.14000 385.155
32.15000 379.683
32.16000 376.687
32.17000 374.011
32.18000 371.945
32.19000 372.872
32.20000 373.781
32.21000 375.938
32.22000 380.765
32.23000 385.682
32.24000 389.817
32.25000 392.827
32.26000 395.828
32.27000 394.781
32.28000 389.959
32.29000 385.184
32.30000 383.705
32.31000 384.247
32.32000 384.634
32.33000 381.496
32.34000 376.898
32.35000 372.597
32.36000 376.485
32.37000 382.100
32.38000 386.420
32.39000 382.113
32.40000 376.214
32.41000 370.982
32.42000 368.607
32.43000 366.559
32.44000 365.016
32.45000 361.069
32.46000 357.862
32.47000 358.456
32.48000 366.453
32.49000 374.642
32.50000 379.440
32.51000 379.824
32.52000 380.189
32.53000 377.083
32.54000 371.079
32.55000 365.183
32.56000 364.735
32.57000 367.325
32.58000 369.819
32.59000 370.519
32.60000 370.540
32.61000 370.560
32.62000 370.787
32.63000 371.037
32.64000 371.614
32.65000 374.134
32.66000 376.976
32.67000 377.319
32.68000 367.956
32.69000 357.621
32.70000 350.039
32.71000 361.749
32.72000 371.576
32.73000 376.914
32.74000 374.296
32.75000 371.525
32.76000 368.085
32.77000 363.858
32.78000 359.640
32.79000 359.806
32.80000 363.274
32.81000 366.628
32.82000 365.680
32.83000 362.550
32.84000 359.847
32.85000 363.845
32.86000 370.149
32.87000 375.911
32.88000 375.513
32.89000 373.899
32.90000 372.244
32.91000 370.370
32.92000 368.463
32.93000 368.325
32.94000 374.423
32.95000 381.065
32.96000 385.802
32.97000 378.550
32.98000 372.627
32.99000 369.466
33.00000 370.757
33.01000 372.108
33.02000 371.706
33.03000 369.448
33.04000 367.201
33.05000 362.154
33.06000 355.265
33.07000 348.523
33.08000 346.052
33.09000 345.555
33.10000 345.266
33.11000 347.762
33.12000 351.131
33.13000 354.169
33.14000 347.676
33.15000 340.230
33.16000 333.778
33.17000 332.118
33.18000 331.089
33.19000 331.669
33.20000 337.408
33.21000 343.534
33.22000 347.774
33.23000 339.806
33.24000 333.494
33.25000 332.111
33.26000 337.932
33.27000 343.815
33.28000 344.653
33.29000 340.705
33.30000 336.788
33.31000 333.358
33.32000 330.288
33.33000 327.238
33.34000 324.652
33.35000 322.262
33.36000 320.304
33.37000 323.329
33.38000 327.773
33.39000 331.727
33.40000 322.297
33.41000 311.930
33.42000 305.239
33.43000 314.569
33.44000 325.765
33.45000 333.027
33.46000 328.818
33.47000 323.872
33.48000 320.559
33.49000 331.766
33.50000 340.372
33.51000 345.193
33.52000 345.001
33.53000 344.783
33.54000 343.327
33.55000 340.812
33.56000 338.328
33.57000 337.784
33.58000 338.325
33.59000 338.958
33.60000 341.341
33.61000 344.397
33.62000 347.081
33.63000 346.037
33.64000 344.030
33.65000 342.271
33.66000 337.866
33.67000 333.704
33.68000 331.377
33.69000 336.295
33.70000 341.954
33.71000 345.874
33.72000 345.175
33.73000 344.227
33.74000 343.614
33.75000 339.274
33.76000 336.044
33.77000 334.210
33.78000 334.045
33.79000 333.877
33.80000 332.450
33.81000 330.052
33.82000 327.694
33.83000 326.252
33.84000 325.315
33.85000 324.580
33.86000 327.122
33.87000 330.810
33.88000 333.889
33.89000 331.608
33.90000 328.073
33.91000 325.024
33.92000 324.823
33.93000 325.017
33.94000 326.075
33.95000 330.227
33.96000 334.655
33.97000 336.123
33.98000 330.425
33.99000 324.408
34.00000 320.653
34.01000 326.048
34.02000 330.033
34.03000 329.922
34.04000 325.402
34.05000 320.908
34.06000 319.900
34.07000 321.326
34.08000 322.720
34.09000 321.649
34.10000 319.513
34.11000 317.832
34.12000 322.405
34.13000 328.965
34.14000 334.955
34.15000 336.497
34.16000 337.098
34.17000 337.607
34.18000 332.372
34.19000 327.340
34.20000 324.539
34.21000 329.001
34.22000 334.024
34.23000 337.257
34.24000 336.545
34.25000 335.692
34.26000 335.180
34.27000 326.536
34.28000 320.341
34.29000 317.545
34.30000 318.032
34.31000 318.555
34.32000 321.899
34.33000 327.030
34.34000 332.016
34.35000 333.225
34.36000 332.840
34.37000 331.825
34.38000 323.383
34.39000 312.794
34.40000 304.466
34.41000 311.773
34.42000 322.064
34.43000 330.627
34.44000 331.628
34.45000 331.713
34.46000 330.204
34.47000 323.974
34.48000 317.434
34.49000 313.409
34.50000 314.437
34.51000 315.607
34.52000 316.280
34.53000 320.946
34.54000 324.221
34.55000 323.888
34.56000 320.422
34.57000 317.032
34.58000 317.857
34.59000 321.105
34.60000 324.240
34.61000 323.136
34.62000 320.543
34.63000 318.154
34.64000 317.860
34.65000 318.116
34.66000 318.306
34.67000 318.084
34.68000 317.791
34.69000 317.552
34.70000 314.785
34.71000 312.305
34.72000 310.943
34.73000 312.593
34.74000 314.410
34.75000 315.427
34.76000 314.982
34.77000 314.505
34.78000 314.244
34.79000 317.298
34.80000 319.395
34.81000 318.591
34.82000 315.515
34.83000 312.474
34.84000 310.870
34.85000 310.018
34.86000 309.202
34.87000 306.933
34.88000 304.337
34.89000 302.632
34.90000 308.927
34.91000 317.126
34.92000 323.846
34.93000 322.374
34.94000 319.644
34.95000 317.463
34.96000 320.738
34.97000 323.786
34.98000 326.201
34.99000 327.061
35.00000 327.850
35.01000 326.795
35.02000 322.677
35.03000 318.513
35.04000 316.335
35.05000 303.524
35.06000 294.916
35.07000 295.649
35.08000 303.003
35.09000 310.310
35.10000 316.114
35.11000 321.203
35.12000 326.031
35.13000 319.726
35.14000 310.591
35.15000 302.279
35.16000 300.489
35.17000 300.102
35.18000 301.076
35.19000 308.829
35.20000 317.510
35.21000 324.290
35.22000 316.996
35.23000 310.291
35.24000 305.337
35.25000 304.300
35.26000 303.409
35.27000 303.769
35.28000 306.017
35.29000 308.284
35.30000 308.546
35.31000 306.839
35.32000 305.139
35.33000 304.113
35.34000 303.521
35.35000 302.878
35.36000 300.929
35.37000 298.415
35.38000 296.051
35.39000 295.985
35.40000 296.541
35.41000 297.003
35.42000 296.797
35.43000 296.463
35.44000 296.282
35.45000 296.797
35.46000 297.396
35.47000 297.853
35.48000 302.234
35.49000 305.894
35.50000 307.155
35.51000 303.523
35.52000 299.747
35.53000 298.275
35.54000 299.953
35.55000 301.648
35.56000 303.314
35.57000 304.950
35.58000 306.584
35.59000 308.059
35.60000 309.440
35.61000 310.731
35.62000 310.148
35.63000 308.825
35.64000 307.595
35.65000 307.558
35.66000 307.811
35.67000 307.771
35.68000 305.889
35.69000 303.686
35.70000 302.305
35.71000 304.273
35.72000 306.599
35.73000 308.328
35.74000 310.286
35.75000 311.819
35.76000 313.196
35.77000 314.286
35.78000 315.368
35.79000 312.894
35.80000 306.023
35.81000 299.152
35.82000 294.579
35.83000 291.849
35.84000 289.121
35.85000 286.518
35.86000 283.982
35.87000 281.832
35.88000 286.271
35.89000 293.083
35.90000 299.346
35.91000 295.439
35.92000 289.753
35.93000 286.164
35.94000 294.389
35.95000 304.462
35.96000 311.870
35.97000 309.435
35.98000 306.081
35.99000 303.656
36.00000 303.896
36.01000 304.177
36.02000 303.425
36.03000 300.931
36.04000 298.408
36.05000 297.234
36.06000 297.562
36.07000 297.889
36.08000 297.170
36.09000 295.710
36.10000 294.301
36.11000 294.567
36.12000 295.643
36.13000 296.494
36.14000 294.110
36.15000 290.666
36.16000 287.539
36.17000 288.764
36.18000 290.687
36.19000 292.678
36.20000 295.016
36.21000 297.401
36.22000 299.092
36.23000 298.450
36.24000 297.620
36.25000 297.036
36.26000 300.179
36.27000 302.667
36.28000 301.507
36.29000 294.753
36.30000 287.939
36.31000 288.254
36.32000 295.702
36.33000 303.101
36.34000 305.073
36.35000 303.526
36.36000 301.908
36.37000 298.473
36.38000 294.236
36.39000 290.551
36.40000 293.703
36.41000 298.893
36.42000 303.543
36.43000 300.907
36.44000 297.350
36.45000 294.791
36.46000 296.796
36.47000 299.366
36.48000 300.804
36.49000 298.788
36.50000 296.532
36.51000 294.996
36.52000 294.296
36.53000 293.793
36.54000 295.081
36.55000 298.860
36.56000 302.650
36.57000 298.807
36.58000 288.105
36.59000 277.511
36.60000 278.931
36.61000 287.293
36.62000 295.374
36.63000 297.522
36.64000 297.287
36.65000 297.272
36.66000 299.604
36.67000 302.572
36.68000 305.192
36.69000 300.154
36.70000 294.632
36.71000 290.013
36.72000 289.128
36.73000 288.650
36.74000 290.123
36.75000 297.018
36.76000 304.232
36.77000 308.983
36.78000 303.346
36.79000 299.014
36.80000 297.513
36.81000 299.570
36.82000 301.629
36.83000 300.411
36.84000 296.538
36.85000 292.721
36.86000 289.305
36.87000 286.196
36.88000 283.281
36.89000 283.757
36.90000 285.473
36.91000 287.702
36.92000 294.746
36.93000 302.972
36.94000 310.123
36.95000 304.476
36.96000 297.921
36.97000 292.619
36.98000 292.022
36.99000 291.873
37.00000 291.500
37.01000 290.559
37.02000 289.591
37.03000 288.975
37.04000 292.369
37.05000 294.883
37.06000 297.789
37.07000 301.139
37.08000 304.456
37.09000 302.135
37.10000 295.687
37.11000 289.363
37.12000 290.892
37.13000 296.078
37.14000 300.691
37.15000 296.810
37.16000 290.102
37.17000 284.107
37.18000 284.003
37.19000 285.209
37.20000 286.240
37.21000 282.676
37.22000 279.121
37.23000 278.298
37.24000 286.785
37.25000 296.044
37.26000 300.774
37.27000 295.057
37.28000 288.923
37.29000 285.171
37.30000 281.490
37.31000 278.856
37.32000 278.718
37.33000 281.120
37.34000 283.517
37.35000 285.350
37.36000 286.809
37.37000 288.232
37.38000 286.485
37.39000 283.465
37.40000 281.030
37.41000 286.024
37.42000 293.267
37.43000 298.854
37.44000 292.314
37.45000 283.339
37.46000 275.804
37.47000 281.809
37.48000 288.234
37.49000 291.948
37.50000 287.260
37.51000 281.975
37.52000 279.977
37.53000 284.887
37.54000 290.017
37.55000 293.029
37.56000 286.685
37.57000 282.167
37.58000 278.488
37.59000 275.576
37.60000 272.787
37.61000 278.084
37.62000 288.251
37.63000 298.098
37.64000 294.053
37.65000 284.874
37.66000 276.401
37.67000 275.674
37.68000 277.077
37.69000 278.596
37.70000 280.866
37.71000 283.272
37.72000 285.254
37.73000 285.138
37.74000 284.850
37.75000 284.063
37.76000 281.870
37.77000 279.592
37.78000 279.397
37.79000 283.186
37.80000 287.073
37.81000 289.257
37.82000 287.086
37.83000 285.572
37.84000 285.673
37.85000 287.104
37.86000 288.605
37.87000 293.397
37.88000 299.990
37.89000 306.328
37.90000 301.201
37.91000 292.413
37.92000 284.229
37.93000 281.825
37.94000 280.864
37.95000 280.097
37.96000 280.458
37.97000 281.002
37.98000 281.441
37.99000 277.622
38.00000 274.180
38.01000 272.338
38.02000 274.603
38.03000 277.076
38.04000 279.117
38.05000 280.409
38.06000 281.686
38.07000 282.371
38.08000 283.013
38.09000 283.448
38.10000 283.252
38.11000 282.586
38.12000 281.911
38.13000 280.888
38.14000 279.691
38.15000 278.551
38.16000 286.421
38.17000 296.543
38.18000 305.157
38.19000 301.067
38.20000 294.106
38.21000 288.244
38.22000 288.144
38.23000 288.879
38.24000 289.459
38.25000 290.148
38.26000 290.708
38.27000 292.511
38.28000 297.225
38.29000 302.060
38.30000 304.678
38.31000 303.790
38.32000 302.858
38.33000 302.383
38.34000 317.993
38.35000 328.403
38.36000 332.535
38.37000 332.434
38.38000 332.566
38.39000 339.185
38.40000 348.751
38.41000 357.784
38.42000 367.787
38.43000 377.239
38.44000 387.616
38.45000 404.889
38.46000 423.570
38.47000 439.856
38.48000 444.818
38.49000 448.322
38.50000 451.026
38.51000 465.554
38.52000 477.753
38.53000 492.710
38.54000 513.553
38.55000 534.591
38.56000 555.401
38.57000 575.883
38.58000 596.360
38.59000 620.593
38.60000 648.305
38.61000 675.952
38.62000 699.089
38.63000 719.466
38.64000 739.297
38.65000 746.817
38.66000 749.244
38.67000 751.513
38.68000 766.401
38.69000 783.119
38.70000 798.361
38.71000 803.796
38.72000 807.429
38.73000 809.239
38.74000 803.255
38.75000 796.385
38.76000 791.215
38.77000 782.972
38.78000 776.374
38.79000 771.439
38.80000 769.737
38.81000 768.118
38.82000 760.583
38.83000 745.365
38.84000 730.131
38.85000 705.358
38.86000 672.692
38.87000 640.139
38.88000 613.249
38.89000 589.507
38.90000 566.111
38.91000 549.140
38.92000 534.590
38.93000 521.137
38.94000 492.220
38.95000 462.733
38.96000 436.453
38.97000 429.228
38.98000 425.148
38.99000 419.368
39.00000 407.007
39.01000 393.989
39.02000 384.447
39.03000 358.870
39.04000 338.473
39.05000 326.255
39.06000 328.494
39.07000 331.008
39.08000 328.856
39.09000 321.236
39.10000 313.628
39.11000 308.008
39.12000 303.918
39.13000 299.812
39.14000 295.088
39.15000 290.053
39.16000 285.146
39.17000 282.248
39.18000 280.039
39.19000 278.021
39.20000 273.372
39.21000 268.706
39.22000 264.721
39.23000 264.371
39.24000 264.557
39.25000 265.238
39.26000 267.662
39.27000 270.238
39.28000 272.073
39.29000 266.439
39.30000 261.901
39.31000 263.680
39.32000 275.607
39.33000 287.669
39.34000 286.878
39.35000 272.532
39.36000 258.257
39.37000 258.489
39.38000 268.535
39.39000 278.082
39.40000 273.218
39.41000 261.712
39.42000 251.318
39.43000 255.726
39.44000 264.758
39.45000 272.902
39.46000 267.840
39.47000 260.989
39.48000 255.853
39.49000 258.964
39.50000 263.156
39.51000 266.227
39.52000 265.716
39.53000 264.936
39.54000 264.397
39.55000 264.224
39.56000 264.103
39.57000 263.310
39.58000 261.537
39.59000 259.757
39.60000 262.781
39.61000 270.350
39.62000 277.857
39.63000 280.051
39.64000 278.966
39.65000 277.749
39.66000 273.463
39.67000 267.890
39.68000 262.707
39.69000 262.014
39.70000 262.596
39.71000 263.113
39.72000 260.396
39.73000 257.513
39.74000 256.275
39.75000 262.181
39.76000 268.917
39.77000 272.497
39.78000 266.896
39.79000 260.709
39.80000 256.568
39.81000 255.483
39.82000 254.738
39.83000 256.178
39.84000 260.499
39.85000 264.834
39.86000 268.871
39.87000 272.656
39.88000 276.395
39.89000 273.612
39.90000 267.309
39.91000 261.076
39.92000 256.181
39.93000 251.799
39.94000 248.015
39.95000 250.215
39.96000 253.956
39.97000 257.233
39.98000 259.204
39.99000 260.706
40.00000 261.512
40.01000 259.582
40.02000 257.374
40.03000 255.595
40.04000 254.956
40.05000 254.378
40.06000 254.005
40.07000 256.773
40.08000 258.844
40.09000 261.210
40.10000 263.929
40.11000 266.630
40.12000 264.903
40.13000 259.774
40.14000 254.732
40.15000 247.911
40.16000 240.432
40.17000 233.625
40.18000 237.614
40.19000 245.365
40.20000 251.912
40.21000 247.896
40.22000 241.414
40.23000 235.827
40.24000 237.709
40.25000 240.256
40.26000 243.394
40.27000 248.644
40.28000 254.082
40.29000 257.180
40.30000 254.634
40.31000 251.838
40.32000 250.095
40.33000 252.154
40.34000 253.676
40.35000 253.941
40.36000 252.854
40.37000 251.766
40.38000 250.461
40.39000 249.006
40.40000 247.583
40.41000 246.099
40.42000 244.647
40.43000 243.448
40.44000 245.694
40.45000 249.032
40.46000 251.531
40.47000 247.525
40.48000 242.145
40.49000 237.588
40.50000 243.320
40.51000 249.275
40.52000 252.956
40.53000 249.261
40.54000 244.999
40.55000 243.084
40.56000 246.326
40.57000 249.753
40.58000 251.805
40.59000 243.152
40.60000 236.939
40.61000 236.963
40.62000 242.992
40.63000 248.935
40.64000 247.978
40.65000 242.667
40.66000 237.507
40.67000 238.478
40.68000 241.883
40.69000 245.271
40.70000 248.452
40.71000 251.574
40.72000 254.241
40.73000 253.773
40.74000 252.708
40.75000 251.822
40.76000 252.396
40.77000 253.013
40.78000 252.891
40.79000 250.584
40.80000 248.134
40.81000 247.280
40.82000 249.624
40.83000 252.058
40.84000 253.455
40.85000 254.845
40.86000 255.814
40.87000 255.328
40.88000 253.581
40.89000 251.801
40.90000 248.157
40.91000 243.445
40.92000 238.899
40.93000 239.692
40.94000 242.389
40.95000 244.490
40.96000 240.492
40.97000 234.898
40.98000 230.382
40.99000 232.504
41.00000 235.760
41.01000 238.415
41.02000 239.370
41.03000 240.005
41.04000 240.515
41.05000 240.685
41.06000 240.836
41.07000 241.060
41.08000 241.415
41.09000 241.773
41.10000 241.969
41.11000 244.880
41.12000 246.889
41.13000 249.533
41.14000 252.674
41.15000 255.657
41.16000 252.235
41.17000 245.472
41.18000 238.998
41.19000 237.704
41.20000 238.207
41.21000 238.196
41.22000 233.598
41.23000 227.912
41.24000 223.622
41.25000 227.046
41.26000 231.649
41.27000 235.324
41.28000 240.534
41.29000 244.854
41.30000 249.162
41.31000 253.441
41.32000 257.719
41.33000 259.923
41.34000 258.690
41.35000 257.406
41.36000 256.735
41.37000 251.135
41.38000 247.342
41.39000 243.031
41.40000 238.354
41.41000 233.893
41.42000 236.178
41.43000 241.666
41.44000 246.874
41.45000 241.925
41.46000 234.345
41.47000 227.928
41.48000 230.705
41.49000 235.456
41.50000 239.525
41.51000 240.204
41.52000 240.422
41.53000 240.591
41.54000 235.421
41.55000 230.963
41.56000 228.446
41.57000 230.258
41.58000 232.230
41.59000 233.298
41.60000 233.007
41.61000 232.703
41.62000 233.680
41.63000 235.912
41.64000 238.160
41.65000 241.792
41.66000 246.311
41.67000 250.595
41.68000 249.025
41.69000 244.922
41.70000 241.067
41.71000 237.105
41.72000 233.462
41.73000 230.914
41.74000 236.065
41.75000 242.705
41.76000 246.786
41.77000 239.389
41.78000 230.604
41.79000 223.912
41.80000 233.169
41.81000 241.303
41.82000 245.978
41.83000 243.624
41.84000 241.065
41.85000 238.802
41.86000 236.943
41.87000 235.087
41.88000 236.000
41.89000 239.346
41.90000 242.657
41.91000 243.897
41.92000 243.932
41.93000 243.863
41.94000 241.678
41.95000 238.658
41.96000 235.850
41.97000 233.883
41.98000 232.309
41.99000 231.021
42.00000 231.523
42.01000 232.337
42.02000 232.310
42.03000 228.869
42.04000 225.065
42.05000 222.241
42.06000 225.055
42.07000 227.491
42.08000 230.446
42.09000 234.363
42.10000 238.300
42.11000 238.144
42.12000 232.943
42.13000 227.738
42.14000 227.958
42.15000 232.464
42.16000 236.823
42.17000 234.973
42.18000 229.833
42.19000 225.042
42.20000 226.179
42.21000 229.444
42.22000 232.445
42.23000 233.318
42.24000 233.640
42.25000 233.984
42.26000 234.450
42.27000 234.936
42.28000 234.677
42.29000 231.680
42.30000 228.429
42.31000 226.079
42.32000 222.618
42.33000 219.923
42.34000 218.210
42.35000 218.148
42.36000 218.113
42.37000 220.805
42.38000 226.526
42.39000 232.228
42.40000 231.752
42.41000 226.885
42.42000 222.266
42.43000 225.720
42.44000 233.068
42.45000 239.626
42.46000 234.839
42.47000 226.342
42.48000 218.631
42.49000 222.381
42.50000 227.898
42.51000 231.405
42.52000 224.747
42.53000 216.677
42.54000 212.079
42.55000 219.096
42.56000 227.050
42.57000 232.631
42.58000 229.357
42.59000 226.623
42.60000 224.630
42.61000 223.771
42.62000 222.924
42.63000 222.638
42.64000 222.910
42.65000 223.181
42.66000 225.206
42.67000 228.326
42.68000 231.304
42.69000 230.596
42.70000 228.270
42.71000 225.773
42.72000 221.156
42.73000 215.910
42.74000 211.213
42.75000 215.145
42.76000 220.060
42.77000 222.949
42.78000 216.598
42.79000 209.110
42.80000 206.278
42.81000 217.624
42.82000 229.949
42.83000 238.331
42.84000 229.259
42.85000 222.089
42.86000 218.135
42.87000 218.636
42.88000 219.169
42.89000 223.434
42.90000 231.044
42.91000 238.576
42.92000 240.923
42.93000 240.220
42.94000 239.399
42.95000 236.085
42.96000 231.774
42.97000 227.837
42.98000 227.900
42.99000 229.043
43.00000 230.052
43.01000 232.434
43.02000 234.699
43.03000 235.903
43.04000 232.727
43.05000 229.076
43.06000 226.177
43.07000 225.365
43.08000 224.675
43.09000 224.220
43.10000 226.482
43.11000 228.194
43.12000 228.278
43.13000 226.322
43.14000 224.371
43.15000 226.526
43.16000 231.995
43.17000 237.385
43.18000 235.714
43.19000 230.405
43.20000 225.003
43.21000 217.992
43.22000 210.394
43.23000 204.036
43.24000 209.251
43.25000 217.301
43.26000 224.295
43.27000 226.764
43.28000 228.256
43.29000 230.083
43.30000 233.161
43.31000 236.358
43.32000 237.583
43.33000 233.834
43.34000 229.842
43.35000 227.308
43.36000 228.587
43.37000 229.562
43.38000 229.046
43.39000 226.845
43.40000 224.670
43.41000 227.181
43.42000 233.110
43.43000 238.924
43.44000 239.138
43.45000 236.704
43.46000 234.217
43.47000 230.945
43.48000 227.411
43.49000 223.886
43.50000 220.426
43.51000 216.980
43.52000 214.036
43.53000 218.010
43.54000 222.184
43.55000 225.799
43.56000 227.515
43.57000 229.073
43.58000 229.266
43.59000 226.315
43.60000 223.239
43.61000 221.360
43.62000 221.284
43.63000 221.245
43.64000 223.653
43.65000 228.543
43.66000 233.369
43.67000 231.879
43.68000 226.212
43.69000 220.688
43.70000 219.217
43.71000 219.539
43.72000 220.102
43.73000 223.711
43.74000 228.239
43.75000 232.020
43.76000 230.353
43.77000 227.596
43.78000 225.282
43.79000 223.610
43.80000 222.286
43.81000 219.839
43.82000 213.919
43.83000 207.752
43.84000 204.058
43.85000 205.544
43.86000 207.193
43.87000 208.161
43.88000 217.447
43.89000 224.026
43.90000 223.749
43.91000 217.227
43.92000 210.827
43.93000 212.451
43.94000 218.894
43.95000 225.132
43.96000 227.327
43.97000 227.850
43.98000 228.361
43.99000 228.741
44.00000 229.085
44.01000 228.745
44.02000 223.961
44.03000 218.376
44.04000 213.778
44.05000 211.120
44.06000 209.111
44.07000 207.961
44.08000 209.228
44.09000 210.640
44.10000 214.301
44.11000 222.252
44.12000 230.307
44.13000 234.826
44.14000 232.789
44.15000 231.351
44.16000 226.378
44.17000 218.503
44.18000 210.717
44.19000 207.070
44.20000 205.682
44.21000 204.349
44.22000 211.331
44.23000 220.751
44.24000 229.210
44.25000 228.509
44.26000 225.527
44.27000 222.897
44.28000 222.314
44.29000 222.061
44.30000 221.857
44.31000 220.765
44.32000 219.808
44.33000 219.549
44.34000 221.081
44.35000 222.702
44.36000 223.103
44.37000 221.384
44.38000 219.627
44.39000 218.687
44.40000 217.594
44.41000 216.851
44.42000 216.839
44.43000 217.369
44.44000 217.832
44.45000 215.945
44.46000 212.890
44.47000 209.980
44.48000 213.656
44.49000 219.121
44.50000 224.671
44.51000 230.939
44.52000 237.368
44.53000 241.857
44.54000 236.200
44.55000 229.079
44.56000 223.459
44.57000 226.684
44.58000 229.870
44.59000 231.075
44.60000 227.652
44.61000 224.040
44.62000 222.524
44.63000 224.313
44.64000 226.144
44.65000 227.074
44.66000 229.145
44.67000 230.504
44.68000 228.769
44.69000 224.954
44.70000 221.464
44.71000 226.948
44.72000 236.494
44.73000 245.507
44.74000 245.080
44.75000 242.033
44.76000 238.872
44.77000 234.860
44.78000 230.674
44.79000 228.678
44.80000 237.001
44.81000 246.648
44.82000 254.085
44.83000 260.920
44.84000 266.299
44.85000 266.559
44.86000 255.927
44.87000 244.938
44.88000 239.726
44.89000 242.778
44.90000 245.892
44.91000 248.605
44.92000 250.943
44.93000 253.291
44.94000 256.295
44.95000 259.699
44.96000 263.056
44.97000 265.343
44.98000 267.190
44.99000 268.916
45.00000 268.046
45.01000 266.601
45.02000 265.468
45.03000 266.402
45.04000 267.714
45.05000 268.379
45.06000 266.287
45.07000 263.883
45.08000 262.075
45.09000 268.304
45.10000 273.564
45.11000 277.027
45.12000 277.010
45.13000 276.904
45.14000 278.930
45.15000 283.717
45.16000 288.510
45.17000 289.635
45.18000 287.706
45.19000 285.738
45.20000 281.918
45.21000 277.069
45.22000 272.341
45.23000 269.851
45.24000 268.201
45.25000 266.677
45.26000 266.434
45.27000 266.508
45.28000 267.329
45.29000 272.580
45.30000 278.558
45.31000 283.639
45.32000 285.251
45.33000 286.518
45.34000 287.446
45.35000 277.521
45.36000 269.425
45.37000 264.877
45.38000 266.580
45.39000 268.402
45.40000 271.286
45.41000 275.414
45.42000 279.532
45.43000 279.635
45.44000 276.732
45.45000 273.766
45.46000 268.454
45.47000 261.960
45.48000 255.845
45.49000 255.640
45.50000 257.458
45.51000 259.117
45.52000 260.565
45.53000 261.806
45.54000 262.527
45.55000 260.478
45.56000 258.022
45.57000 255.018
45.58000 250.091
45.59000 244.999
45.60000 241.373
45.61000 236.927
45.62000 233.512
45.63000 232.500
45.64000 235.333
45.65000 238.217
45.66000 240.800
45.67000 243.066
45.68000 245.321
45.69000 247.471
45.70000 249.526
45.71000 251.423
45.72000 248.821
45.73000 244.152
45.74000 239.682
45.75000 237.872
45.76000 236.889
45.77000 236.004
45.78000 229.209
45.79000 222.173
45.80000 217.134
45.81000 221.665
45.82000 227.447
45.83000 231.476
45.84000 229.918
45.85000 227.944
45.86000 226.581
45.87000 222.203
45.88000 218.836
45.89000 217.737
45.90000 219.935
45.91000 222.160
45.92000 223.939
45.93000 225.295
45.94000 226.640
45.95000 224.899
45.96000 221.313
45.97000 217.863
45.98000 217.548
45.99000 218.547
46.00000 219.326
46.01000 217.598
46.02000 215.160
46.03000 212.993
46.04000 212.816
46.05000 212.983
46.06000 213.205
46.07000 213.661
46.08000 214.143
46.09000 213.922
46.10000 211.658
46.11000 209.264
46.12000 207.664
46.13000 210.580
46.14000 212.831
46.15000 213.816
46.16000 213.135
46.17000 212.444
46.18000 210.588
46.19000 207.744
46.20000 204.934
46.21000 203.914
46.22000 203.901
46.23000 203.980
46.24000 205.808
46.25000 208.302
46.26000 210.523
46.27000 210.028
46.28000 208.836
46.29000 207.791
46.30000 200.599
46.31000 193.549
46.32000 188.027
46.33000 188.500
46.34000 189.583
46.35000 191.691
46.36000 196.506
46.37000 201.466
46.38000 204.670
46.39000 198.008
46.40000 192.994
46.41000 195.013
46.42000 205.388
46.43000 215.748
46.44000 219.154
46.45000 217.231
46.46000 215.341
46.47000 215.257
46.48000 216.069
46.49000 216.504
46.50000 210.908
46.51000 203.216
46.52000 196.580
46.53000 199.171
46.54000 203.910
46.55000 207.992
46.56000 208.110
46.57000 207.706
46.58000 207.114
46.59000 205.853
46.60000 204.532
46.61000 203.527
46.62000 203.279
46.63000 203.065
46.64000 202.931
46.65000 195.821
46.66000 190.628
46.67000 189.807
46.68000 193.663
46.69000 197.510
46.70000 200.255
46.71000 202.234
46.72000 204.169
46.73000 201.453
46.74000 196.769
46.75000 192.513
46.76000 194.062
46.77000 197.446
46.78000 200.422
46.79000 200.240
46.80000 199.394
46.81000 198.678
46.82000 204.450
46.83000 210.008
46.84000 212.534
46.85000 205.252
46.86000 197.221
46.87000 192.010
46.88000 192.981
46.89000 194.171
46.90000 194.883
46.91000 190.193
46.92000 186.830
46.93000 185.239
46.94000 185.350
46.95000 185.491
46.96000 187.981
46.97000 191.947
46.98000 195.801
46.99000 194.294
47.00000 190.697
47.01000 187.366
47.02000 187.157
47.03000 187.845
47.04000 188.408
47.05000 188.110
47.06000 187.649
47.07000 187.266
47.08000 189.513
47.09000 191.629
47.10000 192.507
47.11000 189.740
47.12000 186.736
47.13000 184.280
47.14000 182.920
47.15000 181.590
47.16000 180.828
47.17000 185.737
47.18000 189.184
47.19000 189.441
47.20000 186.944
47.21000 184.532
47.22000 186.769
47.23000 191.663
47.24000 196.385
47.25000 195.186
47.26000 191.902
47.27000 188.779
47.28000 187.305
47.29000 186.262
47.30000 185.281
47.31000 184.687
47.32000 184.159
47.33000 183.728
47.34000 188.186
47.35000 192.243
47.36000 194.325
47.37000 191.110
47.38000 187.604
47.39000 186.843
47.40000 191.071
47.41000 195.403
47.42000 197.776
47.43000 197.639
47.44000 197.534
47.45000 195.575
47.46000 192.173
47.47000 188.776
47.48000 185.564
47.49000 182.447
47.50000 179.466
47.51000 177.404
47.52000 175.785
47.53000 174.594
47.54000 177.217
47.55000 180.743
47.56000 183.943
47.57000 185.355
47.58000 186.493
47.59000 187.401
47.60000 187.378
47.61000 187.291
47.62000 187.556
47.63000 188.679
47.64000 189.841
47.65000 189.788
47.66000 187.727
47.67000 185.636
47.68000 184.547
47.69000 173.727
47.70000 166.459
47.71000 165.874
47.72000 170.000
47.73000 174.171
47.74000 179.779
47.75000 186.068
47.76000 192.032
47.77000 190.446
47.78000 186.750
47.79000 183.222
47.80000 181.020
47.81000 179.103
47.82000 178.008
47.83000 180.985
47.84000 184.515
47.85000 187.269
47.86000 186.447
47.87000 185.569
47.88000 185.298
47.89000 186.378
47.90000 187.508
47.91000 186.712
47.92000 183.026
47.93000 179.312
47.94000 176.626
47.95000 174.946
47.96000 173.297
47.97000 174.355
47.98000 177.143
47.99000 179.988
48.00000 184.249
48.01000 189.122
48.02000 193.700
48.03000 188.969
48.04000 182.175
48.05000 176.115
48.06000 175.198
48.07000 175.272
48.08000 176.348
48.09000 181.907
48.10000 188.006
48.11000 192.649
48.12000 189.201
48.13000 186.062
48.14000 182.320
48.15000 177.357
48.16000 172.359
48.17000 171.189
48.18000 175.223
48.19000 179.285
48.20000 177.315
48.21000 170.064
48.22000 162.900
48.23000 160.755
48.24000 161.524
48.25000 162.572
48.26000 169.250
48.27000 178.143
48.28000 186.407
48.29000 188.730
48.30000 189.405
48.31000 189.419
48.32000 185.303
48.33000 180.471
48.34000 177.353
48.35000 181.175
48.36000 185.733
48.37000 189.115
48.38000 187.251
48.39000 185.572
48.40000 183.764
48.41000 181.714
48.42000 179.660
48.43000 179.026
48.44000 180.138
48.45000 181.252
48.46000 179.650
48.47000 175.915
48.48000 172.318
48.49000 174.541
48.50000 179.839
48.51000 184.805
48.52000 184.184
48.53000 181.561
48.54000 179.151
48.55000 178.836
48.56000 179.003
48.57000 179.561
48.58000 182.302
48.59000 185.383
48.60000 187.245
48.61000 184.631
48.62000 181.603
48.63000 179.417
48.64000 173.199
48.65000 168.286
48.66000 167.944
48.67000 175.270
48.68000 182.717
48.69000 184.047
48.70000 178.603
48.71000 173.177
48.72000 174.019
48.73000 179.300
48.74000 184.450
48.75000 185.398
48.76000 184.326
48.77000 183.154
48.78000 180.550
48.79000 177.479
48.80000 174.693
48.81000 175.221
48.82000 176.324
48.83000 177.030
48.84000 175.737
48.85000 174.168
48.86000 172.888
48.87000 172.572
48.88000 172.333
48.89000 172.166
48.90000 176.721
48.91000 180.303
48.92000 182.889
48.93000 183.957
48.94000 185.009
48.95000 182.272
48.96000 175.770
48.97000 169.311
48.98000 167.643
48.99000 169.062
49.00000 170.467
49.01000 171.491
49.02000 172.348
49.03000 173.329
49.04000 175.841
49.05000 178.805
49.06000 181.459
49.07000 176.980
49.08000 171.852
49.09000 167.670
49.10000 167.792
49.11000 168.441
49.12000 170.112
49.13000 174.879
49.14000 179.858
49.15000 183.242
49.16000 178.160
49.17000 174.176
49.18000 173.496
49.19000 177.378
49.20000 181.286
49.21000 181.267
49.22000 177.743
49.23000 174.255
49.24000 176.696
49.25000 182.505
49.26000 187.932
49.27000 185.416
49.28000 179.730
49.29000 174.426
49.30000 173.190
49.31000 173.048
49.32000 172.924
49.33000 172.267
49.34000 171.619
49.35000 171.360
49.36000 172.699
49.37000 174.212
49.38000 174.161
49.39000 169.790
49.40000 165.169
49.41000 162.132
49.42000 167.572
49.43000 171.719
49.44000 171.443
49.45000 165.643
49.46000 159.837
49.47000 157.570
49.48000 158.150
49.49000 158.723
49.50000 162.574
49.51000 168.019
49.52000 173.407
49.53000 177.806
49.54000 181.846
49.55000 185.089
49.56000 180.936
49.57000 174.977
49.58000 169.802
49.59000 170.656
49.60000 172.197
49.61000 173.481
49.62000 173.811
49.63000 174.050
49.64000 174.217
49.65000 174.201
49.66000 174.176
49.67000 174.160
49.68000 166.922
49.69000 161.582
49.70000 160.256
49.71000 163.452
49.72000 166.650
49.73000 169.663
49.74000 172.541
49.75000 175.363
49.76000 175.487
49.77000 174.338
49.78000 173.182
49.79000 171.911
49.80000 170.602
49.81000 169.740
49.82000 172.535
49.83000 176.138
49.84000 179.214
49.85000 174.012
49.86000 168.646
49.87000 165.611
49.88000 170.474
49.89000 175.985
49.90000 178.871
49.91000 175.734
49.92000 172.360
49.93000 170.301
49.94000 164.657
49.95000 160.592
49.96000 161.303
49.97000 166.846
49.98000 172.349
49.99000 173.918
50.00000 172.893
50.01000 171.893
50.02000 170.568
50.03000 169.164
50.04000 168.215
50.05000 172.976
50.06000 179.456
50.07000 185.258
50.08000 186.138
50.09000 186.035
50.10000 185.949
50.11000 180.527
50.12000 175.458
50.13000 172.157
50.14000 174.302
50.15000 176.831
50.16000 178.156
50.17000 176.968
50.18000 175.700
50.19000 174.958
50.20000 172.455
50.21000 170.685
50.22000 172.526
50.23000 177.645
50.24000 182.658
50.25000 180.779
50.26000 174.774
50.27000 168.961
50.28000 165.798
50.29000 163.822
50.30000 162.469
50.31000 167.883
50.32000 175.149
50.33000 181.347
50.34000 180.634
50.35000 178.680
50.36000 177.073
50.37000 171.123
50.38000 165.838
50.39000 163.776
50.40000 170.759
50.41000 178.282
50.42000 183.072
50.43000 182.665
50.44000 182.132
50.45000 181.833
50.46000 189.238
50.47000 194.388
50.48000 199.550
50.49000 204.722
50.50000 209.777
50.51000 209.451
50.52000 206.195
50.53000 203.067
50.54000 196.344
50.55000 188.810
50.56000 182.473
50.57000 187.523
50.58000 195.399
50.59000 202.428
50.60000 204.552
50.61000 205.887
50.62000 206.963
50.63000 203.500
50.64000 200.331
50.65000 197.845
50.66000 197.102
50.67000 196.447
50.68000 197.801
50.69000 202.632
50.70000 207.525
50.71000 210.138
50.72000 203.859
50.73000 199.589
50.74000 198.332
50.75000 199.303
50.76000 200.298
50.77000 202.093
50.78000 204.284
50.79000 206.372
50.80000 206.690
50.81000 206.434
50.82000 205.593
50.83000 199.866
50.84000 193.043
50.85000 187.572
50.86000 189.152
50.87000 191.746
50.88000 193.791
50.89000 193.682
50.90000 193.449
50.91000 191.540
50.92000 185.731
50.93000 179.762
50.94000 177.251
50.95000 180.177
50.96000 183.169
50.97000 184.686
50.98000 182.031
50.99000 180.271
51.00000 180.508
51.01000 182.082
51.02000 183.661
51.03000 185.404
51.04000 187.221
51.05000 188.935
51.06000 183.552
51.07000 176.626
51.08000 171.040
51.09000 175.371
51.10000 181.714
51.11000 187.289
51.12000 189.247
51.13000 190.744
51.14000 191.897
51.15000 186.228
51.16000 181.348
51.17000 177.983
51.18000 177.832
51.19000 177.786
51.20000 176.854
51.21000 174.661
51.22000 172.459
51.23000 171.476
51.24000 171.618
51.25000 171.746
51.26000 170.911
51.27000 169.491
51.28000 168.072
51.29000 166.708
51.30000 165.366
51.31000 164.113
51.32000 162.669
51.33000 161.312
51.34000 160.383
51.35000 162.276
51.36000 164.685
51.37000 166.186
51.38000 163.831
51.39000 161.041
51.40000 158.944
51.41000 159.055
51.42000 159.247
51.43000 160.636
51.44000 164.340
51.45000 168.101
51.46000 168.206
51.47000 163.591
51.48000 158.963
51.49000 159.859
51.50000 165.335
51.51000 170.682
51.52000 169.822
51.53000 165.529
51.54000 161.433
51.55000 160.940
51.56000 161.797
51.57000 162.590
51.58000 163.987
51.59000 165.378
51.60000 166.318
51.61000 164.600
51.62000 162.446
51.63000 161.529
51.64000 165.373
51.65000 169.688
51.66000 172.846
51.67000 168.272
51.68000 164.435
51.69000 162.124
51.70000 162.492
51.71000 162.911
51.72000 161.514
51.73000 158.003
51.74000 154.498
51.75000 154.755
51.76000 157.818
51.77000 160.756
51.78000 159.160
51.79000 155.283
51.80000 151.818
51.81000 154.715
51.82000 159.784
51.83000 164.411
51.84000 162.401
51.85000 159.273
51.86000 156.499
51.87000 155.600
51.88000 154.976
51.89000 154.493
51.90000 154.506
51.91000 154.560
51.92000 154.599
51.93000 156.725
51.94000 158.410
51.95000 158.327
51.96000 155.418
51.97000 152.472
51.98000 152.612
51.99000 155.983
52.00000 159.337
52.01000 161.126
52.02000 161.842
52.03000 162.582
52.04000 164.033
52.05000 165.808
52.06000 167.350
52.07000 165.818
52.08000 163.330
52.09000 161.089
52.10000 163.243
52.11000 165.929
52.12000 167.583
52.13000 164.306
52.14000 160.386
52.15000 156.699
52.16000 153.751
52.17000 150.859
52.18000 148.862
52.19000 155.377
52.20000 160.488
52.21000 164.844
52.22000 168.107
52.23000 171.360
52.24000 169.227
52.25000 162.033
52.26000 154.899
52.27000 150.032
52.28000 146.629
52.29000 143.514
52.30000 147.014
52.31000 153.277
52.32000 158.905
52.33000 157.300
52.34000 153.655
52.35000 150.417
52.36000 156.795
52.37000 163.877
52.38000 168.654
52.39000 163.481
52.40000 157.163
52.41000 152.800
52.42000 154.095
52.43000 155.746
52.44000 156.849
52.45000 161.313
52.46000 164.686
52.47000 166.210
52.48000 165.308
52.49000 164.395
52.50000 163.760
52.51000 163.361
52.52000 162.967
52.53000 162.346
52.54000 161.616
52.55000 160.841
52.56000 159.215
52.57000 157.266
52.58000 155.855
52.59000 159.786
52.60000 165.086
52.61000 169.724
52.62000 163.492
52.63000 156.595
52.64000 151.417
52.65000 152.965
52.66000 155.194
52.67000 156.872
52.68000 157.102
52.69000 157.254
52.70000 157.352
52.71000 158.407
52.72000 159.192
52.73000 161.358
52.74000 165.160
52.75000 168.933
52.76000 165.550
52.77000 156.699
52.78000 148.000
52.79000 145.922
52.80000 147.183
52.81000 148.316
52.82000 147.412
52.83000 145.803
52.84000 144.549
52.85000 146.383
52.86000 148.934
52.87000 151.131
52.88000 150.755
52.89000 150.111
52.90000 150.561
52.91000 154.892
52.92000 159.565
52.93000 161.475
52.94000 156.755
52.95000 151.746
52.96000 148.631
52.97000 160.052
52.98000 168.423
52.99000 168.863
53.00000 160.851
53.01000 152.897
53.02000 152.453
53.03000 157.201
53.04000 161.842
53.05000 162.258
53.06000 160.771
53.07000 159.222
53.08000 156.816
53.09000 154.140
53.10000 152.255
53.11000 156.447
53.12000 161.915
53.13000 166.542
53.14000 160.563
53.15000 154.379
53.16000 149.935
53.17000 151.103
53.18000 152.698
53.19000 153.204
53.20000 151.331
53.21000 149.375
53.22000 148.206
53.23000 148.733
53.24000 149.118
53.25000 152.428
53.26000 158.534
53.27000 164.529
53.28000 161.889
53.29000 153.830
53.30000 146.003
53.31000 147.337
53.32000 152.291
53.33000 156.864
53.34000 156.995
53.35000 155.853
53.36000 155.116
53.37000 157.152
53.38000 159.713
53.39000 161.840
53.40000 160.106
53.41000 158.297
53.42000 156.995
53.43000 157.182
53.44000 157.465
53.45000 157.735
53.46000 157.979
53.47000 158.222
53.48000 158.361
53.49000 151.487
53.50000 146.671
53.51000 148.397
53.52000 155.750
53.53000 163.047
53.54000 167.287
53.55000 169.785
53.56000 172.195
53.57000 168.431
53.58000 162.648
53.59000 156.999
53.60000 152.714
53.61000 148.783
53.62000 145.964
53.63000 149.943
53.64000 155.076
53.65000 159.256
53.66000 159.126
53.67000 158.656
53.68000 158.578
53.69000 159.551
53.70000 160.582
53.71000 159.802
53.72000 155.742
53.73000 151.615
53.74000 149.357
53.75000 152.624
53.76000 154.871
53.77000 155.752
53.78000 155.572
53.79000 155.430
53.80000 156.839
53.81000 159.051
53.82000 161.168
53.83000 162.763
53.84000 164.078
53.85000 165.110
53.86000 163.624
53.87000 161.545
53.88000 159.373
53.89000 156.688
53.90000 153.927
53.91000 151.725
53.92000 151.581
53.93000 151.615
53.94000 151.238
53.95000 149.864
53.96000 148.445
53.97000 147.762
53.98000 148.293
53.99000 148.842
54.00000 149.128
54.01000 145.392
54.02000 142.897
54.03000 144.535
54.04000 149.075
54.05000 153.459
54.06000 153.025
54.07000 150.317
54.08000 147.749
54.09000 151.447
54.10000 156.705
54.11000 161.374
54.12000 161.417
54.13000 160.475
54.14000 158.588
54.15000 152.039
54.16000 144.858
54.17000 139.262
54.18000 148.501
54.19000 156.784
54.20000 162.140
54.21000 161.001
54.22000 159.626
54.23000 154.962
54.24000 145.381
54.25000 135.753
54.26000 133.681
54.27000 138.965
54.28000 144.229
54.29000 147.900
54.30000 150.557
54.31000 153.086
54.32000 152.494
54.33000 150.560
54.34000 148.743
54.35000 149.096
54.36000 149.995
54.37000 150.786
54.38000 150.829
54.39000 150.728
54.40000 151.373
54.41000 155.344
54.42000 159.714
54.43000 163.038
54.44000 162.968
54.45000 162.735
54.46000 161.423
54.47000 157.932
54.48000 154.378
54.49000 151.084
54.50000 148.142
54.51000 145.204
54.52000 143.587
54.53000 143.128
54.54000 142.672
54.55000 142.388
54.56000 142.202
54.57000 142.087
54.58000 143.398
54.59000 145.266
54.60000 147.003
54.61000 149.377
54.62000 151.672
54.63000 153.612
54.64000 153.341
54.65000 152.687
54.66000 151.844
54.67000 150.234
54.68000 148.543
54.69000 147.290
54.70000 148.665
54.71000 149.847
54.72000 150.201
54.73000 149.032
54.74000 147.829
54.75000 148.383
54.76000 151.087
54.77000 153.792
54.78000 156.017
54.79000 157.856
54.80000 159.647
54.81000 159.487
54.82000 158.300
54.83000 156.978
54.84000 153.383
54.85000 148.977
54.86000 144.930
54.87000 144.588
54.88000 145.076
54.89000 145.748
54.90000 147.455
54.91000 149.322
54.92000 151.534
54.93000 155.012
54.94000 158.607
54.95000 161.199
54.96000 158.521
54.97000 156.280
54.98000 154.954
54.99000 155.161
55.00000 155.391
55.01000 157.159
55.02000 160.622
55.03000 164.073
55.04000 164.576
55.05000 162.989
55.06000 161.381
55.07000 159.081
55.08000 156.450
55.09000 154.117
55.10000 156.039
55.11000 159.344
55.12000 162.341
55.13000 162.869
55.14000 162.863
55.15000 162.095
55.16000 157.498
55.17000 152.374
55.18000 148.849
55.19000 150.650
55.20000 152.876
55.21000 154.435
55.22000 150.541
55.23000 147.440
55.24000 147.982
55.25000 154.059
55.26000 160.194
55.27000 163.894
55.28000 165.184
55.29000 166.465
55.30000 166.807
55.31000 166.546
55.32000 166.346
55.33000 167.696
55.34000 169.722
55.35000 171.402
55.36000 168.848
55.37000 165.041
55.38000 161.636
55.39000 162.938
55.40000 164.877
55.41000 167.168
55.42000 171.053
55.43000 175.132
55.44000 178.002
55.45000 177.211
55.46000 176.170
55.47000 175.463
55.48000 179.441
55.49000 182.512
55.50000 185.964
55.51000 189.938
55.52000 193.914
55.53000 196.406
55.54000 197.575
55.55000 198.733
55.56000 203.253
55.57000 209.607
55.58000 215.817
55.59000 219.047
55.60000 221.092
55.61000 223.482
55.62000 229.540
55.63000 236.582
55.64000 242.790
55.65000 255.097
55.66000 266.632
55.67000 278.089
55.68000 289.227
55.69000 300.331
55.70000 308.601
55.71000 309.062
55.72000 309.071
55.73000 309.077
55.74000 330.014
55.75000 345.768
55.76000 356.356
55.77000 360.509
55.78000 364.664
55.79000 375.660
55.80000 392.145
55.81000 408.387
55.82000 413.992
55.83000 413.912
55.84000 414.094
55.85000 418.810
55.86000 425.170
55.87000 431.662
55.88000 439.377
55.89000 447.389
55.90000 454.344
55.91000 456.432
55.92000 457.558
55.93000 459.755
55.94000 465.938
55.95000 472.497
55.96000 475.672
55.97000 470.350
55.98000 464.620
55.99000 460.991
56.00000 449.335
56.01000 440.785
56.02000 438.791
56.03000 444.154
56.04000 449.477
56.05000 447.212
56.06000 439.442
56.07000 431.825
56.08000 424.379
56.09000 417.293
56.10000 410.337
56.11000 405.285
56.12000 400.862
56.13000 395.018
56.14000 377.573
56.15000 357.573
56.16000 340.503
56.17000 336.247
56.18000 334.179
56.19000 331.305
56.20000 325.702
56.21000 319.876
56.22000 312.050
56.23000 299.649
56.24000 287.069
56.25000 279.402
56.26000 278.328
56.27000 277.613
56.28000 273.449
56.29000 265.808
56.30000 258.187
56.31000 252.474
56.32000 248.017
56.33000 243.674
56.34000 240.236
56.35000 237.340
56.36000 234.141
56.37000 227.154
56.38000 219.029
56.39000 210.860
56.40000 202.370
56.41000 193.817
56.42000 186.646
56.43000 187.821
56.44000 189.664
56.45000 189.564
56.46000 183.492
56.47000 177.001
56.48000 171.707
56.49000 168.908
56.50000 166.187
56.51000 164.595
56.52000 165.956
56.53000 166.926
56.54000 165.968
56.55000 163.265
56.56000 160.609
56.57000 160.947
56.58000 163.075
56.59000 165.134
56.60000 167.493
56.61000 169.837
56.62000 171.780
56.63000 169.386
56.64000 165.809
56.65000 162.607
56.66000 161.820
56.67000 161.467
56.68000 161.176
56.69000 163.233
56.70000 165.137
56.71000 165.788
56.72000 162.935
56.73000 159.874
56.74000 156.587
56.75000 152.874
56.76000 149.151
56.77000 147.068
56.78000 147.007
56.79000 146.967
56.80000 145.621
56.81000 143.209
56.82000 140.845
56.83000 140.650
56.84000 141.633
56.85000 142.577
56.86000 142.978
56.87000 143.165
56.88000 143.211
56.89000 141.909
56.90000 140.273
56.91000 139.013
56.92000 139.920
56.93000 141.175
56.94000 142.186
56.95000 140.911
56.96000 139.697
56.97000 140.007
56.98000 144.200
56.99000 148.587
57.00000 151.408
57.01000 151.529
57.02000 151.603
57.03000 151.643
57.04000 151.749
57.05000 151.823
57.06000 152.210
57.07000 152.828
57.08000 153.383
57.09000 151.747
57.10000 149.029
57.11000 146.440
57.12000 143.606
57.13000 140.905
57.14000 138.256
57.15000 136.042
57.16000 133.926
57.17000 132.458
57.18000 134.357
57.19000 136.739
57.20000 138.616
57.21000 140.077
57.22000 141.220
57.23000 142.116
57.24000 142.440
57.25000 142.740
57.26000 144.281
57.27000 147.767
57.28000 151.276
57.29000 153.053
57.30000 146.209
57.31000 141.666
57.32000 141.238
57.33000 143.557
57.34000 145.772
57.35000 145.115
57.36000 143.166
57.37000 141.327
57.38000 139.217
57.39000 137.207
57.40000 135.514
57.41000 136.152
57.42000 137.262
57.43000 138.343
57.44000 139.293
57.45000 140.225
57.46000 140.943
57.47000 135.810
57.48000 131.413
57.49000 130.418
57.50000 136.619
57.51000 143.053
57.52000 146.230
57.53000 144.776
57.54000 143.287
57.55000 143.535
57.56000 145.379
57.57000 147.178
57.58000 145.951
57.59000 142.890
57.60000 139.895
57.61000 138.369
57.62000 137.444
57.63000 136.580
57.64000 141.359
57.65000 147.111
57.66000 151.541
57.67000 147.281
57.68000 141.439
57.69000 136.936
57.70000 138.108
57.71000 139.917
57.72000 141.275
57.73000 137.777
57.74000 134.811
57.75000 133.549
57.76000 135.568
57.77000 137.669
57.78000 139.229
57.79000 140.092
57.80000 140.953
57.81000 141.374
57.82000 141.432
57.83000 141.480
57.84000 141.103
57.85000 140.490
57.86000 139.976
57.87000 141.277
57.88000 143.256
57.89000 145.084
57.90000 143.560
57.91000 141.437
57.92000 138.852
57.93000 133.550
57.94000 127.805
57.95000 124.461
57.96000 130.341
57.97000 137.129
57.98000 142.092
57.99000 141.860
58.00000 141.475
58.01000 141.875
58.02000 143.646
58.03000 145.443
58.04000 144.335
58.05000 139.852
58.06000 135.377
58.07000 133.418
58.08000 133.343
58.09000 133.323
58.10000 135.312
58.11000 138.309
58.12000 141.231
58.13000 143.013
58.14000 144.408
58.15000 145.680
58.16000 139.132
58.17000 131.745
58.18000 126.117
58.19000 129.777
58.20000 134.794
58.21000 138.476
58.22000 137.505
58.23000 136.137
58.24000 135.164
58.25000 129.819
58.26000 125.610
58.27000 124.799
58.28000 129.399
58.29000 134.068
58.30000 136.493
58.31000 136.576
58.32000 136.658
58.33000 138.327
58.34000 141.038
58.35000 143.606
58.36000 142.136
58.37000 138.819
58.38000 135.825
58.39000 137.059
58.40000 139.603
58.41000 141.894
58.42000 140.123
58.43000 137.837
58.44000 136.156
58.45000 137.352
58.46000 138.923
58.47000 139.376
58.48000 136.291
58.49000 132.946
58.50000 130.639
58.51000 129.437
58.52000 128.562
58.53000 130.368
58.54000 136.046
58.55000 141.755
58.56000 142.898
58.57000 139.763
58.58000 136.654
58.59000 136.232
58.60000 137.440
58.61000 138.636
58.62000 139.568
58.63000 140.389
58.64000 141.042
58.65000 139.791
58.66000 138.004
58.67000 136.417
58.68000 137.140
58.69000 138.137
58.70000 138.512
58.71000 136.207
58.72000 133.595
58.73000 131.438
58.74000 130.593
58.75000 129.829
58.76000 129.320
58.77000 132.606
58.78000 135.114
58.79000 136.928
58.80000 137.833
58.81000 138.731
58.82000 137.272
58.83000 133.826
58.84000 130.423
58.85000 130.697
58.86000 132.969
58.87000 135.143
58.88000 135.478
58.89000 135.115
58.90000 134.659
58.91000 133.278
58.92000 131.661
58.93000 130.247
58.94000 132.796
58.95000 135.544
58.96000 136.997
58.97000 133.397
58.98000 129.288
58.99000 126.789
59.00000 128.516
59.01000 130.466
59.02000 131.723
59.03000 130.524
59.04000 129.613
59.05000 128.976
59.06000 128.664
59.07000 128.347
59.08000 126.961
59.09000 124.761
59.10000 122.598
59.11000 123.316
59.12000 125.428
59.13000 127.388
59.14000 126.943
59.15000 125.669
59.16000 124.504
59.17000 124.296
59.18000 124.310
59.19000 124.321
59.20000 124.590
59.21000 124.850
59.22000 125.231
59.23000 126.042
59.24000 126.890
59.25000 126.671
59.26000 123.898
59.27000 121.014
59.28000 119.223
59.29000 124.002
59.30000 127.507
59.31000 130.739
59.32000 133.679
59.33000 136.604
59.34000 137.578
59.35000 137.207
59.36000 136.845
59.37000 135.987
59.38000 134.943
59.39000 134.058
59.40000 135.294
59.41000 137.198
59.42000 138.729
59.43000 137.404
59.44000 135.482
59.45000 133.857
59.46000 133.787
59.47000 133.901
59.48000 134.233
59.49000 135.268
59.50000 136.357
59.51000 136.833
59.52000 135.971
59.53000 135.062
59.54000 134.520
59.55000 133.280
59.56000 132.397
59.57000 130.588
59.58000 127.898
59.59000 125.272
59.60000 127.509
59.61000 132.789
59.62000 137.917
59.63000 139.793
59.64000 140.270
59.65000 140.487
59.66000 137.690
59.67000 134.031
59.68000 130.735
59.69000 129.917
59.70000 129.566
59.71000 129.274
59.72000 130.385
59.73000 131.438
59.74000 132.730
59.75000 134.716
59.76000 136.747
59.77000 138.472
59.78000 139.590
59.79000 140.691
59.80000 141.321
59.81000 133.684
59.82000 128.331
59.83000 127.834
59.84000 131.499
59.85000 135.091
59.86000 134.785
59.87000 132.261
59.88000 129.828
59.89000 128.624
59.90000 127.937
59.91000 127.619
59.92000 131.025
59.93000 135.396
59.94000 138.620
59.95000 134.850
59.96000 129.895
59.97000 125.863
59.98000 128.117
59.99000 130.486
60.00000 132.149
60.01000 131.928
60.02000 131.606
60.03000 130.951
60.04000 129.695
60.05000 128.427
60.06000 127.734
60.07000 132.330
60.08000 135.491
60.09000 137.901
60.10000 139.730
60.11000 141.476
60.12000 139.935
60.13000 136.693
60.14000 133.593
60.15000 135.125
60.16000 138.062
60.17000 140.453
60.18000 137.999
60.19000 134.407
60.20000 131.390
60.21000 131.522
60.22000 132.130
60.23000 132.615
60.24000 130.659
60.25000 128.904
60.26000 127.590
60.27000 127.345
60.28000 127.148
60.29000 126.735
60.30000 125.970
60.31000 125.199
60.32000 124.799
60.33000 130.416
60.34000 134.178
60.35000 133.623
60.36000 130.044
60.37000 126.622
60.38000 128.030
60.39000 131.713
60.40000 135.203
60.41000 136.367
60.42000 136.756
60.43000 137.131
60.44000 137.403
60.45000 137.653
60.46000 137.609
60.47000 136.118
60.48000 134.432
60.49000 133.119
60.50000 131.724
60.51000 130.607
60.52000 129.225
60.53000 127.254
60.54000 125.261
60.55000 122.854
60.56000 119.830
60.57000 116.800
60.58000 117.150
60.59000 120.779
60.60000 124.408
60.61000 127.926
60.62000 131.373
60.63000 134.666
60.64000 134.169
60.65000 132.047
60.66000 130.054
60.67000 132.301
60.68000 135.470
60.69000 137.784
60.70000 134.152
60.71000 129.380
60.72000 125.706
60.73000 126.916
60.74000 128.710
60.75000 130.073
60.76000 132.468
60.77000 134.404
60.78000 135.206
60.79000 133.721
60.80000 132.171
60.81000 132.520
60.82000 135.434
60.83000 138.361
60.84000 139.581
60.85000 139.312
60.86000 139.000
60.87000 136.273
60.88000 132.151
60.89000 128.132
60.90000 126.184
60.91000 125.046
60.92000 123.990
60.93000 130.091
60.94000 137.296
60.95000 143.234
60.96000 141.317
60.97000 138.046
60.98000 135.485
60.99000 135.782
61.00000 136.379
61.01000 136.821
61.02000 134.078
61.03000 131.811
61.04000 129.678
61.05000 127.792
61.06000 125.912
61.07000 126.109
61.08000 128.841
61.09000 131.574
61.10000 132.547
61.11000 132.138
61.12000 131.769
61.13000 133.109
61.14000 135.347
61.15000 137.482
61.16000 137.928
61.17000 137.771
61.18000 137.628
61.19000 133.772
61.20000 129.543
61.21000 126.617
61.22000 130.942
61.23000 136.387
61.24000 139.625
61.25000 134.811
61.26000 129.256
61.27000 125.254
61.28000 128.547
61.29000 131.329
61.30000 133.373
61.31000 134.185
61.32000 134.978
61.33000 135.743
61.34000 136.477
61.35000 137.207
61.36000 135.646
61.37000 132.486
61.38000 129.494
61.39000 131.860
61.40000 136.788
61.41000 141.415
61.42000 141.781
61.43000 140.765
61.44000 139.844
61.45000 142.581
61.46000 145.692
61.47000 148.686
61.48000 151.098
61.49000 153.430
61.50000 155.523
61.51000 156.825
61.52000 158.064
61.53000 158.931
61.54000 170.301
61.55000 179.195
61.56000 189.335
61.57000 201.362
61.58000 213.409
61.59000 223.939
61.60000 232.970
61.61000 241.940
61.62000 250.678
61.63000 259.135
61.64000 267.309
61.65000 268.320
61.66000 266.211
61.67000 264.120
61.68000 262.252
61.69000 260.449
61.70000 258.837
61.71000 261.419
61.72000 264.383
61.73000 266.041
61.74000 261.791
61.75000 256.821
61.76000 250.680
61.77000 241.004
61.78000 231.088
61.79000 224.363
61.80000 206.649
61.81000 193.195
61.82000 184.065
61.83000 180.870
61.84000 177.708
61.85000 170.429
61.86000 159.498
61.87000 148.681
61.88000 146.642
61.89000 149.679
61.90000 152.642
61.91000 154.074
61.92000 154.899
61.93000 155.191
61.94000 149.870
61.95000 143.046
61.96000 137.032
61.97000 137.511
61.98000 138.905
61.99000 139.652
62.00000 137.755
62.01000 135.575
62.02000 134.138
62.03000 134.747
62.04000 135.474
62.05000 135.950
62.06000 139.460
62.07000 142.092
62.08000 142.920
62.09000 141.511
62.10000 140.100
62.11000 140.253
62.12000 141.657
62.13000 143.041
62.14000 141.441
62.15000 138.345
62.16000 135.272
62.17000 132.600
62.18000 130.074
62.19000 127.997
62.20000 130.071
62.21000 133.152
62.22000 135.825
62.23000 141.179
62.24000 146.098
62.25000 149.595
62.26000 147.820
62.27000 145.551
62.28000 143.164
62.29000 140.483
62.30000 137.788
62.31000 136.083
62.32000 141.254
62.33000 145.084
62.34000 146.099
62.35000 143.964
62.36000 141.829
62.37000 140.101
62.38000 138.667
62.39000 137.261
62.40000 140.873
62.41000 146.692
62.42000 152.174
62.43000 152.770
62.44000 151.757
62.45000 150.733
62.46000 149.614
62.47000 148.475
62.48000 147.504
62.49000 148.656
62.50000 149.876
62.51000 149.667
62.52000 144.649
62.53000 139.238
62.54000 136.791
62.55000 141.102
62.56000 145.676
62.57000 148.461
62.58000 145.694
62.59000 143.674
62.60000 142.518
62.61000 142.229
62.62000 141.960
62.63000 143.605
62.64000 146.504
62.65000 149.328
62.66000 150.870
62.67000 151.800
62.68000 152.458
62.69000 149.734
62.70000 145.997
62.71000 143.141
62.72000 146.640
62.73000 151.398
62.74000 155.384
62.75000 151.001
62.76000 146.490
62.77000 142.859
62.78000 141.924
62.79000 141.177
62.80000 139.650
62.81000 136.503
62.82000 133.305
62.83000 131.438
62.84000 138.811
62.85000 144.038
62.86000 143.904
62.87000 138.934
62.88000 134.083
62.89000 136.745
62.90000 143.880
62.91000 150.783
62.92000 150.211
62.93000 146.826
62.94000 143.716
62.95000 143.568
62.96000 144.226
62.97000 144.892
62.98000 145.602
62.99000 146.321
63.00000 146.912
63.01000 146.142
63.02000 145.387
63.03000 144.826
63.04000 144.807
63.05000 144.820
63.06000 144.427
63.07000 143.270
63.08000 142.093
63.09000 141.436
63.10000 146.345
63.11000 149.744
63.12000 148.603
63.13000 143.771
63.14000 138.975
63.15000 135.848
63.16000 133.624
63.17000 131.488
63.18000 137.952
63.19000 146.951
63.20000 155.106
63.21000 155.307
63.22000 153.545
63.23000 152.165
63.24000 152.985
63.25000 154.157
63.26000 155.101
63.27000 145.653
63.28000 137.176
63.29000 132.027
63.30000 135.332
63.31000 139.053
63.32000 144.170
63.33000 151.686
63.34000 159.244
63.35000 163.269
63.36000 153.451
63.37000 146.767
63.38000 142.102
63.39000 138.921
63.40000 135.956
63.41000 140.451
63.42000 148.622
63.43000 156.403
63.44000 158.546
63.45000 158.786
63.46000 158.859
63.47000 157.535
63.48000 155.900
63.49000 154.056
63.50000 151.131
63.51000 148.050
63.52000 145.625
63.53000 150.072
63.54000 154.095
63.55000 156.187
63.56000 153.808
63.57000 151.248
63.58000 150.004
63.59000 150.815
63.60000 151.650
63.61000 152.073
63.62000 152.832
63.63000 153.337
63.64000 153.531
63.65000 153.518
63.66000 153.586
63.67000 155.841
63.68000 159.079
63.69000 162.133
63.70000 160.018
63.71000 156.639
63.72000 153.463
63.73000 151.782
63.74000 150.403
63.75000 149.021
63.76000 147.627
63.77000 146.231
63.78000 145.157
63.79000 150.135
63.80000 154.417
63.81000 157.196
63.82000 156.807
63.83000 156.316
63.84000 157.948
63.85000 162.590
63.86000 167.252
63.87000 167.488
63.88000 163.663
63.89000 159.858
63.90000 157.304
63.91000 155.506
63.92000 153.852
63.93000 155.355
63.94000 158.148
63.95000 160.755
63.96000 159.198
63.97000 156.744
63.98000 154.797
63.99000 156.175
64.00000 158.156
64.01000 159.427
64.02000 157.694
64.03000 155.626
64.04000 154.074
64.05000 156.696
64.06000 158.942
64.07000 160.083
64.08000 159.101
64.09000 158.066
64.10000 157.028
64.11000 155.987
64.12000 154.946
64.13000 153.415
64.14000 151.484
64.15000 149.619
64.16000 150.933
64.17000 153.995
64.18000 156.929
64.19000 157.549
64.20000 157.306
64.21000 157.083
64.22000 154.858
64.23000 152.413
64.24000 150.797
64.25000 154.042
64.26000 158.077
64.27000 160.653
64.28000 157.642
64.29000 154.083
64.30000 151.483
64.31000 154.054
64.32000 156.239
64.33000 158.383
64.34000 160.456
64.35000 162.528
64.36000 161.990
64.37000 158.433
64.38000 154.882
64.39000 155.740
64.40000 159.860
64.41000 163.917
64.42000 165.690
64.43000 166.320
64.44000 166.891
64.45000 166.564
64.46000 165.933
64.47000 165.358
64.48000 167.713
64.49000 170.392
64.50000 172.569
64.51000 172.109
64.52000 171.264
64.53000 170.466
64.54000 169.827
64.55000 169.201
64.56000 168.756
64.57000 171.316
64.58000 173.359
64.59000 175.193
64.60000 176.697
64.61000 178.196
64.62000 177.495
64.63000 174.502
64.64000 171.525
64.65000 173.713
64.66000 179.324
64.67000 184.686
64.68000 183.042
64.69000 178.205
64.70000 173.611
64.71000 172.184
64.72000 171.735
64.73000 171.331
64.74000 167.832
64.75000 164.207
64.76000 162.145
64.77000 167.495
64.78000 173.803
64.79000 178.807
64.80000 179.692
64.81000 180.274
64.82000 180.675
64.83000 177.921
64.84000 175.775
64.85000 175.690
64.86000 178.575
64.87000 181.483
64.88000 181.701
64.89000 179.407
64.90000 177.134
64.91000 178.237
64.92000 181.353
64.93000 184.430
64.94000 186.631
64.95000 188.468
64.96000 190.185
64.97000 190.556
64.98000 190.549
64.99000 190.542
65.00000 190.725
65.01000 190.913
65.02000 190.956
65.03000 190.372
65.04000 189.717
65.05000 189.016
65.06000 188.182
65.07000 187.341
65.08000 186.780
65.09000 188.586
65.10000 189.969
65.11000 193.084
65.12000 198.459
65.13000 203.843
65.14000 208.380
65.15000 212.208
65.16000 215.987
65.17000 215.106
65.18000 211.715
65.19000 208.614
65.20000 210.945
65.21000 215.331
65.22000 218.988
65.23000 215.485
65.24000 210.159
65.25000 205.503
65.26000 215.114
65.27000 225.372
65.28000 232.917
65.29000 229.913
65.30000 225.851
65.31000 222.557
65.32000 221.275
65.33000 220.099
65.34000 219.342
65.35000 233.344
65.36000 243.774
65.37000 247.655
65.38000 243.825
65.39000 240.004
65.40000 240.906
65.41000 245.394
65.42000 249.803
65.43000 258.905
65.44000 270.001
65.45000 280.490
65.46000 281.433
65.47000 279.087
65.48000 276.813
65.49000 275.150
65.50000 273.629
65.51000 272.321
65.52000 275.498
65.53000 278.750
65.54000 282.972
65.55000 290.617
65.56000 298.561
65.57000 303.793
65.58000 302.554
65.59000 301.037
65.60000 300.095
65.61000 318.696
65.62000 332.269
65.63000 344.537
65.64000 355.420
65.65000 366.328
65.66000 380.182
65.67000 396.060
65.68000 411.575
65.69000 444.703
65.70000 484.241
65.71000 524.863
65.72000 580.015
65.73000 639.723
65.74000 698.249
65.75000 747.756
65.76000 795.383
65.77000 835.641
65.78000 901.777
65.79000 959.952
65.80000 1008.826
65.81000 1027.865
65.82000 1044.656
65.83000 1061.425
65.84000 1078.144
65.85000 1094.862
65.86000 1104.827
65.87000 1114.925
65.88000 1122.080
65.89000 1115.124
65.90000 1094.760
65.91000 1074.306
65.92000 1047.036
65.93000 1015.515
65.94000 984.910
65.95000 939.177
65.96000 889.720
65.97000 839.300
65.98000 777.760
65.99000 713.051
66.00000 649.613
66.01000 594.819
66.02000 541.648
66.03000 497.534
66.04000 458.967
66.05000 427.630
66.06000 400.819
66.07000 387.219
66.08000 374.468
66.09000 360.426
66.10000 343.829
66.11000 327.162
66.12000 317.643
66.13000 326.212
66.14000 332.234
66.15000 325.656
66.16000 308.308
66.17000 291.337
66.18000 294.227
66.19000 308.376
66.20000 322.014
66.21000 321.960
66.22000 316.967
66.23000 313.035
66.24000 319.762
66.25000 329.247
66.26000 337.950
66.27000 341.908
66.28000 345.066
66.29000 347.634
66.30000 363.531
66.31000 377.623
66.32000 391.334
66.33000 404.034
66.34000 416.678
66.35000 426.819
66.36000 432.448
66.37000 437.986
66.38000 441.006
66.39000 451.199
66.40000 458.187
66.41000 460.108
66.42000 458.120
66.43000 456.109
66.44000 453.161
66.45000 449.730
66.46000 446.449
66.47000 449.951
66.48000 455.417
66.49000 458.839
66.50000 444.238
66.51000 425.413
66.52000 408.051
66.53000 398.659
66.54000 390.471
66.55000 383.952
66.56000 375.168
66.57000 367.923
66.58000 358.759
66.59000 344.946
66.60000 330.926
66.61000 322.178
66.62000 322.065
66.63000 322.075
66.64000 322.081
66.65000 321.153
66.66000 320.537
66.67000 321.399
66.68000 323.292
66.69000 325.108
66.70000 324.564
66.71000 322.912
66.72000 321.347
66.73000 321.467
66.74000 322.072
66.75000 322.267
66.76000 319.264
66.77000 315.585
66.78000 313.202
66.79000 317.184
66.80000 322.022
66.81000 325.787
66.82000 323.436
66.83000 321.189
66.84000 321.535
66.85000 327.603
66.86000 333.876
66.87000 338.450
66.88000 340.496
66.89000 342.519
66.90000 341.540
66.91000 337.661
66.92000 333.818
66.93000 332.930
66.94000 333.915
66.95000 335.089
66.96000 340.864
66.97000 348.607
66.98000 355.874
66.99000 359.725
67.00000 362.334
67.01000 364.371
67.02000 362.446
67.03000 359.764
67.04000 359.318
67.05000 368.784
67.06000 379.430
67.07000 387.516
67.08000 373.591
67.09000 361.504
67.10000 356.032
67.11000 363.856
67.12000 372.055
67.13000 375.417
67.14000 372.263
67.15000 369.076
67.16000 371.470
67.17000 378.701
67.18000 385.885
67.19000 390.407
67.20000 393.397
67.21000 396.080
67.22000 392.664
67.23000 386.870
67.24000 381.490
67.25000 383.563
67.26000 387.196
67.27000 390.070
67.28000 388.242
67.29000 385.606
67.30000 383.498
67.31000 383.507
67.32000 383.738
67.33000 383.909
67.34000 389.333
67.35000 393.768
67.36000 400.105
67.37000 409.922
67.38000 419.813
67.39000 424.250
67.40000 422.049
67.41000 419.837
67.42000 417.341
67.43000 414.636
67.44000 411.987
67.45000 411.651
67.46000 412.527
67.47000 413.546
67.48000 416.945
67.49000 421.189
67.50000 425.084
67.51000 428.002
67.52000 430.395
67.53000 432.668
67.54000 434.270
67.55000 435.769
67.56000 438.370
67.57000 444.977
67.58000 451.952
67.59000 456.973
67.60000 446.564
67.61000 438.048
67.62000 433.733
67.63000 436.406
67.64000 439.186
67.65000 445.434
67.66000 455.486
67.67000 465.499
67.68000 470.452
67.69000 471.802
67.70000 473.185
67.71000 475.594
67.72000 478.491
67.73000 480.892
67.74000 476.283
67.75000 469.410
67.76000 463.182
67.77000 467.043
67.78000 472.364
67.79000 477.713
67.80000 483.207
67.81000 488.720
67.82000 493.221
67.83000 494.374
67.84000 495.261
67.85000 495.882
67.86000 497.637
67.87000 498.996
67.88000 502.468
67.89000 509.133
67.90000 515.831
67.91000 515.636
67.92000 508.661
67.93000 501.734
67.94000 501.702
67.95000 506.037
67.96000 509.993
67.97000 504.420
67.98000 494.708
67.99000 486.604
68.00000 497.942
68.01000 514.996
68.02000 530.240
68.03000 539.639
68.04000 546.840
68.05000 553.550
68.06000 558.047
68.07000 562.274
68.08000 565.228
68.09000 564.350
68.10000 563.212
68.11000 562.441
68.12000 568.484
68.13000 573.139
68.14000 573.831
68.15000 569.099
68.16000 564.342
68.17000 565.971
68.18000 573.248
68.19000 580.448
68.20000 587.218
68.21000 593.591
68.22000 599.585
68.23000 597.827
68.24000 593.002
68.25000 589.650
68.26000 601.769
68.27000 618.018
68.28000 632.331
68.29000 635.513
68.30000 636.579
68.31000 637.728
68.32000 639.216
68.33000 640.739
68.34000 643.558
68.35000 649.925
68.36000 656.496
68.37000 660.800
68.38000 684.767
68.39000 702.709
68.40000 714.250
68.41000 717.869
68.42000 721.450
68.43000 719.830
68.44000 714.063
68.45000 708.382
68.46000 718.353
68.47000 736.098
68.48000 753.779
68.49000 770.364
68.50000 786.554
68.51000 801.645
68.52000 806.638
68.53000 809.187
68.54000 811.397
68.55000 835.439
68.56000 858.818
68.57000 883.754
68.58000 914.446
68.59000 945.677
68.60000 979.002
68.61000 1017.556
68.62000 1056.359
68.63000 1080.878
68.64000 1131.466
68.65000 1168.429
68.66000 1207.491
68.67000 1248.893
68.68000 1290.429
68.69000 1352.548
68.70000 1429.507
68.71000 1504.920
68.72000 1581.659
68.73000 1656.097
68.74000 1727.643
68.75000 1757.401
68.76000 1773.443
68.77000 1793.512
68.78000 1846.196
68.79000 1906.023
68.80000 1957.032
68.81000 2069.194
68.82000 2170.745
68.83000 2270.788
68.84000 2365.767
68.85000 2460.335
68.86000 2588.319
68.87000 2792.294
68.88000 2999.208
68.89000 3125.011
68.90000 3688.071
68.91000 4093.503
68.92000 4929.375
68.93000 6196.377
68.94000 7473.946
68.95000 9732.711
68.96000 12632.811
68.97000 15457.585
68.98000 19557.180
68.99000 24001.641
69.00000 28455.012
69.01000 33018.813
69.02000 37615.578
69.03000 42052.645
69.04000 45341.813
69.05000 48404.133
69.06000 50968.285
69.07000 52457.668
69.08000 53585.094
69.09000 54508.766
69.10000 54809.875
69.11000 55067.715
69.12000 55380.840
69.13000 55808.484
69.14000 56239.637
69.15000 56491.145
69.16000 57564.078
69.17000 58321.922
69.18000 58508.754
69.19000 58182.047
69.20000 57832.293
69.21000 56046.105
69.22000 53407.258
69.23000 50854.441
69.24000 47748.402
69.25000 44604.941
69.26000 41513.117
69.27000 38975.730
69.28000 36588.691
69.29000 34304.082
69.30000 32676.025
69.31000 31164.699
69.32000 29923.445
69.33000 29041.727
69.34000 28349.908
69.35000 27663.871
69.36000 26993.908
69.37000 26324.891
69.38000 25378.641
69.39000 23909.518
69.40000 22428.117
69.41000 21601.623
69.42000 18099.408
69.43000 15670.124
69.44000 13412.439
69.45000 11293.846
69.46000 9187.333
69.47000 7624.827
69.48000 6355.993
69.49000 5137.890
69.50000 4258.046
69.51000 3550.953
69.52000 2877.990
69.53000 2525.340
69.54000 2251.466
69.55000 1997.775
69.56000 1859.962
69.57000 1740.617
69.58000 1644.601
69.59000 1560.178
69.60000 1492.600
69.61000 1425.598
69.62000 1360.053
69.63000 1294.580
69.64000 1243.848
69.65000 1218.405
69.66000 1193.396
69.67000 1180.098
69.68000 1113.133
69.69000 1067.602
69.70000 1036.710
69.71000 1016.542
69.72000 996.317
69.73000 974.109
69.74000 950.926
69.75000 928.859
69.76000 914.296
69.77000 903.129
69.78000 891.442
69.79000 875.453
69.80000 858.506
69.81000 841.568
69.82000 824.674
69.83000 807.786
69.84000 794.496
69.85000 784.272
69.86000 776.286
69.87000 768.051
69.88000 759.243
69.89000 750.413
69.90000 742.024
69.91000 734.324
69.92000 726.633
69.93000 722.750
69.94000 702.383
69.95000 688.748
69.96000 673.754
69.97000 657.858
69.98000 642.551
69.99000 643.113
70.00000 650.780
