20.00000 562.714
20.01000 562.958
20.02000 563.237
20.03000 563.308
20.04000 562.569
20.05000 561.747
20.06000 561.144
20.07000 557.593
20.08000 554.726
20.09000 555.046
20.10000 561.047
20.11000 567.159
20.12000 565.380
20.13000 554.262
20.14000 543.156
20.15000 542.554
20.16000 549.919
20.17000 557.181
20.18000 560.488
20.19000 561.777
20.20000 563.252
20.21000 567.671
20.22000 573.109
20.23000 578.082
20.24000 573.777
20.25000 568.039
20.26000 563.645
20.27000 566.493
20.28000 570.420
20.29000 571.786
20.30000 564.069
20.31000 555.552
20.32000 549.468
20.33000 552.279
20.34000 554.720
20.35000 553.510
20.36000 546.383
20.37000 539.175
20.38000 540.163
20.39000 549.880
20.40000 559.552
20.41000 563.820
20.42000 564.349
20.43000 564.791
20.44000 562.648
20.45000 559.305
20.46000 555.844
20.47000 550.782
20.48000 545.217
20.49000 540.192
20.50000 543.286
20.51000 547.501
20.52000 549.465
20.53000 540.512
20.54000 530.110
20.55000 523.885
20.56000 531.122
20.57000 539.381
20.58000 545.107
20.59000 549.808
20.60000 553.321
20.61000 553.879
20.62000 550.089
20.63000 546.261
20.64000 544.798
20.65000 545.593
20.66000 546.383
20.67000 546.072
20.68000 545.089
20.69000 544.314
20.70000 548.462
20.71000 554.696
20.72000 560.349
20.73000 559.250
20.74000 556.219
20.75000 553.520
20.76000 550.115
20.77000 547.042
20.78000 545.013
20.79000 547.564
20.80000 550.653
20.81000 552.555
20.82000 550.973
20.83000 549.166
20.84000 547.953
20.85000 550.075
20.86000 551.720
20.87000 555.768
20.88000 563.017
20.89000 570.265
20.90000 565.245
20.91000 549.683
20.92000 534.303
20.93000 528.947
20.94000 529.292
20.95000 529.763
20.96000 532.710
20.97000 536.612
20.98000 540.144
20.99000 539.937
21.00000 538.758
21.01000 537.724
21.02000 535.700
21.03000 533.817
21.04000 533.359
21.05000 538.556
21.06000 544.336
21.07000 547.008
21.08000 541.375
21.09000 535.290
21.10000 531.341
21.11000 541.274
21.12000 548.756
21.13000 551.346
21.14000 548.047
21.15000 544.753
21.16000 546.106
21.17000 551.062
21.18000 555.937
21.19000 560.693
21.20000 565.235
21.21000 569.302
21.22000 565.622
21.23000 559.220
21.24000 553.110
21.25000 549.585
21.26000 546.670
21.27000 544.153
21.28000 546.271
21.29000 548.666
21.30000 550.497
21.31000 550.300
21.32000 549.920
21.33000 550.434
21.34000 553.121
21.35000 555.906
21.36000 557.648
21.37000 558.609
21.38000 559.295
21.39000 560.894
21.40000 563.485
21.41000 566.044
21.42000 564.335
21.43000 559.630
21.44000 555.027
21.45000 555.213
21.46000 557.561
21.47000 559.460
21.48000 555.135
21.49000 548.821
21.50000 542.916
21.51000 540.223
21.52000 538.214
21.53000 536.509
21.54000 541.971
21.55000 547.363
21.56000 553.003
21.57000 559.450
21.58000 565.961
21.59000 566.876
21.60000 555.388
21.61000 543.449
21.62000 536.269
21.63000 552.385
21.64000 564.005
21.65000 571.037
21.66000 573.610
21.67000 576.114
21.68000 572.996
21.69000 566.299
21.70000 559.787
21.71000 564.834
21.72000 574.359
21.73000 583.262
21.74000 584.769
21.75000 584.125
21.76000 583.818
21.77000 585.861
21.78000 588.354
21.79000 590.431
21.80000 593.475
21.81000 596.092
21.82000 601.718
21.83000 616.303
21.84000 631.485
21.85000 643.687
21.86000 649.875
21.87000 655.890
21.88000 659.358
21.89000 669.968
21.90000 677.422
21.91000 682.488
21.92000 685.468
21.93000 688.552
21.94000 697.531
21.95000 709.918
21.96000 721.878
21.97000 727.831
21.98000 731.223
21.99000 735.047
22.00000 743.340
22.01000 752.812
22.02000 760.913
22.03000 760.488
22.04000 758.590
22.05000 757.040
22.06000 759.710
22.07000 762.260
22.08000 763.711
22.09000 762.185
22.10000 760.491
22.11000 755.023
22.12000 742.614
22.13000 730.055
22.14000 723.137
22.15000 714.867
22.16000 709.173
22.17000 705.483
22.18000 703.372
22.19000 701.176
22.20000 695.388
22.21000 687.710
22.22000 680.356
22.23000 683.100
22.24000 689.021
22.25000 693.238
22.26000 682.027
22.27000 667.123
22.28000 653.602
22.29000 647.792
22.30000 643.175
22.31000 639.482
22.32000 638.667
22.33000 638.223
22.34000 634.958
22.35000 624.726
22.36000 614.170
22.37000 609.769
22.38000 615.656
22.39000 621.703
22.40000 624.875
22.41000 609.196
22.42000 598.582
22.43000 590.245
22.44000 583.531
22.45000 577.002
22.46000 576.348
22.47000 578.509
22.48000 580.561
22.49000 574.536
22.50000 566.552
22.51000 559.126
22.52000 556.157
22.53000 554.154
22.54000 552.442
22.55000 552.189
22.56000 552.137
22.57000 552.097
22.58000 542.229
22.59000 533.727
22.60000 530.365
22.61000 538.576
22.62000 547.223
22.63000 548.189
22.64000 537.498
22.65000 526.685
22.66000 517.894
22.67000 511.103
22.68000 504.427
22.69000 507.929
22.70000 518.013
22.71000 527.814
22.72000 530.445
22.73000 529.946
22.74000 529.477
22.75000 521.206
22.76000 511.547
22.77000 503.671
22.78000 508.446
22.79000 515.693
22.80000 521.613
22.81000 521.523
22.82000 520.698
22.83000 520.068
22.84000 519.599
22.85000 519.238
22.86000 517.800
22.87000 514.154
22.88000 510.443
22.89000 509.364
22.90000 511.908
22.91000 514.473
22.92000 509.565
22.93000 498.028
22.94000 486.649
22.95000 484.678
22.96000 488.235
22.97000 492.012
22.98000 500.369
22.99000 510.547
23.00000 520.019
23.01000 520.761
23.02000 519.315
23.03000 517.267
23.04000 511.409
23.05000 504.883
23.06000 500.712
23.07000 506.195
23.08000 512.718
23.09000 517.573
23.10000 529.831
23.11000 539.701
23.12000 540.612
23.13000 524.798
23.14000 508.604
23.15000 498.972
23.16000 497.501
23.17000 496.055
23.18000 497.195
23.19000 500.393
23.20000 503.627
23.21000 508.472
23.22000 514.178
23.23000 519.499
23.24000 518.178
23.25000 514.451
23.26000 511.023
23.27000 507.183
23.28000 503.661
23.29000 502.082
23.30000 511.525
23.31000 522.704
23.32000 529.336
23.33000 519.071
23.34000 507.214
23.35000 498.625
23.36000 503.344
23.37000 507.458
23.38000 508.661
23.39000 504.924
23.40000 501.104
23.41000 498.950
23.42000 498.663
23.43000 498.379
23.44000 498.929
23.45000 500.075
23.46000 501.288
23.47000 504.723
23.48000 509.239
23.49000 513.414
23.50000 512.613
23.51000 510.172
23.52000 507.953
23.53000 512.410
23.54000 517.646
23.55000 520.969
23.56000 514.528
23.57000 506.715
23.58000 500.879
23.59000 501.717
23.60000 503.101
23.61000 504.074
23.62000 498.953
23.63000 494.891
23.64000 494.589
23.65000 500.084
23.66000 505.643
23.67000 505.950
23.68000 500.967
23.69000 496.016
23.70000 487.508
23.71000 476.821
23.72000 466.585
23.73000 468.232
23.74000 475.143
23.75000 481.533
23.76000 481.412
23.77000 479.339
23.78000 477.480
23.79000 481.759
23.80000 486.563
23.81000 490.343
23.82000 489.409
23.83000 487.887
23.84000 487.133
23.85000 488.737
23.86000 490.507
23.87000 491.714
23.88000 492.460
23.89000 493.006
23.90000 491.461
23.91000 486.992
23.92000 482.509
23.93000 485.764
23.94000 496.017
23.95000 506.169
23.96000 508.169
23.97000 505.365
23.98000 502.595
23.99000 500.535
24.00000 498.763
24.01000 497.196
24.02000 497.850
24.03000 499.108
24.04000 500.221
24.05000 498.658
24.06000 496.896
24.07000 494.683
24.08000 490.597
24.09000 486.306
24.10000 483.185
24.11000 483.338
24.12000 483.685
24.13000 483.914
24.14000 480.965
24.15000 478.736
24.16000 477.046
24.17000 476.039
24.18000 475.034
24.19000 474.386
24.20000 474.028
24.21000 473.675
24.22000 473.490
24.23000 473.398
24.24000 473.232
24.25000 471.738
24.26000 469.757
24.27000 468.297
24.28000 471.762
24.29000 476.443
24.30000 480.517
24.31000 476.779
24.32000 472.519
24.33000 469.210
24.34000 469.491
24.35000 470.117
24.36000 472.307
24.37000 478.480
24.38000 484.850
24.39000 488.907
24.40000 484.633
24.41000 481.421
24.42000 481.728
24.43000 486.048
24.44000 490.355
24.45000 491.533
24.46000 490.408
24.47000 489.305
24.48000 487.379
24.49000 485.131
24.50000 483.257
24.51000 486.975
24.52000 492.565
24.53000 496.818
24.54000 489.958
24.55000 480.612
24.56000 472.613
24.57000 477.940
24.58000 484.042
24.59000 488.223
24.60000 485.816
24.61000 482.859
24.62000 480.945
24.63000 481.455
24.64000 482.062
24.65000 482.435
24.66000 494.282
24.67000 502.867
24.68000 504.968
24.69000 500.422
24.70000 495.829
24.71000 486.422
24.72000 473.802
24.73000 461.494
24.74000 458.555
24.75000 459.773
24.76000 460.891
24.77000 460.732
24.78000 460.184
24.79000 459.889
24.80000 461.458
24.81000 463.403
24.82000 465.039
24.83000 474.415
24.84000 483.049
24.85000 489.218
24.86000 487.704
24.87000 485.638
24.88000 482.201
24.89000 475.869
24.90000 469.443
24.91000 465.661
24.92000 474.803
24.93000 481.320
24.94000 485.788
24.95000 488.371
24.96000 490.835
24.97000 485.274
24.98000 474.850
24.99000 464.750
25.00000 464.749
25.01000 468.665
25.02000 472.489
25.03000 475.305
25.04000 477.843
25.05000 480.247
25.06000 481.773
25.07000 483.138
25.08000 484.265
25.09000 483.014
25.10000 481.764
25.11000 480.985
25.12000 481.538
25.13000 482.173
25.14000 480.933
25.15000 476.087
25.16000 471.150
25.17000 468.369
25.18000 468.442
25.19000 468.499
25.20000 467.349
25.21000 465.200
25.22000 463.157
25.23000 466.212
25.24000 472.075
25.25000 477.713
25.26000 480.205
25.27000 481.440
25.28000 481.782
25.29000 473.510
25.30000 463.075
25.31000 453.461
25.32000 448.679
25.33000 444.685
25.34000 441.457
25.35000 452.832
25.36000 463.252
25.37000 469.744
25.38000 466.084
25.39000 461.906
25.40000 459.324
25.41000 459.538
25.42000 459.803
25.43000 459.946
25.44000 454.505
25.45000 450.825
25.46000 455.519
25.47000 466.480
25.48000 477.121
25.49000 476.200
25.50000 469.482
25.51000 463.075
25.52000 462.619
25.53000 464.073
25.54000 465.047
25.55000 461.950
25.56000 457.928
25.57000 455.633
25.58000 462.458
25.59000 470.612
25.60000 477.060
25.61000 470.334
25.62000 464.026
25.63000 459.733
25.64000 460.182
25.65000 460.829
25.66000 460.800
25.67000 459.693
25.68000 458.573
25.69000 458.001
25.70000 455.207
25.71000 453.355
25.72000 454.092
25.73000 456.585
25.74000 458.872
25.75000 455.314
25.76000 449.088
25.77000 443.205
25.78000 440.757
25.79000 439.485
25.80000 438.527
25.81000 439.923
25.82000 441.803
25.83000 442.243
25.84000 435.834
25.85000 428.536
25.86000 422.897
25.87000 436.146
25.88000 447.758
25.89000 456.366
25.90000 458.532
25.91000 460.482
25.92000 461.308
25.93000 460.510
25.94000 459.700
25.95000 458.160
25.96000 455.937
25.97000 453.700
25.98000 450.371
25.99000 446.371
26.00000 442.538
26.01000 442.525
26.02000 444.101
26.03000 445.575
26.04000 437.255
26.05000 427.194
26.06000 419.314
26.07000 426.008
26.08000 435.400
26.09000 444.309
26.10000 451.141
26.11000 457.735
26.12000 462.705
26.13000 460.127
26.14000 457.737
26.15000 455.574
26.16000 453.854
26.17000 452.147
26.18000 450.876
26.19000 450.177
26.20000 449.481
26.21000 451.467
26.22000 455.701
26.23000 459.873
26.24000 460.956
26.25000 460.309
26.26000 459.629
26.27000 458.303
26.28000 456.731
26.29000 455.278
26.30000 455.904
26.31000 456.944
26.32000 458.162
26.33000 460.442
26.34000 462.899
26.35000 464.087
26.36000 460.335
26.37000 456.085
26.38000 452.965
26.39000 453.557
26.40000 454.165
26.41000 454.029
26.42000 452.570
26.43000 451.086
26.44000 449.191
26.45000 446.813
26.46000 444.440
26.47000 444.639
26.48000 446.780
26.49000 448.832
26.50000 447.494
26.51000 444.432
26.52000 441.932
26.53000 448.311
26.54000 457.755
26.55000 466.388
26.56000 462.574
26.57000 456.628
26.58000 451.273
26.59000 449.088
26.60000 447.375
26.61000 446.176
26.62000 446.791
26.63000 447.565
26.64000 448.118
26.65000 454.179
26.66000 458.984
26.67000 459.444
26.68000 452.883
26.69000 446.226
26.70000 442.637
26.71000 442.305
26.72000 441.976
26.73000 443.182
26.74000 445.419
26.75000 447.527
26.76000 445.859
26.77000 442.440
26.78000 439.267
26.79000 439.383
26.80000 440.533
26.81000 441.571
26.82000 442.577
26.83000 443.455
26.84000 444.281
26.85000 444.858
26.86000 445.403
26.87000 445.328
26.88000 443.260
26.89000 441.042
26.90000 439.506
26.91000 442.613
26.92000 445.074
26.93000 443.087
26.94000 434.578
26.95000 426.013
26.96000 424.646
26.97000 430.133
26.98000 435.577
26.99000 441.369
27.00000 447.273
27.01000 452.880
27.02000 451.464
27.03000 447.083
27.04000 443.054
27.05000 443.102
27.06000 444.314
27.07000 445.393
27.08000 440.719
27.09000 435.720
27.10000 432.821
27.11000 439.109
27.12000 446.471
27.13000 450.189
27.14000 443.247
27.15000 435.619
27.16000 430.501
27.17000 429.515
27.18000 428.866
27.19000 424.248
27.20000 414.359
27.21000 404.464
27.22000 407.817
27.23000 422.519
27.24000 437.047
27.25000 434.884
27.26000 423.529
27.27000 412.880
27.28000 415.917
27.29000 424.218
27.30000 431.486
27.31000 428.346
27.32000 422.508
27.33000 417.390
27.34000 427.533
27.35000 438.456
27.36000 446.704
27.37000 444.365
27.38000 440.937
27.39000 439.015
27.40000 441.103
27.41000 443.408
27.42000 444.902
27.43000 440.059
27.44000 436.420
27.45000 434.645
27.46000 435.106
27.47000 435.566
27.48000 434.607
27.49000 432.552
27.50000 430.531
27.51000 426.961
27.52000 422.734
27.53000 418.599
27.54000 415.961
27.55000 413.847
27.56000 412.543
27.57000 418.391
27.58000 425.920
27.59000 432.416
27.60000 429.587
27.61000 425.991
27.62000 421.563
27.63000 414.151
27.64000 406.470
27.65000 401.795
27.66000 404.413
27.67000 407.357
27.68000 409.197
27.69000 418.987
27.70000 426.133
27.71000 429.571
27.72000 429.003
27.73000 428.453
27.74000 430.470
27.75000 434.284
27.76000 438.015
27.77000 440.286
27.78000 441.806
27.79000 443.289
27.80000 444.257
27.81000 445.060
27.82000 444.637
27.83000 434.634
27.84000 422.596
27.85000 412.388
27.86000 417.217
27.87000 422.964
27.88000 426.737
27.89000 424.066
27.90000 420.896
27.91000 419.312
27.92000 421.235
27.93000 423.284
27.94000 424.515
27.95000 424.995
27.96000 425.332
27.97000 424.604
27.98000 422.846
27.99000 421.085
28.00000 419.047
28.01000 416.833
28.02000 414.682
28.03000 418.026
28.04000 423.446
28.05000 428.885
28.06000 434.555
28.07000 440.291
28.08000 445.287
28.09000 445.148
28.10000 444.024
28.11000 443.089
28.12000 439.576
28.13000 436.411
28.14000 433.002
28.15000 428.869
28.16000 424.688
28.17000 422.377
28.18000 423.831
28.19000 425.392
28.20000 426.291
28.21000 415.934
28.22000 408.647
28.23000 404.808
28.24000 403.971
28.25000 403.212
28.26000 406.801
28.27000 412.897
28.28000 418.781
28.29000 424.687
28.30000 430.256
28.31000 435.028
28.32000 431.601
28.33000 426.014
28.34000 420.973
28.35000 419.317
28.36000 418.243
28.37000 417.366
28.38000 422.441
28.39000 427.104
28.40000 429.855
28.41000 427.437
28.42000 424.730
28.43000 421.270
28.44000 416.428
28.45000 411.556
28.46000 408.876
28.47000 408.844
28.48000 408.814
28.49000 405.533
28.50000 399.695
28.51000 394.048
28.52000 396.270
28.53000 402.620
28.54000 408.702
28.55000 403.549
28.56000 395.018
28.57000 387.988
28.58000 394.499
28.59000 404.242
28.60000 412.224
28.61000 410.413
28.62000 407.095
28.63000 404.442
28.64000 411.097
28.65000 417.164
28.66000 419.342
28.67000 411.939
28.68000 404.094
28.69000 400.252
28.70000 403.082
28.71000 406.015
28.72000 407.551
28.73000 409.922
28.74000 411.558
28.75000 417.509
28.76000 426.528
28.77000 435.193
28.78000 432.637
28.79000 424.721
28.80000 417.206
28.81000 417.750
28.82000 420.660
28.83000 423.162
28.84000 422.416
28.85000 420.969
28.86000 418.855
28.87000 413.408
28.88000 407.502
28.89000 402.887
28.90000 409.302
28.91000 415.120
28.92000 416.859
28.93000 409.444
28.94000 401.686
28.95000 400.336
28.96000 408.687
28.97000 417.136
28.98000 419.792
28.99000 416.734
29.00000 413.688
29.01000 411.755
29.02000 410.539
29.03000 409.176
29.04000 404.105
29.05000 397.421
29.06000 391.137
29.07000 396.223
29.08000 403.926
29.09000 410.751
29.10000 411.365
29.11000 410.770
29.12000 410.148
29.13000 409.407
29.14000 408.652
29.15000 408.075
29.16000 421.296
29.17000 432.451
29.18000 438.395
29.19000 433.683
29.20000 428.656
29.21000 422.645
29.22000 415.283
29.23000 407.917
29.24000 401.760
29.25000 396.683
29.26000 391.745
29.27000 395.086
29.28000 403.275
29.29000 411.138
29.30000 412.263
29.31000 410.717
29.32000 409.279
29.33000 404.062
29.34000 398.437
29.35000 394.513
29.36000 401.327
29.37000 410.021
29.38000 416.209
29.39000 412.154
29.40000 407.000
29.41000 403.168
29.42000 395.783
29.43000 389.881
29.44000 388.704
29.45000 396.323
29.46000 404.140
29.47000 406.676
29.48000 402.665
29.49000 398.642
29.50000 398.862
29.51000 402.456
29.52000 405.929
29.53000 404.192
29.54000 399.680
29.55000 395.262
29.56000 392.466
29.57000 390.254
29.58000 388.221
29.59000 393.189
29.60000 399.144
29.61000 404.073
29.62000 403.192
29.63000 401.400
29.64000 399.245
29.65000 395.742
29.66000 392.113
29.67000 389.486
29.68000 400.279
29.69000 409.056
29.70000 414.248
29.71000 413.372
29.72000 412.397
29.73000 408.434
29.74000 401.130
29.75000 393.850
29.76000 395.257
29.77000 402.873
29.78000 410.326
29.79000 412.423
29.80000 411.923
29.81000 411.587
29.82000 413.638
29.83000 416.475
29.84000 419.052
29.85000 425.419
29.86000 431.779
29.87000 436.083
29.88000 429.931
29.89000 422.316
29.90000 415.524
29.91000 411.502
29.92000 407.706
29.93000 405.037
29.94000 413.509
29.95000 420.254
29.96000 424.159
29.97000 423.698
29.98000 423.189
29.99000 423.575
30.00000 424.860
30.01000 426.136
30.02000 425.121
30.03000 422.642
30.04000 420.301
30.05000 421.583
30.06000 424.466
30.07000 427.089
30.08000 426.482
30.09000 424.908
30.10000 423.498
30.11000 414.565
30.12000 405.461
30.13000 400.001
30.14000 411.261
30.15000 424.598
30.16000 433.118
30.17000 426.894
30.18000 419.641
30.19000 414.699
30.20000 408.643
30.21000 404.092
30.22000 401.486
30.23000 401.589
30.24000 401.709
30.25000 400.986
30.26000 399.503
30.27000 398.034
30.28000 400.218
30.29000 404.482
30.30000 408.599
30.31000 409.582
30.32000 409.303
30.33000 408.936
30.34000 407.629
30.35000 406.067
30.36000 404.686
30.37000 405.411
30.38000 406.360
30.39000 406.543
30.40000 403.547
30.41000 400.203
30.42000 398.044
30.43000 399.187
30.44000 400.525
30.45000 401.408
30.46000 407.792
30.47000 412.594
30.48000 413.113
30.49000 408.236
30.50000 403.358
30.51000 405.160
30.52000 412.389
30.53000 419.515
30.54000 418.712
30.55000 413.765
30.56000 409.190
30.57000 411.171
30.58000 415.555
30.59000 419.358
30.60000 417.688
30.61000 414.670
30.62000 412.045
30.63000 419.325
30.64000 426.887
30.65000 432.843
30.66000 432.757
30.67000 432.090
30.68000 431.386
30.69000 430.584
30.70000 429.777
30.71000 429.263
30.72000 414.007
30.73000 402.738
30.74000 402.180
30.75000 413.800
30.76000 425.391
30.77000 429.717
30.78000 428.708
30.79000 427.718
30.80000 427.779
30.81000 428.337
30.82000 429.204
30.83000 434.681
30.84000 441.697
30.85000 447.994
30.86000 448.335
30.87000 447.347
30.88000 446.502
30.89000 453.503
30.90000 460.348
30.91000 468.356
30.92000 480.338
30.93000 492.651
30.94000 501.489
30.95000 502.290
30.96000 502.768
30.97000 503.060
30.98000 520.762
30.99000 533.583
31.00000 551.774
31.01000 575.452
31.02000 599.030
31.03000 612.522
31.04000 619.303
31.05000 625.916
31.06000 652.895
31.07000 687.381
31.08000 721.973
31.09000 757.898
31.10000 794.228
31.11000 831.969
31.12000 880.067
31.13000 930.252
31.14000 972.416
31.15000 1043.860
31.16000 1106.471
31.17000 1165.419
31.18000 1212.982
31.19000 1259.731
31.20000 1310.105
31.21000 1368.119
31.22000 1426.377
31.23000 1460.627
31.24000 1557.010
31.25000 1625.297
31.26000 1696.346
31.27000 1769.928
31.28000 1843.188
31.29000 1894.937
31.30000 1933.692
31.31000 1971.233
31.32000 2020.594
31.33000 2071.865
31.34000 2120.003
31.35000 2133.641
31.36000 2137.759
31.37000 2142.827
31.38000 2154.119
31.39000 2166.540
31.40000 2176.777
31.41000 2160.221
31.42000 2144.129
31.43000 2120.838
31.44000 2077.176
31.45000 2032.276
31.46000 1989.156
31.47000 1949.449
31.48000 1909.826
31.49000 1887.535
31.50000 1788.831
31.51000 1720.124
31.52000 1652.950
31.53000 1587.041
31.54000 1521.307
31.55000 1463.910
31.56000 1411.091
31.57000 1360.310
31.58000 1299.471
31.59000 1238.961
31.60000 1180.303
31.61000 1139.449
31.62000 1103.053
31.63000 1063.447
31.64000 1005.044
31.65000 943.583
31.66000 893.945
31.67000 853.233
31.68000 820.848
31.69000 791.817
31.70000 771.433
31.71000 751.487
31.72000 728.409
31.73000 699.863
31.74000 671.217
31.75000 655.846
31.76000 629.928
31.77000 612.235
31.78000 596.767
31.79000 582.959
31.80000 569.226
31.81000 558.159
31.82000 548.425
31.83000 539.145
31.84000 522.322
31.85000 504.346
31.86000 488.181
31.87000 487.330
31.88000 489.951
31.89000 490.886
31.90000 482.955
31.91000 473.736
31.92000 466.451
31.93000 462.137
31.94000 458.876
31.95000 454.669
31.96000 448.237
31.97000 441.713
31.98000 434.893
31.99000 427.604
32.00000 420.310
32.01000 416.591
32.02000 418.310
32.03000 419.507
32.04000 425.338
32.05000 434.302
32.06000 442.942
32.07000 442.488
32.08000 437.893
32.09000 433.552
32.10000 420.997
32.11000 407.148
32.12000 394.700
32.13000 392.748
32.14000 392.945
32.15000 393.805
32.16000 397.805
32.17000 402.210
32.18000 405.612
32.19000 393.560
32.20000 383.107
32.21000 378.611
32.22000 386.858
32.23000 395.529
32.24000 402.974
32.25000 408.655
32.26000 414.322
32.27000 412.461
32.28000 403.583
32.29000 394.712
32.30000 386.394
32.31000 378.415
32.32000 370.679
32.33000 368.431
32.34000 368.461
32.35000 368.489
32.36000 375.600
32.37000 383.861
32.38000 391.044
32.39000 391.048
32.40000 389.727
32.41000 388.123
32.42000 385.305
32.43000 382.347
32.44000 380.120
32.45000 382.245
32.46000 384.122
32.47000 385.353
32.48000 385.326
32.49000 385.267
32.50000 385.498
32.51000 386.107
32.52000 386.717
32.53000 384.193
32.54000 379.052
32.55000 373.917
32.56000 369.101
32.57000 364.464
32.58000 359.960
32.59000 357.940
32.60000 356.857
32.61000 355.856
32.62000 361.462
32.63000 368.006
32.64000 374.585
32.65000 381.366
32.66000 388.181
32.67000 392.122
32.68000 384.899
32.69000 376.559
32.70000 370.440
32.71000 370.036
32.72000 369.954
32.73000 369.869
32.74000 369.779
32.75000 369.688
32.76000 371.465
32.77000 375.437
32.78000 379.403
32.79000 379.448
32.80000 376.540
32.81000 373.812
32.82000 377.861
32.83000 385.349
32.84000 392.311
32.85000 391.011
32.86000 386.867
32.87000 383.080
32.88000 389.513
32.89000 397.318
32.90000 404.001
32.91000 404.677
32.92000 404.464
32.93000 402.351
32.94000 393.539
32.95000 384.143
32.96000 377.441
32.97000 379.577
32.98000 381.496
32.99000 384.749
33.00000 390.154
33.01000 395.589
33.02000 393.377
33.03000 383.075
33.04000 372.823
33.05000 365.755
33.06000 360.931
33.07000 356.207
33.08000 354.375
33.09000 353.881
33.10000 353.442
33.11000 353.731
33.12000 354.249
33.13000 354.716
33.14000 359.202
33.15000 363.877
33.16000 366.283
33.17000 357.747
33.18000 347.771
33.19000 339.922
33.20000 338.890
33.21000 338.372
33.22000 338.013
33.23000 342.258
33.24000 345.571
33.25000 346.983
33.26000 345.617
33.27000 344.226
33.28000 343.251
33.29000 342.670
33.30000 342.094
33.31000 341.787
33.32000 341.650
33.33000 341.562
33.34000 342.621
33.35000 344.164
33.36000 345.231
33.37000 340.811
33.38000 334.829
33.39000 329.507
33.40000 339.474
33.41000 350.619
33.42000 358.540
33.43000 352.416
33.44000 344.656
33.45000 338.833
33.46000 338.657
33.47000 338.843
33.48000 338.967
33.49000 337.530
33.50000 336.432
33.51000 337.720
33.52000 342.167
33.53000 346.625
33.54000 348.557
33.55000 348.332
33.56000 348.110
33.57000 345.733
33.58000 342.224
33.59000 338.712
33.60000 335.140
33.61000 331.545
33.62000 328.378
33.63000 329.502
33.64000 331.736
33.65000 333.693
33.66000 334.814
33.67000 335.655
33.68000 334.713
33.69000 326.740
33.70000 318.046
33.71000 312.890
33.72000 317.131
33.73000 321.877
33.74000 324.950
33.75000 328.608
33.76000 331.293
33.77000 330.509
33.78000 325.577
33.79000 320.652
33.80000 319.100
33.81000 320.148
33.82000 321.179
33.83000 326.399
33.84000 333.537
33.85000 340.237
33.86000 339.879
33.87000 337.056
33.88000 334.361
33.89000 332.800
33.90000 331.505
33.91000 330.389
33.92000 323.346
33.93000 316.615
33.94000 312.627
33.95000 318.457
33.96000 325.164
33.97000 331.322
33.98000 336.148
33.99000 340.915
34.00000 343.890
34.01000 334.316
34.02000 327.282
34.03000 322.249
34.04000 319.372
34.05000 316.546
34.06000 320.318
34.07000 328.694
34.08000 336.886
34.09000 334.350
34.10000 327.088
34.11000 320.085
34.12000 316.632
34.13000 314.308
34.14000 312.362
34.15000 313.361
34.16000 314.984
34.17000 316.359
34.18000 326.343
34.19000 335.678
34.20000 342.181
34.21000 339.468
34.22000 336.043
34.23000 331.580
34.24000 324.824
34.25000 317.986
34.26000 313.884
34.27000 320.967
34.28000 326.074
34.29000 330.400
34.30000 333.972
34.31000 337.430
34.32000 331.631
34.33000 319.975
34.34000 308.647
34.35000 312.431
34.36000 322.168
34.37000 330.972
34.38000 328.769
34.39000 323.382
34.40000 319.266
34.41000 323.938
34.42000 330.288
34.43000 335.571
34.44000 325.816
34.45000 316.260
34.46000 311.730
34.47000 322.081
34.48000 333.413
34.49000 339.240
34.50000 334.011
34.51000 328.470
34.52000 325.285
34.53000 317.651
34.54000 312.300
34.55000 311.540
34.56000 314.767
34.57000 317.969
34.58000 319.797
34.59000 320.834
34.60000 321.835
34.61000 319.127
34.62000 315.217
34.63000 311.658
34.64000 311.696
34.65000 312.680
34.66000 313.490
34.67000 313.232
34.68000 312.790
34.69000 312.430
34.70000 304.625
34.71000 297.605
34.72000 294.556
34.73000 302.216
34.74000 310.470
34.75000 314.485
34.76000 310.752
34.77000 306.854
34.78000 304.713
34.79000 317.011
34.80000 325.479
34.81000 328.352
34.82000 326.842
34.83000 325.318
34.84000 323.201
34.85000 320.773
34.86000 318.448
34.87000 317.431
34.88000 316.915
34.89000 316.188
34.90000 313.565
34.91000 310.490
34.92000 307.935
34.93000 308.261
34.94000 309.029
34.95000 309.643
34.96000 307.641
34.97000 305.831
34.98000 305.237
34.99000 307.628
35.00000 310.157
35.01000 310.061
35.02000 305.603
35.03000 301.078
35.04000 298.712
35.05000 307.369
35.06000 313.193
35.07000 313.570
35.08000 310.087
35.09000 306.763
35.10000 308.471
35.11000 312.576
35.12000 316.472
35.13000 319.645
35.14000 322.356
35.15000 324.140
35.16000 318.567
35.17000 311.410
35.18000 305.263
35.19000 304.144
35.20000 303.714
35.21000 303.379
35.22000 307.286
35.23000 310.670
35.24000 313.498
35.25000 315.080
35.26000 316.615
35.27000 314.305
35.28000 306.191
35.29000 298.019
35.30000 294.603
35.31000 295.863
35.32000 297.146
35.33000 300.372
35.34000 304.848
35.35000 309.259
35.36000 312.065
35.37000 314.173
35.38000 316.154
35.39000 315.006
35.40000 313.118
35.41000 311.456
35.42000 311.380
35.43000 311.611
35.44000 310.577
35.45000 303.847
35.46000 296.425
35.47000 290.767
35.48000 286.863
35.49000 283.882
35.50000 283.405
35.51000 288.033
35.52000 292.812
35.53000 294.878
35.54000 293.236
35.55000 291.573
35.56000 291.964
35.57000 294.165
35.58000 296.398
35.59000 300.499
35.60000 305.691
35.61000 310.475
35.62000 306.909
35.63000 300.040
35.64000 293.653
35.65000 295.577
35.66000 299.316
35.67000 301.442
35.68000 293.430
35.69000 283.648
35.70000 276.900
35.71000 282.515
35.72000 289.449
35.73000 294.603
35.74000 301.820
35.75000 307.522
35.76000 311.092
35.77000 310.702
35.78000 310.223
35.79000 307.415
35.80000 301.727
35.81000 296.040
35.82000 291.460
35.83000 287.778
35.84000 284.242
35.85000 286.978
35.86000 293.046
35.87000 298.842
35.88000 300.002
35.89000 299.491
35.90000 299.021
35.91000 301.887
35.92000 305.167
35.93000 308.152
35.94000 309.474
35.95000 310.537
35.96000 310.547
35.97000 306.669
35.98000 302.427
35.99000 299.360
36.00000 301.471
36.01000 303.279
36.02000 300.801
36.03000 291.090
36.04000 281.262
36.05000 280.221
36.06000 288.971
36.07000 297.696
36.08000 300.600
36.09000 299.324
36.10000 298.140
36.11000 300.013
36.12000 303.365
36.13000 306.408
36.14000 305.005
36.15000 302.144
36.16000 299.546
36.17000 300.025
36.18000 301.043
36.19000 301.922
36.20000 302.101
36.21000 302.182
36.22000 300.428
36.23000 292.512
36.24000 284.098
36.25000 278.188
36.26000 288.288
36.27000 296.403
36.28000 300.352
36.29000 297.914
36.30000 295.407
36.31000 293.527
36.32000 292.276
36.33000 291.033
36.34000 290.238
36.35000 289.743
36.36000 289.289
36.37000 289.880
36.38000 290.932
36.39000 292.057
36.40000 294.077
36.41000 296.365
36.42000 298.414
36.43000 295.359
36.44000 291.812
36.45000 289.354
36.46000 291.878
36.47000 295.019
36.48000 297.117
36.49000 296.035
36.50000 294.732
36.51000 293.845
36.52000 291.159
36.53000 289.111
36.54000 287.775
36.55000 287.427
36.56000 287.088
36.57000 289.570
36.58000 294.586
36.59000 299.553
36.60000 293.179
36.61000 280.359
36.62000 268.258
36.63000 271.351
36.64000 280.542
36.65000 288.880
36.66000 288.072
36.67000 284.787
36.68000 281.886
36.69000 285.733
36.70000 290.086
36.71000 294.967
36.72000 302.031
36.73000 309.332
36.74000 313.883
36.75000 310.790
36.76000 307.247
36.77000 304.914
36.78000 299.724
36.79000 295.851
36.80000 292.558
36.81000 289.993
36.82000 287.431
36.83000 284.753
36.84000 281.983
36.85000 279.253
36.86000 280.066
36.87000 282.712
36.88000 285.486
36.89000 290.513
36.90000 296.365
36.91000 301.271
36.92000 297.322
36.93000 291.197
36.94000 285.872
36.95000 290.284
36.96000 295.369
36.97000 298.517
36.98000 294.398
36.99000 289.584
37.00000 286.961
37.01000 289.884
37.02000 293.079
37.03000 295.109
37.04000 284.964
37.05000 277.445
37.06000 277.800
37.07000 287.078
37.08000 296.323
37.09000 298.580
37.10000 295.720
37.11000 292.916
37.12000 292.956
37.13000 294.341
37.14000 295.857
37.15000 299.328
37.16000 303.450
37.17000 306.666
37.18000 302.404
37.19000 296.478
37.20000 291.413
37.21000 298.845
37.22000 306.606
37.23000 311.342
37.24000 305.769
37.25000 299.342
37.26000 294.827
37.27000 294.723
37.28000 294.794
37.29000 294.838
37.30000 299.325
37.31000 302.573
37.32000 302.660
37.33000 299.528
37.34000 296.402
37.35000 293.742
37.36000 291.392
37.37000 289.101
37.38000 285.223
37.39000 280.843
37.40000 276.992
37.41000 279.845
37.42000 284.729
37.43000 289.029
37.44000 289.062
37.45000 288.238
37.46000 287.547
37.47000 287.533
37.48000 287.593
37.49000 285.277
37.50000 275.598
37.51000 265.394
37.52000 262.225
37.53000 273.837
37.54000 285.918
37.55000 293.012
37.56000 286.329
37.57000 281.551
37.58000 280.607
37.59000 283.164
37.60000 285.671
37.61000 284.813
37.62000 281.927
37.63000 279.132
37.64000 280.374
37.65000 283.105
37.66000 285.666
37.67000 286.370
37.68000 286.563
37.69000 286.778
37.70000 287.141
37.71000 287.531
37.72000 287.852
37.73000 286.093
37.74000 284.456
37.75000 284.099
37.76000 287.356
37.77000 290.830
37.78000 292.357
37.79000 290.158
37.80000 287.868
37.81000 286.581
37.82000 289.005
37.83000 290.686
37.84000 287.900
37.85000 281.435
37.86000 275.106
37.87000 275.141
37.88000 278.662
37.89000 282.046
37.90000 283.102
37.91000 283.281
37.92000 283.581
37.93000 285.029
37.94000 286.763
37.95000 288.371
37.96000 289.237
37.97000 289.984
37.98000 290.586
37.99000 288.792
38.00000 287.144
38.01000 284.888
38.02000 281.072
38.03000 277.177
38.04000 277.144
38.05000 283.832
38.06000 290.643
38.07000 294.291
38.08000 291.874
38.09000 290.220
38.10000 288.485
38.11000 286.690
38.12000 284.944
38.13000 284.911
38.14000 285.732
38.15000 286.515
38.16000 287.158
38.17000 287.711
38.18000 288.615
38.19000 292.476
38.20000 297.005
38.21000 300.566
38.22000 299.048
38.23000 296.794
38.24000 295.015
38.25000 295.797
38.26000 296.599
38.27000 297.056
38.28000 296.705
38.29000 296.321
38.30000 298.479
38.31000 304.654
38.32000 310.880
38.33000 314.049
38.34000 317.375
38.35000 319.627
38.36000 324.108
38.37000 330.092
38.38000 336.149
38.39000 344.242
38.40000 353.260
38.41000 361.777
38.42000 365.198
38.43000 366.900
38.44000 369.159
38.45000 375.574
38.46000 382.837
38.47000 391.435
38.48000 406.343
38.49000 422.064
38.50000 434.193
38.51000 438.884
38.52000 442.172
38.53000 450.261
38.54000 468.592
38.55000 487.261
38.56000 500.876
38.57000 507.239
38.58000 513.544
38.59000 523.220
38.60000 536.025
38.61000 548.835
38.62000 562.081
38.63000 575.594
38.64000 588.473
38.65000 587.061
38.66000 579.739
38.67000 572.893
38.68000 580.841
38.69000 591.811
38.70000 601.499
38.71000 602.673
38.72000 602.283
38.73000 600.962
38.74000 595.668
38.75000 589.922
38.76000 585.597
38.77000 582.663
38.78000 580.436
38.79000 577.279
38.80000 572.318
38.81000 567.310
38.82000 554.926
38.83000 532.963
38.84000 510.984
38.85000 496.013
38.86000 486.936
38.87000 477.855
38.88000 468.582
38.89000 459.201
38.90000 449.709
38.91000 438.141
38.92000 425.791
38.93000 414.372
38.94000 397.993
38.95000 382.156
38.96000 368.812
38.97000 370.279
38.98000 374.190
38.99000 375.294
39.00000 365.531
39.01000 354.684
39.02000 346.734
39.03000 333.793
39.04000 323.599
39.05000 314.492
39.06000 307.307
39.07000 300.159
39.08000 297.801
39.09000 301.058
39.10000 304.315
39.11000 302.285
39.12000 296.297
39.13000 290.467
39.14000 290.483
39.15000 293.458
39.16000 296.041
39.17000 292.509
39.18000 286.879
39.19000 281.735
39.20000 276.289
39.21000 271.390
39.22000 268.114
39.23000 273.492
39.24000 280.147
39.25000 284.498
39.26000 280.747
39.27000 276.292
39.28000 273.117
39.29000 270.222
39.30000 268.024
39.31000 270.094
39.32000 279.020
39.33000 288.037
39.34000 290.628
39.35000 286.441
39.36000 282.274
39.37000 278.387
39.38000 274.736
39.39000 271.176
39.40000 270.212
39.41000 270.444
39.42000 270.164
39.43000 263.044
39.44000 253.788
39.45000 245.442
39.46000 257.074
39.47000 270.928
39.48000 281.540
39.49000 276.564
39.50000 269.544
39.51000 263.258
39.52000 259.321
39.53000 255.560
39.54000 252.960
39.55000 259.735
39.56000 265.071
39.57000 266.513
39.58000 262.275
39.59000 257.990
39.60000 255.231
39.61000 253.914
39.62000 252.609
39.63000 252.882
39.64000 254.114
39.65000 255.522
39.66000 261.004
39.67000 268.199
39.68000 274.582
39.69000 271.661
39.70000 266.099
39.71000 261.153
39.72000 259.952
39.73000 259.517
39.74000 259.890
39.75000 263.770
39.76000 268.056
39.77000 270.158
39.78000 265.907
39.79000 261.252
39.80000 258.135
39.81000 248.726
39.82000 241.623
39.83000 240.973
39.84000 248.839
39.85000 256.738
39.86000 260.578
39.87000 260.963
39.88000 261.344
39.89000 259.627
39.90000 256.799
39.91000 254.477
39.92000 261.851
39.93000 272.935
39.94000 282.435
39.95000 276.116
39.96000 265.721
39.97000 256.615
39.98000 253.495
39.99000 251.680
40.00000 250.261
40.01000 250.397
40.02000 250.692
40.03000 252.084
40.04000 256.380
40.05000 260.831
40.06000 263.710
40.07000 255.341
40.08000 249.057
40.09000 247.960
40.10000 253.049
40.11000 258.134
40.12000 259.627
40.13000 258.361
40.14000 257.116
40.15000 255.817
40.16000 254.535
40.17000 253.525
40.18000 256.898
40.19000 261.797
40.20000 265.520
40.21000 258.930
40.22000 249.931
40.23000 242.175
40.24000 242.845
40.25000 244.486
40.26000 245.220
40.27000 242.716
40.28000 239.924
40.29000 241.890
40.30000 255.336
40.31000 269.290
40.32000 277.987
40.33000 272.950
40.34000 269.178
40.35000 264.100
40.36000 257.619
40.37000 251.161
40.38000 247.708
40.39000 246.345
40.40000 245.012
40.41000 244.527
40.42000 244.443
40.43000 244.457
40.44000 245.820
40.45000 247.610
40.46000 249.399
40.47000 251.179
40.48000 252.956
40.49000 254.461
40.50000 251.519
40.51000 248.556
40.52000 245.696
40.53000 243.169
40.54000 240.667
40.55000 239.395
40.56000 240.827
40.57000 242.356
40.58000 243.272
40.59000 248.921
40.60000 252.963
40.61000 255.395
40.62000 256.276
40.63000 257.093
40.64000 252.756
40.65000 245.169
40.66000 237.796
40.67000 236.700
40.68000 238.202
40.69000 239.820
40.70000 242.798
40.71000 246.168
40.72000 248.831
40.73000 246.632
40.74000 243.508
40.75000 240.909
40.76000 240.133
40.77000 239.669
40.78000 239.292
40.79000 239.177
40.80000 239.078
40.81000 241.603
40.82000 249.380
40.83000 257.304
40.84000 261.854
40.85000 253.573
40.86000 247.744
40.87000 247.764
40.88000 252.847
40.89000 257.842
40.90000 257.998
40.91000 255.379
40.92000 252.852
40.93000 254.444
40.94000 257.447
40.95000 259.878
40.96000 256.447
40.97000 251.481
40.98000 246.464
40.99000 241.130
41.00000 235.741
41.01000 231.347
41.02000 236.158
41.03000 240.874
41.04000 243.324
41.05000 239.679
41.06000 235.698
41.07000 235.857
41.08000 243.563
41.09000 251.427
41.10000 255.741
41.11000 248.210
41.12000 243.026
41.13000 242.144
41.14000 244.622
41.15000 247.059
41.16000 247.828
41.17000 247.728
41.18000 247.633
41.19000 246.186
41.20000 244.393
41.21000 241.934
41.22000 233.511
41.23000 223.673
41.24000 216.498
41.25000 224.024
41.26000 233.800
41.27000 241.603
41.28000 242.620
41.29000 242.943
41.30000 243.088
41.31000 242.798
41.32000 242.488
41.33000 242.758
41.34000 243.990
41.35000 245.237
41.36000 245.888
41.37000 244.126
41.38000 242.930
41.39000 241.358
41.40000 239.520
41.41000 237.653
41.42000 234.877
41.43000 231.670
41.44000 228.628
41.45000 227.214
41.46000 226.394
41.47000 225.639
41.48000 225.404
41.49000 225.279
41.50000 225.922
41.51000 230.376
41.52000 235.350
41.53000 239.231
41.54000 241.816
41.55000 243.796
41.56000 244.451
41.57000 242.151
41.58000 239.741
41.59000 234.841
41.60000 226.194
41.61000 217.509
41.62000 217.684
41.63000 226.538
41.64000 235.296
41.65000 235.947
41.66000 231.400
41.67000 227.140
41.68000 230.034
41.69000 236.023
41.70000 241.650
41.71000 236.177
41.72000 228.216
41.73000 221.390
41.74000 222.529
41.75000 225.209
41.76000 228.133
41.77000 232.151
41.78000 236.301
41.79000 239.463
41.80000 236.248
41.81000 233.380
41.82000 232.321
41.83000 234.938
41.84000 237.662
41.85000 238.459
41.86000 236.629
41.87000 234.784
41.88000 230.998
41.89000 225.509
41.90000 220.167
41.91000 223.327
41.92000 231.438
41.93000 239.004
41.94000 235.496
41.95000 227.620
41.96000 220.299
41.97000 224.595
41.98000 231.263
41.99000 236.103
42.00000 229.496
42.01000 220.897
42.02000 213.348
42.03000 210.062
42.04000 207.230
42.05000 205.126
42.06000 213.075
42.07000 219.697
42.08000 224.902
42.09000 227.485
42.10000 230.010
42.11000 232.183
42.12000 233.924
42.13000 235.660
42.14000 235.552
42.15000 233.987
42.16000 232.372
42.17000 228.682
42.18000 223.892
42.19000 219.500
42.20000 221.863
42.21000 226.651
42.22000 231.051
42.23000 227.362
42.24000 222.326
42.25000 218.380
42.26000 220.558
42.27000 223.690
42.28000 226.201
42.29000 226.426
42.30000 226.439
42.31000 226.448
42.32000 228.968
42.33000 230.991
42.34000 230.547
42.35000 225.951
42.36000 221.288
42.37000 217.568
42.38000 214.895
42.39000 212.232
42.40000 215.537
42.41000 223.056
42.42000 230.323
42.43000 229.384
42.44000 224.487
42.45000 219.988
42.46000 221.202
42.47000 224.283
42.48000 227.079
42.49000 231.956
42.50000 236.661
42.51000 240.173
42.52000 237.651
42.53000 234.290
42.54000 231.670
42.55000 231.529
42.56000 231.588
42.57000 231.629
42.58000 229.430
42.59000 227.701
42.60000 226.315
42.61000 225.453
42.62000 224.597
42.63000 223.195
42.64000 221.249
42.65000 219.315
42.66000 221.912
42.67000 227.374
42.68000 232.681
42.69000 233.950
42.70000 233.446
42.71000 232.964
42.72000 232.749
42.73000 232.614
42.74000 232.492
42.75000 226.268
42.76000 219.787
42.77000 214.320
42.78000 213.479
42.79000 213.208
42.80000 213.817
42.81000 217.105
42.82000 220.578
42.83000 222.940
42.84000 231.337
42.85000 237.743
42.86000 238.727
42.87000 232.200
42.88000 225.630
42.89000 224.839
42.90000 229.224
42.91000 233.565
42.92000 233.690
42.93000 231.374
42.94000 229.133
42.95000 228.460
42.96000 228.415
42.97000 228.574
42.98000 230.917
42.99000 233.849
43.00000 236.437
43.01000 233.467
43.02000 230.056
43.03000 226.344
43.04000 221.388
43.05000 216.298
43.06000 213.703
43.07000 218.027
43.08000 222.754
43.09000 225.864
43.10000 216.481
43.11000 209.358
43.12000 206.737
43.13000 209.754
43.14000 212.790
43.15000 216.006
43.16000 219.367
43.17000 222.681
43.18000 222.733
43.19000 221.081
43.20000 219.611
43.21000 221.328
43.22000 224.206
43.23000 226.931
43.24000 228.221
43.25000 229.159
43.26000 229.975
43.27000 231.955
43.28000 233.800
43.29000 234.274
43.30000 229.612
43.31000 224.461
43.32000 222.822
43.33000 230.046
43.34000 237.701
43.35000 242.561
43.36000 226.130
43.37000 213.941
43.38000 212.599
43.39000 223.508
43.40000 234.380
43.41000 237.022
43.42000 233.657
43.43000 230.357
43.44000 229.823
43.45000 230.613
43.46000 231.419
43.47000 232.456
43.48000 233.570
43.49000 234.448
43.50000 233.381
43.51000 231.883
43.52000 230.603
43.53000 226.845
43.54000 223.382
43.55000 220.624
43.56000 220.263
43.57000 220.099
43.58000 219.882
43.59000 219.538
43.60000 219.190
43.61000 218.978
43.62000 213.660
43.63000 209.815
43.64000 208.962
43.65000 211.147
43.66000 213.355
43.67000 217.829
43.68000 223.803
43.69000 229.625
43.70000 229.796
43.71000 227.553
43.72000 225.641
43.73000 227.900
43.74000 231.420
43.75000 234.131
43.76000 230.943
43.77000 226.574
43.78000 222.907
43.79000 220.299
43.80000 218.239
43.81000 217.726
43.82000 221.996
43.83000 226.606
43.84000 229.576
43.85000 229.111
43.86000 228.538
43.87000 228.202
43.88000 225.625
43.89000 223.800
43.90000 223.640
43.91000 224.998
43.92000 226.324
43.93000 225.502
43.94000 223.391
43.95000 221.348
43.96000 221.587
43.97000 222.689
43.98000 223.594
43.99000 222.337
44.00000 220.487
44.01000 218.882
44.02000 218.869
44.03000 219.144
44.04000 219.369
44.05000 214.890
44.06000 210.777
44.07000 208.571
44.08000 211.730
44.09000 215.212
44.10000 216.145
44.11000 212.215
44.12000 208.167
44.13000 205.896
44.14000 217.809
44.15000 226.090
44.16000 227.941
44.17000 224.516
44.18000 221.111
44.19000 218.643
44.20000 216.687
44.21000 214.807
44.22000 220.078
44.23000 227.493
44.24000 233.889
44.25000 230.579
44.26000 224.853
44.27000 219.957
44.28000 219.896
44.29000 220.616
44.30000 221.197
44.31000 222.325
44.32000 223.285
44.33000 224.562
44.34000 226.652
44.35000 228.783
44.36000 229.323
44.37000 227.103
44.38000 224.834
44.39000 223.620
44.40000 224.281
44.41000 224.737
44.42000 225.838
44.43000 227.417
44.44000 228.997
44.45000 230.599
44.46000 232.212
44.47000 233.749
44.48000 232.073
44.49000 229.516
44.50000 227.541
44.51000 230.463
44.52000 234.487
44.53000 236.892
44.54000 230.834
44.55000 223.555
44.56000 217.810
44.57000 226.666
44.58000 234.760
44.59000 240.965
44.60000 242.760
44.61000 244.375
44.62000 246.391
44.63000 249.040
44.64000 251.697
44.65000 253.047
44.66000 248.436
44.67000 245.349
44.68000 242.706
44.69000 240.361
44.70000 238.475
44.71000 249.344
44.72000 265.986
44.73000 281.699
44.74000 280.330
44.75000 274.269
44.76000 269.230
44.77000 271.786
44.78000 275.888
44.79000 280.098
44.80000 284.812
44.81000 289.591
44.82000 293.275
44.83000 301.800
44.84000 308.833
44.85000 314.761
44.86000 318.340
44.87000 321.842
44.88000 326.025
44.89000 331.181
44.90000 336.343
44.91000 338.185
44.92000 336.951
44.93000 335.802
44.94000 340.598
44.95000 349.018
44.96000 357.264
44.97000 361.611
44.98000 364.349
44.99000 366.908
45.00000 368.289
45.01000 369.245
45.02000 369.977
45.03000 369.228
45.04000 368.207
45.05000 366.908
45.06000 364.424
45.07000 361.805
45.08000 359.835
45.09000 364.022
45.10000 367.593
45.11000 366.936
45.12000 358.088
45.13000 349.032
45.14000 345.303
45.15000 348.471
45.16000 351.663
45.17000 347.439
45.18000 337.057
45.19000 326.915
45.20000 328.580
45.21000 336.792
45.22000 344.808
45.23000 349.196
45.24000 352.223
45.25000 355.020
45.26000 349.062
45.27000 341.727
45.28000 334.926
45.29000 331.280
45.30000 328.154
45.31000 324.867
45.32000 320.962
45.33000 316.996
45.34000 314.091
45.35000 309.786
45.36000 306.406
45.37000 304.690
45.38000 305.904
45.39000 307.173
45.40000 306.791
45.41000 304.482
45.42000 302.175
45.43000 300.260
45.44000 298.651
45.45000 296.890
45.46000 289.533
45.47000 279.351
45.48000 269.786
45.49000 269.822
45.50000 273.142
45.51000 276.175
45.52000 274.620
45.53000 272.308
45.54000 269.993
45.55000 267.664
45.56000 265.334
45.57000 262.108
45.58000 255.743
45.59000 249.107
45.60000 244.382
45.61000 247.638
45.62000 250.377
45.63000 252.757
45.64000 254.562
45.65000 256.360
45.66000 253.721
45.67000 246.420
45.68000 239.155
45.69000 241.932
45.70000 251.446
45.71000 260.641
45.72000 260.637
45.73000 256.405
45.74000 252.466
45.75000 252.414
45.76000 253.571
45.77000 254.615
45.78000 250.743
45.79000 246.453
45.80000 243.032
45.81000 243.782
45.82000 245.077
45.83000 244.306
45.84000 236.950
45.85000 229.103
45.86000 223.684
45.87000 230.063
45.88000 235.161
45.89000 238.077
45.90000 237.823
45.91000 237.542
45.92000 238.128
45.93000 239.531
45.94000 240.922
45.95000 237.062
45.96000 230.081
45.97000 223.391
45.98000 223.466
45.99000 226.372
46.00000 228.803
46.01000 225.801
46.02000 221.261
46.03000 217.226
46.04000 222.100
46.05000 227.769
46.06000 230.486
46.07000 220.420
46.08000 208.876
46.09000 201.569
46.10000 206.551
46.11000 212.314
46.12000 216.167
46.13000 214.186
46.14000 212.602
46.15000 212.902
46.16000 215.681
46.17000 218.463
46.18000 216.536
46.19000 210.612
46.20000 204.761
46.21000 205.750
46.22000 210.468
46.23000 215.101
46.24000 218.115
46.25000 220.510
46.26000 222.546
46.27000 221.001
46.28000 218.536
46.29000 216.377
46.30000 209.997
46.31000 203.919
46.32000 198.603
46.33000 196.275
46.34000 194.251
46.35000 191.808
46.36000 188.260
46.37000 184.652
46.38000 182.322
46.39000 204.018
46.40000 220.226
46.41000 222.359
46.42000 207.768
46.43000 193.196
46.44000 190.340
46.45000 196.458
46.46000 202.473
46.47000 204.864
46.48000 205.379
46.49000 205.605
46.50000 201.189
46.51000 195.161
46.52000 190.290
46.53000 195.533
46.54000 203.130
46.55000 209.675
46.56000 201.278
46.57000 192.266
46.58000 185.221
46.59000 185.178
46.60000 185.755
46.61000 188.244
46.62000 195.333
46.63000 202.623
46.64000 207.162
46.65000 201.155
46.66000 196.720
46.67000 194.031
46.68000 193.207
46.69000 192.425
46.70000 196.732
46.71000 204.568
46.72000 212.230
46.73000 211.458
46.74000 206.946
46.75000 202.516
46.76000 199.197
46.77000 196.229
46.78000 193.654
46.79000 194.118
46.80000 195.221
46.81000 196.155
46.82000 200.689
46.83000 204.887
46.84000 206.389
46.85000 199.165
46.86000 191.275
46.87000 185.896
46.88000 186.022
46.89000 186.342
46.90000 186.534
46.91000 189.424
46.92000 191.492
46.93000 191.758
46.94000 190.295
46.95000 188.844
46.96000 188.335
46.97000 188.421
46.98000 188.504
46.99000 190.838
47.00000 193.965
47.01000 196.959
47.02000 198.402
47.03000 199.398
47.04000 200.446
47.05000 201.843
47.06000 203.305
47.07000 204.521
47.08000 201.553
47.09000 198.690
47.10000 195.695
47.11000 192.313
47.12000 188.905
47.13000 187.827
47.14000 191.400
47.15000 195.102
47.16000 197.224
47.17000 192.217
47.18000 188.695
47.19000 187.618
47.20000 188.649
47.21000 189.715
47.22000 192.625
47.23000 196.589
47.24000 200.412
47.25000 202.313
47.26000 203.400
47.27000 204.324
47.28000 203.586
47.29000 202.414
47.30000 201.012
47.31000 198.196
47.32000 195.139
47.33000 192.648
47.34000 189.710
47.35000 187.271
47.36000 185.497
47.37000 185.507
47.38000 185.615
47.39000 186.424
47.40000 188.508
47.41000 190.618
47.42000 191.774
47.43000 195.011
47.44000 197.227
47.45000 196.323
47.46000 192.989
47.47000 189.697
47.48000 188.106
47.49000 187.399
47.50000 186.723
47.51000 189.537
47.52000 193.304
47.53000 196.322
47.54000 192.655
47.55000 187.405
47.56000 182.930
47.57000 182.712
47.58000 183.144
47.59000 183.489
47.60000 185.253
47.61000 186.781
47.62000 188.859
47.63000 192.283
47.64000 195.768
47.65000 198.396
47.66000 199.606
47.67000 200.794
47.68000 201.414
47.69000 188.796
47.70000 180.332
47.71000 181.498
47.72000 189.451
47.73000 197.063
47.74000 194.111
47.75000 186.155
47.76000 178.609
47.77000 179.589
47.78000 183.016
47.79000 186.103
47.80000 186.504
47.81000 186.332
47.82000 185.066
47.83000 178.382
47.84000 170.963
47.85000 165.176
47.86000 170.556
47.87000 175.541
47.88000 178.875
47.89000 178.535
47.90000 178.060
47.91000 178.783
47.92000 181.304
47.93000 183.841
47.94000 183.610
47.95000 180.674
47.96000 177.761
47.97000 176.718
47.98000 176.870
47.99000 177.096
48.00000 179.154
48.01000 182.003
48.02000 184.679
48.03000 182.167
48.04000 178.494
48.05000 175.858
48.06000 180.477
48.07000 186.497
48.08000 191.959
48.09000 194.925
48.10000 197.592
48.11000 199.622
48.12000 194.937
48.13000 190.896
48.14000 186.946
48.15000 183.182
48.16000 179.424
48.17000 178.808
48.18000 182.464
48.19000 186.141
48.20000 187.542
48.21000 186.944
48.22000 186.341
48.23000 185.457
48.24000 184.408
48.25000 183.373
48.26000 182.633
48.27000 182.008
48.28000 181.426
48.29000 180.452
48.30000 179.477
48.31000 178.964
48.32000 181.327
48.33000 184.188
48.34000 186.598
48.35000 187.178
48.36000 187.563
48.37000 187.849
48.38000 186.696
48.39000 185.736
48.40000 185.033
48.41000 184.802
48.42000 184.581
48.43000 183.226
48.44000 180.478
48.45000 177.730
48.46000 176.660
48.47000 176.916
48.48000 177.176
48.49000 177.587
48.50000 178.077
48.51000 178.439
48.52000 176.643
48.53000 174.074
48.54000 171.714
48.55000 174.469
48.56000 178.025
48.57000 181.496
48.58000 184.496
48.59000 187.423
48.60000 190.320
48.61000 193.109
48.62000 195.887
48.63000 197.893
48.64000 187.661
48.65000 179.376
48.66000 174.386
48.67000 174.926
48.68000 175.553
48.69000 174.994
48.70000 173.124
48.71000 171.260
48.72000 170.122
48.73000 169.510
48.74000 168.998
48.75000 171.706
48.76000 175.963
48.77000 180.165
48.78000 183.572
48.79000 186.721
48.80000 189.577
48.81000 187.493
48.82000 184.705
48.83000 182.228
48.84000 181.316
48.85000 180.620
48.86000 179.385
48.87000 176.348
48.88000 173.167
48.89000 170.937
48.90000 175.141
48.91000 178.508
48.92000 177.545
48.93000 169.987
48.94000 162.359
48.95000 162.905
48.96000 171.576
48.97000 180.189
48.98000 182.626
48.99000 181.079
49.00000 179.456
49.01000 175.905
49.02000 171.510
49.03000 167.491
49.04000 168.088
49.05000 170.054
49.06000 171.813
49.07000 169.780
49.08000 167.356
49.09000 165.750
49.10000 167.858
49.11000 170.422
49.12000 173.116
49.13000 176.204
49.14000 179.320
49.15000 181.437
49.16000 177.977
49.17000 175.268
49.18000 175.104
49.19000 178.455
49.20000 181.824
49.21000 181.155
49.22000 176.881
49.23000 172.652
49.24000 171.222
49.25000 171.438
49.26000 171.548
49.27000 169.432
49.28000 166.428
49.29000 163.832
49.30000 165.563
49.31000 168.459
49.32000 171.014
49.33000 170.836
49.34000 170.266
49.35000 169.766
49.36000 169.551
49.37000 169.367
49.38000 170.623
49.39000 175.857
49.40000 181.322
49.41000 184.914
49.42000 184.694
49.43000 184.467
49.44000 181.378
49.45000 174.713
49.46000 168.054
49.47000 166.924
49.48000 170.246
49.49000 173.519
49.50000 175.287
49.51000 176.220
49.52000 176.813
49.53000 171.507
49.54000 164.058
49.55000 157.654
49.56000 160.975
49.57000 166.671
49.58000 171.617
49.59000 171.252
49.60000 170.224
49.61000 170.136
49.62000 173.551
49.63000 177.298
49.64000 179.318
49.65000 176.990
49.66000 174.453
49.67000 172.844
49.68000 173.137
49.69000 173.372
49.70000 174.766
49.71000 177.465
49.72000 180.147
49.73000 179.858
49.74000 177.408
49.75000 175.005
49.76000 172.403
49.77000 169.805
49.78000 167.491
49.79000 169.365
49.80000 172.625
49.81000 175.364
49.82000 173.842
49.83000 171.378
49.84000 169.274
49.85000 170.594
49.86000 172.114
49.87000 172.193
49.88000 167.392
49.89000 162.190
49.90000 160.464
49.91000 166.708
49.92000 173.268
49.93000 177.270
49.94000 180.593
49.95000 182.964
49.96000 184.922
49.97000 186.465
49.98000 187.975
49.99000 186.369
50.00000 182.709
50.01000 179.141
50.02000 181.786
50.03000 186.944
50.04000 191.557
50.05000 189.308
50.06000 184.994
50.07000 181.107
50.08000 180.328
50.09000 180.168
50.10000 180.034
50.11000 177.492
50.12000 175.126
50.13000 173.909
50.14000 176.233
50.15000 178.808
50.16000 179.452
50.17000 176.065
50.18000 172.552
50.19000 170.494
50.20000 181.236
50.21000 188.858
50.22000 190.240
50.23000 185.957
50.24000 181.718
50.25000 180.422
50.26000 180.887
50.27000 181.337
50.28000 180.500
50.29000 179.215
50.30000 178.321
50.31000 181.673
50.32000 186.186
50.33000 189.901
50.34000 188.448
50.35000 186.067
50.36000 184.108
50.37000 184.052
50.38000 184.179
50.39000 184.634
50.40000 186.008
50.41000 187.437
50.42000 190.774
50.43000 197.741
50.44000 204.795
50.45000 208.747
50.46000 206.165
50.47000 204.368
50.48000 205.810
50.49000 209.902
50.50000 213.936
50.51000 215.322
50.52000 215.266
50.53000 215.212
50.54000 211.235
50.55000 206.157
50.56000 202.059
50.57000 207.272
50.58000 214.796
50.59000 220.744
50.60000 217.558
50.61000 212.902
50.62000 209.148
50.63000 216.346
50.64000 223.052
50.65000 227.988
50.66000 228.403
50.67000 228.592
50.68000 227.061
50.69000 222.550
50.70000 217.987
50.71000 215.550
50.72000 221.124
50.73000 224.911
50.74000 225.287
50.75000 223.142
50.76000 221.000
50.77000 218.982
50.78000 217.025
50.79000 215.161
50.80000 213.070
50.81000 211.062
50.82000 209.180
50.83000 208.359
50.84000 207.775
50.85000 207.209
50.86000 206.733
50.87000 206.271
50.88000 205.906
50.89000 204.691
50.90000 203.660
50.91000 202.120
50.92000 199.397
50.93000 196.625
50.94000 194.947
50.95000 194.989
50.96000 195.051
50.97000 195.083
50.98000 195.415
50.99000 195.585
51.00000 190.325
51.01000 181.426
51.02000 172.904
51.03000 174.764
51.04000 181.309
51.05000 187.487
51.06000 187.143
51.07000 184.999
51.08000 182.975
51.09000 181.839
51.10000 180.883
51.11000 180.103
51.12000 180.150
51.13000 180.303
51.14000 180.421
51.15000 177.472
51.16000 174.961
51.17000 173.799
51.18000 175.499
51.19000 177.292
51.20000 179.300
51.21000 181.616
51.22000 183.935
51.23000 184.544
51.24000 183.575
51.25000 182.567
51.26000 178.901
51.27000 173.618
51.28000 168.623
51.29000 170.059
51.30000 174.140
51.31000 177.953
51.32000 179.872
51.33000 181.136
51.34000 181.625
51.35000 176.996
51.36000 171.433
51.37000 167.794
51.38000 172.335
51.39000 177.799
51.40000 181.905
51.41000 179.015
51.42000 176.420
51.43000 172.888
51.44000 167.550
51.45000 162.166
51.46000 159.678
51.47000 160.928
51.48000 162.191
51.49000 163.751
51.50000 165.551
51.51000 167.298
51.52000 166.432
51.53000 164.122
51.54000 162.150
51.55000 166.396
51.56000 172.973
51.57000 179.050
51.58000 175.813
51.59000 170.802
51.60000 166.489
51.61000 166.300
51.62000 166.787
51.63000 167.066
51.64000 166.545
51.65000 165.945
51.66000 165.505
51.67000 165.530
51.68000 165.567
51.69000 165.863
51.70000 166.613
51.71000 167.372
51.72000 168.252
51.73000 169.274
51.74000 170.294
51.75000 170.093
51.76000 168.983
51.77000 167.893
51.78000 167.567
51.79000 167.624
51.80000 167.667
51.81000 167.471
51.82000 167.194
51.83000 166.941
51.84000 165.740
51.85000 164.483
51.86000 163.199
51.87000 161.774
51.88000 160.330
51.89000 159.935
51.90000 163.213
51.91000 166.806
51.92000 169.362
51.93000 163.102
51.94000 158.052
51.95000 154.078
51.96000 151.822
51.97000 149.589
51.98000 149.043
51.99000 150.265
52.00000 151.481
52.01000 152.553
52.02000 153.514
52.03000 154.581
52.04000 158.661
52.05000 164.123
52.06000 169.109
52.07000 167.836
52.08000 164.619
52.09000 161.720
52.10000 161.483
52.11000 161.757
52.12000 162.236
52.13000 163.698
52.14000 165.288
52.15000 166.157
52.16000 164.731
52.17000 163.135
52.18000 162.034
52.19000 155.708
52.20000 150.823
52.21000 149.124
52.22000 152.043
52.23000 155.000
52.24000 157.285
52.25000 158.938
52.26000 160.578
52.27000 163.123
52.28000 166.170
52.29000 168.907
52.30000 164.500
52.31000 157.111
52.32000 150.528
52.33000 153.122
52.34000 158.305
52.35000 162.911
52.36000 165.007
52.37000 166.421
52.38000 166.701
52.39000 162.082
52.40000 156.900
52.41000 154.048
52.42000 157.934
52.43000 162.246
52.44000 165.127
52.45000 160.789
52.46000 157.434
52.47000 153.186
52.48000 147.766
52.49000 142.353
52.50000 143.331
52.51000 149.715
52.52000 156.021
52.53000 157.593
52.54000 156.535
52.55000 155.526
52.56000 155.420
52.57000 155.658
52.58000 155.869
52.59000 155.813
52.60000 155.687
52.61000 155.578
52.62000 159.274
52.63000 162.987
52.64000 166.094
52.65000 166.829
52.66000 167.324
52.67000 167.207
52.68000 165.483
52.69000 163.673
52.70000 162.505
52.71000 158.641
52.72000 155.779
52.73000 155.070
52.74000 156.912
52.75000 158.751
52.76000 158.888
52.77000 157.725
52.78000 156.581
52.79000 157.059
52.80000 158.322
52.81000 159.486
52.82000 159.085
52.83000 158.141
52.84000 157.407
52.85000 158.497
52.86000 160.010
52.87000 161.313
52.88000 159.956
52.89000 158.469
52.90000 157.229
52.91000 156.866
52.92000 156.580
52.93000 157.329
52.94000 160.562
52.95000 163.903
52.96000 165.981
52.97000 157.511
52.98000 151.307
52.99000 147.098
53.00000 145.016
53.01000 142.958
53.02000 143.780
53.03000 146.594
53.04000 149.345
53.05000 151.466
53.06000 153.218
53.07000 154.942
53.08000 156.292
53.09000 157.524
53.10000 158.756
53.11000 159.986
53.12000 161.215
53.13000 162.255
53.14000 157.415
53.15000 152.709
53.16000 149.145
53.17000 149.264
53.18000 149.662
53.19000 150.878
53.20000 153.878
53.21000 156.942
53.22000 158.773
53.23000 160.596
53.24000 161.889
53.25000 162.323
53.26000 161.933
53.27000 161.525
53.28000 159.721
53.29000 157.040
53.30000 154.436
53.31000 153.036
53.32000 152.190
53.33000 151.722
53.34000 155.660
53.35000 160.861
53.36000 165.119
53.37000 162.923
53.38000 159.508
53.39000 156.670
53.40000 157.795
53.41000 159.111
53.42000 159.723
53.43000 158.270
53.44000 156.683
53.45000 156.713
53.46000 159.964
53.47000 163.304
53.48000 165.217
53.49000 159.042
53.50000 154.703
53.51000 151.647
53.52000 149.695
53.53000 147.832
53.54000 150.773
53.55000 156.453
53.56000 161.931
53.57000 162.082
53.58000 160.289
53.59000 158.744
53.60000 159.697
53.61000 161.302
53.62000 162.047
53.63000 157.540
53.64000 152.141
53.65000 147.745
53.66000 152.999
53.67000 158.107
53.68000 161.558
53.69000 160.582
53.70000 159.365
53.71000 158.005
53.72000 156.385
53.73000 154.759
53.74000 153.871
53.75000 155.896
53.76000 157.285
53.77000 156.712
53.78000 154.616
53.79000 152.529
53.80000 150.815
53.81000 149.295
53.82000 147.840
53.83000 149.656
53.84000 152.419
53.85000 155.080
53.86000 156.843
53.87000 158.394
53.88000 159.486
53.89000 158.061
53.90000 156.254
53.91000 154.813
53.92000 148.180
53.93000 142.450
53.94000 139.833
53.95000 144.802
53.96000 150.113
53.97000 153.636
53.98000 154.216
53.99000 154.753
54.00000 155.032
54.01000 151.290
54.02000 148.785
54.03000 149.530
54.04000 152.560
54.05000 155.535
54.06000 156.797
54.07000 157.250
54.08000 157.680
54.09000 157.052
54.10000 156.161
54.11000 155.412
54.12000 155.778
54.13000 156.383
54.14000 156.387
54.15000 153.428
54.16000 150.067
54.17000 147.447
54.18000 148.883
54.19000 150.279
54.20000 150.853
54.21000 149.604
54.22000 148.288
54.23000 149.163
54.24000 153.313
54.25000 157.495
54.26000 158.576
54.27000 156.640
54.28000 154.691
54.29000 151.610
54.30000 147.809
54.31000 144.294
54.32000 147.835
54.33000 154.413
54.34000 160.589
54.35000 156.794
54.36000 150.685
54.37000 145.592
54.38000 147.583
54.39000 150.935
54.40000 153.456
54.41000 152.266
54.42000 150.632
54.43000 149.389
54.44000 154.100
54.45000 158.118
54.46000 159.696
54.47000 156.338
54.48000 152.840
54.49000 151.569
54.50000 153.317
54.51000 155.081
54.52000 154.292
54.53000 151.274
54.54000 148.315
54.55000 148.659
54.56000 150.914
54.57000 153.125
54.58000 154.432
54.59000 155.385
54.60000 156.270
54.61000 149.611
54.62000 141.805
54.63000 136.072
54.64000 143.241
54.65000 152.640
54.66000 160.683
54.67000 163.250
54.68000 165.240
54.69000 166.716
54.70000 162.880
54.71000 159.670
54.72000 157.662
54.73000 157.864
54.74000 158.114
54.75000 156.505
54.76000 152.618
54.77000 148.732
54.78000 147.682
54.79000 148.864
54.80000 150.070
54.81000 152.288
54.82000 155.038
54.83000 157.646
54.84000 157.849
54.85000 157.194
54.86000 156.593
54.87000 156.031
54.88000 155.538
54.89000 155.444
54.90000 157.577
54.91000 160.055
54.92000 160.693
54.93000 154.595
54.94000 147.875
54.95000 143.028
54.96000 148.562
54.97000 153.175
54.98000 156.156
54.99000 156.407
55.00000 156.616
55.01000 156.347
55.02000 155.551
55.03000 154.758
55.04000 153.401
55.05000 151.657
55.06000 150.092
55.07000 154.246
55.08000 161.143
55.09000 167.355
55.10000 163.841
55.11000 157.164
55.12000 151.109
55.13000 152.494
55.14000 155.139
55.15000 157.515
55.16000 158.536
55.17000 159.371
55.18000 159.854
55.19000 159.169
55.20000 158.391
55.21000 157.847
55.22000 157.005
55.23000 156.361
55.24000 155.145
55.25000 153.062
55.26000 150.970
55.27000 149.911
55.28000 149.875
55.29000 149.839
55.30000 152.756
55.31000 157.510
55.32000 162.185
55.33000 164.847
55.34000 166.630
55.35000 168.433
55.36000 170.488
55.37000 172.616
55.38000 174.521
55.39000 176.368
55.40000 177.970
55.41000 179.457
55.42000 180.423
55.43000 181.326
55.44000 183.133
55.45000 187.679
55.46000 192.412
55.47000 195.625
55.48000 191.861
55.49000 188.898
55.50000 190.770
55.51000 199.303
55.52000 207.874
55.53000 213.293
55.54000 215.908
55.55000 218.495
55.56000 218.318
55.57000 216.554
55.58000 215.153
55.59000 221.269
55.60000 230.378
55.61000 239.509
55.62000 248.880
55.63000 258.316
55.64000 266.635
55.65000 275.432
55.66000 283.089
55.67000 289.160
55.68000 288.725
55.69000 287.588
55.70000 289.511
55.71000 299.868
55.72000 310.712
55.73000 317.830
55.74000 331.431
55.75000 341.547
55.76000 349.928
55.77000 356.151
55.78000 362.360
55.79000 365.961
55.80000 367.470
55.81000 368.956
55.82000 373.130
55.83000 378.573
55.84000 384.098
55.85000 391.019
55.86000 398.445
55.87000 405.439
55.88000 408.418
55.89000 410.420
55.90000 412.157
55.91000 403.766
55.92000 395.256
55.93000 388.613
55.94000 388.914
55.95000 389.870
55.96000 393.243
55.97000 402.682
55.98000 412.414
55.99000 418.577
56.00000 409.342
56.01000 402.460
56.02000 392.823
56.03000 380.096
56.04000 367.388
56.05000 358.370
56.06000 352.027
56.07000 345.810
56.08000 344.849
56.09000 346.386
56.10000 347.373
56.11000 340.327
56.12000 330.630
56.13000 320.639
56.14000 308.243
56.15000 295.317
56.16000 284.285
56.17000 281.012
56.18000 279.176
56.19000 276.348
56.20000 270.170
56.21000 263.718
56.22000 256.867
56.23000 249.100
56.24000 241.297
56.25000 236.542
56.26000 238.199
56.27000 239.435
56.28000 235.869
56.29000 227.461
56.30000 219.144
56.31000 219.542
56.32000 225.668
56.33000 231.639
56.34000 229.377
56.35000 223.738
56.36000 218.273
56.37000 214.980
56.38000 212.339
56.39000 208.965
56.40000 200.287
56.41000 190.554
56.42000 182.395
56.43000 179.200
56.44000 177.057
56.45000 175.193
56.46000 174.187
56.47000 173.242
56.48000 174.023
56.49000 178.404
56.50000 182.896
56.51000 185.523
56.52000 178.829
56.53000 174.076
56.54000 173.602
56.55000 177.001
56.56000 180.322
56.57000 178.654
56.58000 174.008
56.59000 169.511
56.60000 167.383
56.61000 166.275
56.62000 165.342
56.63000 166.299
56.64000 167.771
56.65000 168.697
56.66000 166.092
56.67000 162.856
56.68000 160.195
56.69000 163.248
56.70000 166.274
56.71000 168.338
56.72000 167.714
56.73000 166.929
56.74000 164.171
56.75000 157.666
56.76000 151.073
56.77000 147.384
56.78000 151.236
56.79000 153.918
56.80000 154.735
56.81000 154.032
56.82000 153.293
56.83000 150.889
56.84000 147.582
56.85000 144.405
56.86000 145.415
56.87000 147.802
56.88000 149.925
56.89000 149.560
56.90000 148.579
56.91000 147.834
56.92000 148.451
56.93000 149.286
56.94000 149.959
56.95000 150.848
56.96000 151.586
56.97000 151.600
56.98000 149.766
56.99000 147.841
57.00000 147.704
57.01000 150.654
57.02000 153.657
57.03000 155.259
57.04000 150.489
57.05000 147.241
57.06000 145.215
57.07000 144.089
57.08000 142.970
57.09000 142.106
57.10000 141.368
57.11000 140.665
57.12000 144.677
57.13000 149.857
57.14000 154.091
57.15000 150.448
57.16000 145.040
57.17000 140.100
57.18000 137.586
57.19000 135.420
57.20000 133.713
57.21000 142.754
57.22000 150.723
57.23000 155.225
57.24000 151.674
57.25000 147.797
57.26000 144.868
57.27000 143.425
57.28000 142.000
57.29000 141.278
57.30000 136.091
57.31000 132.682
57.32000 135.973
57.33000 143.739
57.34000 151.342
57.35000 154.475
57.36000 155.597
57.37000 156.655
57.38000 150.343
57.39000 142.496
57.40000 135.349
57.41000 133.364
57.42000 132.423
57.43000 131.842
57.44000 132.942
57.45000 134.256
57.46000 135.268
57.47000 135.171
57.48000 135.030
57.49000 136.370
57.50000 140.840
57.51000 145.412
57.52000 148.405
57.53000 149.155
57.54000 149.887
57.55000 148.182
57.56000 144.235
57.57000 140.307
57.58000 137.709
57.59000 135.916
57.60000 134.254
57.61000 135.474
57.62000 137.878
57.63000 140.122
57.64000 141.056
57.65000 141.574
57.66000 142.080
57.67000 142.503
57.68000 142.911
57.69000 143.194
57.70000 142.947
57.71000 142.640
57.72000 142.410
57.73000 144.431
57.74000 146.119
57.75000 146.891
57.76000 145.902
57.77000 144.868
57.78000 142.855
57.79000 139.585
57.80000 136.313
57.81000 138.100
57.82000 144.064
57.83000 149.908
57.84000 149.972
57.85000 146.850
57.86000 143.751
57.87000 141.095
57.88000 138.604
57.89000 136.304
57.90000 136.173
57.91000 136.544
57.92000 136.780
57.93000 136.220
57.94000 135.529
57.95000 135.349
57.96000 137.131
57.97000 139.107
57.98000 140.551
57.99000 141.076
58.00000 141.444
58.01000 142.036
58.02000 143.018
58.03000 144.007
58.04000 143.409
58.05000 140.968
58.06000 138.531
58.07000 135.909
58.08000 133.167
58.09000 130.487
58.10000 130.039
58.11000 130.710
58.12000 131.363
58.13000 131.715
58.14000 131.966
58.15000 132.194
58.16000 133.581
58.17000 135.044
58.18000 136.140
58.19000 135.295
58.20000 134.167
58.21000 134.639
58.22000 140.689
58.23000 147.216
58.24000 151.855
58.25000 145.949
58.26000 141.115
58.27000 138.734
58.28000 140.256
58.29000 141.829
58.30000 142.204
58.31000 141.328
58.32000 140.457
58.33000 137.019
58.34000 131.905
58.35000 126.994
58.36000 127.851
58.37000 131.344
58.38000 134.507
58.39000 133.346
58.40000 130.845
58.41000 128.593
58.42000 130.461
58.43000 132.843
58.44000 134.864
58.45000 135.171
58.46000 135.255
58.47000 135.589
58.48000 136.715
58.49000 137.898
58.50000 138.714
58.51000 140.315
58.52000 141.538
58.53000 139.792
58.54000 133.760
58.55000 127.694
58.56000 125.869
58.57000 128.018
58.58000 130.149
58.59000 131.592
58.60000 132.593
58.61000 133.519
58.62000 132.723
58.63000 131.210
58.64000 130.348
58.65000 136.871
58.66000 145.473
58.67000 153.111
58.68000 147.535
58.69000 140.579
58.70000 134.122
58.71000 129.819
58.72000 125.762
58.73000 124.962
58.74000 133.551
58.75000 142.730
58.76000 148.857
58.77000 143.330
58.78000 139.011
58.79000 134.859
58.80000 130.924
58.81000 126.998
58.82000 127.291
58.83000 131.142
58.84000 134.944
58.85000 135.099
58.86000 133.259
58.87000 131.507
58.88000 131.400
58.89000 131.917
58.90000 132.381
58.91000 132.317
58.92000 132.119
58.93000 131.946
58.94000 131.803
58.95000 131.684
58.96000 132.020
58.97000 134.131
58.98000 136.421
58.99000 137.550
59.00000 135.631
59.01000 133.551
59.02000 132.210
59.03000 135.302
59.04000 137.624
59.05000 136.758
59.06000 132.127
59.07000 127.516
59.08000 128.490
59.09000 133.717
59.10000 138.855
59.11000 139.988
59.12000 139.112
59.13000 138.081
59.14000 134.594
59.15000 130.258
59.16000 126.506
59.17000 127.811
59.18000 130.287
59.19000 132.418
59.20000 133.091
59.21000 133.477
59.22000 133.931
59.23000 134.625
59.24000 135.341
59.25000 135.408
59.26000 133.921
59.27000 132.367
59.28000 131.401
59.29000 136.840
59.30000 140.818
59.31000 140.013
59.32000 134.125
59.33000 128.269
59.34000 126.400
59.35000 127.280
59.36000 128.140
59.37000 128.956
59.38000 129.719
59.39000 130.502
59.40000 131.563
59.41000 132.711
59.42000 134.016
59.43000 136.529
59.44000 139.295
59.45000 141.635
59.46000 141.561
59.47000 141.232
59.48000 140.998
59.49000 141.074
59.50000 141.173
59.51000 139.711
59.52000 134.849
59.53000 129.869
59.54000 126.896
59.55000 122.230
59.56000 118.912
59.57000 120.621
59.58000 127.122
59.59000 133.568
59.60000 135.797
59.61000 135.389
59.62000 134.993
59.63000 134.092
59.64000 133.035
59.65000 132.296
59.66000 135.259
59.67000 139.278
59.68000 142.708
59.69000 142.116
59.70000 140.766
59.71000 139.645
59.72000 134.021
59.73000 128.936
59.74000 125.069
59.75000 124.769
59.76000 124.699
59.77000 126.284
59.78000 131.155
59.79000 136.115
59.80000 138.952
59.81000 134.828
59.82000 131.928
59.83000 130.889
59.84000 131.446
59.85000 131.985
59.86000 131.536
59.87000 130.527
59.88000 129.553
59.89000 132.828
59.90000 137.444
59.91000 141.572
59.92000 140.768
59.93000 138.683
59.94000 135.917
59.95000 128.991
59.96000 121.362
59.97000 115.153
59.98000 117.693
59.99000 120.503
60.00000 124.065
60.01000 129.630
60.02000 135.304
60.03000 137.533
60.04000 133.536
60.05000 129.411
60.06000 127.159
60.07000 125.472
60.08000 124.331
60.09000 127.563
60.10000 134.178
60.11000 140.695
60.12000 143.288
60.13000 143.853
60.14000 144.394
60.15000 141.402
60.16000 137.464
60.17000 133.844
60.18000 133.039
60.19000 132.895
60.20000 132.833
60.21000 133.215
60.22000 133.664
60.23000 134.021
60.24000 135.282
60.25000 136.364
60.26000 137.436
60.27000 138.479
60.28000 139.522
60.29000 139.304
60.30000 137.017
60.31000 134.700
60.32000 133.496
60.33000 135.814
60.34000 137.325
60.35000 131.509
60.36000 120.559
60.37000 109.990
60.38000 111.044
60.39000 117.573
60.40000 123.762
60.41000 126.656
60.42000 128.352
60.43000 129.583
60.44000 127.168
60.45000 123.979
60.46000 121.840
60.47000 124.873
60.48000 128.604
60.49000 131.510
60.50000 129.064
60.51000 126.786
60.52000 125.763
60.53000 127.519
60.54000 129.377
60.55000 130.662
60.56000 131.096
60.57000 131.522
60.58000 133.874
60.59000 138.096
60.60000 142.253
60.61000 141.092
60.62000 136.551
60.63000 132.075
60.64000 129.186
60.65000 126.978
60.66000 124.905
60.67000 127.124
60.68000 130.283
60.69000 133.059
60.70000 133.177
60.71000 132.786
60.72000 131.748
60.73000 127.835
60.74000 123.578
60.75000 120.343
60.76000 125.457
60.77000 129.915
60.78000 132.735
60.79000 132.257
60.80000 131.686
60.81000 131.718
60.82000 132.566
60.83000 133.418
60.84000 134.560
60.85000 135.951
60.86000 137.321
60.87000 137.441
60.88000 136.840
60.89000 136.131
60.90000 133.261
60.91000 129.545
60.92000 126.095
60.93000 123.557
60.94000 121.485
60.95000 120.969
60.96000 130.103
60.97000 140.898
60.98000 148.588
60.99000 143.778
61.00000 137.653
61.01000 133.116
61.02000 133.625
61.03000 134.240
61.04000 133.140
61.05000 128.894
61.06000 124.581
61.07000 125.592
61.08000 133.105
61.09000 140.618
61.10000 142.436
61.11000 139.786
61.12000 137.136
61.13000 134.463
61.14000 131.779
61.15000 129.236
61.16000 129.059
61.17000 129.723
61.18000 130.334
61.19000 131.899
61.20000 133.498
61.21000 134.851
61.22000 134.832
61.23000 134.601
61.24000 134.260
61.25000 133.519
61.26000 132.741
61.27000 132.180
61.28000 136.010
61.29000 139.101
61.30000 140.245
61.31000 138.144
61.32000 135.993
61.33000 134.121
61.34000 132.556
61.35000 130.998
61.36000 133.010
61.37000 137.520
61.38000 141.837
61.39000 140.020
61.40000 135.271
61.41000 130.946
61.42000 132.643
61.43000 136.291
61.44000 139.598
61.45000 144.388
61.46000 148.895
61.47000 152.312
61.48000 150.278
61.49000 147.494
61.50000 147.856
61.51000 158.654
61.52000 170.282
61.53000 178.420
61.54000 187.403
61.55000 194.218
61.56000 201.726
61.57000 210.281
61.58000 218.847
61.59000 231.768
61.60000 248.989
61.61000 266.092
61.62000 273.513
61.63000 274.668
61.64000 275.991
61.65000 281.554
61.66000 288.964
61.67000 295.982
61.68000 298.232
61.69000 299.077
61.70000 299.833
61.71000 293.941
61.72000 287.675
61.73000 282.252
61.74000 280.643
61.75000 279.499
61.76000 275.542
61.77000 263.095
61.78000 250.071
61.79000 241.239
61.80000 227.237
61.81000 216.681
61.82000 205.513
61.83000 193.507
61.84000 181.500
61.85000 174.565
61.86000 172.129
61.87000 169.719
61.88000 163.798
61.89000 155.995
61.90000 148.461
61.91000 146.453
61.92000 146.638
61.93000 146.607
61.94000 144.301
61.95000 141.385
61.96000 138.815
61.97000 141.914
61.98000 145.440
61.99000 148.466
62.00000 149.443
62.01000 150.201
62.02000 149.425
62.03000 144.436
62.04000 139.204
62.05000 135.774
62.06000 137.820
62.07000 139.417
62.08000 141.202
62.09000 143.223
62.10000 145.237
62.11000 144.797
62.12000 142.394
62.13000 140.026
62.14000 139.082
62.15000 138.903
62.16000 139.040
62.17000 144.613
62.18000 152.149
62.19000 158.345
62.20000 152.169
62.21000 142.989
62.22000 135.025
62.23000 138.888
62.24000 143.760
62.25000 147.709
62.26000 148.235
62.27000 148.440
62.28000 148.219
62.29000 146.931
62.30000 145.591
62.31000 144.744
62.32000 142.116
62.33000 140.189
62.34000 141.142
62.35000 145.315
62.36000 149.458
62.37000 148.447
62.38000 143.708
62.39000 139.063
62.40000 139.733
62.41000 142.860
62.42000 145.580
62.43000 142.377
62.44000 137.226
62.45000 132.645
62.46000 132.701
62.47000 133.776
62.48000 134.692
62.49000 138.415
62.50000 141.879
62.51000 144.449
62.52000 144.006
62.53000 143.318
62.54000 142.582
62.55000 141.737
62.56000 140.888
62.57000 140.370
62.58000 138.957
62.59000 137.940
62.60000 137.007
62.61000 136.159
62.62000 135.316
62.63000 134.940
62.64000 134.870
62.65000 134.802
62.66000 139.257
62.67000 145.411
62.68000 151.095
62.69000 150.911
62.70000 148.971
62.71000 147.266
62.72000 147.266
62.73000 147.604
62.74000 147.886
62.75000 149.451
62.76000 150.885
62.77000 151.409
62.78000 149.147
62.79000 146.690
62.80000 144.056
62.81000 141.052
62.82000 138.037
62.83000 136.275
62.84000 138.209
62.85000 139.588
62.86000 142.209
62.87000 145.951
62.88000 149.630
62.89000 149.346
62.90000 146.702
62.91000 144.143
62.92000 145.096
62.93000 147.332
62.94000 149.413
62.95000 149.819
62.96000 149.770
62.97000 149.663
62.98000 149.183
62.99000 148.637
63.00000 148.188
63.01000 146.288
63.02000 144.596
63.03000 143.983
63.04000 146.379
63.05000 148.952
63.06000 149.713
63.07000 147.046
63.08000 144.298
63.09000 142.763
63.10000 149.942
63.11000 154.924
63.12000 156.847
63.13000 156.282
63.14000 155.678
63.15000 153.333
63.16000 150.046
63.17000 146.889
63.18000 145.773
63.19000 145.429
63.20000 145.183
63.21000 145.862
63.22000 146.768
63.23000 147.412
63.24000 146.543
63.25000 145.433
63.26000 144.539
63.27000 150.144
63.28000 155.199
63.29000 157.453
63.30000 152.591
63.31000 147.379
63.32000 144.609
63.33000 146.041
63.34000 147.547
63.35000 148.349
63.36000 149.213
63.37000 149.803
63.38000 150.660
63.39000 151.714
63.40000 152.731
63.41000 152.487
63.42000 151.622
63.43000 150.797
63.44000 149.884
63.45000 149.011
63.46000 148.213
63.47000 148.032
63.48000 147.989
63.49000 148.358
63.50000 150.853
63.51000 153.651
63.52000 155.856
63.53000 153.250
63.54000 150.840
63.55000 149.033
63.56000 148.621
63.57000 148.266
63.58000 150.737
63.59000 157.625
63.60000 164.565
63.61000 168.075
63.62000 161.928
63.63000 157.828
63.64000 155.103
63.65000 153.294
63.66000 151.493
63.67000 149.885
63.68000 148.364
63.69000 146.929
63.70000 149.444
63.71000 152.850
63.72000 155.819
63.73000 155.587
63.74000 154.708
63.75000 154.090
63.76000 154.683
63.77000 155.430
63.78000 156.004
63.79000 153.673
63.80000 151.663
63.81000 150.449
63.82000 150.913
63.83000 151.431
63.84000 151.305
63.85000 150.264
63.86000 149.218
63.87000 148.675
63.88000 148.596
63.89000 148.511
63.90000 148.133
63.91000 147.576
63.92000 147.126
63.93000 149.025
63.94000 151.884
63.95000 154.553
63.96000 157.663
63.97000 160.592
63.98000 163.703
63.99000 168.012
64.00000 172.537
64.01000 175.546
64.02000 172.152
64.03000 168.040
64.04000 164.955
64.05000 162.384
64.06000 160.400
64.07000 158.114
64.08000 155.246
64.09000 152.365
64.10000 151.259
64.11000 152.430
64.12000 153.609
64.13000 156.067
64.14000 159.570
64.15000 163.013
64.16000 163.534
64.17000 162.449
64.18000 161.395
64.19000 160.886
64.20000 160.581
64.21000 160.300
64.22000 163.029
64.23000 166.152
64.24000 168.552
64.25000 166.708
64.26000 164.173
64.27000 162.540
64.28000 164.354
64.29000 166.508
64.30000 168.081
64.31000 168.150
64.32000 168.144
64.33000 167.553
64.34000 165.938
64.35000 164.304
64.36000 163.356
64.37000 163.201
64.38000 163.048
64.39000 163.093
64.40000 163.284
64.41000 163.520
64.42000 165.366
64.43000 168.017
64.44000 170.309
64.45000 167.093
64.46000 162.008
64.47000 157.369
64.48000 166.954
64.49000 178.315
64.50000 186.698
64.51000 179.397
64.52000 169.814
64.53000 162.466
64.54000 162.883
64.55000 163.962
64.56000 164.729
64.57000 165.650
64.58000 166.355
64.59000 167.817
64.60000 170.481
64.61000 173.159
64.62000 175.032
64.63000 176.065
64.64000 177.094
64.65000 180.902
64.66000 186.519
64.67000 191.971
64.68000 192.767
64.69000 191.442
64.70000 189.871
64.71000 185.077
64.72000 179.289
64.73000 174.078
64.74000 171.875
64.75000 170.484
64.76000 170.282
64.77000 175.722
64.78000 181.891
64.79000 185.279
64.80000 179.878
64.81000 173.831
64.82000 169.666
64.83000 177.235
64.84000 183.211
64.85000 186.944
64.86000 187.447
64.87000 187.924
64.88000 189.559
64.89000 192.274
64.90000 194.966
64.91000 193.996
64.92000 190.839
64.93000 187.638
64.94000 183.433
64.95000 178.813
64.96000 174.974
64.97000 179.953
64.98000 187.408
64.99000 194.025
65.00000 199.044
65.01000 203.139
65.02000 206.559
65.03000 207.082
65.04000 207.274
65.05000 208.080
65.06000 210.650
65.07000 213.331
65.08000 215.118
65.09000 210.647
65.10000 207.216
65.11000 209.405
65.12000 218.920
65.13000 228.455
65.14000 231.478
65.15000 229.027
65.16000 226.607
65.17000 226.411
65.18000 227.431
65.19000 228.638
65.20000 233.349
65.21000 239.387
65.22000 245.098
65.23000 247.610
65.24000 249.306
65.25000 250.789
65.26000 252.135
65.27000 253.268
65.28000 254.718
65.29000 257.402
65.30000 260.210
65.31000 262.588
65.32000 263.843
65.33000 265.039
65.34000 265.809
65.35000 276.068
65.36000 283.690
65.37000 288.286
65.38000 289.318
65.39000 290.345
65.40000 291.424
65.41000 292.543
65.42000 293.643
65.43000 295.773
65.44000 298.337
65.45000 301.010
65.46000 305.392
65.47000 310.362
65.48000 315.036
65.49000 317.146
65.50000 318.664
65.51000 319.971
65.52000 322.361
65.53000 324.521
65.54000 328.699
65.55000 340.004
65.56000 351.931
65.57000 359.928
65.58000 358.549
65.59000 356.765
65.60000 355.659
65.61000 370.732
65.62000 381.734
65.63000 393.276
65.64000 405.388
65.65000 417.558
65.66000 436.502
65.67000 460.103
65.68000 483.165
65.69000 518.948
65.70000 558.860
65.71000 600.335
65.72000 662.739
65.73000 731.705
65.74000 800.921
65.75000 872.049
65.76000 943.576
65.77000 1004.037
65.78000 1058.989
65.79000 1104.347
65.80000 1146.533
65.81000 1178.542
65.82000 1209.785
65.83000 1231.629
65.84000 1233.044
65.85000 1233.750
65.86000 1234.172
65.87000 1259.242
65.88000 1277.160
65.89000 1279.390
65.90000 1266.713
65.91000 1253.870
65.92000 1228.454
65.93000 1195.195
65.94000 1162.904
65.95000 1095.384
65.96000 1017.209
65.97000 939.369
65.98000 865.406
65.99000 792.546
66.00000 721.620
66.01000 663.828
66.02000 608.504
66.03000 562.604
66.04000 517.874
66.05000 481.023
66.06000 446.589
66.07000 419.215
66.08000 392.295
66.09000 374.593
66.10000 375.141
66.11000 376.183
66.12000 376.778
66.13000 360.627
66.14000 349.303
66.15000 339.822
66.16000 331.917
66.17000 324.169
66.18000 324.745
66.19000 330.040
66.20000 335.143
66.21000 332.843
66.22000 328.008
66.23000 324.545
66.24000 334.876
66.25000 348.774
66.26000 362.833
66.27000 377.861
66.28000 393.053
66.29000 405.409
66.30000 417.142
66.31000 426.669
66.32000 435.840
66.33000 444.066
66.34000 452.241
66.35000 462.592
66.36000 476.863
66.37000 491.214
66.38000 499.040
66.39000 498.313
66.40000 497.801
66.41000 496.735
66.42000 495.241
66.43000 493.784
66.44000 493.720
66.45000 494.374
66.46000 495.000
66.47000 492.608
66.48000 489.400
66.49000 485.395
66.50000 474.359
66.51000 461.675
66.52000 447.976
66.53000 428.743
66.54000 408.674
66.55000 392.697
66.56000 381.522
66.57000 372.858
66.58000 365.273
66.59000 360.301
66.60000 355.446
66.61000 354.355
66.62000 359.429
66.63000 364.592
66.64000 367.271
66.65000 363.449
66.66000 360.890
66.67000 361.173
66.68000 363.440
66.69000 365.497
66.70000 361.163
66.71000 353.826
66.72000 346.873
66.73000 341.835
66.74000 337.757
66.75000 333.838
66.76000 331.158
66.77000 328.741
66.78000 327.766
66.79000 333.863
66.80000 340.911
66.81000 346.396
66.82000 345.875
66.83000 345.091
66.84000 344.755
66.85000 345.408
66.86000 346.097
66.87000 345.701
66.88000 343.691
66.89000 341.666
66.90000 344.017
66.91000 350.598
66.92000 357.140
66.93000 360.542
66.94000 361.955
66.95000 363.491
66.96000 368.023
66.97000 373.836
66.98000 379.292
66.99000 376.585
67.00000 371.966
67.01000 368.723
67.02000 375.010
67.03000 383.118
67.04000 388.685
67.05000 382.993
67.06000 375.960
67.07000 370.618
67.08000 371.710
67.09000 372.903
67.10000 374.109
67.11000 375.343
67.12000 376.578
67.13000 379.973
67.14000 386.277
67.15000 392.591
67.16000 394.681
67.17000 393.100
67.18000 391.530
67.19000 390.600
67.20000 390.037
67.21000 389.776
67.22000 395.495
67.23000 403.545
67.24000 411.018
67.25000 412.826
67.26000 413.114
67.27000 413.695
67.28000 416.096
67.29000 418.809
67.30000 420.611
67.31000 418.761
67.32000 416.528
67.33000 414.876
67.34000 426.654
67.35000 436.373
67.36000 443.253
67.37000 444.942
67.38000 446.519
67.39000 444.110
67.40000 436.850
67.41000 429.593
67.42000 428.961
67.43000 433.501
67.44000 437.958
67.45000 438.973
67.46000 438.185
67.47000 437.498
67.48000 438.474
67.49000 440.040
67.50000 441.477
67.51000 449.003
67.52000 457.007
67.53000 463.764
67.54000 463.604
67.55000 462.382
67.56000 461.966
67.57000 464.487
67.58000 467.276
67.59000 469.284
67.60000 465.085
67.61000 461.650
67.62000 461.275
67.63000 465.990
67.64000 470.783
67.65000 475.894
67.66000 481.354
67.67000 486.792
67.68000 487.032
67.69000 483.619
67.70000 480.388
67.71000 482.879
67.72000 488.100
67.73000 493.190
67.74000 496.434
67.75000 499.081
67.76000 501.480
67.77000 494.881
67.78000 487.354
67.79000 482.938
67.80000 494.049
67.81000 507.287
67.82000 518.098
67.83000 520.878
67.84000 523.024
67.85000 524.523
67.86000 521.877
67.87000 519.760
67.88000 519.874
67.89000 523.357
67.90000 526.874
67.91000 533.117
67.92000 542.043
67.93000 550.906
67.94000 553.222
67.95000 551.356
67.96000 549.603
67.97000 550.700
67.98000 553.035
67.99000 555.654
68.00000 561.704
68.01000 568.762
68.02000 575.072
68.03000 587.356
68.04000 599.074
68.05000 608.192
68.06000 605.596
68.07000 601.578
68.08000 597.997
68.09000 595.728
68.10000 593.548
68.11000 592.071
68.12000 591.784
68.13000 591.596
68.14000 591.583
68.15000 591.809
68.16000 592.041
68.17000 597.236
68.18000 606.820
68.19000 616.301
68.20000 624.274
68.21000 631.204
68.22000 638.101
68.23000 644.294
68.24000 650.209
68.25000 656.051
68.26000 661.135
68.27000 666.016
68.28000 670.315
68.29000 669.578
68.30000 668.184
68.31000 669.199
68.32000 680.037
68.33000 691.925
68.34000 702.693
68.35000 710.392
68.36000 717.915
68.37000 722.844
68.38000 727.654
68.39000 731.187
68.40000 735.746
68.41000 741.574
68.42000 747.405
68.43000 753.138
68.44000 758.791
68.45000 764.360
68.46000 781.130
68.47000 803.175
68.48000 824.819
68.49000 839.631
68.50000 851.979
68.51000 863.550
68.52000 867.974
68.53000 870.667
68.54000 873.003
68.55000 900.714
68.56000 927.691
68.57000 957.788
68.58000 999.424
68.59000 1042.139
68.60000 1083.888
68.61000 1123.226
68.62000 1162.450
68.63000 1187.236
68.64000 1259.208
68.65000 1311.915
68.66000 1365.030
68.67000 1418.599
68.68000 1472.237
68.69000 1536.544
68.70000 1608.545
68.71000 1679.098
68.72000 1746.270
68.73000 1809.311
68.74000 1872.812
68.75000 1942.951
68.76000 2015.270
68.77000 2087.603
68.78000 2160.062
68.79000 2232.547
68.80000 2294.348
68.81000 2409.614
68.82000 2512.873
68.83000 2628.175
68.84000 2783.934
68.85000 2942.971
68.86000 3128.049
68.87000 3372.343
68.88000 3618.928
68.89000 3768.851
68.90000 4617.148
68.91000 5228.274
68.92000 6315.135
68.93000 7878.491
68.94000 9454.550
68.95000 12210.077
68.96000 15736.537
68.97000 19171.402
68.98000 23967.791
68.99000 29113.023
69.00000 34260.066
69.01000 39429.531
69.02000 44605.688
69.03000 49601.859
69.04000 53304.297
69.05000 56751.066
69.06000 59637.129
69.07000 61282.223
69.08000 62521.977
69.09000 63537.016
69.10000 63865.434
69.11000 64146.137
69.12000 64539.066
69.13000 65164.496
69.14000 65797.047
69.15000 66166.039
69.16000 67101.117
69.17000 67760.758
69.18000 67716.359
69.19000 67038.773
69.20000 66337.297
69.21000 64146.289
69.22000 61071.109
69.23000 58096.188
69.24000 54788.781
69.25000 51538.891
69.26000 48306.512
69.27000 45262.168
69.28000 42268.813
69.29000 39436.965
69.30000 37640.340
69.31000 36027.777
69.32000 34703.379
69.33000 33768.656
69.34000 33036.020
69.35000 32244.736
69.36000 31290.307
69.37000 30326.279
69.38000 29020.346
69.39000 27069.553
69.40000 25103.617
69.41000 24006.797
69.42000 20218.107
69.43000 17590.582
69.44000 15156.237
69.45000 12878.475
69.46000 10610.671
69.47000 8791.320
69.48000 7214.061
69.49000 5699.864
69.50000 4701.933
69.51000 3945.326
69.52000 3223.768
69.53000 2831.148
69.54000 2519.426
69.55000 2228.136
69.56000 2054.148
69.57000 1898.856
69.58000 1773.919
69.59000 1670.685
69.60000 1588.633
69.61000 1511.784
69.62000 1448.121
69.63000 1385.104
69.64000 1334.749
69.65000 1306.119
69.66000 1277.862
69.67000 1262.837
69.68000 1197.899
69.69000 1153.746
69.70000 1123.374
69.71000 1103.099
69.72000 1082.528
69.73000 1051.794
69.74000 1016.066
69.75000 982.057
69.76000 963.535
69.77000 951.166
69.78000 939.319
69.79000 931.792
69.80000 925.226
69.81000 916.340
69.82000 895.472
69.83000 872.900
69.84000 855.136
69.85000 836.455
69.86000 821.430
69.87000 806.283
69.88000 790.856
69.89000 775.417
69.90000 764.709
69.91000 761.374
69.92000 758.126
69.93000 756.486
69.94000 738.420
69.95000 726.394
69.96000 720.012
69.97000 717.378
69.98000 714.513
69.99000 705.430
70.00000 693.564
