20.00000 577.263
20.01000 568.182
20.02000 557.805
20.03000 549.887
20.04000 551.580
20.05000 554.244
20.06000 556.202
20.07000 557.677
20.08000 558.798
20.09000 560.323
20.10000 562.567
20.11000 564.826
20.12000 567.593
20.13000 570.963
20.14000 574.325
20.15000 572.125
20.16000 565.721
20.17000 559.456
20.18000 558.490
20.19000 560.227
20.20000 562.125
20.21000 566.573
20.22000 571.904
20.23000 576.779
20.24000 565.040
20.25000 551.181
20.26000 540.208
20.27000 544.776
20.28000 551.660
20.29000 556.814
20.30000 555.833
20.31000 554.312
20.32000 553.225
20.33000 551.121
20.34000 549.482
20.35000 549.328
20.36000 551.581
20.37000 553.868
20.38000 557.247
20.39000 561.790
20.40000 566.312
20.41000 561.093
20.42000 549.283
20.43000 537.692
20.44000 532.608
20.45000 530.549
20.46000 529.059
20.47000 535.251
20.48000 543.864
20.49000 551.640
20.50000 551.229
20.51000 549.361
20.52000 547.771
20.53000 547.527
20.54000 547.463
20.55000 547.744
20.56000 549.143
20.57000 550.627
20.58000 551.656
20.59000 536.532
20.60000 524.718
20.61000 524.062
20.62000 539.813
20.63000 555.710
20.64000 562.698
20.65000 561.176
20.66000 559.666
20.67000 559.177
20.68000 559.325
20.69000 559.339
20.70000 556.181
20.71000 551.679
20.72000 547.507
20.73000 547.179
20.74000 547.951
20.75000 548.639
20.76000 541.091
20.77000 533.182
20.78000 528.711
20.79000 539.307
20.80000 551.673
20.81000 559.142
20.82000 552.250
20.83000 544.428
20.84000 539.175
20.85000 535.667
20.86000 533.097
20.87000 533.519
20.88000 537.926
20.89000 542.352
20.90000 546.308
20.91000 549.862
20.92000 553.374
20.93000 553.657
20.94000 552.138
20.95000 550.667
20.96000 550.110
20.97000 549.905
20.98000 549.451
20.99000 546.473
21.00000 542.839
21.01000 539.651
21.02000 548.182
21.03000 557.214
21.04000 563.781
21.05000 560.560
21.06000 556.330
21.07000 551.733
21.08000 546.158
21.09000 540.530
21.10000 536.878
21.11000 543.243
21.12000 548.054
21.13000 546.658
21.14000 537.792
21.15000 528.949
21.16000 529.946
21.17000 538.575
21.18000 547.063
21.19000 550.563
21.20000 551.449
21.21000 552.530
21.22000 556.786
21.23000 562.158
21.24000 566.589
21.25000 562.668
21.26000 556.780
21.27000 551.697
21.28000 554.531
21.29000 557.956
21.30000 561.578
21.31000 565.905
21.32000 570.297
21.33000 573.086
21.34000 571.979
21.35000 570.696
21.36000 569.893
21.37000 561.200
21.38000 554.842
21.39000 553.476
21.40000 557.518
21.41000 561.538
21.42000 562.348
21.43000 560.906
21.44000 559.495
21.45000 555.667
21.46000 550.899
21.47000 546.740
21.48000 551.010
21.49000 557.977
21.50000 563.779
21.51000 560.442
21.52000 555.160
21.53000 550.678
21.54000 550.868
21.55000 551.558
21.56000 553.028
21.57000 557.054
21.58000 561.279
21.59000 562.994
21.60000 559.140
21.61000 555.084
21.62000 552.645
21.63000 565.876
21.64000 575.390
21.65000 583.818
21.66000 591.188
21.67000 598.500
21.68000 601.077
21.69000 600.638
21.70000 600.212
21.71000 606.737
21.72000 615.784
21.73000 624.927
21.74000 635.216
21.75000 645.839
21.76000 655.969
21.77000 662.668
21.78000 668.708
21.79000 673.740
21.80000 684.675
21.81000 694.322
21.82000 704.149
21.83000 714.512
21.84000 724.912
21.85000 739.855
21.86000 763.973
21.87000 788.355
21.88000 802.410
21.89000 822.540
21.90000 836.652
21.91000 845.003
21.92000 848.319
21.93000 851.676
21.94000 857.350
21.95000 864.364
21.96000 871.136
21.97000 880.887
21.98000 891.173
21.99000 900.153
22.00000 895.645
22.01000 887.574
22.02000 879.558
22.03000 871.887
22.04000 864.274
22.05000 858.056
22.06000 855.467
22.07000 853.662
22.08000 850.776
22.09000 844.962
22.10000 838.984
22.11000 831.750
22.12000 822.208
22.13000 812.616
22.14000 807.332
22.15000 786.504
22.16000 772.127
22.17000 757.577
22.18000 742.891
22.19000 728.227
22.20000 714.436
22.21000 701.105
22.22000 688.336
22.23000 685.548
22.24000 686.268
22.25000 685.246
22.26000 668.435
22.27000 647.843
22.28000 630.556
22.29000 631.699
22.30000 635.691
22.31000 638.884
22.32000 621.128
22.33000 605.215
22.34000 596.666
22.35000 606.308
22.36000 616.796
22.37000 619.925
22.38000 610.750
22.39000 601.384
22.40000 596.471
22.41000 580.108
22.42000 569.085
22.43000 567.894
22.44000 573.715
22.45000 579.319
22.46000 578.006
22.47000 573.380
22.48000 568.988
22.49000 569.980
22.50000 572.512
22.51000 573.646
22.52000 563.611
22.53000 551.157
22.54000 540.062
22.55000 535.788
22.56000 532.454
22.57000 529.847
22.58000 534.442
22.59000 538.569
22.60000 538.872
22.61000 530.568
22.62000 521.940
22.63000 518.907
22.64000 524.368
22.65000 529.917
22.66000 537.270
22.67000 546.409
22.68000 555.408
22.69000 552.014
22.70000 540.606
22.71000 529.335
22.72000 521.557
22.73000 515.302
22.74000 509.421
22.75000 509.752
22.76000 511.730
22.77000 513.749
22.78000 516.055
22.79000 518.417
22.80000 519.715
22.81000 516.194
22.82000 512.084
22.83000 508.946
22.84000 505.047
22.85000 501.934
22.86000 499.333
22.87000 497.783
22.88000 496.264
22.89000 497.915
22.90000 503.927
22.91000 509.962
22.92000 515.667
22.93000 521.070
22.94000 526.372
22.95000 525.650
22.96000 521.391
22.97000 517.062
22.98000 511.310
22.99000 504.991
23.00000 499.112
23.01000 501.413
23.02000 505.475
23.03000 509.444
23.04000 512.817
23.05000 516.085
23.06000 517.871
23.07000 513.582
23.08000 508.639
23.09000 504.960
23.10000 496.125
23.11000 489.019
23.12000 485.980
23.13000 490.532
23.14000 495.257
23.15000 502.562
23.16000 513.075
23.17000 523.580
23.18000 521.080
23.19000 508.211
23.20000 495.575
23.21000 493.036
23.22000 495.891
23.23000 498.927
23.24000 505.077
23.25000 512.355
23.26000 519.051
23.27000 515.517
23.28000 510.135
23.29000 506.054
23.30000 509.359
23.31000 513.826
23.32000 515.381
23.33000 506.111
23.34000 495.822
23.35000 488.369
23.36000 484.213
23.37000 481.143
23.38000 484.024
23.39000 497.006
23.40000 510.155
23.41000 516.364
23.42000 514.791
23.43000 513.217
23.44000 501.947
23.45000 483.810
23.46000 466.244
23.47000 467.683
23.48000 478.365
23.49000 488.542
23.50000 491.367
23.51000 491.767
23.52000 492.130
23.53000 495.647
23.54000 499.367
23.55000 502.894
23.56000 505.433
23.57000 507.833
23.58000 509.649
23.59000 509.494
23.60000 509.178
23.61000 508.956
23.62000 506.255
23.63000 504.134
23.64000 502.003
23.65000 499.855
23.66000 497.707
23.67000 494.179
23.68000 489.261
23.69000 484.375
23.70000 484.569
23.71000 488.049
23.72000 491.577
23.73000 496.357
23.74000 501.692
23.75000 505.959
23.76000 496.897
23.77000 483.838
23.78000 472.130
23.79000 479.751
23.80000 489.766
23.81000 498.633
23.82000 502.214
23.83000 505.137
23.84000 505.886
23.85000 499.966
23.86000 493.578
23.87000 489.220
23.88000 499.112
23.89000 506.837
23.90000 508.542
23.91000 501.831
23.92000 495.063
23.93000 487.673
23.94000 479.723
23.95000 471.850
23.96000 477.150
23.97000 490.032
23.98000 502.468
23.99000 505.384
24.00000 504.456
24.01000 502.900
24.02000 494.545
24.03000 484.338
24.04000 475.318
24.05000 480.695
24.06000 487.562
24.07000 493.414
24.08000 495.045
24.09000 496.210
24.10000 497.343
24.11000 498.383
24.12000 499.418
24.13000 500.101
24.14000 492.015
24.15000 485.900
24.16000 482.156
24.17000 481.409
24.18000 480.670
24.19000 479.464
24.20000 477.875
24.21000 476.309
24.22000 474.609
24.23000 472.886
24.24000 471.443
24.25000 474.961
24.26000 480.304
24.27000 485.092
24.28000 484.636
24.29000 482.883
24.30000 481.358
24.31000 484.033
24.32000 486.890
24.33000 490.196
24.34000 495.201
24.35000 500.368
24.36000 501.803
24.37000 493.733
24.38000 485.193
24.39000 479.753
24.40000 480.929
24.41000 481.867
24.42000 483.562
24.43000 486.120
24.44000 488.654
24.45000 486.622
24.46000 481.229
24.47000 475.938
24.48000 470.916
24.49000 466.204
24.50000 461.625
24.51000 459.039
24.52000 457.121
24.53000 456.729
24.54000 469.034
24.55000 484.181
24.56000 497.142
24.57000 493.610
24.58000 488.639
24.59000 484.912
24.60000 485.448
24.61000 486.341
24.62000 486.287
24.63000 484.033
24.64000 481.690
24.65000 480.253
24.66000 475.895
24.67000 472.749
24.68000 468.097
24.69000 461.901
24.70000 455.794
24.71000 458.726
24.72000 467.690
24.73000 476.433
24.74000 475.732
24.75000 471.006
24.76000 466.576
24.77000 465.948
24.78000 466.478
24.79000 466.562
24.80000 463.352
24.81000 459.477
24.82000 456.219
24.83000 459.522
24.84000 462.970
24.85000 467.124
24.86000 473.478
24.87000 479.990
24.88000 479.252
24.89000 463.191
24.90000 446.635
24.91000 436.889
24.92000 454.095
24.93000 466.372
24.94000 473.919
24.95000 477.113
24.96000 480.300
24.97000 482.930
24.98000 485.225
24.99000 487.448
25.00000 488.309
25.01000 488.595
25.02000 488.265
25.03000 481.113
25.04000 472.072
25.05000 464.057
25.06000 462.784
25.07000 462.738
25.08000 462.699
25.09000 463.748
25.10000 464.712
25.11000 464.793
25.12000 462.368
25.13000 459.791
25.14000 458.424
25.15000 459.383
25.16000 460.400
25.17000 460.973
25.18000 463.258
25.19000 464.851
25.20000 467.488
25.21000 470.991
25.22000 474.338
25.23000 470.238
25.24000 462.037
25.25000 454.150
25.26000 462.192
25.27000 475.303
25.28000 486.296
25.29000 476.846
25.30000 462.262
25.31000 450.604
25.32000 456.140
25.33000 464.482
25.34000 471.223
25.35000 466.697
25.36000 462.114
25.37000 459.929
25.38000 463.942
25.39000 468.271
25.40000 470.147
25.41000 467.731
25.42000 465.235
25.43000 463.894
25.44000 466.355
25.45000 468.046
25.46000 470.814
25.47000 474.389
25.48000 477.828
25.49000 476.347
25.50000 472.400
25.51000 468.635
25.52000 464.911
25.53000 461.470
25.54000 458.441
25.55000 458.913
25.56000 460.180
25.57000 462.290
25.58000 468.841
25.59000 476.040
25.60000 481.733
25.61000 480.116
25.62000 478.314
25.63000 473.793
25.64000 462.869
25.65000 451.678
25.66000 448.294
25.67000 457.332
25.68000 466.530
25.69000 471.226
25.70000 458.431
25.71000 449.944
25.72000 452.944
25.73000 463.733
25.74000 474.153
25.75000 474.151
25.76000 469.391
25.77000 464.893
25.78000 460.094
25.79000 455.603
25.80000 451.566
25.81000 450.947
25.82000 451.029
25.83000 451.885
25.84000 456.423
25.85000 461.438
25.86000 465.314
25.87000 469.350
25.88000 472.560
25.89000 474.098
25.90000 472.045
25.91000 469.871
25.92000 466.103
25.93000 460.034
25.94000 453.946
25.95000 450.169
25.96000 448.554
25.97000 446.935
25.98000 445.038
25.99000 442.969
26.00000 441.389
26.01000 450.956
26.02000 465.161
26.03000 478.449
26.04000 476.717
26.05000 471.308
26.06000 465.965
26.07000 461.067
26.08000 456.251
26.09000 451.622
26.10000 447.798
26.11000 444.067
26.12000 441.254
26.13000 453.187
26.14000 463.254
26.15000 466.303
26.16000 455.639
26.17000 444.617
26.18000 440.654
26.19000 445.912
26.20000 451.205
26.21000 455.100
26.22000 457.809
26.23000 460.494
26.24000 461.969
26.25000 462.768
26.26000 463.440
26.27000 461.720
26.28000 459.094
26.29000 456.664
26.30000 455.606
26.31000 454.969
26.32000 453.338
26.33000 445.761
26.34000 437.197
26.35000 431.810
26.36000 438.803
26.37000 447.042
26.38000 453.091
26.39000 452.388
26.40000 451.571
26.41000 450.888
26.42000 450.446
26.43000 450.008
26.44000 452.022
26.45000 456.928
26.46000 461.826
26.47000 464.559
26.48000 465.639
26.49000 466.601
26.50000 463.163
26.51000 457.485
26.52000 452.017
26.53000 449.863
26.54000 448.852
26.55000 447.928
26.56000 446.000
26.57000 444.081
26.58000 442.542
26.59000 443.043
26.60000 443.848
26.61000 445.182
26.62000 448.393
26.63000 451.769
26.64000 454.178
26.65000 453.657
26.66000 453.162
26.67000 450.882
26.68000 445.716
26.69000 440.512
26.70000 440.692
26.71000 446.589
26.72000 452.458
26.73000 451.075
26.74000 444.770
26.75000 438.534
26.76000 434.322
26.77000 431.048
26.78000 427.985
26.79000 427.756
26.80000 428.416
26.81000 429.012
26.82000 430.726
26.83000 432.437
26.84000 434.249
26.85000 436.553
26.86000 438.922
26.87000 441.687
26.88000 445.722
26.89000 449.852
26.90000 452.714
26.91000 446.765
26.92000 442.057
26.93000 438.804
26.94000 437.685
26.95000 436.585
26.96000 435.445
26.97000 434.267
26.98000 433.098
26.99000 432.174
27.00000 431.415
27.01000 430.682
27.02000 430.553
27.03000 430.680
27.04000 430.798
27.05000 430.819
27.06000 430.812
27.07000 430.806
27.08000 431.827
27.09000 432.881
27.10000 433.128
27.11000 429.846
27.12000 426.151
27.13000 424.016
27.14000 426.444
27.15000 429.167
27.16000 430.993
27.17000 435.300
27.18000 438.547
27.19000 443.841
27.20000 451.853
27.21000 459.865
27.22000 459.222
27.23000 451.165
27.24000 443.203
27.25000 435.770
27.26000 428.813
27.27000 422.364
27.28000 425.738
27.29000 432.892
27.30000 439.161
27.31000 436.520
27.32000 431.570
27.33000 427.229
27.34000 436.127
27.35000 445.687
27.36000 452.599
27.37000 449.030
27.38000 444.382
27.39000 437.568
27.40000 424.980
27.41000 412.079
27.42000 403.718
27.43000 415.655
27.44000 424.696
27.45000 432.805
27.46000 439.797
27.47000 446.770
27.48000 449.477
27.49000 448.887
27.50000 448.306
27.51000 439.329
27.52000 426.445
27.53000 414.352
27.54000 415.087
27.55000 420.318
27.56000 425.344
27.57000 428.566
27.58000 431.364
27.59000 433.779
27.60000 433.427
27.61000 432.773
27.62000 432.268
27.63000 432.297
27.64000 432.374
27.65000 432.683
27.66000 433.554
27.67000 434.450
27.68000 435.010
27.69000 432.727
27.70000 431.050
27.71000 428.265
27.72000 424.281
27.73000 420.327
27.74000 420.275
27.75000 422.954
27.76000 425.574
27.77000 423.364
27.78000 419.063
27.79000 415.377
27.80000 420.161
27.81000 427.646
27.82000 433.957
27.83000 431.095
27.84000 426.284
27.85000 422.204
27.86000 420.925
27.87000 420.170
27.88000 420.683
27.89000 425.338
27.90000 430.315
27.91000 434.827
27.92000 438.313
27.93000 441.761
27.94000 443.832
27.95000 430.001
27.96000 420.063
27.97000 418.867
27.98000 426.142
27.99000 433.375
28.00000 437.064
28.01000 438.504
28.02000 439.904
28.03000 432.940
28.04000 422.909
28.05000 414.053
28.06000 419.116
28.07000 428.215
28.08000 435.967
28.09000 434.363
28.10000 430.967
28.11000 428.140
28.12000 426.016
28.13000 424.326
28.14000 424.374
28.15000 429.588
28.16000 435.143
28.17000 437.456
28.18000 433.240
28.19000 428.839
28.20000 426.305
28.21000 420.113
28.22000 415.772
28.23000 417.880
28.24000 425.604
28.25000 433.182
28.26000 432.588
28.27000 427.280
28.28000 422.157
28.29000 423.840
28.30000 427.929
28.31000 431.175
28.32000 425.747
28.33000 418.035
28.34000 412.390
28.35000 419.555
28.36000 428.924
28.37000 436.572
28.38000 434.574
28.39000 432.110
28.40000 429.853
28.41000 428.155
28.42000 426.489
28.43000 423.866
28.44000 419.492
28.45000 415.080
28.46000 412.653
28.47000 417.508
28.48000 420.859
28.49000 423.142
28.50000 424.584
28.51000 426.006
28.52000 426.565
28.53000 426.672
28.54000 426.775
28.55000 424.017
28.56000 420.498
28.57000 417.163
28.58000 415.493
28.59000 414.219
28.60000 412.793
28.61000 410.518
28.62000 408.111
28.63000 406.188
28.64000 407.518
28.65000 408.834
28.66000 409.516
28.67000 408.636
28.68000 407.683
28.69000 408.614
28.70000 412.682
28.71000 416.799
28.72000 418.954
28.73000 419.654
28.74000 420.129
28.75000 420.930
28.76000 421.962
28.77000 422.867
28.78000 419.757
28.79000 414.728
28.80000 409.955
28.81000 407.053
28.82000 404.934
28.83000 403.590
28.84000 408.418
28.85000 414.578
28.86000 419.925
28.87000 421.206
28.88000 421.928
28.89000 422.493
28.90000 411.005
28.91000 401.075
28.92000 395.810
28.93000 401.016
28.94000 406.615
28.95000 411.489
28.96000 415.268
28.97000 419.035
28.98000 422.420
28.99000 425.428
29.00000 428.377
29.01000 426.231
29.02000 420.800
29.03000 415.699
29.04000 418.950
29.05000 425.835
29.06000 432.307
29.07000 425.780
29.08000 416.324
29.09000 408.139
29.10000 408.943
29.11000 411.498
29.12000 412.178
29.13000 404.387
29.14000 395.566
29.15000 388.836
29.16000 396.143
29.17000 402.652
29.18000 406.164
29.19000 403.549
29.20000 400.754
29.21000 400.533
29.22000 403.845
29.23000 407.177
29.24000 412.263
29.25000 418.894
29.26000 425.412
29.27000 425.247
29.28000 421.168
29.29000 417.024
29.30000 411.558
29.31000 405.568
29.32000 399.995
29.33000 406.840
29.34000 416.025
29.35000 423.401
29.36000 419.368
29.37000 413.337
29.38000 407.205
29.39000 400.661
29.40000 394.074
29.41000 389.174
29.42000 397.668
29.43000 404.872
29.44000 409.707
29.45000 410.131
29.46000 410.457
29.47000 411.630
29.48000 413.855
29.49000 416.080
29.50000 414.550
29.51000 410.042
29.52000 405.585
29.53000 403.380
29.54000 402.374
29.55000 401.568
29.56000 404.201
29.57000 408.076
29.58000 411.639
29.59000 408.065
29.60000 403.324
29.61000 399.378
29.62000 399.923
29.63000 401.172
29.64000 402.308
29.65000 403.023
29.66000 403.699
29.67000 404.188
29.68000 412.983
29.69000 420.039
29.70000 423.660
29.71000 421.466
29.72000 419.177
29.73000 419.845
29.74000 423.820
29.75000 427.782
29.76000 427.646
29.77000 424.576
29.78000 421.651
29.79000 423.520
29.80000 427.713
29.81000 431.239
29.82000 425.087
29.83000 415.753
29.84000 407.274
29.85000 413.496
29.86000 421.843
29.87000 429.250
29.88000 431.877
29.89000 433.836
29.90000 433.675
29.91000 426.376
29.92000 418.498
29.93000 412.959
29.94000 423.509
29.95000 431.975
29.96000 436.949
29.97000 436.555
29.98000 436.102
29.99000 436.600
30.00000 438.051
30.01000 439.494
30.02000 438.066
30.03000 434.806
30.04000 431.530
30.05000 427.851
30.06000 423.992
30.07000 420.853
30.08000 426.642
30.09000 435.103
30.10000 442.685
30.11000 445.007
30.12000 446.125
30.13000 444.837
30.14000 432.506
30.15000 418.805
30.16000 408.297
30.17000 407.565
30.18000 407.516
30.19000 407.482
30.20000 421.286
30.21000 431.921
30.22000 437.854
30.23000 437.235
30.24000 436.570
30.25000 433.340
30.26000 427.798
30.27000 422.310
30.28000 420.813
30.29000 421.670
30.30000 422.462
30.31000 421.865
30.32000 420.708
30.33000 419.820
30.34000 421.825
30.35000 424.616
30.36000 427.082
30.37000 421.897
30.38000 416.244
30.39000 412.477
30.40000 416.539
30.41000 421.458
30.42000 425.734
30.43000 428.217
30.44000 430.595
30.45000 432.163
30.46000 428.182
30.47000 425.151
30.48000 424.224
30.49000 425.949
30.50000 427.670
30.51000 424.566
30.52000 417.543
30.53000 410.619
30.54000 407.964
30.55000 407.627
30.56000 407.451
30.57000 410.109
30.58000 413.806
30.59000 417.843
30.60000 425.088
30.61000 433.122
30.62000 440.110
30.63000 440.160
30.64000 439.257
30.65000 439.342
30.66000 443.149
30.67000 447.312
30.68000 450.720
30.69000 452.213
30.70000 453.611
30.71000 454.501
30.72000 451.096
30.73000 448.569
30.74000 445.854
30.75000 442.926
30.76000 440.019
30.77000 440.945
30.78000 444.685
30.79000 448.353
30.80000 450.651
30.81000 452.216
30.82000 454.149
30.83000 461.571
30.84000 470.826
30.85000 479.437
30.86000 482.723
30.87000 484.820
30.88000 486.614
30.89000 495.417
30.90000 503.682
30.91000 513.271
30.92000 527.385
30.93000 541.876
30.94000 554.906
30.95000 564.558
30.96000 574.075
30.97000 579.903
30.98000 603.084
30.99000 619.827
31.00000 649.096
31.01000 691.164
31.02000 733.162
31.03000 768.069
31.04000 798.258
31.05000 827.697
31.06000 876.594
31.07000 931.624
31.08000 986.618
31.09000 1041.138
31.10000 1095.516
31.11000 1150.732
31.12000 1212.108
31.13000 1274.725
31.14000 1327.334
31.15000 1422.870
31.16000 1506.991
31.17000 1588.085
31.18000 1659.771
31.19000 1730.784
31.20000 1808.739
31.21000 1901.320
31.22000 1994.370
31.23000 2049.072
31.24000 2198.374
31.25000 2304.132
31.26000 2389.551
31.27000 2456.322
31.28000 2522.870
31.29000 2574.684
31.30000 2617.596
31.31000 2659.164
31.32000 2698.130
31.33000 2733.992
31.34000 2766.939
31.35000 2767.790
31.36000 2759.781
31.37000 2749.136
31.38000 2721.235
31.39000 2690.206
31.40000 2664.629
31.41000 2608.863
31.42000 2560.188
31.43000 2506.760
31.44000 2439.881
31.45000 2372.186
31.46000 2297.169
31.47000 2208.104
31.48000 2118.691
31.49000 2068.387
31.50000 1978.437
31.51000 1915.851
31.52000 1832.667
31.53000 1732.472
31.54000 1632.637
31.55000 1549.942
31.56000 1476.661
31.57000 1406.208
31.58000 1347.163
31.59000 1295.821
31.60000 1243.288
31.61000 1179.301
31.62000 1112.447
31.63000 1049.991
31.64000 1013.298
31.65000 980.794
31.66000 954.542
31.67000 915.169
31.68000 882.115
31.69000 850.147
31.70000 820.979
31.71000 791.953
31.72000 767.566
31.73000 751.276
31.74000 735.134
31.75000 726.473
31.76000 674.913
31.77000 639.722
31.78000 614.425
31.79000 596.510
31.80000 578.587
31.81000 560.382
31.82000 542.036
31.83000 524.544
31.84000 517.370
31.85000 513.961
31.86000 509.754
31.87000 498.811
31.88000 486.340
31.89000 475.979
31.90000 476.718
31.91000 479.071
31.92000 480.930
31.93000 478.961
31.94000 477.118
31.95000 472.747
31.96000 462.440
31.97000 451.885
31.98000 445.159
31.99000 444.506
32.00000 443.930
32.01000 443.637
32.02000 433.317
32.03000 426.383
32.04000 418.615
32.05000 410.283
32.06000 402.328
32.07000 404.989
32.08000 412.482
32.09000 419.561
32.10000 416.573
32.11000 410.980
32.12000 405.823
32.13000 403.924
32.14000 402.693
32.15000 401.415
32.16000 399.914
32.17000 398.384
32.18000 397.202
32.19000 394.883
32.20000 392.978
32.21000 391.831
32.22000 392.307
32.23000 392.837
32.24000 395.434
32.25000 401.005
32.26000 406.599
32.27000 407.445
32.28000 403.864
32.29000 400.243
32.30000 393.770
32.31000 385.548
32.32000 377.776
32.33000 380.212
32.34000 386.882
32.35000 393.119
32.36000 392.770
32.37000 390.777
32.38000 388.713
32.39000 386.188
32.40000 383.576
32.41000 381.125
32.42000 379.360
32.43000 377.674
32.44000 376.404
32.45000 380.427
32.46000 383.834
32.47000 386.823
32.48000 388.996
32.49000 391.147
32.50000 388.901
32.51000 380.926
32.52000 372.934
32.53000 370.344
32.54000 372.285
32.55000 374.199
32.56000 374.763
32.57000 374.576
32.58000 374.748
32.59000 381.648
32.60000 391.092
32.61000 399.826
32.62000 401.755
32.63000 401.932
32.64000 402.018
32.65000 401.558
32.66000 401.008
32.67000 398.464
32.68000 388.180
32.69000 377.119
32.70000 369.006
32.71000 372.932
32.72000 376.452
32.73000 380.239
32.74000 384.501
32.75000 388.772
32.76000 391.255
32.77000 391.635
32.78000 392.011
32.79000 393.439
32.80000 395.650
32.81000 397.815
32.82000 398.208
32.83000 397.703
32.84000 397.414
32.85000 400.500
32.86000 404.749
32.87000 408.631
32.88000 411.001
32.89000 412.795
32.90000 412.971
32.91000 404.482
32.92000 394.711
32.93000 388.599
32.94000 395.389
32.95000 403.306
32.96000 408.951
32.97000 402.642
32.98000 397.439
32.99000 394.980
33.00000 396.940
33.01000 398.960
33.02000 395.267
33.03000 385.529
33.04000 375.839
33.05000 372.082
33.06000 372.395
33.07000 372.689
33.08000 372.384
33.09000 371.803
33.10000 370.708
33.11000 362.735
33.12000 352.608
33.13000 343.471
33.14000 347.017
33.15000 352.450
33.16000 356.318
33.17000 352.639
33.18000 347.966
33.19000 343.479
33.20000 339.588
33.21000 335.742
33.22000 333.081
33.23000 337.719
33.24000 341.398
33.25000 342.129
33.26000 338.550
33.27000 334.935
33.28000 336.905
33.29000 344.176
33.30000 351.388
33.31000 355.396
33.32000 357.371
33.33000 359.150
33.34000 356.312
33.35000 351.531
33.36000 347.169
33.37000 347.639
33.38000 349.484
33.39000 351.125
33.40000 348.375
33.41000 345.272
33.42000 341.545
33.43000 335.097
33.44000 328.333
33.45000 324.656
33.46000 329.983
33.47000 335.888
33.48000 339.845
33.49000 346.837
33.50000 352.086
33.51000 354.315
33.52000 352.545
33.53000 350.757
33.54000 349.234
33.55000 347.938
33.56000 346.657
33.57000 343.964
33.58000 340.559
33.59000 337.427
33.60000 339.582
33.61000 343.766
33.62000 347.375
33.63000 345.222
33.64000 341.580
33.65000 338.389
33.66000 335.456
33.67000 332.976
33.68000 332.251
33.69000 338.451
33.70000 345.360
33.71000 350.679
33.72000 351.777
33.73000 352.648
33.74000 353.212
33.75000 350.825
33.76000 349.034
33.77000 343.965
33.78000 334.974
33.79000 325.999
33.80000 322.902
33.81000 324.335
33.82000 325.745
33.83000 327.277
33.84000 328.821
33.85000 330.306
33.86000 330.842
33.87000 331.048
33.88000 331.471
33.89000 333.808
33.90000 336.594
33.91000 338.996
33.92000 334.034
33.93000 328.884
33.94000 325.366
33.95000 327.690
33.96000 330.535
33.97000 333.647
33.98000 337.402
33.99000 341.185
34.00000 343.547
34.01000 338.363
34.02000 334.547
34.03000 330.615
34.04000 326.560
34.05000 322.539
34.06000 322.898
34.07000 326.315
34.08000 329.657
34.09000 326.457
34.10000 320.444
34.11000 314.913
34.12000 316.004
34.13000 319.201
34.14000 321.701
34.15000 318.780
34.16000 314.711
34.17000 311.262
34.18000 318.337
34.19000 325.450
34.20000 329.997
34.21000 326.198
34.22000 321.755
34.23000 317.694
34.24000 314.476
34.25000 311.288
34.26000 309.375
34.27000 315.989
34.28000 320.744
34.29000 320.744
34.30000 316.152
34.31000 311.613
34.32000 311.283
34.33000 313.617
34.34000 315.885
34.35000 321.919
34.36000 329.186
34.37000 335.599
34.38000 331.956
34.39000 325.404
34.40000 320.404
34.41000 326.135
34.42000 333.914
34.43000 340.386
34.44000 331.633
34.45000 322.888
34.46000 317.947
34.47000 324.269
34.48000 331.332
34.49000 335.205
34.50000 332.670
34.51000 329.955
34.52000 328.394
34.53000 326.255
34.54000 324.752
34.55000 319.401
34.56000 310.709
34.57000 302.191
34.58000 303.304
34.59000 309.956
34.60000 316.375
34.61000 316.471
34.62000 314.243
34.63000 312.561
34.64000 316.472
34.65000 321.852
34.66000 327.188
34.67000 332.257
34.68000 337.280
34.69000 341.378
34.70000 327.455
34.71000 314.527
34.72000 305.480
34.73000 306.898
34.74000 308.897
34.75000 311.970
34.76000 317.006
34.77000 322.085
34.78000 324.875
34.79000 327.609
34.80000 329.498
34.81000 333.052
34.82000 337.912
34.83000 342.554
34.84000 338.261
34.85000 329.295
34.86000 320.710
34.87000 317.440
34.88000 316.148
34.89000 314.172
34.90000 306.041
34.91000 296.447
34.92000 289.943
34.93000 300.560
34.94000 313.807
34.95000 324.388
34.96000 319.544
34.97000 314.493
34.98000 309.476
34.99000 304.542
35.00000 299.612
35.01000 297.405
35.02000 299.725
35.03000 302.113
35.04000 303.362
35.05000 310.765
35.06000 315.729
35.07000 313.912
35.08000 307.288
35.09000 300.951
35.10000 303.662
35.11000 310.684
35.12000 317.348
35.13000 317.978
35.14000 316.761
35.15000 315.622
35.16000 315.100
35.17000 314.711
35.18000 314.484
35.19000 315.063
35.20000 315.752
35.21000 316.290
35.22000 313.835
35.23000 311.688
35.24000 312.743
35.25000 320.967
35.26000 329.458
35.27000 330.137
35.28000 319.029
35.29000 307.803
35.30000 302.925
35.31000 304.287
35.32000 305.660
35.33000 308.027
35.34000 311.031
35.35000 314.010
35.36000 316.374
35.37000 318.472
35.38000 320.443
35.39000 314.247
35.40000 306.402
35.41000 299.195
35.42000 296.483
35.43000 294.643
35.44000 293.542
35.45000 295.764
35.46000 298.389
35.47000 300.391
35.48000 301.727
35.49000 302.745
35.50000 303.618
35.51000 304.196
35.52000 304.765
35.53000 306.834
35.54000 310.952
35.55000 315.080
35.56000 315.816
35.57000 313.558
35.58000 311.269
35.59000 307.195
35.60000 302.079
35.61000 297.480
35.62000 303.490
35.63000 313.694
35.64000 323.183
35.65000 320.987
35.66000 316.190
35.67000 311.618
35.68000 308.466
35.69000 305.561
35.70000 303.834
35.71000 306.908
35.72000 310.495
35.73000 313.161
35.74000 306.348
35.75000 300.630
35.76000 296.677
35.77000 296.000
35.78000 295.395
35.79000 298.592
35.80000 306.490
35.81000 314.386
35.82000 316.206
35.83000 313.199
35.84000 310.181
35.85000 306.702
35.86000 302.976
35.87000 299.368
35.88000 297.762
35.89000 296.877
35.90000 296.063
35.91000 305.776
35.92000 316.723
35.93000 324.955
35.94000 317.885
35.95000 308.422
35.96000 301.299
35.97000 302.818
35.98000 305.144
35.99000 306.826
36.00000 299.224
36.01000 293.053
36.02000 289.407
36.03000 290.025
36.04000 290.712
36.05000 293.718
36.06000 299.306
36.07000 304.875
36.08000 305.398
36.09000 302.314
36.10000 299.354
36.11000 300.473
36.12000 303.564
36.13000 306.234
36.14000 302.844
36.15000 297.465
36.16000 292.582
36.17000 301.554
36.18000 312.155
36.19000 318.500
36.20000 303.273
36.21000 285.037
36.22000 272.815
36.23000 280.775
36.24000 290.369
36.25000 297.107
36.26000 299.467
36.27000 301.126
36.28000 300.459
36.29000 296.229
36.30000 291.959
36.31000 290.321
36.32000 291.315
36.33000 292.303
36.34000 291.030
36.35000 288.320
36.36000 285.859
36.37000 289.824
36.38000 296.622
36.39000 302.594
36.40000 298.346
36.41000 291.050
36.42000 284.515
36.43000 288.456
36.44000 293.702
36.45000 298.215
36.46000 299.372
36.47000 300.114
36.48000 301.027
36.49000 302.462
36.50000 303.934
36.51000 304.936
36.52000 298.346
36.53000 293.250
36.54000 292.799
36.55000 298.803
36.56000 304.847
36.57000 306.336
36.58000 303.735
36.59000 301.160
36.60000 299.224
36.61000 297.699
36.62000 296.268
36.63000 296.818
36.64000 298.164
36.65000 299.683
36.66000 303.056
36.67000 306.931
36.68000 310.352
36.69000 296.149
36.70000 281.190
36.71000 270.540
36.72000 277.730
36.73000 286.867
36.74000 294.424
36.75000 297.590
36.76000 300.498
36.77000 302.413
36.78000 299.883
36.79000 297.943
36.80000 298.557
36.81000 302.382
36.82000 306.200
36.83000 303.891
36.84000 296.620
36.85000 289.453
36.86000 289.312
36.87000 292.855
36.88000 296.126
36.89000 294.627
36.90000 291.383
36.91000 288.253
36.92000 286.201
36.93000 284.413
36.94000 282.859
36.95000 291.002
36.96000 299.265
36.97000 304.371
36.98000 297.628
36.99000 289.755
37.00000 286.047
37.01000 292.885
37.02000 300.239
37.03000 304.912
37.04000 303.115
37.05000 301.730
37.06000 299.954
37.07000 297.735
37.08000 295.522
37.09000 294.355
37.10000 293.956
37.11000 293.564
37.12000 291.924
37.13000 289.753
37.14000 287.853
37.15000 289.962
37.16000 293.406
37.17000 296.312
37.18000 294.789
37.19000 292.281
37.20000 290.137
37.21000 290.773
37.22000 291.641
37.23000 293.304
37.24000 297.674
37.25000 302.268
37.26000 303.616
37.27000 297.476
37.28000 291.038
37.29000 287.099
37.30000 279.061
37.31000 273.275
37.32000 272.643
37.33000 277.259
37.34000 281.814
37.35000 280.347
37.36000 274.884
37.37000 269.558
37.38000 272.357
37.39000 278.497
37.40000 284.229
37.41000 284.771
37.42000 283.741
37.43000 283.289
37.44000 287.059
37.45000 291.677
37.46000 295.555
37.47000 292.575
37.48000 289.373
37.49000 285.898
37.50000 281.575
37.51000 277.193
37.52000 277.418
37.53000 287.326
37.54000 297.542
37.55000 303.540
37.56000 292.363
37.57000 284.400
37.58000 280.743
37.59000 281.023
37.60000 281.336
37.61000 283.835
37.62000 287.651
37.63000 291.346
37.64000 295.759
37.65000 300.210
37.66000 303.736
37.67000 297.129
37.68000 287.734
37.69000 279.821
37.70000 281.565
37.71000 285.056
37.72000 287.931
37.73000 288.954
37.74000 289.627
37.75000 288.826
37.76000 283.871
37.77000 278.664
37.78000 278.472
37.79000 287.875
37.80000 297.513
37.81000 302.928
37.82000 292.748
37.83000 285.658
37.84000 283.710
37.85000 285.996
37.86000 288.264
37.87000 289.726
37.88000 290.746
37.89000 291.727
37.90000 287.289
37.91000 281.248
37.92000 276.630
37.93000 285.640
37.94000 298.051
37.95000 308.028
37.96000 303.794
37.97000 297.257
37.98000 291.981
37.99000 288.659
38.00000 286.115
38.01000 282.815
38.02000 277.574
38.03000 272.235
38.04000 271.641
38.05000 279.305
38.06000 287.118
38.07000 291.304
38.08000 287.845
38.09000 285.510
38.10000 289.158
38.11000 297.257
38.12000 305.071
38.13000 302.789
38.14000 295.474
38.15000 288.502
38.16000 288.251
38.17000 290.124
38.18000 291.630
38.19000 290.034
38.20000 287.738
38.21000 286.350
38.22000 289.722
38.23000 293.784
38.24000 296.991
38.25000 299.113
38.26000 300.743
38.27000 303.178
38.28000 307.501
38.29000 311.901
38.30000 314.953
38.31000 315.872
38.32000 316.764
38.33000 317.218
38.34000 323.259
38.35000 327.331
38.36000 333.668
38.37000 341.530
38.38000 349.483
38.39000 359.964
38.40000 371.592
38.41000 382.574
38.42000 382.297
38.43000 378.865
38.44000 377.038
38.45000 387.186
38.46000 399.779
38.47000 412.065
38.48000 422.909
38.49000 433.566
38.50000 441.789
38.51000 447.814
38.52000 452.463
38.53000 455.248
38.54000 454.061
38.55000 452.742
38.56000 457.552
38.57000 471.158
38.58000 484.830
38.59000 492.497
38.60000 494.580
38.61000 496.646
38.62000 497.518
38.63000 497.660
38.64000 497.884
38.65000 499.957
38.66000 502.794
38.67000 505.447
38.68000 504.817
38.69000 503.412
38.70000 502.155
38.71000 501.878
38.72000 501.780
38.73000 500.409
38.74000 493.594
38.75000 486.160
38.76000 480.565
38.77000 470.256
38.78000 461.961
38.79000 454.336
38.80000 448.012
38.81000 441.721
38.82000 434.437
38.83000 425.864
38.84000 417.294
38.85000 405.706
38.86000 391.629
38.87000 377.662
38.88000 369.099
38.89000 363.541
38.90000 358.144
38.91000 355.753
38.92000 354.494
38.93000 353.331
38.94000 343.053
38.95000 331.749
38.96000 320.830
38.97000 312.201
38.98000 303.949
38.99000 298.729
39.00000 305.254
39.01000 312.950
39.02000 318.591
39.03000 308.092
39.04000 299.335
39.05000 293.334
39.06000 292.205
39.07000 291.168
39.08000 291.011
39.09000 291.885
39.10000 292.759
39.11000 288.943
39.12000 281.632
39.13000 274.501
39.14000 274.036
39.15000 276.944
39.16000 279.636
39.17000 278.927
39.18000 277.052
39.19000 275.339
39.20000 271.423
39.21000 267.496
39.22000 265.096
39.23000 270.840
39.24000 277.786
39.25000 282.728
39.26000 280.628
39.27000 277.916
39.28000 275.983
39.29000 280.351
39.30000 283.886
39.31000 283.703
39.32000 277.549
39.33000 271.316
39.34000 267.152
39.35000 265.170
39.36000 263.198
39.37000 263.129
39.38000 264.348
39.39000 265.539
39.40000 265.888
39.41000 265.850
39.42000 265.527
39.43000 261.415
39.44000 256.120
39.45000 251.345
39.46000 256.131
39.47000 262.076
39.48000 267.765
39.49000 272.223
39.50000 276.520
39.51000 278.626
39.52000 273.727
39.53000 268.303
39.54000 264.554
39.55000 265.830
39.56000 266.920
39.57000 268.756
39.58000 271.680
39.59000 274.613
39.60000 273.653
39.61000 269.011
39.62000 264.407
39.63000 262.353
39.64000 261.892
39.65000 261.620
39.66000 265.732
39.67000 271.684
39.68000 276.818
39.69000 272.551
39.70000 265.616
39.71000 259.449
39.72000 264.402
39.73000 270.506
39.74000 275.010
39.75000 272.558
39.76000 269.299
39.77000 266.200
39.78000 263.566
39.79000 260.962
39.80000 259.218
39.81000 259.702
39.82000 260.105
39.83000 258.510
39.84000 254.275
39.85000 250.039
39.86000 252.052
39.87000 259.386
39.88000 266.630
39.89000 269.105
39.90000 268.892
39.91000 268.407
39.92000 262.717
39.93000 255.035
39.94000 248.260
39.95000 250.538
39.96000 255.149
39.97000 259.187
39.98000 259.326
39.99000 258.882
40.00000 258.897
40.01000 260.714
40.02000 262.716
40.03000 264.671
40.04000 266.505
40.05000 268.333
40.06000 269.515
40.07000 267.015
40.08000 265.133
40.09000 264.282
40.10000 264.661
40.11000 265.028
40.12000 262.254
40.13000 257.068
40.14000 251.968
40.15000 254.490
40.16000 260.718
40.17000 266.639
40.18000 267.651
40.19000 266.951
40.20000 265.566
40.21000 258.173
40.22000 249.378
40.23000 241.796
40.24000 254.125
40.25000 267.112
40.26000 275.499
40.27000 267.456
40.28000 257.954
40.29000 253.775
40.30000 262.444
40.31000 271.681
40.32000 277.439
40.33000 272.454
40.34000 268.752
40.35000 266.390
40.36000 265.467
40.37000 264.530
40.38000 261.870
40.39000 258.011
40.40000 254.237
40.41000 250.568
40.42000 247.097
40.43000 244.079
40.44000 247.242
40.45000 252.364
40.46000 257.511
40.47000 262.848
40.48000 268.226
40.49000 272.782
40.50000 263.179
40.51000 253.549
40.52000 247.137
40.53000 251.167
40.54000 255.999
40.55000 256.584
40.56000 247.835
40.57000 238.754
40.58000 233.313
40.59000 242.902
40.60000 249.809
40.61000 252.489
40.62000 251.099
40.63000 249.751
40.64000 251.749
40.65000 255.858
40.66000 259.851
40.67000 256.606
40.68000 250.592
40.69000 245.413
40.70000 250.044
40.71000 257.504
40.72000 263.281
40.73000 257.463
40.74000 249.439
40.75000 242.767
40.76000 244.616
40.77000 246.982
40.78000 249.117
40.79000 250.571
40.80000 251.980
40.81000 251.030
40.82000 245.358
40.83000 239.553
40.84000 236.220
40.85000 245.367
40.86000 251.799
40.87000 251.651
40.88000 245.808
40.89000 240.096
40.90000 241.610
40.91000 247.266
40.92000 252.723
40.93000 253.107
40.94000 251.613
40.95000 249.987
40.96000 247.022
40.97000 243.705
40.98000 241.036
40.99000 242.356
41.00000 244.358
41.01000 245.990
41.02000 243.169
41.03000 240.483
41.04000 238.343
41.05000 237.673
41.06000 237.084
41.07000 237.457
41.08000 239.583
41.09000 241.746
41.10000 242.933
41.11000 249.372
41.12000 253.801
41.13000 255.749
41.14000 255.758
41.15000 255.645
41.16000 250.598
41.17000 242.976
41.18000 235.681
41.19000 237.122
41.20000 241.344
41.21000 245.325
41.22000 247.139
41.23000 248.440
41.24000 249.088
41.25000 246.131
41.26000 242.623
41.27000 239.822
41.28000 242.717
41.29000 245.472
41.30000 247.268
41.31000 246.717
41.32000 246.057
41.33000 246.058
41.34000 247.151
41.35000 248.260
41.36000 248.839
41.37000 243.601
41.38000 240.073
41.39000 239.044
41.40000 239.780
41.41000 240.456
41.42000 239.244
41.43000 237.136
41.44000 235.136
41.45000 233.798
41.46000 232.760
41.47000 231.661
41.48000 230.078
41.49000 228.391
41.50000 227.477
41.51000 230.402
41.52000 233.851
41.53000 236.543
41.54000 234.859
41.55000 233.242
41.56000 233.677
41.57000 238.689
41.58000 243.871
41.59000 245.014
41.60000 240.082
41.61000 235.089
41.62000 234.964
41.63000 239.607
41.64000 244.200
41.65000 244.498
41.66000 242.042
41.67000 239.748
41.68000 241.485
41.69000 244.967
41.70000 248.238
41.71000 242.075
41.72000 233.929
41.73000 227.076
41.74000 229.293
41.75000 233.266
41.76000 236.763
41.77000 238.126
41.78000 239.232
41.79000 240.075
41.80000 233.860
41.81000 228.594
41.82000 226.416
41.83000 230.516
41.84000 234.799
41.85000 236.598
41.86000 235.010
41.87000 233.403
41.88000 234.605
41.89000 238.276
41.90000 241.902
41.91000 242.921
41.92000 242.422
41.93000 241.828
41.94000 239.299
41.95000 236.007
41.96000 232.946
41.97000 232.594
41.98000 232.926
41.99000 233.309
42.00000 234.010
42.01000 234.766
42.02000 234.991
42.03000 233.057
42.04000 230.893
42.05000 229.286
42.06000 230.271
42.07000 231.151
42.08000 230.252
42.09000 226.061
42.10000 221.798
42.11000 220.868
42.12000 224.047
42.13000 227.232
42.14000 232.872
42.15000 240.426
42.16000 247.735
42.17000 244.578
42.18000 235.879
42.19000 227.551
42.20000 225.531
42.21000 225.776
42.22000 226.000
42.23000 229.656
42.24000 233.657
42.25000 236.652
42.26000 233.991
42.27000 230.448
42.28000 227.515
42.29000 226.829
42.30000 226.352
42.31000 226.007
42.32000 227.819
42.33000 229.288
42.34000 229.686
42.35000 228.285
42.36000 226.855
42.37000 227.497
42.38000 230.439
42.39000 233.372
42.40000 234.175
42.41000 233.455
42.42000 232.700
42.43000 230.760
42.44000 228.250
42.45000 225.988
42.46000 227.303
42.47000 229.788
42.48000 232.043
42.49000 231.951
42.50000 231.419
42.51000 231.224
42.52000 232.732
42.53000 234.477
42.54000 235.321
42.55000 233.149
42.56000 230.735
42.57000 229.041
42.58000 227.013
42.59000 225.468
42.60000 222.512
42.61000 217.398
42.62000 212.260
42.63000 215.604
42.64000 227.404
42.65000 239.127
42.66000 242.528
42.67000 240.542
42.68000 238.533
42.69000 235.929
42.70000 233.065
42.71000 230.288
42.72000 228.590
42.73000 227.212
42.74000 225.979
42.75000 219.520
42.76000 212.984
42.77000 209.992
42.78000 223.158
42.79000 238.316
42.80000 248.973
42.81000 245.930
42.82000 241.941
42.83000 239.228
42.84000 228.712
42.85000 220.683
42.86000 218.716
42.87000 225.149
42.88000 231.633
42.89000 233.646
42.90000 231.657
42.91000 229.687
42.92000 229.435
42.93000 230.182
42.94000 231.017
42.95000 233.695
42.96000 237.111
42.97000 240.036
42.98000 237.717
42.99000 233.981
43.00000 230.684
43.01000 232.267
43.02000 234.378
43.03000 236.386
43.04000 237.967
43.05000 239.501
43.06000 239.804
43.07000 236.690
43.08000 233.378
43.09000 231.198
43.10000 228.508
43.11000 226.519
43.12000 226.584
43.13000 229.224
43.14000 231.872
43.15000 234.510
43.16000 237.141
43.17000 239.734
43.18000 239.415
43.19000 237.584
43.20000 235.535
43.21000 229.662
43.22000 222.394
43.23000 215.923
43.24000 216.886
43.25000 219.671
43.26000 222.090
43.27000 223.377
43.28000 224.322
43.29000 225.390
43.30000 226.919
43.31000 228.492
43.32000 229.023
43.33000 226.923
43.34000 224.695
43.35000 223.281
43.36000 226.201
43.37000 228.374
43.38000 230.422
43.39000 232.330
43.40000 234.217
43.41000 232.567
43.42000 228.337
43.43000 224.189
43.44000 225.556
43.45000 229.473
43.46000 232.932
43.47000 229.643
43.48000 224.115
43.49000 219.235
43.50000 219.685
43.51000 221.317
43.52000 222.712
43.53000 221.236
43.54000 219.650
43.55000 218.360
43.56000 218.075
43.57000 217.873
43.58000 215.672
43.59000 208.874
43.60000 201.894
43.61000 197.629
43.62000 214.360
43.63000 226.500
43.64000 229.521
43.65000 223.286
43.66000 217.115
43.67000 217.252
43.68000 221.560
43.69000 225.759
43.70000 227.280
43.71000 227.592
43.72000 227.527
43.73000 222.702
43.74000 216.440
43.75000 211.271
43.76000 214.076
43.77000 218.477
43.78000 222.170
43.79000 218.876
43.80000 215.401
43.81000 213.471
43.82000 216.310
43.83000 219.488
43.84000 223.026
43.85000 227.320
43.86000 231.638
43.87000 234.170
43.88000 228.115
43.89000 223.808
43.90000 223.213
43.91000 226.001
43.92000 228.727
43.93000 227.466
43.94000 223.810
43.95000 220.269
43.96000 216.527
43.97000 212.911
43.98000 209.714
43.99000 211.089
44.00000 213.719
44.01000 216.238
44.02000 218.036
44.03000 219.705
44.04000 221.079
44.05000 223.481
44.06000 225.551
44.07000 226.483
44.08000 224.217
44.09000 221.758
44.10000 219.697
44.11000 218.393
44.12000 217.109
44.13000 216.388
44.14000 216.066
44.15000 215.850
44.16000 218.458
44.17000 223.384
44.18000 228.209
44.19000 228.337
44.20000 225.901
44.21000 223.560
44.22000 224.257
44.23000 225.961
44.24000 227.835
44.25000 231.325
44.26000 235.217
44.27000 237.778
44.28000 232.596
44.29000 226.163
44.30000 220.975
44.31000 226.108
44.32000 231.094
44.33000 234.372
44.34000 233.271
44.35000 231.951
44.36000 233.761
44.37000 241.001
44.38000 248.338
44.39000 252.264
44.40000 246.113
44.41000 241.936
44.42000 242.585
44.43000 246.814
44.44000 251.118
44.45000 258.068
44.46000 266.334
44.47000 274.210
44.48000 271.611
44.49000 265.929
44.50000 261.256
44.51000 265.058
44.52000 270.768
44.53000 274.777
44.54000 269.891
44.55000 263.721
44.56000 258.851
44.57000 259.695
44.58000 260.759
44.59000 263.998
44.60000 272.315
44.61000 280.841
44.62000 290.537
44.63000 302.079
44.64000 313.644
44.65000 319.521
44.66000 322.549
44.67000 324.646
44.68000 333.805
44.69000 347.710
44.70000 361.348
44.71000 367.570
44.72000 370.435
44.73000 373.139
44.74000 375.674
44.75000 377.952
44.76000 380.630
44.77000 386.291
44.78000 392.559
44.79000 399.354
44.80000 408.634
44.81000 418.232
44.82000 425.632
44.83000 438.202
44.84000 448.458
44.85000 454.406
44.86000 451.190
44.87000 447.674
44.88000 446.141
44.89000 447.447
44.90000 448.774
44.91000 452.131
44.92000 457.368
44.93000 462.527
44.94000 462.315
44.95000 458.827
44.96000 455.417
44.97000 453.781
44.98000 452.876
44.99000 452.029
45.00000 448.940
45.01000 445.570
45.02000 442.911
45.03000 444.964
45.04000 447.880
45.05000 448.514
45.06000 439.422
45.07000 429.229
45.08000 421.563
45.09000 416.709
45.10000 413.048
45.11000 408.567
45.12000 402.498
45.13000 396.388
45.14000 395.742
45.15000 402.168
45.16000 408.615
45.17000 402.821
45.18000 386.858
45.19000 371.069
45.20000 363.788
45.21000 361.225
45.22000 358.689
45.23000 356.650
45.24000 354.798
45.25000 353.086
45.26000 352.121
45.27000 351.424
45.28000 350.546
45.29000 348.598
45.30000 346.473
45.31000 344.129
45.32000 340.938
45.33000 337.662
45.34000 335.262
45.35000 321.951
45.36000 311.240
45.37000 303.486
45.38000 300.945
45.39000 298.502
45.40000 297.275
45.41000 297.469
45.42000 297.664
45.43000 295.128
45.44000 290.565
45.45000 286.103
45.46000 285.379
45.47000 286.542
45.48000 287.307
45.49000 281.904
45.50000 274.390
45.51000 267.529
45.52000 263.050
45.53000 259.559
45.54000 256.788
45.55000 257.839
45.56000 259.453
45.57000 261.347
45.58000 264.224
45.59000 267.186
45.60000 269.295
45.61000 258.941
45.62000 250.650
45.63000 244.928
45.64000 243.319
45.65000 241.765
45.66000 240.205
45.67000 238.639
45.68000 237.081
45.69000 238.463
45.70000 241.811
45.71000 244.925
45.72000 241.309
45.73000 234.600
45.74000 228.183
45.75000 225.634
45.76000 224.289
45.77000 223.077
45.78000 223.661
45.79000 224.501
45.80000 225.941
45.81000 230.262
45.82000 234.960
45.83000 237.723
45.84000 234.322
45.85000 230.462
45.86000 227.796
45.87000 232.437
45.88000 236.113
45.89000 236.316
45.90000 231.471
45.91000 226.584
45.92000 225.404
45.93000 227.717
45.94000 230.012
45.95000 229.305
45.96000 226.787
45.97000 224.215
45.98000 220.411
45.99000 216.091
46.00000 211.699
46.01000 206.495
46.02000 201.060
46.03000 196.230
46.04000 201.708
46.05000 208.128
46.06000 213.845
46.07000 216.517
46.08000 218.837
46.09000 221.241
46.10000 223.888
46.11000 226.551
46.12000 228.331
46.13000 214.392
46.14000 203.749
46.15000 200.694
46.16000 207.626
46.17000 214.596
46.18000 217.353
46.19000 216.535
46.20000 215.728
46.21000 213.838
46.22000 211.401
46.23000 208.958
46.24000 206.393
46.25000 203.781
46.26000 201.167
46.27000 198.534
46.28000 195.896
46.29000 193.587
46.30000 199.653
46.31000 206.058
46.32000 210.661
46.33000 208.198
46.34000 205.018
46.35000 202.374
46.36000 201.146
46.37000 199.993
46.38000 199.249
46.39000 202.055
46.40000 204.159
46.41000 203.544
46.42000 199.701
46.43000 195.870
46.44000 196.335
46.45000 200.091
46.46000 203.783
46.47000 205.429
46.48000 206.005
46.49000 206.525
46.50000 206.152
46.51000 205.468
46.52000 204.134
46.53000 197.124
46.54000 188.793
46.55000 181.616
46.56000 188.251
46.57000 195.626
46.58000 201.881
46.59000 204.145
46.60000 206.057
46.61000 206.551
46.62000 203.637
46.63000 200.573
46.64000 198.665
46.65000 197.736
46.66000 197.076
46.67000 197.652
46.68000 199.548
46.69000 201.412
46.70000 199.174
46.71000 194.091
46.72000 189.122
46.73000 192.388
46.74000 199.203
46.75000 205.473
46.76000 204.327
46.77000 200.837
46.78000 197.499
46.79000 195.333
46.80000 193.413
46.81000 191.788
46.82000 197.890
46.83000 203.863
46.84000 206.890
46.85000 200.387
46.86000 193.155
46.87000 189.515
46.88000 193.751
46.89000 198.265
46.90000 200.966
46.91000 189.119
46.92000 180.617
46.93000 180.707
46.94000 189.042
46.95000 197.263
46.96000 196.634
46.97000 190.436
46.98000 184.415
46.99000 183.661
47.00000 185.073
47.01000 186.626
47.02000 189.834
47.03000 193.519
47.04000 196.432
47.05000 194.048
47.06000 190.659
47.07000 187.843
47.08000 192.599
47.09000 197.273
47.10000 199.237
47.11000 193.223
47.12000 186.688
47.13000 182.615
47.14000 183.458
47.15000 184.436
47.16000 184.997
47.17000 182.987
47.18000 181.576
47.19000 182.758
47.20000 186.177
47.21000 189.577
47.22000 191.919
47.23000 193.657
47.24000 195.333
47.25000 193.507
47.26000 190.512
47.27000 188.010
47.28000 190.531
47.29000 194.364
47.30000 197.734
47.31000 198.271
47.32000 198.326
47.33000 198.370
47.34000 196.934
47.35000 195.634
47.36000 194.687
47.37000 194.687
47.38000 194.738
47.39000 192.994
47.40000 187.985
47.41000 182.908
47.42000 180.128
47.43000 186.175
47.44000 190.335
47.45000 191.350
47.46000 189.915
47.47000 188.529
47.48000 189.040
47.49000 190.539
47.50000 191.974
47.51000 187.797
47.52000 182.062
47.53000 177.247
47.54000 180.631
47.55000 185.955
47.56000 190.303
47.57000 189.278
47.58000 187.433
47.59000 185.962
47.60000 187.936
47.61000 189.780
47.62000 191.470
47.63000 192.781
47.64000 194.074
47.65000 195.544
47.66000 197.304
47.67000 199.068
47.68000 199.987
47.69000 189.734
47.70000 182.840
47.71000 181.605
47.72000 184.359
47.73000 187.067
47.74000 188.383
47.75000 189.038
47.76000 189.660
47.77000 189.933
47.78000 190.082
47.79000 190.221
47.80000 190.280
47.81000 190.323
47.82000 190.333
47.83000 190.182
47.84000 190.010
47.85000 189.876
47.86000 189.184
47.87000 188.597
47.88000 187.484
47.89000 185.198
47.90000 182.869
47.91000 182.030
47.92000 183.426
47.93000 184.844
47.94000 183.835
47.95000 180.456
47.96000 177.104
47.97000 175.883
47.98000 176.025
47.99000 176.234
48.00000 178.071
48.01000 180.611
48.02000 182.998
48.03000 189.254
48.04000 195.992
48.05000 201.001
48.06000 193.913
48.07000 184.492
48.08000 177.228
48.09000 179.617
48.10000 183.167
48.11000 185.870
48.12000 189.209
48.13000 191.871
48.14000 190.896
48.15000 182.550
48.16000 173.990
48.17000 170.780
48.18000 174.842
48.19000 178.943
48.20000 181.775
48.21000 183.491
48.22000 185.201
48.23000 186.591
48.24000 187.794
48.25000 188.873
48.26000 187.410
48.27000 184.949
48.28000 182.662
48.29000 180.150
48.30000 177.830
48.31000 175.931
48.32000 176.668
48.33000 177.862
48.34000 178.806
48.35000 178.737
48.36000 178.560
48.37000 178.430
48.38000 178.967
48.39000 179.413
48.40000 179.341
48.41000 178.310
48.42000 177.258
48.43000 178.204
48.44000 181.604
48.45000 185.004
48.46000 185.482
48.47000 183.657
48.48000 181.910
48.49000 183.444
48.50000 186.710
48.51000 189.709
48.52000 188.175
48.53000 185.019
48.54000 182.120
48.55000 182.474
48.56000 183.488
48.57000 184.198
48.58000 183.206
48.59000 181.949
48.60000 181.324
48.61000 183.021
48.62000 184.933
48.63000 186.313
48.64000 185.227
48.65000 184.306
48.66000 182.848
48.67000 180.487
48.68000 178.111
48.69000 179.147
48.70000 183.960
48.71000 188.756
48.72000 188.821
48.73000 185.529
48.74000 182.344
48.75000 182.607
48.76000 184.528
48.77000 186.162
48.78000 183.686
48.79000 179.869
48.80000 176.406
48.81000 181.312
48.82000 187.248
48.83000 191.459
48.84000 186.973
48.85000 181.283
48.86000 176.830
48.87000 176.503
48.88000 176.507
48.89000 176.509
48.90000 184.453
48.91000 190.692
48.92000 193.205
48.93000 190.039
48.94000 186.812
48.95000 183.549
48.96000 180.250
48.97000 176.972
48.98000 174.737
48.99000 173.202
49.00000 171.678
49.01000 170.422
49.02000 169.285
49.03000 168.486
49.04000 171.832
49.05000 176.407
49.06000 180.502
49.07000 179.139
49.08000 177.015
49.09000 175.284
49.10000 175.343
49.11000 175.621
49.12000 176.082
49.13000 177.098
49.14000 178.152
49.15000 178.868
49.16000 176.291
49.17000 174.294
49.18000 173.359
49.19000 173.891
49.20000 174.434
49.21000 176.487
49.22000 179.887
49.23000 183.253
49.24000 183.961
49.25000 183.121
49.26000 182.215
49.27000 179.926
49.28000 177.085
49.29000 174.488
49.30000 174.478
49.31000 175.165
49.32000 175.771
49.33000 173.789
49.34000 171.685
49.35000 170.963
49.36000 175.929
49.37000 181.511
49.38000 185.166
49.39000 183.497
49.40000 181.518
49.41000 180.218
49.42000 179.111
49.43000 178.300
49.44000 178.215
49.45000 179.036
49.46000 179.855
49.47000 179.122
49.48000 177.141
49.49000 175.189
49.50000 174.240
49.51000 173.841
49.52000 173.618
49.53000 176.456
49.54000 180.406
49.55000 184.050
49.56000 184.860
49.57000 184.977
49.58000 185.079
49.59000 184.731
49.60000 184.374
49.61000 183.227
49.62000 179.136
49.63000 174.766
49.64000 171.225
49.65000 169.770
49.66000 168.417
49.67000 167.559
49.68000 174.754
49.69000 180.073
49.70000 183.746
49.71000 185.565
49.72000 187.369
49.73000 186.966
49.74000 184.958
49.75000 182.990
49.76000 182.527
49.77000 182.789
49.78000 182.823
49.79000 179.500
49.80000 175.067
49.81000 171.007
49.82000 170.011
49.83000 169.692
49.84000 169.420
49.85000 170.421
49.86000 171.416
49.87000 172.126
49.88000 171.873
49.89000 171.540
49.90000 172.395
49.91000 175.972
49.92000 179.657
49.93000 181.905
49.94000 179.270
49.95000 177.347
49.96000 177.596
49.97000 180.043
49.98000 182.450
49.99000 180.986
50.00000 176.969
50.01000 173.055
50.02000 174.801
50.03000 178.869
50.04000 182.795
50.05000 184.936
50.06000 186.539
50.07000 187.416
50.08000 183.017
50.09000 177.565
50.10000 172.992
50.11000 172.113
50.12000 171.766
50.13000 173.803
50.14000 183.183
50.15000 193.081
50.16000 197.854
50.17000 191.920
50.18000 185.651
50.19000 181.979
50.20000 184.118
50.21000 185.652
50.22000 186.280
50.23000 186.084
50.24000 185.934
50.25000 188.722
50.26000 193.268
50.27000 197.668
50.28000 196.113
50.29000 192.362
50.30000 189.186
50.31000 192.261
50.32000 197.047
50.33000 201.288
50.34000 201.998
50.35000 202.074
50.36000 202.137
50.37000 200.569
50.38000 199.132
50.39000 200.525
50.40000 209.857
50.41000 219.664
50.42000 225.457
50.43000 223.612
50.44000 221.583
50.45000 220.446
50.46000 225.288
50.47000 228.647
50.48000 227.330
50.49000 222.188
50.50000 217.235
50.51000 221.048
50.52000 229.634
50.53000 237.883
50.54000 239.647
50.55000 239.057
50.56000 238.600
50.57000 239.404
50.58000 240.521
50.59000 240.726
50.60000 235.647
50.61000 229.717
50.62000 224.938
50.63000 222.318
50.64000 220.360
50.65000 221.009
50.66000 228.324
50.67000 235.971
50.68000 240.051
50.69000 237.961
50.70000 235.762
50.71000 234.587
50.72000 231.434
50.73000 229.282
50.74000 227.060
50.75000 224.786
50.76000 222.668
50.77000 226.007
50.78000 232.050
50.79000 237.807
50.80000 234.404
50.81000 228.398
50.82000 222.423
50.83000 216.709
50.84000 211.053
50.85000 205.975
50.86000 203.903
50.87000 202.264
50.88000 200.972
50.89000 208.901
50.90000 215.882
50.91000 218.539
50.92000 211.128
50.93000 203.307
50.94000 199.034
50.95000 200.340
50.96000 201.715
50.97000 202.413
50.98000 196.093
50.99000 191.893
51.00000 191.128
51.01000 192.666
51.02000 194.129
51.03000 193.545
51.04000 192.037
51.05000 190.613
51.06000 190.271
51.07000 190.260
51.08000 190.158
51.09000 189.382
51.10000 188.468
51.11000 187.048
51.12000 183.251
51.13000 179.149
51.14000 175.989
51.15000 182.567
51.16000 188.335
51.17000 191.764
51.18000 190.237
51.19000 188.548
51.20000 185.827
51.21000 181.635
51.22000 177.433
51.23000 176.670
51.24000 179.083
51.25000 181.452
51.26000 180.841
51.27000 178.417
51.28000 176.241
51.29000 179.560
51.30000 185.140
51.31000 190.353
51.32000 186.924
51.33000 181.635
51.34000 176.746
51.35000 174.495
51.36000 172.726
51.37000 172.212
51.38000 177.035
51.39000 182.459
51.40000 186.535
51.41000 180.869
51.42000 175.972
51.43000 172.643
51.44000 172.346
51.45000 172.125
51.46000 171.508
51.47000 170.379
51.48000 169.250
51.49000 168.444
51.50000 167.910
51.51000 167.359
51.52000 166.037
51.53000 164.287
51.54000 162.769
51.55000 165.530
51.56000 169.894
51.57000 173.927
51.58000 170.460
51.59000 165.653
51.60000 161.582
51.61000 161.857
51.62000 162.843
51.63000 162.861
51.64000 159.145
51.65000 155.059
51.66000 152.070
51.67000 151.564
51.68000 151.272
51.69000 152.381
51.70000 155.952
51.71000 159.568
51.72000 160.660
51.73000 158.811
51.74000 156.962
51.75000 155.866
51.76000 155.338
51.77000 154.908
51.78000 158.017
51.79000 162.907
51.80000 167.267
51.81000 163.442
51.82000 156.824
51.83000 150.783
51.84000 153.586
51.85000 157.865
51.86000 161.908
51.87000 164.701
51.88000 167.310
51.89000 169.195
51.90000 168.547
51.91000 167.682
51.92000 167.066
51.93000 159.938
51.94000 154.301
51.95000 150.698
51.96000 150.343
51.97000 150.030
51.98000 150.353
51.99000 151.341
52.00000 152.324
52.01000 155.561
52.02000 160.274
52.03000 164.863
52.04000 165.923
52.05000 165.364
52.06000 164.857
52.07000 165.017
52.08000 165.385
52.09000 165.716
52.10000 167.022
52.11000 168.344
52.12000 168.968
52.13000 166.255
52.14000 163.108
52.15000 160.843
52.16000 161.382
52.17000 162.129
52.18000 162.645
52.19000 163.873
52.20000 164.814
52.21000 165.309
52.22000 165.157
52.23000 164.998
52.24000 163.298
52.25000 160.147
52.26000 157.023
52.27000 152.788
52.28000 147.959
52.29000 143.373
52.30000 144.413
52.31000 147.802
52.32000 151.012
52.33000 152.179
52.34000 152.769
52.35000 153.294
52.36000 158.188
52.37000 163.137
52.38000 166.316
52.39000 161.849
52.40000 156.501
52.41000 153.665
52.42000 158.094
52.43000 162.980
52.44000 166.245
52.45000 159.486
52.46000 154.282
52.47000 153.377
52.48000 158.114
52.49000 162.872
52.50000 165.288
52.51000 165.722
52.52000 166.151
52.53000 162.332
52.54000 156.288
52.55000 150.742
52.56000 154.660
52.57000 162.178
52.58000 168.537
52.59000 163.414
52.60000 155.351
52.61000 148.294
52.62000 151.962
52.63000 156.641
52.64000 160.051
52.65000 158.496
52.66000 156.440
52.67000 154.506
52.68000 152.896
52.69000 151.302
52.70000 150.274
52.71000 152.657
52.72000 154.448
52.73000 157.139
52.74000 160.898
52.75000 164.642
52.76000 164.540
52.77000 161.501
52.78000 158.513
52.79000 159.102
52.80000 161.437
52.81000 163.415
52.82000 159.714
52.83000 154.044
52.84000 149.029
52.85000 149.701
52.86000 151.693
52.87000 153.408
52.88000 154.014
52.89000 154.386
52.90000 155.151
52.91000 157.310
52.92000 159.592
52.93000 160.941
52.94000 160.053
52.95000 159.068
52.96000 158.455
52.97000 160.319
52.98000 161.685
52.99000 158.395
53.00000 150.140
53.01000 141.943
53.02000 141.023
53.03000 145.133
53.04000 149.151
53.05000 151.155
53.06000 152.180
53.07000 153.156
53.08000 153.492
53.09000 153.626
53.10000 153.884
53.11000 155.101
53.12000 156.519
53.13000 157.719
53.14000 156.028
53.15000 154.291
53.16000 153.245
53.17000 154.428
53.18000 155.782
53.19000 155.959
53.20000 153.564
53.21000 151.080
53.22000 149.595
53.23000 159.981
53.24000 167.423
53.25000 169.389
53.26000 166.117
53.27000 162.880
53.28000 162.353
53.29000 163.525
53.30000 164.663
53.31000 163.338
53.32000 161.087
53.33000 158.872
53.34000 157.064
53.35000 155.373
53.36000 154.008
53.37000 154.873
53.38000 156.160
53.39000 157.229
53.40000 155.934
53.41000 154.633
53.42000 153.882
53.43000 154.746
53.44000 155.716
53.45000 156.971
53.46000 158.797
53.47000 160.639
53.48000 161.693
53.49000 155.137
53.50000 150.540
53.51000 152.190
53.52000 159.214
53.53000 166.119
53.54000 166.597
53.55000 163.412
53.56000 160.341
53.57000 157.475
53.58000 154.853
53.59000 152.458
53.60000 152.353
53.61000 152.843
53.62000 153.493
53.63000 155.124
53.64000 156.922
53.65000 158.386
53.66000 158.670
53.67000 158.803
53.68000 157.900
53.69000 154.231
53.70000 150.410
53.71000 149.224
53.72000 152.812
53.73000 156.499
53.74000 158.515
53.75000 152.341
53.76000 148.100
53.77000 147.617
53.78000 150.053
53.79000 152.436
53.80000 152.703
53.81000 151.873
53.82000 151.079
53.83000 151.687
53.84000 152.711
53.85000 153.725
53.86000 154.639
53.87000 155.529
53.88000 156.033
53.89000 154.417
53.90000 152.479
53.91000 150.934
53.92000 146.778
53.93000 143.234
53.94000 141.518
53.95000 144.256
53.96000 147.195
53.97000 150.198
53.98000 153.309
53.99000 156.421
54.00000 158.040
54.01000 160.648
54.02000 162.393
54.03000 161.848
54.04000 159.693
54.05000 157.514
54.06000 154.592
54.07000 151.319
54.08000 148.215
54.09000 148.426
54.10000 149.598
54.11000 150.752
54.12000 151.753
54.13000 152.723
54.14000 153.306
54.15000 151.978
54.16000 150.392
54.17000 149.156
54.18000 151.628
54.19000 153.828
54.20000 154.475
54.21000 151.674
54.22000 148.748
54.23000 149.107
54.24000 154.381
54.25000 159.702
54.26000 159.088
54.27000 152.697
54.28000 146.377
54.29000 145.923
54.30000 149.207
54.31000 152.419
54.32000 153.871
54.33000 154.565
54.34000 155.217
54.35000 153.034
54.36000 150.291
54.37000 147.869
54.38000 147.693
54.39000 147.949
54.40000 148.318
54.41000 149.186
54.42000 150.114
54.43000 150.820
54.44000 151.424
54.45000 151.894
54.46000 152.544
54.47000 153.560
54.48000 154.586
54.49000 154.807
54.50000 153.936
54.51000 153.060
54.52000 154.256
54.53000 157.259
54.54000 160.210
54.55000 160.195
54.56000 158.463
54.57000 156.916
54.58000 159.069
54.59000 162.674
54.60000 166.023
54.61000 164.477
54.62000 161.915
54.63000 159.233
54.64000 155.801
54.65000 152.239
54.66000 149.365
54.67000 149.271
54.68000 149.470
54.69000 149.617
54.70000 152.744
54.71000 155.302
54.72000 157.958
54.73000 160.795
54.74000 163.637
54.75000 162.659
54.76000 157.003
54.77000 151.346
54.78000 148.791
54.79000 148.685
54.80000 148.651
54.81000 151.654
54.82000 156.257
54.83000 160.625
54.84000 161.060
54.85000 160.089
54.86000 159.198
54.87000 155.494
54.88000 151.587
54.89000 148.337
54.90000 148.749
54.91000 149.729
54.92000 150.949
54.93000 153.053
54.94000 155.239
54.95000 156.815
54.96000 155.110
54.97000 153.686
54.98000 152.744
54.99000 152.606
55.00000 152.482
55.01000 152.490
55.02000 152.646
55.03000 152.802
55.04000 154.497
55.05000 157.266
55.06000 159.977
55.07000 160.811
55.08000 160.745
55.09000 160.462
55.10000 157.085
55.11000 152.701
55.12000 148.726
55.13000 153.376
55.14000 159.128
55.15000 163.933
55.16000 163.979
55.17000 163.369
55.18000 162.076
55.19000 158.508
55.20000 154.759
55.21000 152.133
55.22000 159.373
55.23000 165.130
55.24000 168.745
55.25000 169.106
55.26000 169.432
55.27000 167.958
55.28000 164.701
55.29000 161.466
55.30000 163.827
55.31000 169.720
55.32000 175.440
55.33000 176.769
55.34000 176.179
55.35000 175.714
55.36000 176.778
55.37000 178.295
55.38000 179.652
55.39000 181.607
55.40000 183.413
55.41000 184.933
55.42000 185.155
55.43000 185.219
55.44000 186.735
55.45000 192.648
55.46000 198.861
55.47000 203.079
55.48000 207.687
55.49000 211.134
55.50000 215.077
55.51000 219.702
55.52000 224.334
55.53000 231.905
55.54000 242.091
55.55000 252.172
55.56000 256.234
55.57000 256.747
55.58000 257.620
55.59000 265.978
55.60000 277.314
55.61000 287.796
55.62000 289.220
55.63000 288.211
55.64000 287.323
55.65000 297.841
55.66000 308.639
55.67000 319.018
55.68000 327.681
55.69000 336.159
55.70000 342.109
55.71000 341.091
55.72000 339.669
55.73000 338.737
55.74000 358.988
55.75000 374.243
55.76000 382.609
55.77000 382.398
55.78000 382.169
55.79000 384.753
55.80000 389.592
55.81000 394.361
55.82000 394.764
55.83000 392.891
55.84000 390.961
55.85000 388.056
55.86000 384.798
55.87000 382.303
55.88000 386.877
55.89000 393.171
55.90000 398.634
55.91000 401.309
55.92000 403.214
55.93000 403.797
55.94000 399.459
55.95000 394.657
55.96000 389.162
55.97000 381.924
55.98000 374.602
55.99000 369.965
56.00000 369.684
56.01000 369.532
56.02000 364.296
56.03000 353.354
56.04000 342.419
56.05000 333.419
56.06000 325.823
56.07000 318.376
56.08000 315.586
56.09000 315.081
56.10000 314.461
56.11000 312.171
56.12000 309.330
56.13000 305.513
56.14000 293.724
56.15000 280.180
56.16000 268.619
56.17000 265.414
56.18000 263.704
56.19000 261.059
56.20000 255.254
56.21000 249.190
56.22000 245.048
56.23000 245.304
56.24000 245.731
56.25000 245.991
56.26000 237.257
56.27000 230.944
56.28000 230.143
56.29000 234.900
56.30000 239.546
56.31000 233.496
56.32000 220.415
56.33000 207.668
56.34000 202.327
56.35000 200.365
56.36000 198.450
56.37000 197.136
56.38000 196.002
56.39000 195.225
56.40000 197.030
56.41000 199.350
56.42000 201.294
56.43000 194.884
56.44000 188.685
56.45000 184.176
56.46000 184.861
56.47000 185.911
56.48000 186.801
56.49000 187.362
56.50000 187.912
56.51000 188.234
56.52000 184.937
56.53000 182.598
56.54000 177.909
56.55000 171.094
56.56000 164.317
56.57000 160.014
56.58000 157.188
56.59000 154.453
56.60000 155.897
56.61000 158.856
56.62000 161.551
56.63000 161.395
56.64000 160.460
56.65000 159.324
56.66000 156.886
56.67000 154.216
56.68000 152.019
56.69000 152.352
56.70000 152.854
56.71000 153.555
56.72000 154.813
56.73000 156.104
56.74000 156.209
56.75000 154.062
56.76000 151.861
56.77000 150.629
56.78000 152.587
56.79000 153.950
56.80000 154.945
56.81000 155.641
56.82000 156.269
56.83000 153.805
56.84000 149.662
56.85000 145.682
56.86000 146.715
56.87000 149.408
56.88000 151.451
56.89000 147.343
56.90000 141.714
56.91000 136.951
56.92000 137.194
56.93000 138.239
56.94000 139.081
56.95000 144.838
56.96000 149.895
56.97000 153.017
56.98000 151.207
56.99000 149.152
57.00000 148.276
57.01000 149.434
57.02000 150.627
57.03000 151.263
57.04000 147.093
57.05000 144.255
57.06000 142.596
57.07000 141.806
57.08000 141.094
57.09000 143.090
57.10000 146.424
57.11000 149.599
57.12000 148.245
57.13000 145.585
57.14000 142.967
57.15000 140.691
57.16000 138.492
57.17000 137.155
57.18000 140.296
57.19000 144.078
57.20000 147.059
57.21000 149.826
57.22000 152.029
57.23000 152.026
57.24000 146.900
57.25000 141.565
57.26000 139.026
57.27000 140.867
57.28000 142.761
57.29000 143.720
57.30000 139.272
57.31000 136.322
57.32000 136.281
57.33000 138.181
57.34000 139.986
57.35000 139.175
57.36000 137.185
57.37000 135.307
57.38000 140.182
57.39000 146.539
57.40000 151.463
57.41000 145.826
57.42000 138.052
57.43000 132.343
57.44000 136.310
57.45000 141.508
57.46000 145.510
57.47000 144.888
57.48000 144.133
57.49000 143.824
57.50000 144.462
57.51000 145.131
57.52000 144.663
57.53000 142.580
57.54000 140.486
57.55000 138.758
57.56000 137.368
57.57000 135.987
57.58000 135.170
57.59000 134.696
57.60000 134.213
57.61000 133.542
57.62000 132.794
57.63000 132.095
57.64000 136.875
57.65000 142.587
57.66000 147.677
57.67000 148.678
57.68000 148.936
57.69000 148.883
57.70000 147.512
57.71000 145.994
57.72000 144.854
57.73000 142.565
57.74000 140.720
57.75000 138.849
57.76000 136.925
57.77000 135.000
57.78000 133.330
57.79000 131.988
57.80000 130.649
57.81000 130.151
57.82000 130.350
57.83000 130.577
57.84000 132.152
57.85000 134.469
57.86000 136.760
57.87000 138.552
57.88000 140.159
57.89000 141.642
57.90000 141.969
57.91000 142.000
57.92000 142.208
57.93000 143.457
57.94000 144.876
57.95000 145.462
57.96000 142.850
57.97000 139.922
57.98000 137.782
57.99000 136.620
58.00000 135.763
58.01000 135.206
58.02000 135.175
58.03000 135.154
58.04000 138.267
58.05000 145.019
58.06000 151.757
58.07000 151.757
58.08000 146.744
58.09000 141.877
58.10000 142.268
58.11000 145.296
58.12000 148.120
58.13000 147.804
58.14000 146.419
58.15000 145.155
58.16000 145.000
58.17000 145.086
58.18000 145.056
58.19000 144.416
58.20000 143.686
58.21000 142.621
58.22000 140.387
58.23000 138.053
58.24000 136.394
58.25000 137.619
58.26000 138.644
58.27000 139.359
58.28000 139.582
58.29000 139.799
58.30000 141.975
58.31000 146.195
58.32000 150.394
58.33000 151.039
58.34000 149.294
58.35000 147.448
58.36000 142.714
58.37000 136.661
58.38000 131.056
58.39000 131.330
58.40000 133.425
58.41000 135.312
58.42000 134.128
58.43000 132.536
58.44000 131.224
58.45000 131.253
58.46000 131.454
58.47000 132.496
58.48000 136.197
58.49000 140.094
58.50000 142.780
58.51000 134.017
58.52000 127.147
58.53000 124.838
58.54000 129.121
58.55000 133.456
58.56000 135.005
58.57000 133.944
58.58000 132.893
58.59000 130.760
58.60000 128.014
58.61000 125.479
58.62000 127.784
58.63000 132.104
58.64000 136.314
58.65000 139.273
58.66000 141.880
58.67000 144.195
58.68000 143.870
58.69000 143.165
58.70000 142.315
58.71000 140.841
58.72000 139.296
58.73000 138.979
58.74000 142.208
58.75000 145.660
58.76000 147.963
58.77000 143.120
58.78000 139.394
58.79000 136.885
58.80000 135.966
58.81000 135.055
58.82000 134.495
58.83000 134.232
58.84000 133.972
58.85000 135.829
58.86000 138.792
58.87000 141.743
58.88000 144.484
58.89000 147.145
58.90000 149.170
58.91000 144.919
58.92000 139.065
58.93000 133.945
58.94000 133.980
58.95000 134.745
58.96000 135.499
58.97000 136.215
58.98000 136.926
58.99000 136.885
59.00000 134.867
59.01000 132.745
59.02000 131.377
59.03000 127.687
59.04000 124.958
59.05000 122.916
59.06000 121.683
59.07000 120.458
59.08000 120.513
59.09000 121.542
59.10000 122.554
59.11000 128.787
59.12000 137.381
59.13000 145.322
59.14000 142.941
59.15000 136.993
59.16000 131.611
59.17000 131.126
59.18000 131.774
59.19000 132.333
59.20000 134.890
59.21000 137.307
59.22000 138.214
59.23000 133.777
59.24000 128.870
59.25000 126.395
59.26000 129.735
59.27000 133.327
59.28000 135.559
59.29000 126.677
59.30000 120.174
59.31000 119.194
59.32000 124.083
59.33000 128.940
59.34000 129.743
59.35000 127.753
59.36000 125.807
59.37000 129.694
59.38000 136.011
59.39000 141.640
59.40000 138.005
59.41000 131.457
59.42000 125.746
59.43000 126.454
59.44000 128.505
59.45000 130.239
59.46000 133.920
59.47000 137.216
59.48000 138.739
59.49000 134.556
59.50000 129.941
59.51000 126.936
59.52000 127.437
59.53000 128.061
59.54000 128.434
59.55000 130.326
59.56000 131.677
59.57000 134.244
59.58000 137.969
59.59000 141.632
59.60000 140.500
59.61000 136.367
59.62000 132.355
59.63000 130.533
59.64000 129.683
59.65000 129.320
59.66000 134.615
59.67000 141.527
59.68000 147.380
59.69000 146.009
59.70000 143.276
59.71000 141.008
59.72000 137.368
59.73000 134.226
59.74000 131.450
59.75000 129.747
59.76000 128.114
59.77000 127.733
59.78000 129.839
59.79000 132.013
59.80000 133.256
59.81000 134.459
59.82000 135.296
59.83000 134.710
59.84000 132.904
59.85000 131.153
59.86000 132.358
59.87000 135.243
59.88000 138.025
59.89000 134.274
59.90000 128.381
59.91000 123.375
59.92000 127.311
59.93000 133.568
59.94000 138.728
59.95000 137.210
59.96000 134.561
59.97000 132.406
59.98000 139.799
59.99000 146.638
60.00000 151.041
60.01000 148.948
60.02000 146.502
60.03000 144.551
60.04000 143.494
60.05000 142.454
60.06000 141.887
60.07000 146.477
60.08000 149.643
60.09000 154.103
60.10000 159.565
60.11000 164.767
60.12000 159.718
60.13000 149.366
60.14000 139.465
60.15000 136.502
60.16000 136.008
60.17000 135.723
60.18000 137.282
60.19000 139.275
60.20000 140.212
60.21000 135.378
60.22000 129.669
60.23000 125.121
60.24000 127.969
60.25000 130.801
60.26000 132.391
60.27000 130.967
60.28000 129.408
60.29000 129.054
60.30000 130.679
60.31000 132.333
60.32000 133.192
60.33000 136.197
60.34000 138.216
60.35000 138.832
60.36000 138.466
60.37000 138.062
60.38000 136.509
60.39000 134.414
60.40000 132.428
60.41000 128.702
60.42000 124.758
60.43000 121.622
60.44000 124.815
60.45000 129.353
60.46000 133.012
60.47000 132.339
60.48000 131.083
60.49000 130.105
60.50000 129.705
60.51000 129.423
60.52000 130.673
60.53000 135.317
60.54000 140.083
60.55000 141.215
60.56000 136.927
60.57000 132.588
60.58000 132.042
60.59000 135.174
60.60000 138.274
60.61000 138.697
60.62000 137.418
60.63000 136.186
60.64000 136.095
60.65000 136.495
60.66000 136.869
60.67000 133.727
60.68000 129.931
60.69000 126.891
60.70000 129.098
60.71000 132.310
60.72000 134.607
60.73000 132.832
60.74000 130.571
60.75000 128.852
60.76000 130.908
60.77000 132.723
60.78000 132.998
60.79000 130.170
60.80000 127.254
60.81000 126.703
60.82000 129.347
60.83000 132.007
60.84000 131.567
60.85000 128.430
60.86000 125.349
60.87000 125.407
60.88000 127.277
60.89000 129.202
60.90000 132.217
60.91000 135.658
60.92000 138.854
60.93000 137.910
60.94000 136.074
60.95000 134.559
60.96000 135.029
60.97000 135.841
60.98000 136.020
60.99000 133.648
61.00000 131.008
61.01000 129.053
61.02000 128.840
61.03000 128.750
61.04000 130.453
61.05000 135.444
61.06000 140.507
61.07000 140.983
61.08000 135.861
61.09000 130.736
61.10000 129.598
61.11000 131.586
61.12000 133.499
61.13000 132.283
61.14000 129.423
61.15000 126.876
61.16000 129.544
61.17000 134.069
61.18000 138.223
61.19000 134.701
61.20000 129.924
61.21000 126.612
61.22000 131.453
61.23000 137.551
61.24000 141.777
61.25000 139.162
61.26000 135.919
61.27000 133.583
61.28000 135.627
61.29000 137.349
61.30000 139.133
61.31000 141.021
61.32000 142.910
61.33000 142.329
61.34000 139.030
61.35000 135.743
61.36000 133.552
61.37000 132.154
61.38000 130.895
61.39000 134.039
61.40000 139.287
61.41000 144.216
61.42000 144.617
61.43000 143.551
61.44000 142.584
61.45000 144.272
61.46000 146.267
61.47000 148.615
61.48000 152.731
61.49000 157.090
61.50000 163.144
61.51000 174.820
61.52000 186.942
61.53000 195.425
61.54000 212.802
61.55000 226.191
61.56000 240.223
61.57000 255.228
61.58000 270.244
61.59000 283.167
61.60000 294.025
61.61000 304.808
61.62000 319.576
61.63000 336.645
61.64000 353.248
61.65000 358.026
61.66000 357.655
61.67000 357.777
61.68000 363.898
61.69000 371.787
61.70000 378.843
61.71000 379.425
61.72000 378.832
61.73000 375.480
61.74000 359.661
61.75000 342.321
61.76000 327.161
61.77000 318.580
61.78000 310.446
61.79000 304.929
61.80000 275.272
61.81000 252.621
61.82000 233.658
61.83000 219.757
61.84000 205.888
61.85000 194.194
61.86000 184.429
61.87000 174.767
61.88000 168.307
61.89000 163.826
61.90000 159.506
61.91000 158.495
61.92000 158.797
61.93000 158.699
61.94000 154.371
61.95000 148.911
61.96000 144.099
61.97000 142.149
61.98000 140.900
61.99000 139.575
62.00000 137.940
62.01000 136.272
62.02000 136.064
62.03000 139.868
62.04000 143.903
62.05000 146.549
62.06000 144.128
62.07000 142.263
62.08000 142.984
62.09000 146.914
62.10000 150.836
62.11000 149.265
62.12000 143.301
62.13000 137.426
62.14000 136.613
62.15000 138.444
62.16000 140.176
62.17000 140.217
62.18000 139.647
62.19000 139.295
62.20000 140.959
62.21000 143.113
62.22000 144.982
62.23000 144.735
62.24000 144.241
62.25000 145.002
62.26000 150.418
62.27000 156.271
62.28000 158.588
62.29000 152.054
62.30000 145.097
62.31000 140.696
62.32000 144.562
62.33000 147.462
62.34000 148.599
62.35000 147.762
62.36000 146.928
62.37000 146.672
62.38000 146.835
62.39000 146.994
62.40000 145.303
62.41000 142.813
62.42000 140.590
62.43000 142.258
62.44000 145.206
62.45000 147.690
62.46000 146.402
62.47000 144.285
62.48000 142.479
62.49000 141.939
62.50000 141.633
62.51000 142.487
62.52000 147.246
62.53000 152.322
62.54000 155.056
62.55000 152.445
62.56000 149.626
62.57000 147.910
62.58000 147.804
62.59000 147.742
62.60000 147.080
62.61000 145.817
62.62000 144.568
62.63000 144.699
62.64000 145.735
62.65000 146.744
62.66000 146.245
62.67000 145.134
62.68000 144.251
62.69000 146.202
62.70000 149.003
62.71000 151.029
62.72000 147.466
62.73000 142.795
62.74000 138.882
62.75000 145.629
62.76000 152.342
62.77000 155.615
62.78000 148.345
62.79000 140.339
62.80000 137.020
62.81000 143.439
62.82000 150.158
62.83000 154.083
62.84000 151.608
62.85000 149.837
62.86000 148.334
62.87000 147.073
62.88000 145.845
62.89000 146.660
62.90000 148.691
62.91000 150.657
62.92000 151.400
62.93000 151.637
62.94000 152.111
62.95000 155.141
62.96000 158.866
62.97000 161.862
62.98000 160.173
62.99000 157.648
63.00000 155.574
63.01000 151.099
63.02000 147.207
63.03000 145.364
63.04000 149.237
63.05000 153.448
63.06000 157.270
63.07000 160.358
63.08000 163.428
63.09000 165.144
63.10000 159.145
63.11000 154.977
63.12000 151.852
63.13000 149.577
63.14000 147.332
63.15000 146.456
63.16000 146.323
63.17000 146.194
63.18000 147.585
63.19000 149.407
63.20000 151.043
63.21000 150.924
63.22000 150.373
63.23000 150.119
63.24000 151.582
63.25000 153.319
63.26000 154.718
63.27000 151.693
63.28000 148.895
63.29000 146.489
63.30000 145.083
63.31000 143.726
63.32000 143.789
63.33000 146.295
63.34000 148.843
63.35000 150.200
63.36000 151.375
63.37000 152.180
63.38000 153.849
63.39000 156.154
63.40000 158.351
63.41000 156.835
63.42000 153.490
63.43000 150.305
63.44000 149.687
63.45000 149.908
63.46000 150.201
63.47000 151.080
63.48000 152.091
63.49000 152.934
63.50000 152.911
63.51000 152.764
63.52000 152.648
63.53000 147.615
63.54000 143.254
63.55000 141.564
63.56000 146.060
63.57000 150.805
63.58000 154.829
63.59000 157.724
63.60000 160.607
63.61000 162.064
63.62000 160.220
63.63000 158.994
63.64000 158.612
63.65000 158.793
63.66000 158.993
63.67000 159.716
63.68000 160.673
63.69000 161.576
63.70000 158.653
63.71000 154.909
63.72000 152.072
63.73000 155.902
63.74000 161.077
63.75000 165.043
63.76000 163.361
63.77000 160.963
63.78000 159.118
63.79000 159.895
63.80000 160.658
63.81000 160.263
63.82000 157.424
63.83000 154.506
63.84000 152.762
63.85000 152.681
63.86000 152.613
63.87000 155.149
63.88000 160.072
63.89000 164.941
63.90000 166.157
63.91000 165.165
63.92000 164.316
63.93000 166.616
63.94000 170.204
63.95000 173.555
63.96000 168.927
63.97000 162.733
63.98000 157.549
63.99000 158.981
64.00000 161.614
64.01000 163.675
64.02000 163.317
64.03000 162.687
64.04000 162.215
64.05000 168.178
64.06000 173.141
64.07000 174.658
64.08000 169.555
64.09000 164.288
64.10000 159.828
64.11000 156.403
64.12000 152.986
64.13000 155.317
64.14000 162.378
64.15000 169.325
64.16000 170.867
64.17000 169.437
64.18000 167.864
64.19000 163.673
64.20000 158.507
64.21000 153.738
64.22000 153.938
64.23000 155.234
64.24000 157.197
64.25000 163.075
64.26000 169.590
64.27000 174.873
64.28000 175.439
64.29000 175.542
64.30000 175.618
64.31000 174.927
64.32000 174.364
64.33000 173.538
64.34000 172.255
64.35000 170.963
64.36000 170.641
64.37000 171.441
64.38000 172.241
64.39000 172.254
64.40000 171.685
64.41000 171.141
64.42000 171.503
64.43000 172.319
64.44000 173.027
64.45000 172.095
64.46000 170.607
64.47000 169.250
64.48000 173.498
64.49000 178.392
64.50000 181.717
64.51000 176.779
64.52000 170.638
64.53000 166.649
64.54000 170.137
64.55000 174.262
64.56000 177.192
64.57000 181.169
64.58000 184.229
64.59000 185.913
64.60000 185.410
64.61000 184.880
64.62000 184.166
64.63000 183.261
64.64000 182.360
64.65000 184.235
64.66000 187.941
64.67000 191.372
64.68000 187.073
64.69000 179.251
64.70000 172.271
64.71000 176.300
64.72000 183.727
64.73000 190.415
64.74000 189.158
64.75000 186.628
64.76000 185.021
64.77000 187.791
64.78000 191.128
64.79000 193.815
64.80000 194.447
64.81000 194.929
64.82000 195.260
64.83000 197.166
64.84000 198.636
64.85000 200.016
64.86000 201.266
64.87000 202.515
64.88000 203.330
64.89000 203.738
64.90000 204.143
64.91000 204.488
64.92000 204.791
64.93000 205.251
64.94000 209.264
64.95000 214.752
64.96000 219.624
64.97000 217.540
64.98000 213.505
64.99000 209.922
65.00000 213.529
65.01000 217.805
65.02000 220.813
65.03000 218.379
65.04000 215.323
65.05000 215.473
65.06000 224.845
65.07000 234.792
65.08000 241.425
65.09000 242.602
65.10000 243.369
65.11000 245.145
65.12000 248.239
65.13000 251.340
65.14000 255.596
65.15000 260.823
65.16000 265.983
65.17000 268.844
65.18000 270.381
65.19000 271.828
65.20000 271.613
65.21000 270.769
65.22000 270.669
65.23000 277.886
65.24000 286.965
65.25000 294.903
65.26000 294.203
65.27000 292.377
65.28000 292.551
65.29000 300.500
65.30000 309.229
65.31000 315.409
65.32000 314.914
65.33000 314.069
65.34000 313.525
65.35000 315.541
65.36000 317.049
65.37000 318.809
65.38000 320.865
65.39000 322.945
65.40000 330.093
65.41000 341.087
65.42000 351.891
65.43000 357.713
65.44000 360.893
65.45000 363.796
65.46000 362.351
65.47000 359.408
65.48000 356.622
65.49000 355.195
65.50000 354.082
65.51000 353.125
65.52000 361.898
65.53000 370.546
65.54000 378.244
65.55000 382.591
65.56000 386.646
65.57000 391.061
65.58000 396.338
65.59000 401.651
65.60000 404.948
65.61000 416.276
65.62000 424.504
65.63000 434.376
65.64000 445.986
65.65000 457.779
65.66000 491.125
65.67000 539.288
65.68000 586.349
65.69000 640.426
65.70000 695.332
65.71000 751.894
65.72000 830.637
65.73000 916.333
65.74000 1002.632
65.75000 1093.536
65.76000 1185.400
65.77000 1263.051
65.78000 1346.528
65.79000 1416.996
65.80000 1479.314
65.81000 1515.484
65.82000 1549.685
65.83000 1578.818
65.84000 1596.936
65.85000 1614.672
65.86000 1625.245
65.87000 1632.440
65.88000 1637.518
65.89000 1635.386
65.90000 1626.402
65.91000 1617.064
65.92000 1580.911
65.93000 1528.034
65.94000 1476.696
65.95000 1382.621
65.96000 1276.238
65.97000 1170.577
65.98000 1073.259
65.99000 978.318
66.00000 885.401
66.01000 806.235
66.02000 729.651
66.03000 666.114
66.04000 609.890
66.05000 564.131
66.06000 521.318
66.07000 487.100
66.08000 453.434
66.09000 426.288
66.10000 412.050
66.11000 398.160
66.12000 390.228
66.13000 382.279
66.14000 376.735
66.15000 373.519
66.16000 372.292
66.17000 371.140
66.18000 373.961
66.19000 379.034
66.20000 383.924
66.21000 385.384
66.22000 385.519
66.23000 386.786
66.24000 399.429
66.25000 415.014
66.26000 429.500
66.27000 437.310
66.28000 443.994
66.29000 449.429
66.30000 478.603
66.31000 504.404
66.32000 525.139
66.33000 532.403
66.34000 538.940
66.35000 548.796
66.36000 564.631
66.37000 580.588
66.38000 589.290
66.39000 600.440
66.40000 608.074
66.41000 609.424
66.42000 605.926
66.43000 602.420
66.44000 598.589
66.45000 594.591
66.46000 590.768
66.47000 586.740
66.48000 582.924
66.49000 578.062
66.50000 563.972
66.51000 547.720
66.52000 530.454
66.53000 507.665
66.54000 484.042
66.55000 465.236
66.56000 459.314
66.57000 455.468
66.58000 448.867
66.59000 435.595
66.60000 422.026
66.61000 408.251
66.62000 394.139
66.63000 380.023
66.64000 372.699
66.65000 375.174
66.66000 376.851
66.67000 379.114
66.68000 381.785
66.69000 384.420
66.70000 385.930
66.71000 386.913
66.72000 387.845
66.73000 393.361
66.74000 399.786
66.75000 404.705
66.76000 397.891
66.77000 388.591
66.78000 380.579
66.79000 378.887
66.80000 378.045
66.81000 377.390
66.82000 381.682
66.83000 385.404
66.84000 389.469
66.85000 394.295
66.86000 399.147
66.87000 399.182
66.88000 392.055
66.89000 384.860
66.90000 380.946
66.91000 380.203
66.92000 379.521
66.93000 383.735
66.94000 391.050
66.95000 398.158
66.96000 400.268
66.97000 400.240
66.98000 400.213
66.99000 402.942
67.00000 406.156
67.01000 409.312
67.02000 412.062
67.03000 414.735
67.04000 417.325
67.05000 419.546
67.06000 421.724
67.07000 423.377
67.08000 416.475
67.09000 410.605
67.10000 409.956
67.11000 419.801
67.12000 429.943
67.13000 431.342
67.14000 420.967
67.15000 410.536
67.16000 411.591
67.17000 422.612
67.18000 433.493
67.19000 436.547
67.20000 435.095
67.21000 434.174
67.22000 443.820
67.23000 457.585
67.24000 470.364
67.25000 468.249
67.26000 462.814
67.27000 457.766
67.28000 455.117
67.29000 452.879
67.30000 452.193
67.31000 457.735
67.32000 463.929
67.33000 468.514
67.34000 467.771
67.35000 466.965
67.36000 468.371
67.37000 473.826
67.38000 479.366
67.39000 480.345
67.40000 475.772
67.41000 471.194
67.42000 477.136
67.43000 491.254
67.44000 505.128
67.45000 508.948
67.46000 507.504
67.47000 506.089
67.48000 505.141
67.49000 504.360
67.50000 503.644
67.51000 504.952
67.52000 506.548
67.53000 509.104
67.54000 516.975
67.55000 525.663
67.56000 531.671
67.57000 527.921
67.58000 523.278
67.59000 519.935
67.60000 532.437
67.61000 542.571
67.62000 546.630
67.63000 540.587
67.64000 534.388
67.65000 535.201
67.66000 543.701
67.67000 552.170
67.68000 554.263
67.69000 551.855
67.70000 549.572
67.71000 551.216
67.72000 554.733
67.73000 557.832
67.74000 555.045
67.75000 550.356
67.76000 546.106
67.77000 556.223
67.78000 567.870
67.79000 578.462
67.80000 583.791
67.81000 588.399
67.82000 591.179
67.83000 587.914
67.84000 584.171
67.85000 581.554
67.86000 590.286
67.87000 597.206
67.88000 601.396
67.89000 601.464
67.90000 601.491
67.91000 608.280
67.92000 621.724
67.93000 635.074
67.94000 637.311
67.95000 632.472
67.96000 627.895
67.97000 629.862
67.98000 634.671
67.99000 639.803
68.00000 648.835
68.01000 659.012
68.02000 668.110
68.03000 661.875
68.04000 653.843
68.05000 648.289
68.06000 653.902
68.07000 660.872
68.08000 665.061
68.09000 660.885
68.10000 656.142
68.11000 652.929
68.12000 680.464
68.13000 701.665
68.14000 709.039
68.15000 697.490
68.16000 685.841
68.17000 688.501
68.18000 703.812
68.19000 718.961
68.20000 724.777
68.21000 725.129
68.22000 725.794
68.23000 732.849
68.24000 742.434
68.25000 751.164
68.26000 750.919
68.27000 748.276
68.28000 745.949
68.29000 764.343
68.30000 783.309
68.31000 799.083
68.32000 801.841
68.33000 803.207
68.34000 808.151
68.35000 822.899
68.36000 838.207
68.37000 848.235
68.38000 854.206
68.39000 858.528
68.40000 866.090
68.41000 877.660
68.42000 889.250
68.43000 904.066
68.44000 921.454
68.45000 938.581
68.46000 954.807
68.47000 970.082
68.48000 984.927
68.49000 992.402
68.50000 997.222
68.51000 1002.881
68.52000 1016.254
68.53000 1031.493
68.54000 1044.707
68.55000 1079.092
68.56000 1111.189
68.57000 1143.249
68.58000 1175.167
68.59000 1207.072
68.60000 1247.345
68.61000 1308.505
68.62000 1370.656
68.63000 1409.930
68.64000 1529.272
68.65000 1616.690
68.66000 1702.530
68.67000 1786.611
68.68000 1870.629
68.69000 1944.965
68.70000 2012.322
68.71000 2078.324
68.72000 2159.704
68.73000 2245.147
68.74000 2330.239
68.75000 2410.260
68.76000 2488.615
68.77000 2571.021
68.78000 2686.235
68.79000 2808.634
68.80000 2912.991
68.81000 3056.612
68.82000 3182.060
68.83000 3322.263
68.84000 3512.036
68.85000 3705.826
68.86000 3952.763
68.87000 4320.561
68.88000 4693.032
68.89000 4919.493
68.90000 6221.836
68.91000 7160.092
68.92000 8767.110
68.93000 11043.958
68.94000 13337.352
68.95000 17166.953
68.96000 22000.660
68.97000 26708.818
68.98000 33321.320
68.99000 40426.223
69.00000 47524.195
69.01000 54536.324
69.02000 61522.828
69.03000 68243.344
69.04000 73051.961
69.05000 77482.742
69.06000 81192.742
69.07000 83498.336
69.08000 85270.313
69.09000 86696.789
69.10000 87067.578
69.11000 87365.008
69.12000 87865.547
69.13000 88786.844
69.14000 89721.039
69.15000 90265.984
69.16000 91586.344
69.17000 92517.469
69.18000 92179.156
69.19000 90699.164
69.20000 89195.594
69.21000 86223.063
69.22000 82378.555
69.23000 78659.383
69.24000 74183.609
69.25000 69669.313
69.26000 65190.059
69.27000 61087.082
69.28000 57086.141
69.29000 53299.719
69.30000 50888.316
69.31000 48721.383
69.32000 46941.680
69.33000 45512.406
69.34000 44370.125
69.35000 43173.754
69.36000 41826.914
69.37000 40471.223
69.38000 38672.141
69.39000 36036.801
69.40000 33381.824
69.41000 31900.578
69.42000 26915.908
69.43000 23458.861
69.44000 20192.936
69.45000 17081.922
69.46000 13984.961
69.47000 11520.781
69.48000 9398.197
69.49000 7360.480
69.50000 6035.894
69.51000 5041.166
69.52000 4091.369
69.53000 3563.263
69.54000 3138.868
69.55000 2745.639
69.56000 2531.352
69.57000 2345.583
69.58000 2196.127
69.59000 2052.817
69.60000 1937.051
69.61000 1830.177
69.62000 1745.837
69.63000 1662.600
69.64000 1592.164
69.65000 1543.687
69.66000 1495.586
69.67000 1470.010
69.68000 1425.747
69.69000 1395.553
69.70000 1356.194
69.71000 1310.119
69.72000 1264.495
69.73000 1234.268
69.74000 1211.609
69.75000 1190.040
69.76000 1161.725
69.77000 1133.432
69.78000 1105.798
69.79000 1083.623
69.80000 1062.662
69.81000 1042.395
69.82000 1025.710
69.83000 1009.534
69.84000 996.804
69.85000 966.710
69.86000 941.449
69.87000 921.386
69.88000 913.325
69.89000 905.744
69.90000 893.965
69.91000 875.642
69.92000 857.243
69.93000 847.954
69.94000 838.490
69.95000 832.109
69.96000 820.641
69.97000 805.795
69.98000 791.215
69.99000 783.825
70.00000 779.654
