20.00000 543.721
20.01000 545.950
20.02000 548.498
20.03000 549.388
20.04000 543.799
20.05000 537.556
20.06000 532.968
20.07000 544.288
20.08000 553.691
20.09000 561.609
20.10000 566.882
20.11000 572.103
20.12000 573.553
20.13000 570.542
20.14000 567.531
20.15000 561.701
20.16000 553.771
20.17000 546.015
20.18000 544.909
20.19000 547.197
20.20000 549.377
20.21000 549.826
20.22000 549.675
20.23000 549.538
20.24000 555.444
20.25000 561.939
20.26000 567.270
20.27000 566.330
20.28000 564.454
20.29000 561.639
20.30000 555.487
20.31000 549.043
20.32000 544.438
20.33000 553.241
20.34000 560.405
20.35000 563.796
20.36000 561.074
20.37000 558.269
20.38000 550.232
20.39000 536.625
20.40000 523.083
20.41000 525.375
20.42000 538.457
20.43000 551.149
20.44000 552.325
20.45000 548.148
20.46000 544.431
20.47000 546.928
20.48000 551.382
20.49000 555.404
20.50000 549.700
20.51000 542.896
20.52000 537.877
20.53000 541.523
20.54000 546.319
20.55000 549.695
20.56000 548.495
20.57000 546.947
20.58000 545.873
20.59000 543.811
20.60000 542.233
20.61000 544.867
20.62000 553.696
20.63000 562.578
20.64000 562.105
20.65000 552.692
20.66000 543.353
20.67000 542.813
20.68000 547.701
20.69000 552.256
20.70000 548.893
20.71000 542.178
20.72000 536.335
20.73000 540.637
20.74000 547.844
20.75000 554.261
20.76000 549.863
20.77000 544.268
20.78000 538.661
20.79000 533.003
20.80000 527.338
20.81000 524.886
20.82000 531.855
20.83000 539.435
20.84000 544.524
20.85000 540.860
20.86000 537.961
20.87000 535.640
20.88000 534.089
20.89000 532.534
20.90000 525.395
20.91000 513.458
20.92000 501.660
20.93000 510.421
20.94000 530.391
20.95000 549.382
20.96000 549.311
20.97000 541.885
20.98000 534.915
20.99000 532.553
21.00000 531.390
21.01000 530.370
21.02000 533.626
21.03000 537.046
21.04000 539.126
21.05000 535.888
21.06000 532.101
21.07000 530.314
21.08000 533.871
21.09000 537.720
21.10000 540.216
21.11000 549.423
21.12000 556.266
21.13000 554.688
21.14000 542.978
21.15000 531.291
21.16000 530.675
21.17000 538.645
21.18000 546.486
21.19000 543.117
21.20000 534.232
21.21000 526.010
21.22000 528.575
21.23000 534.931
21.24000 540.869
21.25000 543.101
21.26000 544.459
21.27000 545.632
21.28000 543.175
21.29000 540.623
21.30000 537.447
21.31000 532.027
21.32000 526.405
21.33000 526.944
21.34000 542.477
21.35000 558.684
21.36000 568.821
21.37000 557.017
21.38000 548.265
21.39000 543.233
21.40000 542.233
21.41000 541.232
21.42000 540.050
21.43000 538.740
21.44000 537.458
21.45000 538.667
21.46000 540.955
21.47000 543.215
21.48000 545.096
21.49000 546.857
21.50000 548.081
21.51000 545.109
21.52000 541.243
21.53000 537.962
21.54000 537.074
21.55000 536.601
21.56000 536.390
21.57000 537.040
21.58000 537.757
21.59000 539.449
21.60000 543.305
21.61000 547.239
21.62000 549.604
21.63000 541.134
21.64000 535.036
21.65000 533.766
21.66000 537.190
21.67000 540.648
21.68000 546.984
21.69000 555.151
21.70000 563.092
21.71000 563.660
21.72000 561.186
21.73000 558.760
21.74000 556.915
21.75000 555.238
21.76000 553.698
21.77000 553.109
21.78000 552.703
21.79000 552.364
21.80000 554.724
21.81000 556.946
21.82000 557.192
21.83000 551.550
21.84000 545.518
21.85000 544.816
21.86000 554.880
21.87000 565.252
21.88000 571.232
21.89000 568.928
21.90000 567.287
21.91000 569.564
21.92000 575.266
21.93000 580.890
21.94000 582.132
21.95000 580.839
21.96000 579.590
21.97000 584.631
21.98000 591.701
21.99000 598.571
22.00000 603.385
22.01000 607.656
22.02000 611.297
22.03000 611.021
22.04000 610.068
22.05000 609.290
22.06000 609.935
22.07000 610.586
22.08000 611.055
22.09000 611.034
22.10000 610.984
22.11000 610.837
22.12000 610.509
22.13000 610.177
22.14000 609.995
22.15000 611.465
22.16000 612.493
22.17000 617.158
22.18000 624.689
22.19000 632.047
22.20000 632.159
22.21000 628.461
22.22000 624.917
22.23000 621.907
22.24000 619.276
22.25000 616.546
22.26000 612.919
22.27000 609.077
22.28000 607.041
22.29000 615.079
22.30000 624.675
22.31000 632.349
22.32000 620.817
22.33000 610.065
22.34000 602.424
22.35000 602.471
22.36000 602.875
22.37000 599.976
22.38000 591.557
22.39000 583.053
22.40000 578.592
22.41000 592.155
22.42000 601.294
22.43000 602.212
22.44000 597.267
22.45000 592.495
22.46000 593.224
22.47000 596.590
22.48000 599.786
22.49000 590.673
22.50000 578.569
22.51000 566.501
22.52000 554.716
22.53000 542.994
22.54000 533.754
22.55000 536.973
22.56000 541.909
22.57000 545.769
22.58000 537.197
22.59000 529.562
22.60000 526.937
22.61000 535.586
22.62000 544.661
22.63000 545.786
22.64000 534.846
22.65000 523.781
22.66000 515.886
22.67000 511.128
22.68000 506.447
22.69000 508.558
22.70000 515.062
22.71000 521.589
22.72000 528.700
22.73000 536.067
22.74000 542.995
22.75000 533.796
22.76000 521.041
22.77000 510.320
22.78000 514.027
22.79000 520.552
22.80000 525.328
22.81000 522.182
22.82000 518.068
22.83000 514.927
22.84000 522.906
22.85000 529.794
22.86000 527.083
22.87000 504.693
22.88000 481.716
22.89000 469.842
22.90000 473.241
22.91000 476.732
22.92000 480.150
22.93000 483.498
22.94000 486.820
22.95000 488.553
22.96000 489.352
22.97000 490.324
22.98000 494.887
22.99000 500.877
23.00000 506.452
23.01000 500.970
23.02000 493.336
23.03000 486.994
23.04000 488.831
23.05000 492.105
23.06000 495.118
23.07000 497.063
23.08000 498.892
23.09000 500.254
23.10000 505.343
23.11000 509.470
23.12000 513.548
23.13000 517.531
23.14000 521.512
23.15000 518.769
23.16000 507.662
23.17000 496.549
23.18000 495.305
23.19000 501.941
23.20000 508.409
23.21000 507.511
23.22000 502.678
23.23000 498.250
23.24000 500.793
23.25000 505.862
23.26000 510.525
23.27000 508.504
23.28000 505.244
23.29000 502.609
23.30000 503.517
23.31000 504.982
23.32000 504.608
23.33000 497.403
23.34000 489.554
23.35000 483.869
23.36000 494.023
23.37000 502.406
23.38000 509.598
23.39000 514.769
23.40000 519.907
23.41000 518.374
23.42000 509.362
23.43000 500.376
23.44000 498.078
23.45000 500.605
23.46000 503.076
23.47000 503.705
23.48000 503.439
23.49000 502.718
23.50000 495.375
23.51000 485.849
23.52000 477.193
23.53000 484.604
23.54000 494.279
23.55000 501.726
23.56000 497.805
23.57000 492.288
23.58000 488.873
23.59000 492.556
23.60000 496.818
23.61000 499.818
23.62000 498.358
23.63000 497.120
23.64000 497.551
23.65000 500.557
23.66000 503.590
23.67000 502.006
23.68000 495.769
23.69000 489.572
23.70000 483.550
23.71000 477.729
23.72000 472.180
23.73000 473.800
23.74000 478.595
23.75000 483.188
23.76000 485.252
23.77000 486.557
23.78000 487.727
23.79000 482.323
23.80000 476.461
23.81000 471.480
23.82000 470.558
23.83000 470.142
23.84000 470.427
23.85000 472.864
23.86000 475.452
23.87000 477.217
23.88000 473.189
23.89000 470.043
23.90000 471.075
23.91000 477.947
23.92000 484.856
23.93000 487.523
23.94000 486.354
23.95000 485.197
23.96000 487.967
23.97000 492.974
23.98000 497.628
23.99000 494.739
24.00000 488.807
24.01000 483.686
24.02000 487.352
24.03000 493.412
24.04000 498.767
24.05000 502.871
24.06000 506.222
24.07000 507.528
24.08000 500.318
24.09000 492.172
24.10000 486.981
24.11000 490.051
24.12000 493.611
24.13000 495.960
24.14000 486.449
24.15000 479.229
24.16000 475.085
24.17000 474.830
24.18000 474.595
24.19000 477.311
24.20000 482.431
24.21000 487.478
24.22000 488.914
24.23000 488.405
24.24000 487.877
24.25000 487.016
24.26000 486.034
24.27000 485.443
24.28000 488.561
24.29000 492.595
24.30000 496.105
24.31000 494.849
24.32000 493.124
24.33000 491.209
24.34000 488.581
24.35000 485.884
24.36000 483.886
24.37000 483.670
24.38000 483.542
24.39000 483.460
24.40000 473.848
24.41000 466.740
24.42000 465.049
24.43000 469.538
24.44000 474.030
24.45000 477.800
24.46000 481.039
24.47000 484.218
24.48000 481.234
24.49000 475.427
24.50000 470.303
24.51000 475.406
24.52000 483.933
24.53000 492.154
24.54000 497.830
24.55000 502.937
24.56000 507.307
24.57000 496.355
24.58000 485.268
24.59000 476.091
24.60000 473.463
24.61000 471.383
24.62000 472.673
24.63000 481.781
24.64000 491.206
24.65000 496.985
24.66000 490.333
24.67000 485.462
24.68000 481.472
24.69000 478.385
24.70000 475.271
24.71000 469.358
24.72000 461.578
24.73000 453.989
24.74000 455.984
24.75000 462.007
24.76000 467.626
24.77000 468.088
24.78000 466.979
24.79000 465.859
24.80000 464.656
24.81000 463.437
24.82000 462.411
24.83000 464.879
24.84000 467.305
24.85000 469.660
24.86000 471.789
24.87000 473.901
24.88000 474.912
24.89000 473.592
24.90000 472.197
24.91000 471.376
24.92000 459.522
24.93000 451.104
24.94000 451.346
24.95000 459.552
24.96000 467.623
24.97000 466.566
24.98000 459.980
24.99000 453.599
25.00000 459.500
25.01000 469.848
25.02000 479.218
25.03000 477.770
25.04000 473.328
25.05000 468.873
25.06000 464.333
25.07000 459.778
25.08000 456.021
25.09000 461.975
25.10000 467.774
25.11000 471.985
25.12000 471.688
25.13000 471.115
25.14000 471.078
25.15000 472.070
25.16000 473.089
25.17000 473.662
25.18000 467.486
25.19000 463.181
25.20000 459.857
25.21000 457.347
25.22000 454.941
25.23000 457.521
25.24000 462.847
25.25000 467.969
25.26000 469.359
25.27000 469.356
25.28000 469.304
25.29000 468.770
25.30000 468.116
25.31000 467.661
25.32000 468.374
25.33000 469.278
25.34000 470.008
25.35000 459.072
25.36000 449.244
25.37000 445.002
25.38000 455.199
25.39000 466.132
25.40000 472.708
25.41000 471.655
25.42000 470.462
25.43000 469.821
25.44000 458.650
25.45000 451.035
25.46000 448.526
25.47000 449.838
25.48000 451.229
25.49000 455.479
25.50000 461.162
25.51000 466.582
25.52000 465.598
25.53000 462.665
25.54000 459.981
25.55000 459.402
25.56000 459.301
25.57000 459.122
25.58000 458.525
25.59000 457.866
25.60000 457.345
25.61000 461.410
25.62000 464.990
25.63000 468.193
25.64000 470.507
25.65000 472.784
25.66000 474.547
25.67000 475.492
25.68000 476.427
25.69000 476.905
25.70000 462.465
25.71000 452.833
25.72000 450.084
25.73000 452.003
25.74000 453.980
25.75000 457.603
25.76000 461.978
25.77000 466.112
25.78000 456.420
25.79000 443.594
25.80000 432.325
25.81000 432.746
25.82000 435.568
25.83000 439.612
25.84000 449.472
25.85000 460.085
25.86000 468.286
25.87000 452.879
25.88000 439.279
25.89000 432.711
25.90000 441.229
25.91000 450.254
25.92000 451.512
25.93000 441.563
25.94000 431.524
25.95000 428.464
25.96000 431.933
25.97000 435.362
25.98000 435.897
25.99000 434.652
26.00000 433.553
26.01000 435.780
26.02000 439.389
26.03000 442.766
26.04000 451.965
26.05000 461.808
26.06000 469.250
26.07000 460.632
26.08000 449.042
26.09000 440.535
26.10000 445.293
26.11000 451.571
26.12000 456.303
26.13000 468.315
26.14000 478.079
26.15000 480.653
26.16000 469.183
26.17000 457.346
26.18000 452.023
26.19000 455.210
26.20000 458.431
26.21000 456.788
26.22000 451.061
26.23000 445.401
26.24000 443.095
26.25000 442.663
26.26000 442.085
26.27000 438.747
26.28000 434.363
26.29000 430.306
26.30000 430.702
26.31000 432.079
26.32000 434.240
26.33000 441.092
26.34000 448.722
26.35000 454.534
26.36000 453.261
26.37000 451.275
26.38000 449.817
26.39000 455.057
26.40000 459.380
26.41000 458.869
26.42000 449.766
26.43000 440.495
26.44000 444.397
26.45000 463.838
26.46000 483.254
26.47000 478.431
26.48000 455.318
26.49000 432.784
26.50000 432.081
26.51000 442.489
26.52000 452.066
26.53000 448.524
26.54000 440.455
26.55000 433.078
26.56000 435.184
26.57000 439.002
26.58000 441.310
26.59000 435.505
26.60000 428.495
26.61000 423.135
26.62000 423.608
26.63000 424.593
26.64000 425.295
26.65000 436.004
26.66000 444.503
26.67000 451.590
26.68000 456.396
26.69000 461.171
26.70000 459.320
26.71000 450.436
26.72000 441.595
26.73000 439.477
26.74000 441.961
26.75000 444.448
26.76000 447.034
26.77000 449.667
26.78000 451.870
26.79000 448.307
26.80000 442.933
26.81000 438.083
26.82000 439.940
26.83000 442.802
26.84000 444.398
26.85000 439.869
26.86000 434.531
26.87000 431.884
26.88000 437.890
26.89000 444.550
26.90000 449.163
26.91000 435.885
26.92000 425.423
26.93000 421.387
26.94000 426.772
26.95000 432.240
26.96000 435.547
26.97000 436.798
26.98000 438.039
26.99000 437.562
27.00000 436.037
27.01000 434.579
27.02000 434.672
27.03000 435.420
27.04000 436.268
27.05000 438.273
27.06000 440.608
27.07000 442.686
27.08000 437.300
27.09000 431.403
27.10000 427.263
27.11000 430.801
27.12000 435.237
27.13000 439.147
27.14000 441.514
27.15000 443.783
27.16000 445.304
27.17000 439.018
27.18000 434.193
27.19000 430.687
27.20000 428.932
27.21000 427.184
27.22000 424.694
27.23000 421.568
27.24000 418.479
27.25000 423.515
27.26000 432.926
27.27000 441.850
27.28000 441.303
27.29000 437.114
27.30000 433.271
27.31000 432.922
27.32000 433.479
27.33000 433.967
27.34000 433.621
27.35000 433.203
27.36000 432.417
27.37000 430.173
27.38000 427.779
27.39000 426.009
27.40000 425.899
27.41000 425.879
27.42000 425.866
27.43000 437.065
27.44000 445.430
27.45000 446.951
27.46000 440.262
27.47000 433.562
27.48000 428.339
27.49000 424.258
27.50000 420.244
27.51000 422.945
27.52000 428.916
27.53000 434.085
27.54000 426.257
27.55000 413.873
27.56000 403.392
27.57000 409.720
27.58000 419.996
27.59000 428.863
27.60000 432.862
27.61000 435.631
27.62000 437.721
27.63000 437.375
27.64000 436.811
27.65000 435.503
27.66000 432.387
27.67000 429.190
27.68000 427.193
27.69000 431.140
27.70000 434.050
27.71000 434.691
27.72000 432.884
27.73000 431.072
27.74000 428.755
27.75000 426.085
27.76000 423.474
27.77000 423.242
27.78000 424.094
27.79000 424.653
27.80000 421.185
27.81000 416.431
27.82000 412.804
27.83000 417.971
27.84000 425.006
27.85000 430.971
27.86000 431.156
27.87000 430.657
27.88000 429.536
27.89000 426.384
27.90000 423.073
27.91000 422.554
27.92000 428.206
27.93000 434.082
27.94000 437.611
27.95000 435.718
27.96000 434.335
27.97000 428.444
27.98000 418.184
27.99000 408.060
28.00000 409.118
28.01000 417.272
28.02000 425.198
28.03000 426.421
28.04000 424.852
28.05000 423.463
28.06000 424.210
28.07000 425.577
28.08000 426.357
28.09000 423.058
28.10000 418.979
28.11000 415.582
28.12000 418.822
28.13000 422.161
28.14000 423.063
28.15000 416.729
28.16000 409.915
28.17000 407.198
28.18000 412.729
28.19000 418.493
28.20000 421.812
28.21000 422.028
28.22000 422.164
28.23000 419.859
28.24000 415.427
28.25000 411.050
28.26000 409.753
28.27000 410.233
28.28000 410.695
28.29000 404.132
28.30000 395.366
28.31000 388.142
28.32000 396.796
28.33000 409.631
28.34000 420.361
28.35000 418.042
28.36000 413.477
28.37000 409.751
28.38000 413.705
28.39000 417.599
28.40000 419.155
28.41000 414.388
28.42000 409.268
28.43000 409.620
28.44000 420.004
28.45000 430.603
28.46000 436.433
28.47000 425.945
28.48000 418.711
28.49000 415.936
28.50000 416.666
28.51000 417.321
28.52000 414.869
28.53000 410.788
28.54000 406.879
28.55000 403.269
28.56000 400.003
28.57000 397.224
28.58000 398.849
28.59000 401.525
28.60000 403.633
28.61000 402.586
28.62000 401.053
28.63000 399.827
28.64000 403.500
28.65000 406.830
28.66000 410.940
28.67000 416.968
28.68000 423.084
28.69000 422.806
28.70000 411.869
28.71000 400.768
28.72000 394.954
28.73000 406.039
28.74000 413.512
28.75000 415.246
28.76000 412.900
28.77000 410.495
28.78000 406.203
28.79000 401.010
28.80000 396.081
28.81000 403.560
28.82000 414.171
28.83000 423.484
28.84000 422.456
28.85000 419.196
28.86000 416.755
28.87000 418.409
28.88000 420.626
28.89000 422.358
28.90000 417.101
28.91000 412.464
28.92000 410.545
28.93000 414.726
28.94000 419.136
28.95000 419.679
28.96000 414.370
28.97000 409.001
28.98000 407.851
28.99000 410.863
29.00000 413.881
29.01000 417.494
29.02000 421.490
29.03000 425.197
29.04000 421.595
29.05000 414.813
29.06000 408.436
29.07000 407.276
29.08000 407.620
29.09000 408.188
29.10000 410.342
29.11000 412.806
29.12000 414.292
29.13000 411.362
29.14000 407.894
29.15000 405.249
29.16000 396.512
29.17000 389.302
29.18000 385.538
29.19000 388.819
29.20000 392.308
29.21000 393.251
29.22000 390.702
29.23000 388.132
29.24000 396.165
29.25000 413.568
29.26000 430.615
29.27000 426.540
29.28000 410.095
29.29000 394.278
29.30000 391.391
29.31000 393.631
29.32000 395.714
29.33000 394.859
29.34000 393.377
29.35000 392.629
29.36000 396.518
29.37000 401.219
29.38000 403.871
29.39000 398.153
29.40000 391.537
29.41000 386.616
29.42000 389.452
29.43000 392.004
29.44000 395.698
29.45000 401.518
29.46000 407.386
29.47000 408.005
29.48000 402.117
29.49000 396.220
29.50000 395.279
29.51000 398.283
29.52000 401.155
29.53000 398.347
29.54000 392.514
29.55000 387.219
29.56000 391.167
29.57000 398.452
29.58000 405.153
29.59000 408.504
29.60000 410.771
29.61000 411.350
29.62000 402.386
29.63000 391.923
29.64000 383.340
29.65000 381.716
29.66000 380.746
29.67000 380.044
29.68000 398.123
29.69000 412.690
29.70000 419.032
29.71000 411.451
29.72000 403.643
29.73000 398.822
29.74000 397.337
29.75000 395.861
29.76000 395.745
29.77000 396.604
29.78000 397.491
29.79000 399.298
29.80000 401.551
29.81000 403.717
29.82000 404.616
29.83000 405.099
29.84000 405.537
29.85000 402.058
29.86000 398.226
29.87000 395.997
29.88000 401.927
29.89000 408.999
29.90000 415.511
29.91000 420.140
29.92000 424.615
29.93000 427.761
29.94000 426.515
29.95000 425.441
29.96000 419.020
29.97000 404.377
29.98000 389.643
29.99000 385.769
30.00000 392.798
30.01000 399.781
30.02000 404.677
30.03000 408.155
30.04000 411.519
30.05000 411.900
30.06000 410.964
30.07000 409.935
30.08000 407.763
30.09000 405.249
30.10000 402.995
30.11000 405.018
30.12000 407.523
30.13000 409.043
30.14000 406.040
30.15000 402.475
30.16000 399.375
30.17000 397.698
30.18000 396.120
30.19000 395.045
30.20000 395.711
30.21000 396.249
30.22000 398.344
30.23000 402.608
30.24000 406.883
30.25000 406.152
30.26000 400.909
30.27000 395.718
30.28000 395.116
30.29000 397.200
30.30000 399.237
30.31000 400.284
30.32000 400.932
30.33000 401.188
30.34000 397.221
30.35000 392.107
30.36000 387.590
30.37000 387.444
30.38000 387.990
30.39000 388.503
30.40000 388.873
30.41000 389.228
30.42000 391.838
30.43000 400.730
30.44000 409.994
30.45000 416.101
30.46000 400.232
30.47000 388.154
30.48000 384.104
30.49000 390.176
30.50000 396.269
30.51000 397.880
30.52000 395.852
30.53000 393.852
30.54000 393.458
30.55000 393.919
30.56000 394.653
30.57000 400.221
30.58000 407.560
30.59000 414.101
30.60000 413.130
30.61000 410.308
30.62000 407.854
30.63000 416.743
30.64000 425.873
30.65000 431.765
30.66000 425.467
30.67000 418.001
30.68000 414.239
30.69000 419.878
30.70000 425.980
30.71000 429.862
30.72000 430.081
30.73000 430.194
30.74000 428.488
30.75000 424.712
30.76000 420.941
30.77000 418.482
30.78000 416.986
30.79000 415.518
30.80000 418.367
30.81000 423.160
30.82000 427.397
30.83000 423.366
30.84000 416.574
30.85000 410.601
30.86000 411.422
30.87000 413.757
30.88000 415.754
30.89000 428.120
30.90000 439.794
30.91000 447.619
30.92000 442.290
30.93000 435.866
30.94000 433.363
30.95000 439.929
30.96000 446.860
30.97000 451.105
30.98000 463.429
30.99000 472.321
31.00000 473.795
31.01000 467.689
31.02000 461.705
31.03000 468.055
31.04000 482.611
31.05000 496.805
31.06000 508.619
31.07000 518.883
31.08000 529.397
31.09000 543.102
31.10000 557.777
31.11000 573.471
31.12000 596.652
31.13000 621.341
31.14000 642.083
31.15000 657.004
31.16000 668.821
31.17000 686.707
31.18000 723.455
31.19000 761.554
31.20000 797.740
31.21000 829.897
31.22000 861.924
31.23000 880.753
31.24000 913.221
31.25000 936.189
31.26000 963.076
31.27000 993.559
31.28000 1023.997
31.29000 1051.498
31.30000 1077.225
31.31000 1102.146
31.32000 1132.780
31.33000 1163.973
31.34000 1194.179
31.35000 1213.506
31.36000 1229.832
31.37000 1246.423
31.38000 1264.749
31.39000 1283.390
31.40000 1298.755
31.41000 1279.615
31.42000 1260.687
31.43000 1246.266
31.44000 1244.598
31.45000 1243.704
31.46000 1236.133
31.47000 1215.750
31.48000 1195.050
31.49000 1183.404
31.50000 1132.786
31.51000 1097.569
31.52000 1071.040
31.53000 1051.685
31.54000 1032.135
31.55000 1003.328
31.56000 969.438
31.57000 936.855
31.58000 902.486
31.59000 869.662
31.60000 837.635
31.61000 813.275
31.62000 790.835
31.63000 767.347
31.64000 737.724
31.65000 707.102
31.66000 682.371
31.67000 666.668
31.68000 654.621
31.69000 639.549
31.70000 616.676
31.71000 593.408
31.72000 570.739
31.73000 549.114
31.74000 527.509
31.75000 515.916
31.76000 507.209
31.77000 501.287
31.78000 499.205
31.79000 499.989
31.80000 500.662
31.81000 497.346
31.82000 492.036
31.83000 486.974
31.84000 475.573
31.85000 463.005
31.86000 451.913
31.87000 453.295
31.88000 457.505
31.89000 460.169
31.90000 454.699
31.91000 448.048
31.92000 442.792
31.93000 445.134
31.94000 447.535
31.95000 444.488
31.96000 428.649
31.97000 412.277
31.98000 404.335
31.99000 409.763
32.00000 415.360
32.01000 418.213
32.02000 422.641
32.03000 425.586
32.04000 425.704
32.05000 423.911
32.06000 422.068
32.07000 418.790
32.08000 414.859
32.09000 411.145
32.10000 407.527
32.11000 404.234
32.12000 401.077
32.13000 398.941
32.14000 397.013
32.15000 395.285
32.16000 394.507
32.17000 393.851
32.18000 393.345
32.19000 396.411
32.20000 399.050
32.21000 398.750
32.22000 392.161
32.23000 385.364
32.24000 378.714
32.25000 372.278
32.26000 365.845
32.27000 367.129
32.28000 375.610
32.29000 383.954
32.30000 382.576
32.31000 375.234
32.32000 368.446
32.33000 374.203
32.34000 385.163
32.35000 395.413
32.36000 397.001
32.37000 396.237
32.38000 394.070
32.39000 382.557
32.40000 369.319
32.41000 359.213
32.42000 362.529
32.43000 367.377
32.44000 371.028
32.45000 371.238
32.46000 371.234
32.47000 371.247
32.48000 371.293
32.49000 371.340
32.50000 373.421
32.51000 378.151
32.52000 382.888
32.53000 376.160
32.54000 359.851
32.55000 343.847
32.56000 343.158
32.57000 351.009
32.58000 358.920
32.59000 367.936
32.60000 377.370
32.61000 386.095
32.62000 383.969
32.63000 379.580
32.64000 375.038
32.65000 369.587
32.66000 363.984
32.67000 359.239
32.68000 357.828
32.69000 356.750
32.70000 355.960
32.71000 361.533
32.72000 366.097
32.73000 366.937
32.74000 361.176
32.75000 355.289
32.76000 356.372
32.77000 365.652
32.78000 374.922
32.79000 375.006
32.80000 368.170
32.81000 361.501
32.82000 361.075
32.83000 363.818
32.84000 366.745
32.85000 372.561
32.86000 379.370
32.87000 385.593
32.88000 382.072
32.89000 376.949
32.90000 371.752
32.91000 366.153
32.92000 360.495
32.93000 356.003
32.94000 355.619
32.95000 355.594
32.96000 355.575
32.97000 363.974
32.98000 370.653
32.99000 373.099
33.00000 368.723
33.01000 364.254
33.02000 363.429
33.03000 366.459
33.04000 369.475
33.05000 366.813
33.06000 360.330
33.07000 353.930
33.08000 349.937
33.09000 347.056
33.10000 344.535
33.11000 346.811
33.12000 350.590
33.13000 353.999
33.14000 346.341
33.15000 337.592
33.16000 331.080
33.17000 335.361
33.18000 341.062
33.19000 344.660
33.20000 341.516
33.21000 337.865
33.22000 335.339
33.23000 341.174
33.24000 345.782
33.25000 347.590
33.26000 345.307
33.27000 342.989
33.28000 343.054
33.29000 345.381
33.30000 347.690
33.31000 346.927
33.32000 344.298
33.33000 341.673
33.34000 339.165
33.35000 336.706
33.36000 334.614
33.37000 336.760
33.38000 340.113
33.39000 343.096
33.40000 345.135
33.41000 346.752
33.42000 347.797
33.43000 346.356
33.44000 344.625
33.45000 343.819
33.46000 345.715
33.47000 347.784
33.48000 349.171
33.49000 346.357
33.50000 344.186
33.51000 340.925
33.52000 336.222
33.53000 331.519
33.54000 331.509
33.55000 335.506
33.56000 339.455
33.57000 338.289
33.58000 334.327
33.59000 330.640
33.60000 332.247
33.61000 335.885
33.62000 338.701
33.63000 333.274
33.64000 325.716
33.65000 319.092
33.66000 325.802
33.67000 333.488
33.68000 338.944
33.69000 335.603
33.70000 331.360
33.71000 326.641
33.72000 320.652
33.73000 314.594
33.74000 310.673
33.75000 326.549
33.76000 338.458
33.77000 344.203
33.78000 342.577
33.79000 340.933
33.80000 338.611
33.81000 335.766
33.82000 332.968
33.83000 332.473
33.84000 333.142
33.85000 333.660
33.86000 331.756
33.87000 329.006
33.88000 325.962
33.89000 320.327
33.90000 314.087
33.91000 308.705
33.92000 319.882
33.93000 331.478
33.94000 340.236
33.95000 338.833
33.96000 336.524
33.97000 332.930
33.98000 326.230
33.99000 319.391
34.00000 315.124
34.01000 313.816
34.02000 312.903
34.03000 315.382
34.04000 321.511
34.05000 327.621
34.06000 330.915
34.07000 332.244
34.08000 333.545
34.09000 332.165
34.10000 329.635
34.11000 327.293
34.12000 327.524
34.13000 328.574
34.14000 328.513
34.15000 319.806
34.16000 309.270
34.17000 300.338
34.18000 303.616
34.19000 307.735
34.20000 313.030
34.21000 322.148
34.22000 331.562
34.23000 335.431
34.24000 327.079
34.25000 318.289
34.26000 313.015
34.27000 318.912
34.28000 323.175
34.29000 321.057
34.30000 312.774
34.31000 304.602
34.32000 305.299
34.33000 311.610
34.34000 317.744
34.35000 321.325
34.36000 323.692
34.37000 325.548
34.38000 321.387
34.39000 315.486
34.40000 310.859
34.41000 315.041
34.42000 320.905
34.43000 325.784
34.44000 321.231
34.45000 316.534
34.46000 312.959
34.47000 312.705
34.48000 312.670
34.49000 313.152
34.50000 314.672
34.51000 316.221
34.52000 317.111
34.53000 315.590
34.54000 314.517
34.55000 313.453
34.56000 312.395
34.57000 311.355
34.58000 311.231
34.59000 311.634
34.60000 312.024
34.61000 314.405
34.62000 317.376
34.63000 320.019
34.64000 319.287
34.65000 317.670
34.66000 317.024
34.67000 322.378
34.68000 328.762
34.69000 333.970
34.70000 326.382
34.71000 319.081
34.72000 313.031
34.73000 310.353
34.74000 307.862
34.75000 306.122
34.76000 305.755
34.77000 305.417
34.78000 305.232
34.79000 314.314
34.80000 320.557
34.81000 320.351
34.82000 315.092
34.83000 309.901
34.84000 307.494
34.85000 306.542
34.86000 305.631
34.87000 310.798
34.88000 317.623
34.89000 323.447
34.90000 320.265
34.91000 314.941
34.92000 310.121
34.93000 308.097
34.94000 306.503
34.95000 305.229
34.96000 312.638
34.97000 319.264
34.98000 323.134
34.99000 320.236
35.00000 317.027
35.01000 312.090
35.02000 304.281
35.03000 296.428
35.04000 292.323
35.05000 303.682
35.06000 311.349
35.07000 315.287
35.08000 316.583
35.09000 317.800
35.10000 316.545
35.11000 314.112
35.12000 311.804
35.13000 312.685
35.14000 314.448
35.15000 315.595
35.16000 311.852
35.17000 307.056
35.18000 302.725
35.19000 300.709
35.20000 299.009
35.21000 297.682
35.22000 295.694
35.23000 294.066
35.24000 294.280
35.25000 298.618
35.26000 303.109
35.27000 305.232
35.28000 303.783
35.29000 302.298
35.30000 303.685
35.31000 307.896
35.32000 312.080
35.33000 314.054
35.34000 314.606
35.35000 315.287
35.36000 319.217
35.37000 324.556
35.38000 329.575
35.39000 325.606
35.40000 319.575
35.41000 313.502
35.42000 307.141
35.43000 300.725
35.44000 296.247
35.45000 300.498
35.46000 305.808
35.47000 309.857
35.48000 309.751
35.49000 309.446
35.50000 308.094
35.51000 304.607
35.52000 301.056
35.53000 300.181
35.54000 302.964
35.55000 305.766
35.56000 307.661
35.57000 308.753
35.58000 309.818
35.59000 309.244
35.60000 307.713
35.61000 306.081
35.62000 302.365
35.63000 297.825
35.64000 293.603
35.65000 293.305
35.66000 293.982
35.67000 294.776
35.68000 296.304
35.69000 297.962
35.70000 299.331
35.71000 299.530
35.72000 299.604
35.73000 299.660
35.74000 299.266
35.75000 298.939
35.76000 297.427
35.77000 293.712
35.78000 289.948
35.79000 292.299
35.80000 302.210
35.81000 312.125
35.82000 311.168
35.83000 301.596
35.84000 292.132
35.85000 287.271
35.86000 284.855
35.87000 282.878
35.88000 288.381
35.89000 296.577
35.90000 304.112
35.91000 301.494
35.92000 296.964
35.93000 293.983
35.94000 299.736
35.95000 306.855
35.96000 311.004
35.97000 304.179
35.98000 296.330
35.99000 290.653
36.00000 296.193
36.01000 300.853
36.02000 302.025
36.03000 297.310
36.04000 292.500
36.05000 289.110
36.06000 287.301
36.07000 285.500
36.08000 285.241
36.09000 286.086
36.10000 287.018
36.11000 290.854
36.12000 296.094
36.13000 300.635
36.14000 295.083
36.15000 286.223
36.16000 278.178
36.17000 280.840
36.18000 285.260
36.19000 289.086
36.20000 289.907
36.21000 290.309
36.22000 291.678
36.23000 296.290
36.24000 301.166
36.25000 304.590
36.26000 300.041
36.27000 296.364
36.28000 294.914
36.29000 296.877
36.30000 298.877
36.31000 299.659
36.32000 299.222
36.33000 298.788
36.34000 295.247
36.35000 289.759
36.36000 284.394
36.37000 282.224
36.38000 281.460
36.39000 280.606
36.40000 278.634
36.41000 276.327
36.42000 274.261
36.43000 275.157
36.44000 276.451
36.45000 277.282
36.46000 275.996
36.47000 274.448
36.48000 275.161
36.49000 282.771
36.50000 290.860
36.51000 296.368
36.52000 295.789
36.53000 295.217
36.54000 294.440
36.55000 293.379
36.56000 292.319
36.57000 294.756
36.58000 300.336
36.59000 305.860
36.60000 302.682
36.61000 294.521
36.62000 286.486
36.63000 281.103
36.64000 276.785
36.65000 273.298
36.66000 278.717
36.67000 286.550
36.68000 293.465
36.69000 292.114
36.70000 289.680
36.71000 287.282
36.72000 285.030
36.73000 282.794
36.74000 281.762
36.75000 284.077
36.76000 286.589
36.77000 288.243
36.78000 285.968
36.79000 284.224
36.80000 283.556
36.81000 284.238
36.82000 284.925
36.83000 285.834
36.84000 286.921
36.85000 287.993
36.86000 289.559
36.87000 291.339
36.88000 292.944
36.89000 291.459
36.90000 288.846
36.91000 286.868
36.92000 290.845
36.93000 296.287
36.94000 301.016
36.95000 297.513
36.96000 293.408
36.97000 290.691
36.98000 293.186
36.99000 296.180
37.00000 298.517
37.01000 299.194
37.02000 299.790
37.03000 300.169
37.04000 296.081
37.05000 293.056
37.06000 293.392
37.07000 297.535
37.08000 301.650
37.09000 300.496
37.10000 295.483
37.11000 290.567
37.12000 290.517
37.13000 292.771
37.14000 294.689
37.15000 291.640
37.16000 286.936
37.17000 283.305
37.18000 288.523
37.19000 295.710
37.20000 301.853
37.21000 297.495
37.22000 292.564
37.23000 288.743
37.24000 288.702
37.25000 288.975
37.26000 289.607
37.27000 291.068
37.28000 292.562
37.29000 293.476
37.30000 294.059
37.31000 294.474
37.32000 294.193
37.33000 293.205
37.34000 292.202
37.35000 289.819
37.36000 286.518
37.37000 283.301
37.38000 285.626
37.39000 290.212
37.40000 294.471
37.41000 294.591
37.42000 293.457
37.43000 292.841
37.44000 296.013
37.45000 299.945
37.46000 303.246
37.47000 304.309
37.48000 304.960
37.49000 304.569
37.50000 300.951
37.51000 297.103
37.52000 291.134
37.53000 280.709
37.54000 270.143
37.55000 263.939
37.56000 280.932
37.57000 293.022
37.58000 297.501
37.59000 295.024
37.60000 292.584
37.61000 292.565
37.62000 294.004
37.63000 295.398
37.64000 286.701
37.65000 274.587
37.66000 264.008
37.67000 270.281
37.68000 281.192
37.69000 290.548
37.70000 289.770
37.71000 287.161
37.72000 285.012
37.73000 289.849
37.74000 294.469
37.75000 296.809
37.76000 292.719
37.77000 288.240
37.78000 286.221
37.79000 288.909
37.80000 291.712
37.81000 293.287
37.82000 272.131
37.83000 257.430
37.84000 257.596
37.85000 270.002
37.86000 282.216
37.87000 285.408
37.88000 283.659
37.89000 281.978
37.90000 279.286
37.91000 276.412
37.92000 274.079
37.93000 276.924
37.94000 281.062
37.95000 285.354
37.96000 290.543
37.97000 295.877
37.98000 300.182
37.99000 288.959
38.00000 278.606
38.01000 272.175
38.02000 275.824
38.03000 279.981
38.04000 284.871
38.05000 291.036
38.06000 297.225
38.07000 300.540
38.08000 290.171
38.09000 283.138
38.10000 286.507
38.11000 297.614
38.12000 308.322
38.13000 304.835
38.14000 294.271
38.15000 284.202
38.16000 290.224
38.17000 300.850
38.18000 309.817
38.19000 304.814
38.20000 296.652
38.21000 289.533
38.22000 287.882
38.23000 287.023
38.24000 286.345
38.25000 281.150
38.26000 276.673
38.27000 275.030
38.28000 280.021
38.29000 285.286
38.30000 291.605
38.31000 299.593
38.32000 307.601
38.33000 311.676
38.34000 308.455
38.35000 306.343
38.36000 309.443
38.37000 316.055
38.38000 322.589
38.39000 326.947
38.40000 330.318
38.41000 333.502
38.42000 343.247
38.43000 354.041
38.44000 363.534
38.45000 363.315
38.46000 361.113
38.47000 362.488
38.48000 380.770
38.49000 401.227
38.50000 417.011
38.51000 433.049
38.52000 445.773
38.53000 457.223
38.54000 465.951
38.55000 474.589
38.56000 493.966
38.57000 528.747
38.58000 563.642
38.59000 593.504
38.60000 618.673
38.61000 643.645
38.62000 654.875
38.63000 657.698
38.64000 661.177
38.65000 679.425
38.66000 703.782
38.67000 726.553
38.68000 751.939
38.69000 775.648
38.70000 797.114
38.71000 803.688
38.72000 807.524
38.73000 812.604
38.74000 823.003
38.75000 834.005
38.76000 842.287
38.77000 820.230
38.78000 801.500
38.79000 783.453
38.80000 766.733
38.81000 750.047
38.82000 732.643
38.83000 714.306
38.84000 695.984
38.85000 684.203
38.86000 677.916
38.87000 671.334
38.88000 650.142
38.89000 620.826
38.90000 591.492
38.91000 561.812
38.92000 532.002
38.93000 504.440
38.94000 487.943
38.95000 475.649
38.96000 462.013
38.97000 440.403
38.98000 417.478
38.99000 396.402
39.00000 382.488
39.01000 369.290
39.02000 359.616
39.03000 356.608
39.04000 354.553
39.05000 349.255
39.06000 338.223
39.07000 327.083
39.08000 317.171
39.09000 308.701
39.10000 300.255
39.11000 294.185
39.12000 289.941
39.13000 285.846
39.14000 287.306
39.15000 291.579
39.16000 295.455
39.17000 293.145
39.18000 288.711
39.19000 284.661
39.20000 280.310
39.21000 276.385
39.22000 273.871
39.23000 278.882
39.24000 285.003
39.25000 288.933
39.26000 285.160
39.27000 280.717
39.28000 277.552
39.29000 273.420
39.30000 270.240
39.31000 268.727
39.32000 269.895
39.33000 271.099
39.34000 269.445
39.35000 264.778
39.36000 260.135
39.37000 260.499
39.38000 264.247
39.39000 267.827
39.40000 266.543
39.41000 263.018
39.42000 259.529
39.43000 256.529
39.44000 253.682
39.45000 251.115
39.46000 253.790
39.47000 257.095
39.48000 260.150
39.49000 262.004
39.50000 263.701
39.51000 264.822
39.52000 264.102
39.53000 263.245
39.54000 262.652
39.55000 266.145
39.56000 268.877
39.57000 272.417
39.58000 277.133
39.59000 281.858
39.60000 279.018
39.61000 269.022
39.62000 259.107
39.63000 258.338
39.64000 263.162
39.65000 267.787
39.66000 267.790
39.67000 265.852
39.68000 264.010
39.69000 263.274
39.70000 262.853
39.71000 262.478
39.72000 258.953
39.73000 255.383
39.74000 252.598
39.75000 253.227
39.76000 254.251
39.77000 255.033
39.78000 255.110
39.79000 255.143
39.80000 255.165
39.81000 259.027
39.82000 261.967
39.83000 265.638
39.84000 270.273
39.85000 274.905
39.86000 274.612
39.87000 270.125
39.88000 265.693
39.89000 262.322
39.90000 259.620
39.91000 257.222
39.92000 260.638
39.93000 266.280
39.94000 271.147
39.95000 268.284
39.96000 263.429
39.97000 259.175
39.98000 257.875
39.99000 257.185
40.00000 257.273
40.01000 260.418
40.02000 263.876
40.03000 265.833
40.04000 263.816
40.05000 261.585
40.06000 260.143
40.07000 265.814
40.08000 270.065
40.09000 269.762
40.10000 264.030
40.11000 258.303
40.12000 255.936
40.13000 256.153
40.14000 256.365
40.15000 256.006
40.16000 255.375
40.17000 254.700
40.18000 253.321
40.19000 251.697
40.20000 249.984
40.21000 247.495
40.22000 244.825
40.23000 242.524
40.24000 244.977
40.25000 247.663
40.26000 250.154
40.27000 251.951
40.28000 253.687
40.29000 254.058
40.30000 251.138
40.31000 248.073
40.32000 246.162
40.33000 248.228
40.34000 249.758
40.35000 250.462
40.36000 250.282
40.37000 250.116
40.38000 251.935
40.39000 255.135
40.40000 258.263
40.41000 261.421
40.42000 264.462
40.43000 266.930
40.44000 261.563
40.45000 253.711
40.46000 246.549
40.47000 244.727
40.48000 244.032
40.49000 243.443
40.50000 240.622
40.51000 238.008
40.52000 235.724
40.53000 234.513
40.54000 233.383
40.55000 235.526
40.56000 244.862
40.57000 254.454
40.58000 260.201
40.59000 244.894
40.60000 233.887
40.61000 233.378
40.62000 242.975
40.63000 252.487
40.64000 255.195
40.65000 253.611
40.66000 252.072
40.67000 250.515
40.68000 249.029
40.69000 247.830
40.70000 250.007
40.71000 253.158
40.72000 255.115
40.73000 248.849
40.74000 241.018
40.75000 234.506
40.76000 240.649
40.77000 246.973
40.78000 251.493
40.79000 250.682
40.80000 249.521
40.81000 247.625
40.82000 244.258
40.83000 240.849
40.84000 238.892
40.85000 244.342
40.86000 248.178
40.87000 250.904
40.88000 252.669
40.89000 254.383
40.90000 253.339
40.91000 250.712
40.92000 248.178
40.93000 244.850
40.94000 241.428
40.95000 238.681
40.96000 242.819
40.97000 248.760
40.98000 253.616
40.99000 251.795
41.00000 248.831
41.01000 246.415
41.02000 246.640
41.03000 247.049
41.04000 246.934
41.05000 245.410
41.06000 243.809
41.07000 243.075
41.08000 243.921
41.09000 244.800
41.10000 245.283
41.11000 249.202
41.12000 251.892
41.13000 251.511
41.14000 248.732
41.15000 245.968
41.16000 243.855
41.17000 242.080
41.18000 240.382
41.19000 238.494
41.20000 236.671
41.21000 234.921
41.22000 233.810
41.23000 232.850
41.24000 232.511
41.25000 235.594
41.26000 239.201
41.27000 242.080
41.28000 242.142
41.29000 241.985
41.30000 243.640
41.31000 249.734
41.32000 256.030
41.33000 256.694
41.34000 248.024
41.35000 239.215
41.36000 234.615
41.37000 238.498
41.38000 241.110
41.39000 241.464
41.40000 240.221
41.41000 238.886
41.42000 234.682
41.43000 229.115
41.44000 223.833
41.45000 229.067
41.46000 237.016
41.47000 243.545
41.48000 238.847
41.49000 231.739
41.50000 226.135
41.51000 228.002
41.52000 230.886
41.53000 233.138
41.54000 235.366
41.55000 237.141
41.56000 236.577
41.57000 230.791
41.58000 224.812
41.59000 221.803
41.60000 223.265
41.61000 224.771
41.62000 227.093
41.63000 230.212
41.64000 233.309
41.65000 234.409
41.66000 234.230
41.67000 233.896
41.68000 229.713
41.69000 223.865
41.70000 218.370
41.71000 221.971
41.72000 227.687
41.73000 232.941
41.74000 234.949
41.75000 236.328
41.76000 236.769
41.77000 232.998
41.78000 228.718
41.79000 225.457
41.80000 232.747
41.81000 239.046
41.82000 241.424
41.83000 235.833
41.84000 230.010
41.85000 228.039
41.86000 231.318
41.87000 234.625
41.88000 238.105
41.89000 241.731
41.90000 245.322
41.91000 246.849
41.92000 247.174
41.93000 247.247
41.94000 242.188
41.95000 235.105
41.96000 228.521
41.97000 229.547
41.98000 232.300
41.99000 234.914
42.00000 236.657
42.01000 238.248
42.02000 239.843
42.03000 241.452
42.04000 243.063
42.05000 244.259
42.06000 240.982
42.07000 238.238
42.08000 236.427
42.09000 236.344
42.10000 236.299
42.11000 234.187
42.12000 229.528
42.13000 224.870
42.14000 226.791
42.15000 233.901
42.16000 240.921
42.17000 244.139
42.18000 245.342
42.19000 246.529
42.20000 247.447
42.21000 248.268
42.22000 249.022
42.23000 238.314
42.24000 226.286
42.25000 217.106
42.26000 223.923
42.27000 233.233
42.28000 239.175
42.29000 232.707
42.30000 225.086
42.31000 219.579
42.32000 224.213
42.33000 228.134
42.34000 229.470
42.35000 226.454
42.36000 223.368
42.37000 223.101
42.38000 225.964
42.39000 228.818
42.40000 230.934
42.41000 232.505
42.42000 233.918
42.43000 230.148
42.44000 223.881
42.45000 218.078
42.46000 218.951
42.47000 222.006
42.48000 224.780
42.49000 218.003
42.50000 210.182
42.51000 205.674
42.52000 217.916
42.53000 232.486
42.54000 242.588
42.55000 237.741
42.56000 231.690
42.57000 227.444
42.58000 233.924
42.59000 239.140
42.60000 238.726
42.61000 229.707
42.62000 220.596
42.63000 216.322
42.64000 216.870
42.65000 217.415
42.66000 217.868
42.67000 218.255
42.68000 218.760
42.69000 222.278
42.70000 227.120
42.71000 231.471
42.72000 229.771
42.73000 226.273
42.74000 223.140
42.75000 223.337
42.76000 224.082
42.77000 224.997
42.78000 226.693
42.79000 228.486
42.80000 229.259
42.81000 226.929
42.82000 224.385
42.83000 222.655
42.84000 226.051
42.85000 228.703
42.86000 228.339
42.87000 223.796
42.88000 219.229
42.89000 217.985
42.90000 219.717
42.91000 221.432
42.92000 221.426
42.93000 220.425
42.94000 219.567
42.95000 221.700
42.96000 225.029
42.97000 228.090
42.98000 228.279
42.99000 227.692
43.00000 227.173
43.01000 224.523
43.02000 221.911
43.03000 221.280
43.04000 228.822
43.05000 237.253
43.06000 242.166
43.07000 237.329
43.08000 231.922
43.09000 228.366
43.10000 226.000
43.11000 224.279
43.12000 224.821
43.13000 228.200
43.14000 231.567
43.15000 227.654
43.16000 217.865
43.17000 208.216
43.18000 210.597
43.19000 219.190
43.20000 227.268
43.21000 226.342
43.22000 222.135
43.23000 218.334
43.24000 218.336
43.25000 219.268
43.26000 220.079
43.27000 222.747
43.28000 225.273
43.29000 225.713
43.30000 218.346
43.31000 210.236
43.32000 205.345
43.33000 208.583
43.34000 212.216
43.35000 214.523
43.36000 215.035
43.37000 215.384
43.38000 219.176
43.39000 226.855
43.40000 234.502
43.41000 236.115
43.42000 233.325
43.43000 230.589
43.44000 228.622
43.45000 227.090
43.46000 225.683
43.47000 226.106
43.48000 227.137
43.49000 228.193
43.50000 229.445
43.51000 230.741
43.52000 231.848
43.53000 224.065
43.54000 216.447
43.55000 210.517
43.56000 210.325
43.57000 210.607
43.58000 211.962
43.59000 215.785
43.60000 219.706
43.61000 222.102
43.62000 223.467
43.63000 224.434
43.64000 223.433
43.65000 220.432
43.66000 217.446
43.67000 215.943
43.68000 215.421
43.69000 214.911
43.70000 213.672
43.71000 212.178
43.72000 210.602
43.73000 207.998
43.74000 205.085
43.75000 202.973
43.76000 206.709
43.77000 211.616
43.78000 215.734
43.79000 215.863
43.80000 215.554
43.81000 215.104
43.82000 214.220
43.83000 213.305
43.84000 214.808
43.85000 221.375
43.86000 228.103
43.87000 232.047
43.88000 227.824
43.89000 224.809
43.90000 223.111
43.91000 222.611
43.92000 222.124
43.93000 222.448
43.94000 223.259
43.95000 224.044
43.96000 221.563
43.97000 217.963
43.98000 214.266
43.99000 209.511
44.00000 204.465
44.01000 200.826
44.02000 206.326
44.03000 213.473
44.04000 219.356
44.05000 216.576
44.06000 213.500
44.07000 211.483
44.08000 212.447
44.09000 213.590
44.10000 214.026
44.11000 213.112
44.12000 212.166
44.13000 211.635
44.14000 204.971
44.15000 200.354
44.16000 203.559
44.17000 213.183
44.18000 222.616
44.19000 223.144
44.20000 218.810
44.21000 214.644
44.22000 214.649
44.23000 216.099
44.24000 217.194
44.25000 214.913
44.26000 211.791
44.27000 209.079
44.28000 208.751
44.29000 208.808
44.30000 208.854
44.31000 215.972
44.32000 222.313
44.33000 225.145
44.34000 218.987
44.35000 212.378
44.36000 209.718
44.37000 213.910
44.38000 218.224
44.39000 220.532
44.40000 212.351
44.41000 206.798
44.42000 207.763
44.43000 213.563
44.44000 219.139
44.45000 216.811
44.46000 210.556
44.47000 204.595
44.48000 203.976
44.49000 205.072
44.50000 206.653
44.51000 212.300
44.52000 218.864
44.53000 224.341
44.54000 224.133
44.55000 223.105
44.56000 222.293
44.57000 217.923
44.58000 214.176
44.59000 212.829
44.60000 217.087
44.61000 221.575
44.62000 224.078
44.63000 223.451
44.64000 222.785
44.65000 222.447
44.66000 216.321
44.67000 212.294
44.68000 216.622
44.69000 226.566
44.70000 236.126
44.71000 235.069
44.72000 229.205
44.73000 223.669
44.74000 219.928
44.75000 217.001
44.76000 214.426
44.77000 214.470
44.78000 215.045
44.79000 215.453
44.80000 215.068
44.81000 214.581
44.82000 214.206
44.83000 225.124
44.84000 234.423
44.85000 239.123
44.86000 234.039
44.87000 228.633
44.88000 225.936
44.89000 227.113
44.90000 228.320
44.91000 232.799
44.92000 240.306
44.93000 247.756
44.94000 251.232
44.95000 252.285
44.96000 253.271
44.97000 252.772
44.98000 251.660
44.99000 250.621
45.00000 249.005
45.01000 247.392
45.02000 246.291
45.03000 248.576
45.04000 251.481
45.05000 253.505
45.06000 251.771
45.07000 249.612
45.08000 247.988
45.09000 255.108
45.10000 261.098
45.11000 266.211
45.12000 269.623
45.13000 272.992
45.14000 271.521
45.15000 263.785
45.16000 256.033
45.17000 252.764
45.18000 253.235
45.19000 253.797
45.20000 258.834
45.21000 266.353
45.22000 273.188
45.23000 267.381
45.24000 256.824
45.25000 247.066
45.26000 242.074
45.27000 238.676
45.28000 236.519
45.29000 241.713
45.30000 248.117
45.31000 253.249
45.32000 253.471
45.33000 253.205
45.34000 253.011
45.35000 252.563
45.36000 252.207
45.37000 253.635
45.38000 258.210
45.39000 262.844
45.40000 262.729
45.41000 257.065
45.42000 251.408
45.43000 253.188
45.44000 260.522
45.45000 267.528
45.46000 262.438
45.47000 251.243
45.48000 241.002
45.49000 245.589
45.50000 255.249
45.51000 264.070
45.52000 265.185
45.53000 264.607
45.54000 263.989
45.55000 263.154
45.56000 262.288
45.57000 260.580
45.58000 255.920
45.59000 251.005
45.60000 247.505
45.61000 247.235
45.62000 247.133
45.63000 247.590
45.64000 248.943
45.65000 250.308
45.66000 248.893
45.67000 244.556
45.68000 240.242
45.69000 241.007
45.70000 245.189
45.71000 249.077
45.72000 244.522
45.73000 236.088
45.74000 228.351
45.75000 229.852
45.76000 234.229
45.77000 238.175
45.78000 230.780
45.79000 222.229
45.80000 215.571
45.81000 217.985
45.82000 221.585
45.83000 225.729
45.84000 231.607
45.85000 237.613
45.86000 241.762
45.87000 235.157
45.88000 229.916
45.89000 226.415
45.90000 225.442
45.91000 224.491
45.92000 224.474
45.93000 225.337
45.94000 226.194
45.95000 226.138
45.96000 225.528
45.97000 225.091
45.98000 228.653
45.99000 233.888
46.00000 238.316
46.01000 233.530
46.02000 226.135
46.03000 219.562
46.04000 221.281
46.05000 224.113
46.06000 226.109
46.07000 224.483
46.08000 222.438
46.09000 220.061
46.10000 216.723
46.11000 213.324
46.12000 211.051
46.13000 204.715
46.14000 199.937
46.15000 198.751
46.16000 202.291
46.17000 205.849
46.18000 206.234
46.19000 203.927
46.20000 201.649
46.21000 199.113
46.22000 196.500
46.23000 194.149
46.24000 196.786
46.25000 201.325
46.26000 205.689
46.27000 208.311
46.28000 210.485
46.29000 212.388
46.30000 211.273
46.31000 209.884
46.32000 208.259
46.33000 205.715
46.34000 203.077
46.35000 199.866
46.36000 195.141
46.37000 190.334
46.38000 187.229
46.39000 193.430
46.40000 198.098
46.41000 201.193
46.42000 202.418
46.43000 203.639
46.44000 204.810
46.45000 205.944
46.46000 207.058
46.47000 205.798
46.48000 203.404
46.49000 201.079
46.50000 199.849
46.51000 199.001
46.52000 198.695
46.53000 203.127
46.54000 208.661
46.55000 213.429
46.56000 210.491
46.57000 207.024
46.58000 203.943
46.59000 202.235
46.60000 200.649
46.61000 197.976
46.62000 192.690
46.63000 187.288
46.64000 183.926
46.65000 193.628
46.66000 200.749
46.67000 203.795
46.68000 202.482
46.69000 201.170
46.70000 200.166
46.71000 199.375
46.72000 198.601
46.73000 198.747
46.74000 199.299
46.75000 199.680
46.76000 197.757
46.77000 195.105
46.78000 192.573
46.79000 190.967
46.80000 189.555
46.81000 188.360
46.82000 191.404
46.83000 194.425
46.84000 197.442
46.85000 200.442
46.86000 203.441
46.87000 206.007
46.88000 207.623
46.89000 209.205
46.90000 210.152
46.91000 200.813
46.92000 194.118
46.93000 189.038
46.94000 185.509
46.95000 182.032
46.96000 182.560
46.97000 185.609
46.98000 188.571
46.99000 191.914
47.00000 195.242
47.01000 198.166
47.02000 196.360
47.03000 193.194
47.04000 190.970
47.05000 195.225
47.06000 200.707
47.07000 205.264
47.08000 199.818
47.09000 194.335
47.10000 189.187
47.11000 185.021
47.12000 180.920
47.13000 180.664
47.14000 188.084
47.15000 195.717
47.16000 200.094
47.17000 195.469
47.18000 192.204
47.19000 188.806
47.20000 185.293
47.21000 181.807
47.22000 179.825
47.23000 178.703
47.24000 177.620
47.25000 181.765
47.26000 187.569
47.27000 192.659
47.28000 190.476
47.29000 186.395
47.30000 182.868
47.31000 182.740
47.32000 183.193
47.33000 183.561
47.34000 180.015
47.35000 176.785
47.36000 175.798
47.37000 180.828
47.38000 186.188
47.39000 190.355
47.40000 192.355
47.41000 194.310
47.42000 195.381
47.43000 189.409
47.44000 185.304
47.45000 184.212
47.46000 185.465
47.47000 186.655
47.48000 185.261
47.49000 182.523
47.50000 179.903
47.51000 182.948
47.52000 187.647
47.53000 192.026
47.54000 193.562
47.55000 194.425
47.56000 195.105
47.57000 194.781
47.58000 194.304
47.59000 193.923
47.60000 190.092
47.61000 186.748
47.62000 183.900
47.63000 182.265
47.64000 180.685
47.65000 180.438
47.66000 182.395
47.67000 184.384
47.68000 185.421
47.69000 178.771
47.70000 174.321
47.71000 176.344
47.72000 182.926
47.73000 189.278
47.74000 188.455
47.75000 184.234
47.76000 180.231
47.77000 184.357
47.78000 190.568
47.79000 195.771
47.80000 193.032
47.81000 188.595
47.82000 184.912
47.83000 184.964
47.84000 185.524
47.85000 185.960
47.86000 188.502
47.87000 190.659
47.88000 192.013
47.89000 191.582
47.90000 191.085
47.91000 189.459
47.92000 186.140
47.93000 182.805
47.94000 182.571
47.95000 185.367
47.96000 188.133
47.97000 188.385
47.98000 187.029
47.99000 185.625
48.00000 183.021
48.01000 179.900
48.02000 176.968
48.03000 182.509
48.04000 189.820
48.05000 195.549
48.06000 190.209
48.07000 182.733
48.08000 177.316
48.09000 181.106
48.10000 186.005
48.11000 189.734
48.12000 182.820
48.13000 176.817
48.14000 173.706
48.15000 176.456
48.16000 179.375
48.17000 182.116
48.18000 184.613
48.19000 187.108
48.20000 184.636
48.21000 177.814
48.22000 171.121
48.23000 171.829
48.24000 176.835
48.25000 181.687
48.26000 183.444
48.27000 183.983
48.28000 184.485
48.29000 182.969
48.30000 181.119
48.31000 179.217
48.32000 176.990
48.33000 174.706
48.34000 173.434
48.35000 176.256
48.36000 179.511
48.37000 181.927
48.38000 178.341
48.39000 175.291
48.40000 173.875
48.41000 175.475
48.42000 177.142
48.43000 177.819
48.44000 177.282
48.45000 176.743
48.46000 180.667
48.47000 188.087
48.48000 195.379
48.49000 197.264
48.50000 196.293
48.51000 195.095
48.52000 190.049
48.53000 183.625
48.54000 177.723
48.55000 181.355
48.56000 186.641
48.57000 191.668
48.58000 195.244
48.59000 198.595
48.60000 199.723
48.61000 192.687
48.62000 184.895
48.63000 179.269
48.64000 176.154
48.65000 173.855
48.66000 172.383
48.67000 172.300
48.68000 172.238
48.69000 172.928
48.70000 174.451
48.71000 175.968
48.72000 179.752
48.73000 185.108
48.74000 190.281
48.75000 189.565
48.76000 186.016
48.77000 182.417
48.78000 178.102
48.79000 173.553
48.80000 169.426
48.81000 167.087
48.82000 165.366
48.83000 164.416
48.84000 167.352
48.85000 170.825
48.86000 174.261
48.87000 177.575
48.88000 180.880
48.89000 183.196
48.90000 179.646
48.91000 176.791
48.92000 175.914
48.93000 178.051
48.94000 180.219
48.95000 180.564
48.96000 179.097
48.97000 177.640
48.98000 178.801
48.99000 181.618
49.00000 184.206
49.01000 180.902
49.02000 175.018
49.03000 169.332
49.04000 166.081
49.05000 163.552
49.06000 161.288
49.07000 166.442
49.08000 172.208
49.09000 177.641
49.10000 181.554
49.11000 185.280
49.12000 187.620
49.13000 185.752
49.14000 183.595
49.15000 182.129
49.16000 178.289
49.17000 175.369
49.18000 172.386
49.19000 169.315
49.20000 166.247
49.21000 167.146
49.22000 171.586
49.23000 175.980
49.24000 179.872
49.25000 183.388
49.26000 186.694
49.27000 185.593
49.28000 182.733
49.29000 179.679
49.30000 174.566
49.31000 168.898
49.32000 163.898
49.33000 169.829
49.34000 176.607
49.35000 181.025
49.36000 175.734
49.37000 169.393
49.38000 165.640
49.39000 169.043
49.40000 172.861
49.41000 175.370
49.42000 175.136
49.43000 174.917
49.44000 173.373
49.45000 170.174
49.46000 166.973
49.47000 165.114
49.48000 164.334
49.49000 163.566
49.50000 165.355
49.51000 168.423
49.52000 171.396
49.53000 172.730
49.54000 173.467
49.55000 174.247
49.56000 175.419
49.57000 176.688
49.58000 177.790
49.59000 173.664
49.60000 169.442
49.61000 165.760
49.62000 164.092
49.63000 162.613
49.64000 163.063
49.65000 168.363
49.66000 173.898
49.67000 177.408
49.68000 173.444
49.69000 170.476
49.70000 168.361
49.71000 167.206
49.72000 166.055
49.73000 165.405
49.74000 165.121
49.75000 164.842
49.76000 165.410
49.77000 166.354
49.78000 167.392
49.79000 169.811
49.80000 172.687
49.81000 175.358
49.82000 176.355
49.83000 176.982
49.84000 177.518
49.85000 174.079
49.86000 170.710
49.87000 168.238
49.88000 168.804
49.89000 169.619
49.90000 169.990
49.91000 169.342
49.92000 168.654
49.93000 168.235
49.94000 169.477
49.95000 170.378
49.96000 171.488
49.97000 172.808
49.98000 174.140
49.99000 176.711
50.00000 180.099
50.01000 183.401
50.02000 180.033
50.03000 173.990
50.04000 168.353
50.05000 167.829
50.06000 168.846
50.07000 169.846
50.08000 170.729
50.09000 171.589
50.10000 172.310
50.11000 172.909
50.12000 173.394
50.13000 173.693
50.14000 173.415
50.15000 173.097
50.16000 173.030
50.17000 173.486
50.18000 173.958
50.19000 174.235
50.20000 173.080
50.21000 172.260
50.22000 170.103
50.23000 166.735
50.24000 163.488
50.25000 168.110
50.26000 177.444
50.27000 186.480
50.28000 184.622
50.29000 178.693
50.30000 172.956
50.31000 169.303
50.32000 166.221
50.33000 164.192
50.34000 168.984
50.35000 175.001
50.36000 179.952
50.37000 176.258
50.38000 172.435
50.39000 169.835
50.40000 170.665
50.41000 171.700
50.42000 174.097
50.43000 179.083
50.44000 184.131
50.45000 186.959
50.46000 182.302
50.47000 179.066
50.48000 180.182
50.49000 184.857
50.50000 189.397
50.51000 187.658
50.52000 182.501
50.53000 177.547
50.54000 179.186
50.55000 183.000
50.56000 186.380
50.57000 185.649
50.58000 183.898
50.59000 182.914
50.60000 186.372
50.61000 190.546
50.62000 193.910
50.63000 190.733
50.64000 187.638
50.65000 186.531
50.66000 190.500
50.67000 194.724
50.68000 196.734
50.69000 194.917
50.70000 193.032
50.71000 192.025
50.72000 196.747
50.73000 199.946
50.74000 198.781
50.75000 194.389
50.76000 190.082
50.77000 188.752
50.78000 188.899
50.79000 189.039
50.80000 194.245
50.81000 200.646
50.82000 205.710
50.83000 199.586
50.84000 190.950
50.85000 183.894
50.86000 185.075
50.87000 187.439
50.88000 189.304
50.89000 187.510
50.90000 185.824
50.91000 184.499
50.92000 184.014
50.93000 183.564
50.94000 181.717
50.95000 177.675
50.96000 173.606
50.97000 171.542
50.98000 170.215
50.99000 169.353
51.00000 171.231
51.01000 174.945
51.02000 178.592
51.03000 180.403
51.04000 181.385
51.05000 182.311
51.06000 180.195
51.07000 177.401
51.08000 174.802
51.09000 173.655
51.10000 172.803
51.11000 172.155
51.12000 172.468
51.13000 172.904
51.14000 173.240
51.15000 169.249
51.16000 165.840
51.17000 164.422
51.18000 167.223
51.19000 170.161
51.20000 170.785
51.21000 168.106
51.22000 165.402
51.23000 164.231
51.24000 164.477
51.25000 164.749
51.26000 166.860
51.27000 170.089
51.28000 173.096
51.29000 171.136
51.30000 167.135
51.31000 163.397
51.32000 164.423
51.33000 166.555
51.34000 168.387
51.35000 168.248
51.36000 167.748
51.37000 167.504
51.38000 168.345
51.39000 169.308
51.40000 170.032
51.41000 171.801
51.42000 173.234
51.43000 172.514
51.44000 167.633
51.45000 162.648
51.46000 159.404
51.47000 158.408
51.48000 157.422
51.49000 156.687
51.50000 156.163
51.51000 155.695
51.52000 157.978
51.53000 161.782
51.54000 165.337
51.55000 164.303
51.56000 161.549
51.57000 159.005
51.58000 159.876
51.59000 161.430
51.60000 162.428
51.61000 160.147
51.62000 157.329
51.63000 154.831
51.64000 153.566
51.65000 152.423
51.66000 151.587
51.67000 154.892
51.68000 157.607
51.69000 160.014
51.70000 161.881
51.71000 163.737
51.72000 165.257
51.73000 166.384
51.74000 167.507
51.75000 166.644
51.76000 164.304
51.77000 162.032
51.78000 162.244
51.79000 163.706
51.80000 164.960
51.81000 163.011
51.82000 159.968
51.83000 157.190
51.84000 154.874
51.85000 152.912
51.86000 151.710
51.87000 154.533
51.88000 157.947
51.89000 159.342
51.90000 153.683
51.91000 147.418
51.92000 142.961
51.93000 154.319
51.94000 163.477
51.95000 169.041
51.96000 168.866
51.97000 168.616
51.98000 166.899
51.99000 163.647
52.00000 160.411
52.01000 158.181
52.02000 156.655
52.03000 155.217
52.04000 156.291
52.05000 158.517
52.06000 160.590
52.07000 160.650
52.08000 160.084
52.09000 159.575
52.10000 160.596
52.11000 161.769
52.12000 162.576
52.13000 161.632
52.14000 160.460
52.15000 159.065
52.16000 156.962
52.17000 154.805
52.18000 153.318
52.19000 154.807
52.20000 156.002
52.21000 155.737
52.22000 153.357
52.23000 150.961
52.24000 151.193
52.25000 153.897
52.26000 156.578
52.27000 157.302
52.28000 156.827
52.29000 156.328
52.30000 155.256
52.31000 153.945
52.32000 152.409
52.33000 148.299
52.34000 143.462
52.35000 139.165
52.36000 147.501
52.37000 156.766
52.38000 163.682
52.39000 160.457
52.40000 156.063
52.41000 152.771
52.42000 152.665
52.43000 152.760
52.44000 152.824
52.45000 152.942
52.46000 153.031
52.47000 152.976
52.48000 152.731
52.49000 152.487
52.50000 152.756
52.51000 153.459
52.52000 154.154
52.53000 156.453
52.54000 159.571
52.55000 162.276
52.56000 157.159
52.57000 149.067
52.58000 141.543
52.59000 139.652
52.60000 139.203
52.61000 138.811
52.62000 147.357
52.63000 155.962
52.64000 162.286
52.65000 159.691
52.66000 156.193
52.67000 153.936
52.68000 154.943
52.69000 156.122
52.70000 156.884
52.71000 154.298
52.72000 152.360
52.73000 153.197
52.74000 157.323
52.75000 161.441
52.76000 162.493
52.77000 161.201
52.78000 159.932
52.79000 156.892
52.80000 153.078
52.81000 149.727
52.82000 153.724
52.83000 160.267
52.84000 166.068
52.85000 165.408
52.86000 163.248
52.87000 161.389
52.88000 156.880
52.89000 152.725
52.90000 149.015
52.91000 146.883
52.92000 144.889
52.93000 144.043
52.94000 145.951
52.95000 147.979
52.96000 149.240
52.97000 154.948
52.98000 159.103
52.99000 161.091
53.00000 160.769
53.01000 160.444
53.02000 159.812
53.03000 158.967
53.04000 158.142
53.05000 157.724
53.06000 157.506
53.07000 157.163
53.08000 155.132
53.09000 152.568
53.10000 150.167
53.11000 149.025
53.12000 148.148
53.13000 147.405
53.14000 148.345
53.15000 149.318
53.16000 150.007
53.17000 149.781
53.18000 149.485
53.19000 149.539
53.20000 150.358
53.21000 151.205
53.22000 151.711
53.23000 154.481
53.24000 156.460
53.25000 156.645
53.26000 155.114
53.27000 153.596
53.28000 153.145
53.29000 153.364
53.30000 153.576
53.31000 155.859
53.32000 158.859
53.33000 161.504
53.34000 160.006
53.35000 157.319
53.36000 155.210
53.37000 157.053
53.38000 159.642
53.39000 161.793
53.40000 158.832
53.41000 155.887
53.42000 153.066
53.43000 150.608
53.44000 148.174
53.45000 146.506
53.46000 146.360
53.47000 146.257
53.48000 146.198
53.49000 150.839
53.50000 154.094
53.51000 154.464
53.52000 152.352
53.53000 150.332
53.54000 153.271
53.55000 159.036
53.56000 164.596
53.57000 161.973
53.58000 156.534
53.59000 151.589
53.60000 151.652
53.61000 153.018
53.62000 154.009
53.63000 152.710
53.64000 151.022
53.65000 149.647
53.66000 151.245
53.67000 152.801
53.68000 153.656
53.69000 152.635
53.70000 151.512
53.71000 151.088
53.72000 151.930
53.73000 152.798
53.74000 153.273
53.75000 155.238
53.76000 156.582
53.77000 155.785
53.78000 153.328
53.79000 150.915
53.80000 150.308
53.81000 150.637
53.82000 150.951
53.83000 149.912
53.84000 148.501
53.85000 147.117
53.86000 145.984
53.87000 144.909
53.88000 144.835
53.89000 150.255
53.90000 156.509
53.91000 161.495
53.92000 158.603
53.93000 155.696
53.94000 154.161
53.95000 155.971
53.96000 157.932
53.97000 157.338
53.98000 152.534
53.99000 147.668
54.00000 145.136
54.01000 143.029
54.02000 141.640
54.03000 144.874
54.04000 151.357
54.05000 157.614
54.06000 156.942
54.07000 152.997
54.08000 149.257
54.09000 145.755
54.10000 142.597
54.11000 140.566
54.12000 147.373
54.13000 156.064
54.14000 162.258
54.15000 156.120
54.16000 148.313
54.17000 142.229
54.18000 142.786
54.19000 143.643
54.20000 145.442
54.21000 149.335
54.22000 153.303
54.23000 155.414
54.24000 154.744
54.25000 154.048
54.26000 154.844
54.27000 157.092
54.28000 159.296
54.29000 157.950
54.30000 154.341
54.31000 150.911
54.32000 151.870
54.33000 154.717
54.34000 157.391
54.35000 159.605
54.36000 161.501
54.37000 162.536
54.38000 157.568
54.39000 151.445
54.40000 146.544
54.41000 147.095
54.42000 148.300
54.43000 149.216
54.44000 153.323
54.45000 156.721
54.46000 156.945
54.47000 150.753
54.48000 144.377
54.49000 142.199
54.50000 145.708
54.51000 149.246
54.52000 150.257
54.53000 149.059
54.54000 147.876
54.55000 147.616
54.56000 147.891
54.57000 148.341
54.58000 152.329
54.59000 157.706
54.60000 162.700
54.61000 159.895
54.62000 155.505
54.63000 151.834
54.64000 152.641
54.65000 154.223
54.66000 154.818
54.67000 151.433
54.68000 147.627
54.69000 144.806
54.70000 145.187
54.71000 145.624
54.72000 146.546
54.73000 148.364
54.74000 150.200
54.75000 150.426
54.76000 148.679
54.77000 146.930
54.78000 147.831
54.79000 150.809
54.80000 153.684
54.81000 152.270
54.82000 148.598
54.83000 145.023
54.84000 143.075
54.85000 141.708
54.86000 140.453
54.87000 137.922
54.88000 135.392
54.89000 134.103
54.90000 139.750
54.91000 146.469
54.92000 151.945
54.93000 152.863
54.94000 153.362
54.95000 153.721
54.96000 153.102
54.97000 152.593
54.98000 151.678
54.99000 150.084
55.00000 148.480
55.01000 149.023
55.02000 151.936
55.03000 154.839
55.04000 155.530
55.05000 154.652
55.06000 153.781
55.07000 153.158
55.08000 152.654
55.09000 152.216
55.10000 152.706
55.11000 153.498
55.12000 154.216
55.13000 155.274
55.14000 156.273
55.15000 157.011
55.16000 156.446
55.17000 155.700
55.18000 153.951
55.19000 148.862
55.20000 143.506
55.21000 139.755
55.22000 145.875
55.23000 150.786
55.24000 156.339
55.25000 162.867
55.26000 169.404
55.27000 169.052
55.28000 161.874
55.29000 154.745
55.30000 154.286
55.31000 158.084
55.32000 161.776
55.33000 162.764
55.34000 162.570
55.35000 162.423
55.36000 162.844
55.37000 163.433
55.38000 163.959
55.39000 163.711
55.40000 163.363
55.41000 163.043
55.42000 162.851
55.43000 162.674
55.44000 163.347
55.45000 166.587
55.46000 170.002
55.47000 172.320
55.48000 169.516
55.49000 167.310
55.50000 167.020
55.51000 169.369
55.52000 171.732
55.53000 171.466
55.54000 168.860
55.55000 166.281
55.56000 173.457
55.57000 186.083
55.58000 198.555
55.59000 207.802
55.60000 215.765
55.61000 223.038
55.62000 222.987
55.63000 220.970
55.64000 219.192
55.65000 221.768
55.66000 224.648
55.67000 228.156
55.68000 234.237
55.69000 240.595
55.70000 247.892
55.71000 257.776
55.72000 267.809
55.73000 274.395
55.74000 285.022
55.75000 292.908
55.76000 302.436
55.77000 314.011
55.78000 325.596
55.79000 338.364
55.80000 352.083
55.81000 365.600
55.82000 370.589
55.83000 371.006
55.84000 371.552
55.85000 374.349
55.86000 377.961
55.87000 382.485
55.88000 395.455
55.89000 410.481
55.90000 423.523
55.91000 423.981
55.92000 422.681
55.93000 421.371
55.94000 420.022
55.95000 418.669
55.96000 421.294
55.97000 433.905
55.98000 446.995
55.99000 455.286
56.00000 459.938
56.01000 463.269
56.02000 461.337
56.03000 453.500
56.04000 445.688
56.05000 442.845
56.06000 443.607
56.07000 444.354
56.08000 441.365
56.09000 436.737
56.10000 431.418
56.11000 416.003
56.12000 397.257
56.13000 380.050
56.14000 375.408
56.15000 373.535
56.16000 371.936
56.17000 364.883
56.18000 358.299
56.19000 350.554
56.20000 338.882
56.21000 326.889
56.22000 317.209
56.23000 312.819
56.24000 308.636
56.25000 306.087
56.26000 285.822
56.27000 271.197
56.28000 260.609
56.29000 254.090
56.30000 247.572
56.31000 241.116
56.32000 234.700
56.33000 228.449
56.34000 227.727
56.35000 229.378
56.36000 230.536
56.37000 225.528
56.38000 218.667
56.39000 211.780
56.40000 204.700
56.41000 197.582
56.42000 191.614
56.43000 190.780
56.44000 190.618
56.45000 189.502
56.46000 185.451
56.47000 181.194
56.48000 176.952
56.49000 172.745
56.50000 168.538
56.51000 166.078
56.52000 167.248
56.53000 168.088
56.54000 166.302
56.55000 162.141
56.56000 158.038
56.57000 157.616
56.58000 159.394
56.59000 161.113
56.60000 162.538
56.61000 163.772
56.62000 164.970
56.63000 165.767
56.64000 166.456
56.65000 166.796
56.66000 164.886
56.67000 162.574
56.68000 160.672
56.69000 160.165
56.70000 159.875
56.71000 159.168
56.72000 157.297
56.73000 155.356
56.74000 153.120
56.75000 150.323
56.76000 147.513
56.77000 145.941
56.78000 151.155
56.79000 154.769
56.80000 152.955
56.81000 146.712
56.82000 140.604
56.83000 140.624
56.84000 143.973
56.85000 147.189
56.86000 147.660
56.87000 147.154
56.88000 147.055
56.89000 150.811
56.90000 155.520
56.91000 158.802
56.92000 153.834
56.93000 147.543
56.94000 142.474
56.95000 143.175
56.96000 144.195
56.97000 144.913
56.98000 144.862
56.99000 144.773
57.00000 144.509
57.01000 143.944
57.02000 143.374
57.03000 143.070
57.04000 144.364
57.05000 145.237
57.06000 144.395
57.07000 142.290
57.08000 140.224
57.09000 139.531
57.10000 139.515
57.11000 139.500
57.12000 140.609
57.13000 141.985
57.14000 143.269
57.15000 143.791
57.16000 144.142
57.17000 144.083
57.18000 141.892
57.19000 139.396
57.20000 137.429
57.21000 138.683
57.22000 139.904
57.23000 140.806
57.24000 140.967
57.25000 141.097
57.26000 141.273
57.27000 141.518
57.28000 141.764
57.29000 141.889
57.30000 137.851
57.31000 135.158
57.32000 133.515
57.33000 132.573
57.34000 131.677
57.35000 132.040
57.36000 132.969
57.37000 133.846
57.38000 134.546
57.39000 135.138
57.40000 135.728
57.41000 136.298
57.42000 136.864
57.43000 137.163
57.44000 136.206
57.45000 135.089
57.46000 134.229
57.47000 134.759
57.48000 135.257
57.49000 136.214
57.50000 138.139
57.51000 140.096
57.52000 141.508
57.53000 142.148
57.54000 142.781
57.55000 143.898
57.56000 145.459
57.57000 146.969
57.58000 145.012
57.59000 140.954
57.60000 136.957
57.61000 134.316
57.62000 132.231
57.63000 130.284
57.64000 134.147
57.65000 139.111
57.66000 143.423
57.67000 143.453
57.68000 142.703
57.69000 142.012
57.70000 141.574
57.71000 141.164
57.72000 140.857
57.73000 143.147
57.74000 145.061
57.75000 146.019
57.76000 145.138
57.77000 144.211
57.78000 144.140
57.79000 145.170
57.80000 146.204
57.81000 146.196
57.82000 145.327
57.83000 144.413
57.84000 141.330
57.85000 137.051
57.86000 133.006
57.87000 133.235
57.88000 135.061
57.89000 136.749
57.90000 138.461
57.91000 140.003
57.92000 140.978
57.93000 138.619
57.94000 135.714
57.95000 133.558
57.96000 134.270
57.97000 135.265
57.98000 135.993
57.99000 132.348
58.00000 129.364
58.01000 129.975
58.02000 136.885
58.03000 143.911
58.04000 146.130
58.05000 142.767
58.06000 139.406
58.07000 138.296
58.08000 138.866
58.09000 139.398
58.10000 138.514
58.11000 136.921
58.12000 135.506
58.13000 136.860
58.14000 139.154
58.15000 141.248
58.16000 138.357
58.17000 134.786
58.18000 131.921
58.19000 132.780
58.20000 134.184
58.21000 135.409
58.22000 136.011
58.23000 136.560
58.24000 136.950
58.25000 134.722
58.26000 132.943
58.27000 130.485
58.28000 126.950
58.29000 123.400
58.30000 123.187
58.31000 126.459
58.32000 129.713
58.33000 131.094
58.34000 131.203
58.35000 131.327
58.36000 131.899
58.37000 132.675
58.38000 133.741
58.39000 138.592
58.40000 144.617
58.41000 150.043
58.42000 145.181
58.43000 139.061
58.44000 133.817
58.45000 132.743
58.46000 132.209
58.47000 132.324
58.48000 134.491
58.49000 136.810
58.50000 138.409
58.51000 134.035
58.52000 130.600
58.53000 129.557
58.54000 131.971
58.55000 134.412
58.56000 135.872
58.57000 136.412
58.58000 136.948
58.59000 134.068
58.60000 129.178
58.61000 124.565
58.62000 126.307
58.63000 130.693
58.64000 134.851
58.65000 136.408
58.66000 137.234
58.67000 137.968
58.68000 138.395
58.69000 138.717
58.70000 137.995
58.71000 132.779
58.72000 127.047
58.73000 124.166
58.74000 129.509
58.75000 135.368
58.76000 139.279
58.77000 131.029
58.78000 124.682
58.79000 121.619
58.80000 122.849
58.81000 124.099
58.82000 125.863
58.83000 128.061
58.84000 130.232
58.85000 130.638
58.86000 130.073
58.87000 129.447
58.88000 127.703
58.89000 125.533
58.90000 124.025
58.91000 129.047
58.92000 135.736
58.93000 141.586
58.94000 139.952
58.95000 137.485
58.96000 134.791
58.97000 131.209
58.98000 127.537
58.99000 124.126
59.00000 121.401
59.01000 118.712
59.02000 116.978
59.03000 120.988
59.04000 123.999
59.05000 125.441
59.06000 125.032
59.07000 124.633
59.08000 127.171
59.09000 131.947
59.10000 136.641
59.11000 137.749
59.12000 137.055
59.13000 136.232
59.14000 133.370
59.15000 129.805
59.16000 126.545
59.17000 125.930
59.18000 125.928
59.19000 125.926
59.20000 131.232
59.21000 136.394
59.22000 140.095
59.23000 138.623
59.24000 136.697
59.25000 135.373
59.26000 135.490
59.27000 135.669
59.28000 135.780
59.29000 129.897
59.30000 125.603
59.31000 126.502
59.32000 132.921
59.33000 139.286
59.34000 139.008
59.35000 134.150
59.36000 129.403
59.37000 129.283
59.38000 131.224
59.39000 133.192
59.40000 135.523
59.41000 137.967
59.42000 139.642
59.43000 135.414
59.44000 129.952
59.45000 125.332
59.46000 128.540
59.47000 132.091
59.48000 134.730
59.49000 134.431
59.50000 133.910
59.51000 132.771
59.52000 130.287
59.53000 127.756
59.54000 126.245
59.55000 126.871
59.56000 127.328
59.57000 127.197
59.58000 126.505
59.59000 125.864
59.60000 129.141
59.61000 134.869
59.62000 140.431
59.63000 140.751
59.64000 138.952
59.65000 137.300
59.66000 137.368
59.67000 137.927
59.68000 138.618
59.69000 140.207
59.70000 141.964
59.71000 143.423
59.72000 136.902
59.73000 130.740
59.74000 126.656
59.75000 128.658
59.76000 131.052
59.77000 132.428
59.78000 131.780
59.79000 131.077
59.80000 130.675
59.81000 131.533
59.82000 132.135
59.83000 132.084
59.84000 131.473
59.85000 130.848
59.86000 129.467
59.87000 127.655
59.88000 125.909
59.89000 126.108
59.90000 127.000
59.91000 127.663
59.92000 126.019
59.93000 123.777
59.94000 122.036
59.95000 123.347
59.96000 125.175
59.97000 126.663
59.98000 129.507
59.99000 131.944
60.00000 133.823
60.01000 134.212
60.02000 134.521
60.03000 133.365
60.04000 129.563
60.05000 125.707
60.06000 123.602
60.07000 126.594
60.08000 128.652
60.09000 129.508
60.10000 129.435
60.11000 129.348
60.12000 128.701
60.13000 127.763
60.14000 126.866
60.15000 128.995
60.16000 131.964
60.17000 134.759
60.18000 136.000
60.19000 136.877
60.20000 137.318
60.21000 135.377
60.22000 133.076
60.23000 131.242
60.24000 132.781
60.25000 134.267
60.26000 134.039
60.27000 129.652
60.28000 125.079
60.29000 123.616
60.30000 127.262
60.31000 130.983
60.32000 132.917
60.33000 134.667
60.34000 135.836
60.35000 135.212
60.36000 133.332
60.37000 131.462
60.38000 129.935
60.39000 128.568
60.40000 127.273
60.41000 126.983
60.42000 127.013
60.43000 126.816
60.44000 124.842
60.45000 122.490
60.46000 121.397
60.47000 126.499
60.48000 132.436
60.49000 137.060
60.50000 137.522
60.51000 137.634
60.52000 136.882
60.53000 134.219
60.54000 131.487
60.55000 130.946
60.56000 133.672
60.57000 136.429
60.58000 140.339
60.59000 145.366
60.60000 150.331
60.61000 150.161
60.62000 146.729
60.63000 143.284
60.64000 139.521
60.65000 135.622
60.66000 131.962
60.67000 132.284
60.68000 133.632
60.69000 135.370
60.70000 139.825
60.71000 144.800
60.72000 148.283
60.73000 145.130
60.74000 141.186
60.75000 138.187
60.76000 134.685
60.77000 131.904
60.78000 130.377
60.79000 131.375
60.80000 132.444
60.81000 132.946
60.82000 132.679
60.83000 132.408
60.84000 132.691
60.85000 133.454
60.86000 134.215
60.87000 134.809
60.88000 135.306
60.89000 135.704
60.90000 134.105
60.91000 131.725
60.92000 129.514
60.93000 127.892
60.94000 126.569
60.95000 126.309
60.96000 132.647
60.97000 140.122
60.98000 145.469
60.99000 142.250
61.00000 138.131
61.01000 135.079
61.02000 136.775
61.03000 138.297
61.04000 136.843
61.05000 129.930
61.06000 122.899
61.07000 123.336
61.08000 132.892
61.09000 142.451
61.10000 145.258
61.11000 142.765
61.12000 140.239
61.13000 136.323
61.14000 131.677
61.15000 127.271
61.16000 126.870
61.17000 127.894
61.18000 128.835
61.19000 129.684
61.20000 130.423
61.21000 130.907
61.22000 129.979
61.23000 128.834
61.24000 128.379
61.25000 130.449
61.26000 132.751
61.27000 134.410
61.28000 139.898
61.29000 144.239
61.30000 145.774
61.31000 142.630
61.32000 139.413
61.33000 135.629
61.34000 131.220
61.35000 126.828
61.36000 126.387
61.37000 128.734
61.38000 131.030
61.39000 131.708
61.40000 131.613
61.41000 131.635
61.42000 133.314
61.43000 135.531
61.44000 137.540
61.45000 136.843
61.46000 135.712
61.47000 135.597
61.48000 140.565
61.49000 146.232
61.50000 151.075
61.51000 153.185
61.52000 155.077
61.53000 156.401
61.54000 168.570
61.55000 178.078
61.56000 188.747
61.57000 201.175
61.58000 213.622
61.59000 222.456
61.60000 227.724
61.61000 232.955
61.62000 236.209
61.63000 238.155
61.64000 240.102
61.65000 242.050
61.66000 244.000
61.67000 245.917
61.68000 247.446
61.69000 248.861
61.70000 250.127
61.71000 256.226
61.72000 262.366
61.73000 267.469
61.74000 267.890
61.75000 267.740
61.76000 263.647
61.77000 247.654
61.78000 230.852
61.79000 219.458
61.80000 208.765
61.81000 200.806
61.82000 193.379
61.83000 186.684
61.84000 179.991
61.85000 171.504
61.86000 161.426
61.87000 151.453
61.88000 147.864
61.89000 148.013
61.90000 148.153
61.91000 148.103
61.92000 147.978
61.93000 147.863
61.94000 147.853
61.95000 147.872
61.96000 147.889
61.97000 144.066
61.98000 140.191
61.99000 137.646
62.00000 140.541
62.01000 144.019
62.02000 146.341
62.03000 145.487
62.04000 144.451
62.05000 143.771
62.06000 146.384
62.07000 148.361
62.08000 148.405
62.09000 146.051
62.10000 143.696
62.11000 143.127
62.12000 143.986
62.13000 144.833
62.14000 144.181
62.15000 142.773
62.16000 141.466
62.17000 141.893
62.18000 142.947
62.19000 144.003
62.20000 145.078
62.21000 146.159
62.22000 147.096
62.23000 146.007
62.24000 144.809
62.25000 143.307
62.26000 140.677
62.27000 137.942
62.28000 137.522
62.29000 142.901
62.30000 148.557
62.31000 152.135
62.32000 144.588
62.33000 138.985
62.34000 137.626
62.35000 141.016
62.36000 144.387
62.37000 144.181
62.38000 141.388
62.39000 138.651
62.40000 138.220
62.41000 138.884
62.42000 139.444
62.43000 138.503
62.44000 137.069
62.45000 135.930
62.46000 137.195
62.47000 138.988
62.48000 140.517
62.49000 143.964
62.50000 147.092
62.51000 148.672
62.52000 145.038
62.53000 140.980
62.54000 137.551
62.55000 135.558
62.56000 133.621
62.57000 132.442
62.58000 138.600
62.59000 143.056
62.60000 142.648
62.61000 137.351
62.62000 132.114
62.63000 132.592
62.64000 136.818
62.65000 140.934
62.66000 139.499
62.67000 135.789
62.68000 132.594
62.69000 135.807
62.70000 140.939
62.71000 145.388
62.72000 144.917
62.73000 143.471
62.74000 142.259
62.75000 144.863
62.76000 147.423
62.77000 148.486
62.78000 144.963
62.79000 141.120
62.80000 138.520
62.81000 138.500
62.82000 138.560
62.83000 138.595
62.84000 144.168
62.85000 148.113
62.86000 149.089
62.87000 147.387
62.88000 145.725
62.89000 146.560
62.90000 148.881
62.91000 151.127
62.92000 147.285
62.93000 141.339
62.94000 135.929
62.95000 136.303
62.96000 138.250
62.97000 139.563
62.98000 136.804
62.99000 133.317
63.00000 130.452
63.01000 135.730
63.02000 140.800
63.03000 144.267
63.04000 143.263
63.05000 141.994
63.06000 141.541
63.07000 142.629
63.08000 143.753
63.09000 144.381
63.10000 143.319
63.11000 142.582
63.12000 142.867
63.13000 143.984
63.14000 145.049
63.15000 143.790
63.16000 141.274
63.17000 138.858
63.18000 140.668
63.19000 143.813
63.20000 146.644
63.21000 146.512
63.22000 145.649
63.23000 145.568
63.24000 149.991
63.25000 155.134
63.26000 159.275
63.27000 150.762
63.28000 142.868
63.29000 138.194
63.30000 141.704
63.31000 145.617
63.32000 147.926
63.33000 147.476
63.34000 146.979
63.35000 146.714
63.36000 145.526
63.37000 144.734
63.38000 147.113
63.39000 151.824
63.40000 156.420
63.41000 157.084
63.42000 155.808
63.43000 154.594
63.44000 152.838
63.45000 151.044
63.46000 149.593
63.47000 150.992
63.48000 153.027
63.49000 154.427
63.50000 152.542
63.51000 150.187
63.52000 148.332
63.53000 144.989
63.54000 142.211
63.55000 140.797
63.56000 142.543
63.57000 144.417
63.58000 146.242
63.59000 147.990
63.60000 149.737
63.61000 150.621
63.62000 150.677
63.63000 150.725
63.64000 151.766
63.65000 153.469
63.66000 155.162
63.67000 156.575
63.68000 157.864
63.69000 159.079
63.70000 158.621
63.71000 157.735
63.72000 156.802
63.73000 155.529
63.74000 154.187
63.75000 153.001
63.76000 152.541
63.77000 152.172
63.78000 151.889
63.79000 158.352
63.80000 163.849
63.81000 165.890
63.82000 160.643
63.83000 155.162
63.84000 152.853
63.85000 155.039
63.86000 157.258
63.87000 156.691
63.88000 153.569
63.89000 150.446
63.90000 147.255
63.91000 144.024
63.92000 141.012
63.93000 142.847
63.94000 146.664
63.95000 150.228
63.96000 153.551
63.97000 156.505
63.98000 159.296
63.99000 161.029
64.00000 162.570
64.01000 164.199
64.02000 166.205
64.03000 168.252
64.04000 169.788
64.05000 164.694
64.06000 160.400
64.07000 157.375
64.08000 156.786
64.09000 156.257
64.10000 154.425
64.11000 150.919
64.12000 147.411
64.13000 147.894
64.14000 151.664
64.15000 155.448
64.16000 159.877
64.17000 164.661
64.18000 169.139
64.19000 168.071
64.20000 164.936
64.21000 162.042
64.22000 161.320
64.23000 161.160
64.24000 161.451
64.25000 164.383
64.26000 167.744
64.27000 169.436
64.28000 164.740
64.29000 159.417
64.30000 155.528
64.31000 159.508
64.32000 162.884
64.33000 163.346
64.34000 158.713
64.35000 153.987
64.36000 154.686
64.37000 161.663
64.38000 168.627
64.39000 168.483
64.40000 163.068
64.41000 157.793
64.42000 157.524
64.43000 159.760
64.44000 161.997
64.45000 164.235
64.46000 166.473
64.47000 168.516
64.48000 168.540
64.49000 168.155
64.50000 168.471
64.51000 172.475
64.52000 177.016
64.53000 179.776
64.54000 176.350
64.55000 172.396
64.56000 169.588
64.57000 169.351
64.58000 169.252
64.59000 168.496
64.60000 166.698
64.61000 164.887
64.62000 164.229
64.63000 164.772
64.64000 165.311
64.65000 167.450
64.66000 170.630
64.67000 173.775
64.68000 175.952
64.69000 177.687
64.70000 179.113
64.71000 176.503
64.72000 172.646
64.73000 169.173
64.74000 174.686
64.75000 181.134
64.76000 185.827
64.77000 182.189
64.78000 177.475
64.79000 173.558
64.80000 172.164
64.81000 170.954
64.82000 170.121
64.83000 174.025
64.84000 177.075
64.85000 177.252
64.86000 173.290
64.87000 169.297
64.88000 170.508
64.89000 176.581
64.90000 182.601
64.91000 182.251
64.92000 178.068
64.93000 174.187
64.94000 177.144
64.95000 182.939
64.96000 188.224
64.97000 187.743
64.98000 185.645
64.99000 183.782
65.00000 185.616
65.01000 187.797
65.02000 189.452
65.03000 188.847
65.04000 187.984
65.05000 187.108
65.06000 186.195
65.07000 185.280
65.08000 184.670
65.09000 181.475
65.10000 179.060
65.11000 179.770
65.12000 184.556
65.13000 189.357
65.14000 193.077
65.15000 195.887
65.16000 198.662
65.17000 195.568
65.18000 189.364
65.19000 183.688
65.20000 187.910
65.21000 195.876
65.22000 203.168
65.23000 203.826
65.24000 202.796
65.25000 201.895
65.26000 207.684
65.27000 213.593
65.28000 217.744
65.29000 215.059
65.30000 211.687
65.31000 210.821
65.32000 216.517
65.33000 222.556
65.34000 226.445
65.35000 230.472
65.36000 233.413
65.37000 234.290
65.38000 232.737
65.39000 231.189
65.40000 231.420
65.41000 233.002
65.42000 234.557
65.43000 234.699
65.44000 234.143
65.45000 234.026
65.46000 240.817
65.47000 249.987
65.48000 258.245
65.49000 258.614
65.50000 257.163
65.51000 255.915
65.52000 264.322
65.53000 272.649
65.54000 278.535
65.55000 275.803
65.56000 272.319
65.57000 271.295
65.58000 276.143
65.59000 281.243
65.60000 284.408
65.61000 304.220
65.62000 318.636
65.63000 327.845
65.64000 331.538
65.65000 335.293
65.66000 346.599
65.67000 363.097
65.68000 379.217
65.69000 409.983
65.70000 445.942
65.71000 481.958
65.72000 518.750
65.73000 555.785
65.74000 594.826
65.75000 649.190
65.76000 706.749
65.77000 755.402
65.78000 824.714
65.79000 884.969
65.80000 939.179
65.81000 973.993
65.82000 1007.346
65.83000 1031.380
65.84000 1035.156
65.85000 1038.229
65.86000 1040.061
65.87000 1055.129
65.88000 1065.888
65.89000 1064.493
65.90000 1051.549
65.91000 1038.524
65.92000 1019.392
65.93000 996.449
65.94000 974.175
65.95000 934.837
65.96000 890.676
65.97000 844.818
65.98000 779.374
65.99000 708.347
66.00000 639.968
66.01000 589.579
66.02000 542.569
66.03000 503.567
66.04000 462.348
66.05000 428.071
66.06000 399.099
66.07000 385.610
66.08000 373.116
66.09000 357.989
66.10000 337.650
66.11000 317.170
66.12000 305.473
66.13000 312.230
66.14000 316.992
66.15000 311.837
66.16000 298.205
66.17000 284.844
66.18000 285.821
66.19000 294.924
66.20000 303.699
66.21000 308.991
66.22000 312.709
66.23000 316.301
66.24000 318.636
66.25000 320.645
66.26000 323.299
66.27000 329.872
66.28000 337.106
66.29000 342.989
66.30000 364.982
66.31000 384.284
66.32000 400.148
66.33000 406.873
66.34000 413.106
66.35000 418.828
66.36000 423.628
66.37000 428.411
66.38000 431.018
66.39000 428.415
66.40000 426.638
66.41000 429.184
66.42000 435.066
66.43000 440.853
66.44000 442.899
66.45000 443.016
66.46000 443.128
66.47000 443.286
66.48000 443.450
66.49000 442.638
66.50000 433.234
66.51000 421.815
66.52000 410.632
66.53000 400.735
66.54000 391.033
66.55000 383.309
66.56000 366.728
66.57000 352.722
66.58000 340.849
66.59000 334.139
66.60000 327.660
66.61000 324.306
66.62000 326.071
66.63000 327.910
66.64000 328.864
66.65000 325.979
66.66000 324.022
66.67000 321.026
66.68000 317.304
66.69000 313.672
66.70000 312.778
66.71000 313.169
66.72000 313.540
66.73000 312.899
66.74000 312.012
66.75000 311.740
66.76000 316.255
66.77000 321.786
66.78000 325.806
66.79000 322.416
66.80000 318.030
66.81000 314.616
66.82000 312.918
66.83000 311.672
66.84000 312.215
66.85000 316.709
66.86000 321.344
66.87000 324.340
66.88000 324.898
66.89000 325.433
66.90000 328.473
66.91000 333.934
66.92000 339.363
66.93000 342.229
66.94000 343.472
66.95000 344.771
66.96000 347.426
66.97000 350.661
66.98000 353.697
66.99000 352.501
67.00000 350.294
67.01000 349.019
67.02000 354.193
67.03000 360.600
67.04000 366.167
67.05000 368.016
67.06000 369.422
67.07000 370.490
67.08000 367.481
67.09000 364.905
67.10000 363.362
67.11000 363.896
67.12000 364.489
67.13000 365.583
67.14000 367.353
67.15000 369.126
67.16000 367.024
67.17000 361.565
67.18000 356.259
67.19000 359.448
67.20000 367.527
67.21000 375.338
67.22000 377.804
67.23000 378.186
67.24000 378.540
67.25000 375.489
67.26000 371.931
67.27000 369.481
67.28000 373.877
67.29000 379.449
67.30000 384.795
67.31000 389.232
67.32000 393.575
67.33000 396.789
67.34000 399.727
67.35000 401.995
67.36000 403.397
67.37000 403.216
67.38000 403.002
67.39000 402.877
67.40000 402.862
67.41000 402.847
67.42000 409.284
67.43000 420.722
67.44000 431.842
67.45000 429.877
67.46000 421.060
67.47000 412.833
67.48000 414.415
67.49000 419.479
67.50000 424.126
67.51000 430.158
67.52000 435.830
67.53000 440.425
67.54000 439.047
67.55000 436.751
67.56000 434.682
67.57000 433.435
67.58000 432.264
67.59000 431.421
67.60000 434.739
67.61000 437.426
67.62000 442.768
67.63000 452.528
67.64000 462.355
67.65000 468.652
67.66000 471.079
67.67000 473.495
67.68000 467.037
67.69000 454.409
67.70000 442.109
67.71000 440.149
67.72000 443.120
67.73000 446.177
67.74000 450.453
67.75000 455.122
67.76000 459.353
67.77000 477.404
67.78000 495.942
67.79000 510.286
67.80000 503.699
67.81000 494.244
67.82000 486.863
67.83000 486.339
67.84000 486.357
67.85000 486.370
67.86000 486.950
67.87000 487.403
67.88000 486.944
67.89000 485.107
67.90000 483.256
67.91000 485.558
67.92000 491.948
67.93000 498.293
67.94000 502.677
67.95000 505.750
67.96000 508.871
67.97000 513.203
67.98000 518.060
67.99000 522.624
68.00000 523.637
68.01000 523.607
68.02000 523.579
68.03000 533.804
68.04000 544.452
68.05000 552.648
68.06000 549.798
68.07000 545.608
68.08000 544.853
68.09000 554.441
68.10000 564.729
68.11000 571.699
68.12000 563.992
68.13000 557.925
68.14000 558.916
68.15000 569.568
68.16000 580.274
68.17000 587.164
68.18000 590.682
68.19000 594.162
68.20000 595.954
68.21000 596.741
68.22000 597.717
68.23000 602.586
68.24000 608.995
68.25000 614.324
68.26000 608.321
68.27000 599.292
68.28000 591.339
68.29000 596.437
68.30000 602.794
68.31000 611.457
68.32000 629.526
68.33000 648.600
68.34000 665.668
68.35000 677.241
68.36000 688.500
68.37000 695.875
68.38000 688.530
68.39000 682.888
68.40000 686.966
68.41000 703.070
68.42000 719.180
68.43000 726.547
68.44000 726.945
68.45000 727.336
68.46000 736.113
68.47000 748.951
68.48000 761.123
68.49000 761.894
68.50000 758.557
68.51000 757.400
68.52000 776.285
68.53000 800.022
68.54000 820.604
68.55000 840.477
68.56000 857.303
68.57000 874.684
68.58000 894.114
68.59000 913.736
68.60000 938.327
68.61000 975.321
68.62000 1012.904
68.63000 1036.653
68.64000 1103.800
68.65000 1152.966
68.66000 1202.465
68.67000 1252.334
68.68000 1302.214
68.69000 1353.589
68.70000 1406.042
68.71000 1457.441
68.72000 1507.344
68.73000 1554.652
68.74000 1602.036
68.75000 1650.526
68.76000 1699.379
68.77000 1748.502
68.78000 1799.806
68.79000 1851.587
68.80000 1895.736
68.81000 1964.558
68.82000 2025.359
68.83000 2093.892
68.84000 2188.397
68.85000 2285.006
68.86000 2402.228
68.87000 2566.324
68.88000 2732.232
68.89000 2833.104
68.90000 3306.130
68.91000 3646.771
68.92000 4335.468
68.93000 5372.778
68.94000 6419.251
68.95000 8316.481
68.96000 10769.791
68.97000 13159.380
68.98000 16911.791
68.99000 21062.242
69.00000 25235.910
69.01000 29697.295
69.02000 34244.563
69.03000 38652.848
69.04000 42062.129
69.05000 45273.980
69.06000 47963.344
69.07000 49799.152
69.08000 51237.328
69.09000 52399.184
69.10000 52716.711
69.11000 52975.566
69.12000 53275.703
69.13000 53661.363
69.14000 54049.648
69.15000 54276.145
69.16000 55201.184
69.17000 55854.625
69.18000 56166.699
69.19000 56171.762
69.20000 56156.391
69.21000 54867.516
69.22000 52822.695
69.23000 50844.543
69.24000 47754.063
69.25000 44413.164
69.26000 41132.523
69.27000 38498.855
69.28000 36040.625
69.29000 33691.875
69.30000 32044.881
69.31000 30522.652
69.32000 29272.445
69.33000 28417.363
69.34000 27750.611
69.35000 27102.783
69.36000 26507.592
69.37000 25915.498
69.38000 25076.490
69.39000 23771.795
69.40000 22456.164
69.41000 21722.154
69.42000 18575.461
69.43000 16392.242
69.44000 14170.513
69.45000 11917.568
69.46000 9677.117
69.47000 7999.253
69.48000 6625.090
69.49000 5305.870
69.50000 4383.659
69.51000 3657.052
69.52000 2964.027
69.53000 2586.174
69.54000 2285.833
69.55000 2009.295
69.56000 1869.408
69.57000 1751.300
69.58000 1656.280
69.59000 1546.595
69.60000 1456.491
69.61000 1382.072
69.62000 1347.401
69.63000 1314.678
69.64000 1277.559
69.65000 1232.898
69.66000 1188.107
69.67000 1164.290
69.68000 1086.589
69.69000 1033.785
69.70000 1001.709
69.71000 984.820
69.72000 968.046
69.73000 955.221
69.74000 944.336
69.75000 933.975
69.76000 914.966
69.77000 894.701
69.78000 874.977
69.79000 859.724
69.80000 845.466
69.81000 831.043
69.82000 815.767
69.83000 800.369
69.84000 788.252
69.85000 785.941
69.86000 784.742
69.87000 779.293
69.88000 764.035
69.89000 748.383
69.90000 733.642
69.91000 720.318
69.92000 707.011
69.93000 700.293
69.94000 703.449
69.95000 705.491
69.96000 700.731
69.97000 691.454
69.98000 681.998
69.99000 667.719
70.00000 651.280
