20.00000 571.113
20.01000 566.413
20.02000 561.040
20.03000 556.546
20.04000 555.479
20.05000 554.759
20.06000 554.229
20.07000 564.179
20.08000 572.300
20.09000 575.373
20.10000 569.444
20.11000 563.339
20.12000 557.088
20.13000 550.663
20.14000 544.255
20.15000 542.165
20.16000 543.363
20.17000 544.718
20.18000 552.018
20.19000 562.353
20.20000 572.020
20.21000 571.094
20.22000 566.502
20.23000 562.301
20.24000 560.217
20.25000 558.801
20.26000 557.820
20.27000 559.185
20.28000 560.900
20.29000 559.820
20.30000 548.827
20.31000 536.962
20.32000 528.486
20.33000 547.606
20.34000 563.113
20.35000 571.035
20.36000 566.663
20.37000 562.121
20.38000 558.504
20.39000 555.871
20.40000 553.251
20.41000 554.586
20.42000 558.606
20.43000 562.486
20.44000 562.200
20.45000 559.977
20.46000 557.480
20.47000 551.287
20.48000 543.930
20.49000 537.287
20.50000 540.173
20.51000 544.465
20.52000 549.228
20.53000 556.285
20.54000 563.646
20.55000 567.799
20.56000 561.611
20.57000 554.638
20.58000 549.803
20.59000 554.471
20.60000 558.236
20.61000 557.773
20.62000 551.094
20.63000 544.360
20.64000 543.989
20.65000 549.697
20.66000 555.360
20.67000 548.485
20.68000 534.009
20.69000 520.328
20.70000 525.510
20.71000 538.681
20.72000 550.864
20.73000 551.567
20.74000 548.981
20.75000 546.679
20.76000 543.942
20.77000 541.493
20.78000 538.744
20.79000 534.678
20.80000 530.458
20.81000 528.729
20.82000 534.308
20.83000 540.361
20.84000 544.425
20.85000 530.441
20.86000 519.688
20.87000 514.920
20.88000 518.122
20.89000 521.367
20.90000 526.454
20.91000 533.125
20.92000 539.718
20.93000 541.249
20.94000 539.930
20.95000 538.912
20.96000 543.770
20.97000 550.894
20.98000 556.806
20.99000 550.452
21.00000 540.908
21.01000 532.537
21.02000 531.233
21.03000 531.143
21.04000 532.258
21.05000 538.160
21.06000 544.555
21.07000 547.863
21.08000 542.922
21.09000 537.532
21.10000 534.034
21.11000 545.537
21.12000 554.186
21.13000 557.162
21.14000 553.310
21.15000 549.449
21.16000 546.962
21.17000 545.541
21.18000 544.144
21.19000 538.373
21.20000 530.595
21.21000 523.369
21.22000 525.146
21.23000 530.087
21.24000 534.903
21.25000 538.607
21.26000 542.049
21.27000 545.021
21.28000 536.112
21.29000 527.021
21.30000 519.740
21.31000 518.981
21.32000 518.808
21.33000 522.862
21.34000 537.197
21.35000 551.995
21.36000 561.251
21.37000 557.819
21.38000 555.208
21.39000 553.278
21.40000 552.087
21.41000 550.857
21.42000 544.564
21.43000 534.717
21.44000 525.082
21.45000 523.010
21.46000 524.445
21.47000 525.987
21.48000 528.995
21.49000 532.473
21.50000 535.375
21.51000 533.769
21.52000 531.203
21.53000 529.025
21.54000 537.018
21.55000 544.875
21.56000 551.524
21.57000 554.224
21.58000 556.617
21.59000 556.877
21.60000 552.410
21.61000 547.770
21.62000 544.980
21.63000 540.680
21.64000 537.613
21.65000 541.133
21.66000 551.058
21.67000 560.851
21.68000 559.739
21.69000 551.684
21.70000 543.853
21.71000 540.223
21.72000 538.488
21.73000 537.158
21.74000 540.647
21.75000 545.538
21.76000 550.184
21.77000 553.133
21.78000 555.755
21.79000 557.940
21.80000 558.474
21.81000 558.753
21.82000 558.494
21.83000 556.635
21.84000 554.669
21.85000 554.538
21.86000 558.108
21.87000 561.785
21.88000 563.905
21.89000 559.946
21.90000 557.156
21.91000 559.147
21.92000 565.318
21.93000 571.531
21.94000 580.120
21.95000 590.084
21.96000 599.703
21.97000 593.966
21.98000 582.896
21.99000 572.997
22.00000 575.213
22.01000 580.628
22.02000 585.978
22.03000 590.915
22.04000 595.782
22.05000 599.757
22.06000 605.531
22.07000 610.411
22.08000 615.044
22.09000 619.003
22.10000 622.926
22.11000 623.250
22.12000 616.958
22.13000 610.524
22.14000 606.980
22.15000 608.615
22.16000 609.749
22.17000 610.439
22.18000 610.778
22.19000 611.021
22.20000 607.244
22.21000 601.353
22.22000 595.709
22.23000 600.408
22.24000 608.231
22.25000 614.712
22.26000 609.024
22.27000 600.422
22.28000 593.104
22.29000 592.944
22.30000 593.890
22.31000 594.647
22.32000 601.905
22.33000 608.257
22.34000 610.128
22.35000 600.931
22.36000 591.219
22.37000 586.143
22.38000 588.818
22.39000 591.613
22.40000 593.079
22.41000 604.310
22.42000 611.812
22.43000 603.143
22.44000 582.939
22.45000 563.332
22.46000 562.802
22.47000 571.409
22.48000 579.583
22.49000 577.764
22.50000 573.088
22.51000 568.202
22.52000 561.626
22.53000 554.685
22.54000 549.042
22.55000 549.905
22.56000 551.665
22.57000 553.041
22.58000 536.213
22.59000 521.619
22.60000 511.612
22.61000 511.925
22.62000 512.629
22.63000 511.942
22.64000 509.144
22.65000 506.325
22.66000 510.014
22.67000 520.144
22.68000 530.185
22.69000 532.477
22.70000 529.756
22.71000 527.156
22.72000 527.608
22.73000 529.391
22.74000 531.068
22.75000 532.714
22.76000 534.210
22.77000 535.361
22.78000 534.062
22.79000 532.284
22.80000 528.421
22.81000 515.116
22.82000 500.658
22.83000 489.618
22.84000 497.874
22.85000 505.421
22.86000 508.219
22.87000 501.279
22.88000 494.049
22.89000 489.572
22.90000 488.880
22.91000 488.213
22.92000 487.032
22.93000 485.396
22.94000 483.800
22.95000 484.560
22.96000 486.704
22.97000 489.000
22.98000 494.445
22.99000 501.143
23.00000 507.375
23.01000 508.183
23.02000 507.598
23.03000 507.459
23.04000 510.145
23.05000 513.327
23.06000 515.437
23.07000 513.151
23.08000 510.392
23.09000 508.338
23.10000 507.668
23.11000 507.210
23.12000 506.024
23.13000 503.482
23.14000 500.909
23.15000 497.648
23.16000 493.531
23.17000 489.418
23.18000 490.273
23.19000 495.087
23.20000 499.758
23.21000 498.151
23.22000 493.190
23.23000 488.771
23.24000 493.690
23.25000 501.991
23.26000 509.628
23.27000 505.590
23.28000 499.443
23.29000 494.378
23.30000 495.446
23.31000 497.480
23.32000 498.673
23.33000 496.739
23.34000 494.510
23.35000 492.896
23.36000 500.889
23.37000 507.383
23.38000 513.259
23.39000 518.088
23.40000 522.900
23.41000 518.811
23.42000 504.740
23.43000 490.711
23.44000 488.545
23.45000 494.920
23.46000 501.026
23.47000 498.183
23.48000 490.988
23.49000 484.363
23.50000 486.038
23.51000 490.451
23.52000 494.460
23.53000 490.964
23.54000 486.415
23.55000 484.551
23.56000 496.392
23.57000 510.158
23.58000 517.717
23.59000 504.324
23.60000 489.220
23.61000 478.592
23.62000 494.852
23.63000 507.971
23.64000 514.605
23.65000 511.240
23.66000 507.764
23.67000 501.667
23.68000 492.931
23.69000 484.250
23.70000 485.944
23.71000 494.331
23.72000 502.438
23.73000 503.174
23.74000 500.645
23.75000 498.277
23.76000 497.906
23.77000 498.134
23.78000 498.339
23.79000 494.452
23.80000 490.346
23.81000 487.453
23.82000 490.143
23.83000 493.529
23.84000 494.676
23.85000 488.949
23.86000 482.741
23.87000 478.507
23.88000 477.544
23.89000 476.901
23.90000 475.478
23.91000 472.965
23.92000 470.447
23.93000 470.457
23.94000 472.753
23.95000 475.027
23.96000 475.444
23.97000 474.769
23.98000 474.216
23.99000 476.283
24.00000 479.407
24.01000 482.435
24.02000 484.422
24.03000 486.126
24.04000 487.632
24.05000 489.333
24.06000 490.832
24.07000 490.623
24.08000 483.299
24.09000 475.192
24.10000 470.735
24.11000 476.475
24.12000 482.821
24.13000 487.008
24.14000 474.295
24.15000 464.624
24.16000 467.364
24.17000 485.797
24.18000 504.250
24.19000 509.611
24.20000 504.305
24.21000 499.073
24.22000 494.501
24.23000 490.407
24.24000 486.285
24.25000 481.673
24.26000 476.880
24.27000 472.678
24.28000 474.052
24.29000 476.803
24.30000 479.197
24.31000 475.398
24.32000 471.308
24.33000 468.911
24.34000 472.904
24.35000 477.512
24.36000 481.773
24.37000 485.151
24.38000 488.486
24.39000 490.610
24.40000 502.615
24.41000 511.466
24.42000 509.344
24.43000 494.707
24.44000 480.109
24.45000 474.664
24.46000 475.960
24.47000 477.232
24.48000 476.639
24.49000 475.181
24.50000 473.844
24.51000 474.325
24.52000 475.415
24.53000 475.664
24.54000 468.913
24.55000 460.595
24.56000 453.477
24.57000 468.198
24.58000 483.252
24.59000 494.668
24.60000 493.618
24.61000 491.525
24.62000 490.766
24.63000 493.103
24.64000 495.565
24.65000 497.074
24.66000 483.955
24.67000 474.433
24.68000 472.451
24.69000 478.200
24.70000 483.892
24.71000 483.740
24.72000 479.688
24.73000 475.735
24.74000 474.117
24.75000 473.574
24.76000 472.893
24.77000 470.446
24.78000 467.462
24.79000 465.023
24.80000 466.603
24.81000 468.995
24.82000 471.006
24.83000 468.907
24.84000 466.722
24.85000 466.145
24.86000 470.580
24.87000 475.376
24.88000 476.918
24.89000 471.586
24.90000 466.031
24.91000 462.762
24.92000 485.119
24.93000 501.019
24.94000 501.751
24.95000 488.529
24.96000 475.474
24.97000 473.632
24.98000 478.583
24.99000 483.380
25.00000 484.993
25.01000 485.287
25.02000 485.131
25.03000 480.014
25.04000 473.524
25.05000 467.110
25.06000 461.205
25.07000 455.391
25.08000 450.596
25.09000 458.787
25.10000 466.731
25.11000 472.100
25.12000 470.164
25.13000 467.781
25.14000 466.266
25.15000 466.422
25.16000 466.619
25.17000 466.731
25.18000 459.302
25.19000 454.131
25.20000 452.547
25.21000 453.935
25.22000 455.297
25.23000 455.435
25.24000 454.898
25.25000 454.382
25.26000 465.735
25.27000 480.527
25.28000 493.314
25.29000 486.756
25.30000 475.341
25.31000 467.050
25.32000 477.117
25.33000 490.181
25.34000 500.738
25.35000 486.204
25.36000 472.375
25.37000 462.829
25.38000 464.350
25.39000 466.436
25.40000 466.227
25.41000 462.002
25.42000 457.703
25.43000 455.393
25.44000 460.314
25.45000 463.679
25.46000 466.254
25.47000 468.237
25.48000 470.032
25.49000 464.988
25.50000 456.517
25.51000 448.438
25.52000 449.427
25.53000 453.203
25.54000 456.620
25.55000 456.977
25.56000 456.639
25.57000 457.248
25.58000 462.861
25.59000 469.203
25.60000 474.219
25.61000 474.490
25.62000 474.382
25.63000 474.137
25.64000 473.573
25.65000 472.995
25.66000 472.153
25.67000 470.892
25.68000 469.625
25.69000 468.978
25.70000 449.182
25.71000 436.016
25.72000 436.761
25.73000 446.937
25.74000 456.736
25.75000 455.886
25.76000 450.172
25.77000 444.774
25.78000 439.078
25.79000 433.765
25.80000 429.232
25.81000 430.570
25.82000 433.114
25.83000 435.223
25.84000 435.265
25.85000 435.039
25.86000 434.864
25.87000 442.710
25.88000 449.402
25.89000 454.525
25.90000 456.283
25.91000 457.929
25.92000 454.442
25.93000 443.546
25.94000 432.592
25.95000 429.373
25.96000 433.393
25.97000 437.444
25.98000 443.732
25.99000 451.396
26.00000 458.629
26.01000 456.049
26.02000 449.387
26.03000 443.155
26.04000 442.725
26.05000 443.817
26.06000 444.738
26.07000 444.520
26.08000 444.091
26.09000 445.330
26.10000 453.743
26.11000 462.977
26.12000 469.938
26.13000 462.203
26.14000 455.425
26.15000 452.658
26.16000 457.726
26.17000 462.998
26.18000 461.707
26.19000 451.841
26.20000 441.947
26.21000 439.141
26.22000 442.298
26.23000 445.391
26.24000 445.269
26.25000 443.350
26.26000 441.744
26.27000 446.030
26.28000 452.547
26.29000 458.578
26.30000 453.530
26.31000 446.454
26.32000 440.345
26.33000 440.016
26.34000 440.648
26.35000 441.436
26.36000 442.828
26.37000 444.282
26.38000 445.349
26.39000 456.361
26.40000 465.276
26.41000 466.759
26.42000 455.029
26.43000 443.042
26.44000 441.510
26.45000 452.309
26.46000 463.100
26.47000 466.695
26.48000 464.827
26.49000 462.776
26.50000 453.794
26.51000 441.285
26.52000 429.670
26.53000 432.172
26.54000 439.545
26.55000 446.287
26.56000 437.549
26.57000 426.605
26.58000 419.297
26.59000 431.508
26.60000 446.617
26.61000 458.049
26.62000 456.479
26.63000 453.771
26.64000 451.837
26.65000 456.548
26.66000 460.361
26.67000 463.228
26.68000 464.569
26.69000 465.888
26.70000 463.323
26.71000 456.636
26.72000 449.980
26.73000 444.877
26.74000 440.891
26.75000 437.067
26.76000 438.028
26.77000 441.205
26.78000 444.510
26.79000 449.533
26.80000 455.095
26.81000 460.115
26.82000 455.136
26.83000 448.926
26.84000 443.694
26.85000 443.192
26.86000 443.316
26.87000 442.292
26.88000 437.578
26.89000 432.586
26.90000 429.128
26.91000 431.611
26.92000 433.635
26.93000 437.478
26.94000 443.989
26.95000 450.522
26.96000 448.750
26.97000 439.070
26.98000 429.467
26.99000 429.768
27.00000 436.142
27.01000 442.239
27.02000 441.785
27.03000 438.565
27.04000 435.715
27.05000 437.147
27.06000 439.802
27.07000 442.164
27.08000 444.647
27.09000 446.823
27.10000 446.897
27.11000 437.781
27.12000 427.591
27.13000 420.426
27.14000 422.112
27.15000 424.368
27.16000 425.882
27.17000 428.705
27.18000 430.827
27.19000 430.211
27.20000 425.962
27.21000 421.702
27.22000 422.423
27.23000 427.411
27.24000 432.341
27.25000 437.485
27.26000 442.622
27.27000 447.109
27.28000 439.009
27.29000 426.067
27.30000 414.580
27.31000 417.766
27.32000 424.755
27.33000 430.882
27.34000 425.457
27.35000 419.123
27.36000 415.704
27.37000 423.822
27.38000 433.126
27.39000 439.700
27.40000 439.005
27.41000 437.915
27.42000 437.209
27.43000 443.510
27.44000 448.226
27.45000 446.950
27.46000 438.486
27.47000 430.023
27.48000 425.591
27.49000 424.273
27.50000 422.978
27.51000 427.827
27.52000 435.591
27.53000 442.720
27.54000 439.535
27.55000 432.737
27.56000 426.271
27.57000 422.739
27.58000 419.895
27.59000 417.442
27.60000 413.092
27.61000 409.158
27.62000 406.394
27.63000 407.833
27.64000 409.648
27.65000 413.218
27.66000 421.044
27.67000 429.061
27.68000 434.069
27.69000 429.246
27.70000 425.664
27.71000 421.344
27.72000 416.228
27.73000 411.135
27.74000 408.979
27.75000 408.878
27.76000 408.780
27.77000 417.842
27.78000 430.672
27.79000 442.330
27.80000 437.832
27.81000 428.182
27.82000 419.623
27.83000 419.579
27.84000 421.343
27.85000 422.839
27.86000 422.026
27.87000 421.083
27.88000 421.218
27.89000 424.872
27.90000 428.799
27.91000 430.509
27.92000 427.315
27.93000 423.944
27.94000 421.919
27.95000 421.999
27.96000 422.069
27.97000 422.452
27.98000 423.136
27.99000 423.841
28.00000 426.232
28.01000 429.694
28.02000 433.059
28.03000 425.420
28.04000 413.673
28.05000 403.357
28.06000 410.016
28.07000 421.598
28.08000 431.668
28.09000 431.238
28.10000 428.798
28.11000 426.766
28.12000 419.524
28.13000 413.010
28.14000 409.090
28.15000 412.870
28.16000 417.159
28.17000 419.573
28.18000 418.208
28.19000 416.736
28.20000 415.889
28.21000 417.354
28.22000 418.386
28.23000 418.091
28.24000 416.639
28.25000 415.198
28.26000 414.316
28.27000 413.756
28.28000 413.216
28.29000 408.607
28.30000 402.771
28.31000 397.693
28.32000 400.425
28.33000 405.214
28.34000 408.688
28.35000 404.012
28.36000 397.933
28.37000 392.971
28.38000 400.001
28.39000 406.783
28.40000 412.886
28.41000 417.154
28.42000 421.319
28.43000 426.646
28.44000 434.104
28.45000 441.608
28.46000 445.736
28.47000 431.666
28.48000 421.961
28.49000 416.192
28.50000 413.516
28.51000 410.786
28.52000 405.788
28.53000 399.602
28.54000 393.677
28.55000 396.696
28.56000 402.477
28.57000 407.584
28.58000 406.616
28.59000 404.197
28.60000 401.928
28.61000 400.493
28.62000 399.188
28.63000 398.144
28.64000 402.559
28.65000 406.532
28.66000 409.431
28.67000 409.688
28.68000 409.823
28.69000 411.287
28.70000 414.964
28.71000 418.676
28.72000 420.620
28.73000 417.790
28.74000 415.853
28.75000 411.208
28.76000 404.637
28.77000 398.259
28.78000 397.987
28.79000 400.632
28.80000 403.142
28.81000 407.973
28.82000 413.123
28.83000 416.446
28.84000 405.212
28.85000 390.836
28.86000 380.816
28.87000 392.590
28.88000 407.356
28.89000 418.897
28.90000 414.907
28.91000 410.740
28.92000 406.055
28.93000 400.206
28.94000 394.314
28.95000 394.366
28.96000 403.415
28.97000 412.555
28.98000 415.721
28.99000 412.996
29.00000 410.313
29.01000 411.322
29.02000 414.712
29.03000 417.777
29.04000 412.646
29.05000 403.948
29.06000 395.770
29.07000 395.102
29.08000 396.510
29.09000 397.694
29.10000 397.286
29.11000 396.567
29.12000 397.327
29.13000 404.763
29.14000 413.013
29.15000 419.307
29.16000 410.738
29.17000 403.190
29.18000 397.390
29.19000 395.163
29.20000 393.041
29.21000 391.536
29.22000 390.875
29.23000 390.220
29.24000 391.568
29.25000 394.686
29.26000 397.817
29.27000 401.751
29.28000 406.155
29.29000 410.148
29.30000 405.665
29.31000 397.823
29.32000 390.527
29.33000 391.808
29.34000 395.037
29.35000 398.148
29.36000 400.516
29.37000 402.754
29.38000 404.011
29.39000 401.256
29.40000 398.071
29.41000 395.702
29.42000 394.889
29.43000 394.327
29.44000 393.069
29.45000 390.516
29.46000 387.933
29.47000 386.350
29.48000 386.008
29.49000 385.669
29.50000 388.308
29.51000 393.304
29.52000 398.272
29.53000 401.997
29.54000 405.061
29.55000 407.782
29.56000 404.645
29.57000 399.392
29.58000 394.561
29.59000 395.945
29.60000 398.528
29.61000 400.674
29.62000 400.344
29.63000 399.626
29.64000 398.562
29.65000 396.214
29.66000 393.745
29.67000 391.958
29.68000 393.582
29.69000 394.953
29.70000 397.277
29.71000 401.211
29.72000 405.171
29.73000 405.507
29.74000 401.792
29.75000 398.087
29.76000 400.096
29.77000 406.179
29.78000 411.905
29.79000 405.877
29.80000 394.149
29.81000 383.386
29.82000 386.618
29.83000 394.452
29.84000 401.568
29.85000 409.079
29.86000 415.792
29.87000 420.635
29.88000 415.967
29.89000 409.968
29.90000 406.527
29.91000 411.701
29.92000 417.574
29.93000 421.704
29.94000 411.401
29.95000 403.171
29.96000 401.714
29.97000 410.668
29.98000 419.736
29.99000 422.552
30.00000 419.090
30.01000 415.650
30.02000 411.815
30.03000 407.780
30.04000 403.998
30.05000 406.822
30.06000 412.565
30.07000 417.625
30.08000 414.194
30.09000 408.224
30.10000 402.874
30.11000 405.465
30.12000 409.102
30.13000 412.395
30.14000 414.114
30.15000 415.636
30.16000 416.093
30.17000 413.285
30.18000 410.249
30.19000 408.180
30.20000 409.217
30.21000 410.062
30.22000 410.394
30.23000 410.009
30.24000 409.618
30.25000 406.454
30.26000 400.793
30.27000 395.187
30.28000 392.866
30.29000 392.507
30.30000 392.295
30.31000 395.222
30.32000 399.412
30.33000 402.825
30.34000 397.865
30.35000 390.631
30.36000 384.241
30.37000 388.506
30.38000 393.827
30.39000 398.197
30.40000 398.616
30.41000 398.603
30.42000 401.445
30.43000 412.248
30.44000 423.521
30.45000 430.952
30.46000 428.924
30.47000 427.264
30.48000 419.804
30.49000 405.032
30.50000 390.267
30.51000 387.120
30.52000 393.411
30.53000 399.612
30.54000 405.007
30.55000 409.825
30.56000 413.945
30.57000 405.733
30.58000 393.001
30.59000 381.598
30.60000 382.698
30.61000 386.880
30.62000 390.518
30.63000 396.159
30.64000 401.245
30.65000 404.748
30.66000 402.291
30.67000 399.263
30.68000 397.852
30.69000 400.547
30.70000 403.445
30.71000 405.288
30.72000 408.536
30.73000 410.913
30.74000 413.821
30.75000 417.334
30.76000 420.817
30.77000 418.957
30.78000 413.172
30.79000 407.499
30.80000 410.994
30.81000 418.711
30.82000 426.161
30.83000 429.628
30.84000 431.765
30.85000 433.913
30.86000 436.143
30.87000 438.392
30.88000 440.315
30.89000 441.586
30.90000 442.579
30.91000 443.445
30.92000 443.875
30.93000 444.270
30.94000 446.142
30.95000 451.430
30.96000 456.856
30.97000 460.179
30.98000 460.833
30.99000 461.278
31.00000 461.418
31.01000 461.245
31.02000 461.110
31.03000 464.775
31.04000 470.969
31.05000 477.009
31.06000 490.929
31.07000 507.598
31.08000 524.208
31.09000 540.055
31.10000 555.671
31.11000 571.439
31.12000 588.325
31.13000 605.437
31.14000 619.814
31.15000 644.308
31.16000 665.782
31.17000 690.760
31.18000 726.631
31.19000 763.281
31.20000 795.963
31.21000 820.283
31.22000 844.335
31.23000 858.474
31.24000 904.049
31.25000 936.348
31.26000 968.528
31.27000 1000.599
31.28000 1032.608
31.29000 1060.549
31.30000 1086.032
31.31000 1110.717
31.32000 1138.344
31.33000 1165.620
31.34000 1192.258
31.35000 1211.867
31.36000 1229.537
31.37000 1247.520
31.38000 1267.552
31.39000 1287.955
31.40000 1304.772
31.41000 1300.576
31.42000 1295.189
31.43000 1294.066
31.44000 1305.011
31.45000 1316.688
31.46000 1319.878
31.47000 1306.785
31.48000 1293.289
31.49000 1285.696
31.50000 1227.477
31.51000 1186.951
31.52000 1153.781
31.53000 1126.688
31.54000 1099.401
31.55000 1062.952
31.56000 1021.471
31.57000 981.590
31.58000 949.541
31.59000 922.245
31.60000 894.075
31.61000 857.517
31.62000 818.858
31.63000 783.739
31.64000 769.351
31.65000 758.334
31.66000 749.436
31.67000 717.771
31.68000 690.214
31.69000 666.885
31.70000 654.448
31.71000 642.565
31.72000 629.738
31.73000 615.266
31.74000 600.763
31.75000 592.982
31.76000 567.180
31.77000 549.565
31.78000 535.272
31.79000 523.457
31.80000 511.858
31.81000 507.979
31.82000 507.958
31.83000 507.938
31.84000 496.051
31.85000 481.294
31.86000 467.350
31.87000 460.279
31.88000 454.767
31.89000 449.713
31.90000 447.072
31.91000 444.781
31.92000 442.971
31.93000 434.842
31.94000 427.882
31.95000 423.296
31.96000 424.281
31.97000 425.499
31.98000 422.416
31.99000 412.512
32.00000 402.523
32.01000 397.430
32.02000 415.440
32.03000 427.435
32.04000 429.481
32.05000 424.802
32.06000 420.050
32.07000 413.212
32.08000 405.424
32.09000 398.067
32.10000 404.302
32.11000 413.875
32.12000 421.582
32.13000 415.326
32.14000 406.212
32.15000 398.420
32.16000 396.898
32.17000 396.187
32.18000 395.638
32.19000 395.611
32.20000 395.620
32.21000 395.532
32.22000 395.233
32.23000 394.927
32.24000 393.036
32.25000 388.863
32.26000 384.673
32.27000 384.065
32.28000 386.797
32.29000 389.440
32.30000 385.829
32.31000 378.381
32.32000 371.406
32.33000 375.163
32.34000 383.372
32.35000 391.048
32.36000 387.802
32.37000 382.074
32.38000 377.226
32.39000 378.247
32.40000 380.350
32.41000 381.976
32.42000 381.556
32.43000 380.902
32.44000 380.410
32.45000 379.855
32.46000 379.417
32.47000 378.648
32.48000 377.234
32.49000 375.802
32.50000 380.133
32.51000 391.968
32.52000 403.824
32.53000 399.787
32.54000 382.451
32.55000 365.381
32.56000 361.616
32.57000 365.271
32.58000 368.824
32.59000 370.496
32.60000 371.456
32.61000 372.344
32.62000 374.279
32.63000 376.256
32.64000 378.697
32.65000 383.898
32.66000 389.556
32.67000 391.410
32.68000 378.483
32.69000 364.075
32.70000 353.506
32.71000 353.143
32.72000 353.275
32.73000 353.154
32.74000 352.584
32.75000 352.005
32.76000 354.649
32.77000 361.081
32.78000 367.502
32.79000 363.794
32.80000 352.479
32.81000 341.434
32.82000 340.467
32.83000 344.614
32.84000 348.720
32.85000 352.192
32.86000 355.444
32.87000 358.417
32.88000 363.433
32.89000 368.307
32.90000 372.374
32.91000 372.119
32.92000 371.224
32.93000 370.301
32.94000 369.278
32.95000 368.246
32.96000 367.509
32.97000 372.960
32.98000 377.318
32.99000 376.376
33.00000 366.894
33.01000 357.298
33.02000 354.908
33.03000 360.145
33.04000 365.357
33.05000 365.885
33.06000 363.228
33.07000 360.638
33.08000 360.003
33.09000 360.272
33.10000 360.423
33.11000 359.004
33.12000 357.093
33.13000 355.368
33.14000 352.870
33.15000 350.535
33.16000 348.069
33.17000 344.978
33.18000 341.804
33.19000 337.885
33.20000 331.579
33.21000 325.094
33.22000 320.605
33.23000 324.286
33.24000 327.268
33.25000 329.378
33.26000 330.215
33.27000 331.041
33.28000 331.234
33.29000 330.826
33.30000 330.420
33.31000 333.704
33.32000 339.186
33.33000 344.560
33.34000 347.409
33.35000 349.196
33.36000 350.100
33.37000 340.830
33.38000 328.664
33.39000 317.840
33.40000 317.825
33.41000 319.573
33.42000 321.822
33.43000 326.255
33.44000 330.943
33.45000 332.943
33.46000 327.103
33.47000 320.761
33.48000 316.511
33.49000 323.008
33.50000 328.045
33.51000 331.462
33.52000 332.737
33.53000 334.002
33.54000 334.860
33.55000 335.373
33.56000 335.879
33.57000 339.133
33.58000 343.824
33.59000 348.223
33.60000 346.975
33.61000 343.562
33.62000 340.342
33.63000 339.063
33.64000 338.286
33.65000 337.605
33.66000 337.087
33.67000 336.667
33.68000 335.983
33.69000 334.260
33.70000 332.431
33.71000 330.164
33.72000 326.734
33.73000 323.241
33.74000 320.980
33.75000 326.865
33.76000 331.292
33.77000 332.572
33.78000 330.088
33.79000 327.613
33.80000 328.974
33.81000 333.293
33.82000 337.539
33.83000 336.601
33.84000 333.108
33.85000 329.715
33.86000 327.927
33.87000 326.700
33.88000 326.160
33.89000 331.667
33.90000 338.591
33.91000 344.562
33.92000 341.254
33.93000 337.262
33.94000 333.891
33.95000 332.740
33.96000 331.787
33.97000 330.362
33.98000 327.795
33.99000 325.178
34.00000 323.544
34.01000 324.295
34.02000 324.862
34.03000 325.199
34.04000 325.289
34.05000 325.383
34.06000 326.006
34.07000 327.000
34.08000 327.972
34.09000 327.849
34.10000 327.238
34.11000 326.628
34.12000 326.034
34.13000 325.444
34.14000 324.817
34.15000 323.900
34.16000 322.922
34.17000 322.093
34.18000 325.710
34.19000 329.241
34.20000 329.358
34.21000 318.362
34.22000 306.510
34.23000 301.573
34.24000 311.881
34.25000 322.737
34.26000 329.249
34.27000 327.905
34.28000 326.899
34.29000 326.676
34.30000 327.211
34.31000 327.722
34.32000 326.387
34.33000 323.883
34.34000 321.450
34.35000 322.364
34.36000 324.593
34.37000 326.703
34.38000 327.402
34.39000 327.692
34.40000 327.942
34.41000 327.908
34.42000 327.820
34.43000 327.747
34.44000 328.324
34.45000 328.866
34.46000 328.653
34.47000 326.207
34.48000 323.613
34.49000 320.765
34.50000 317.407
34.51000 314.034
34.52000 312.095
34.53000 313.512
34.54000 314.517
34.55000 316.261
34.56000 318.646
34.57000 320.942
34.58000 318.282
34.59000 312.773
34.60000 307.456
34.61000 309.467
34.62000 314.047
34.63000 317.908
34.64000 314.402
34.65000 308.962
34.66000 304.617
34.67000 307.029
34.68000 310.602
34.69000 313.516
34.70000 312.080
34.71000 310.534
34.72000 310.999
34.73000 316.888
34.74000 323.078
34.75000 322.780
34.76000 310.623
34.77000 298.214
34.78000 291.398
34.79000 312.476
34.80000 326.984
34.81000 328.701
34.82000 320.397
34.83000 312.151
34.84000 306.289
34.85000 301.675
34.86000 297.257
34.87000 301.946
34.88000 309.329
34.89000 316.050
34.90000 316.821
34.91000 316.176
34.92000 315.442
34.93000 314.207
34.94000 312.896
34.95000 311.849
34.96000 309.574
34.97000 307.645
34.98000 306.531
34.99000 307.417
35.00000 308.395
35.01000 308.119
35.02000 305.760
35.03000 303.368
35.04000 302.118
35.05000 308.485
35.06000 312.776
35.07000 314.297
35.08000 313.852
35.09000 313.499
35.10000 315.986
35.11000 319.826
35.12000 323.470
35.13000 322.171
35.14000 319.500
35.15000 316.774
35.16000 313.622
35.17000 310.377
35.18000 307.221
35.19000 304.509
35.20000 301.857
35.21000 299.786
35.22000 299.412
35.23000 299.221
35.24000 299.625
35.25000 301.362
35.26000 303.148
35.27000 304.314
35.28000 304.545
35.29000 304.767
35.30000 306.431
35.31000 309.515
35.32000 312.529
35.33000 309.597
35.34000 302.843
35.35000 296.335
35.36000 295.980
35.37000 298.296
35.38000 300.472
35.39000 306.363
35.40000 312.737
35.41000 318.460
35.42000 319.600
35.43000 319.851
35.44000 319.747
35.45000 318.050
35.46000 316.160
35.47000 314.719
35.48000 312.830
35.49000 311.319
35.50000 310.049
35.51000 309.274
35.52000 308.512
35.53000 306.953
35.54000 304.302
35.55000 301.646
35.56000 302.892
35.57000 307.579
35.58000 312.125
35.59000 308.408
35.60000 299.867
35.61000 291.806
35.62000 293.593
35.63000 299.272
35.64000 304.554
35.65000 301.759
35.66000 297.289
35.67000 294.341
35.68000 300.959
35.69000 309.247
35.70000 316.384
35.71000 318.833
35.72000 320.781
35.73000 322.230
35.74000 314.218
35.75000 307.569
35.76000 302.694
35.77000 301.110
35.78000 299.599
35.79000 301.014
35.80000 306.046
35.81000 311.079
35.82000 310.780
35.83000 306.254
35.84000 301.872
35.85000 303.680
35.86000 308.777
35.87000 313.262
35.88000 307.316
35.89000 297.612
35.90000 288.691
35.91000 291.757
35.92000 297.084
35.93000 301.819
35.94000 303.223
35.95000 304.106
35.96000 305.225
35.97000 307.218
35.98000 309.291
35.99000 310.791
36.00000 307.197
36.01000 304.254
36.02000 303.561
36.03000 306.663
36.04000 309.827
36.05000 310.236
36.06000 307.574
36.07000 304.920
36.08000 303.935
36.09000 304.150
36.10000 304.372
36.11000 304.810
36.12000 305.352
36.13000 305.483
36.14000 299.682
36.15000 291.937
36.16000 284.904
36.17000 283.840
36.18000 284.052
36.19000 284.302
36.20000 284.740
36.21000 285.204
36.22000 286.524
36.23000 290.713
36.24000 295.135
36.25000 298.241
36.26000 301.326
36.27000 303.662
36.28000 304.916
36.29000 304.510
36.30000 304.087
36.31000 301.963
36.32000 298.138
36.33000 294.337
36.34000 296.001
36.35000 301.157
36.36000 306.158
36.37000 307.136
36.38000 306.343
36.39000 305.043
36.40000 297.478
36.41000 288.044
36.42000 279.593
36.43000 279.811
36.44000 281.495
36.45000 284.339
36.46000 292.490
36.47000 301.298
36.48000 306.965
36.49000 303.046
36.50000 298.462
36.51000 295.342
36.52000 296.243
36.53000 297.009
36.54000 295.834
36.55000 291.966
36.56000 288.081
36.57000 287.068
36.58000 288.633
36.59000 290.183
36.60000 293.386
36.61000 297.479
36.62000 301.282
36.63000 298.935
36.64000 294.121
36.65000 289.705
36.66000 289.554
36.67000 290.558
36.68000 291.444
36.69000 289.363
36.70000 287.113
36.71000 286.364
36.72000 291.829
36.73000 297.973
36.74000 304.236
36.75000 310.834
36.76000 317.451
36.77000 321.808
36.78000 311.645
36.79000 303.909
36.80000 299.180
36.81000 298.232
36.82000 297.295
36.83000 295.996
36.84000 294.403
36.85000 292.834
36.86000 295.785
36.87000 301.018
36.88000 305.855
36.89000 303.744
36.90000 299.093
36.91000 294.495
36.92000 290.394
36.93000 286.415
36.94000 282.957
36.95000 285.013
36.96000 287.516
36.97000 289.933
36.98000 292.028
36.99000 294.092
37.00000 296.273
37.01000 298.749
37.02000 301.240
37.03000 302.823
37.04000 295.013
37.05000 289.225
37.06000 285.571
37.07000 284.337
37.08000 283.140
37.09000 287.945
37.10000 297.143
37.11000 306.164
37.12000 302.924
37.13000 294.005
37.14000 285.582
37.15000 284.516
37.16000 285.898
37.17000 287.561
37.18000 291.534
37.19000 296.020
37.20000 299.856
37.21000 293.009
37.22000 285.957
37.23000 280.723
37.24000 281.682
37.25000 283.154
37.26000 282.824
37.27000 278.339
37.28000 273.688
37.29000 270.843
37.30000 268.602
37.31000 267.004
37.32000 270.614
37.33000 279.530
37.34000 288.381
37.35000 290.718
37.36000 288.735
37.37000 286.802
37.38000 284.699
37.39000 282.618
37.40000 280.708
37.41000 280.960
37.42000 281.867
37.43000 282.998
37.44000 285.774
37.45000 288.880
37.46000 291.487
37.47000 297.737
37.48000 303.324
37.49000 305.421
37.50000 296.695
37.51000 287.199
37.52000 281.735
37.53000 284.743
37.54000 288.021
37.55000 289.945
37.56000 289.421
37.57000 289.039
37.58000 285.991
37.59000 280.508
37.60000 275.108
37.61000 275.106
37.62000 278.356
37.63000 281.503
37.64000 284.191
37.65000 286.555
37.66000 288.335
37.67000 283.705
37.68000 277.310
37.69000 272.633
37.70000 279.147
37.71000 287.683
37.72000 294.716
37.73000 287.434
37.74000 280.131
37.75000 274.462
37.76000 273.401
37.77000 272.618
37.78000 273.612
37.79000 278.004
37.80000 282.479
37.81000 284.994
37.82000 277.494
37.83000 272.278
37.84000 271.949
37.85000 275.646
37.86000 279.199
37.87000 276.008
37.88000 269.124
37.89000 262.507
37.90000 271.831
37.91000 286.106
37.92000 299.064
37.93000 299.412
37.94000 296.613
37.95000 293.447
37.96000 288.142
37.97000 282.490
37.98000 277.929
37.99000 280.864
38.00000 283.845
38.01000 285.054
38.02000 281.709
38.03000 278.134
38.04000 279.244
38.05000 288.507
38.06000 297.916
38.07000 302.958
38.08000 291.050
38.09000 282.947
38.10000 282.144
38.11000 286.769
38.12000 291.342
38.13000 294.064
38.14000 295.863
38.15000 297.578
38.16000 291.178
38.17000 282.700
38.18000 275.934
38.19000 283.587
38.20000 294.499
38.21000 302.384
38.22000 294.395
38.23000 284.108
38.24000 275.983
38.25000 275.028
38.26000 274.750
38.27000 277.075
38.28000 285.494
38.29000 294.165
38.30000 301.402
38.31000 306.369
38.32000 311.308
38.33000 313.822
38.34000 307.501
38.35000 303.286
38.36000 301.756
38.37000 302.035
38.38000 302.230
38.39000 300.109
38.40000 296.936
38.41000 293.940
38.42000 303.957
38.43000 316.821
38.44000 329.296
38.45000 338.864
38.46000 347.839
38.47000 356.532
38.48000 363.892
38.49000 371.081
38.50000 376.627
38.51000 390.365
38.52000 401.726
38.53000 416.488
38.54000 438.504
38.55000 460.760
38.56000 483.581
38.57000 507.212
38.58000 530.845
38.59000 549.834
38.60000 564.499
38.61000 579.204
38.62000 596.642
38.63000 615.754
38.64000 634.965
38.65000 656.430
38.66000 678.827
38.67000 699.765
38.68000 716.761
38.69000 731.190
38.70000 744.061
38.71000 746.587
38.72000 747.210
38.73000 746.802
38.74000 741.984
38.75000 736.664
38.76000 732.661
38.77000 729.431
38.78000 726.942
38.79000 725.023
38.80000 724.211
38.81000 723.428
38.82000 713.633
38.83000 692.135
38.84000 670.611
38.85000 644.807
38.86000 615.500
38.87000 586.421
38.88000 568.607
38.89000 557.056
38.90000 545.094
38.91000 525.470
38.92000 502.959
38.93000 482.146
38.94000 468.645
38.95000 458.189
38.96000 446.374
38.97000 426.491
38.98000 405.277
38.99000 385.445
39.00000 370.962
39.01000 357.013
39.02000 346.788
39.03000 340.983
39.04000 336.676
39.05000 331.136
39.06000 323.414
39.07000 315.650
39.08000 310.781
39.09000 309.305
39.10000 307.839
39.11000 300.161
39.12000 287.868
39.13000 275.872
39.14000 274.864
39.15000 279.417
39.16000 283.899
39.17000 287.275
39.18000 290.271
39.19000 293.009
39.20000 287.652
39.21000 281.243
39.22000 275.528
39.23000 273.505
39.24000 272.028
39.25000 271.096
39.26000 272.080
39.27000 273.232
39.28000 274.052
39.29000 267.748
39.30000 262.711
39.31000 259.115
39.32000 257.834
39.33000 256.584
39.34000 257.700
39.35000 261.313
39.36000 264.907
39.37000 265.952
39.38000 265.259
39.39000 264.565
39.40000 263.829
39.41000 263.072
39.42000 262.621
39.43000 266.228
39.44000 271.104
39.45000 275.500
39.46000 273.492
39.47000 270.562
39.48000 266.606
39.49000 257.714
39.50000 248.176
39.51000 242.697
39.52000 250.193
39.53000 258.661
39.54000 264.515
39.55000 263.572
39.56000 262.686
39.57000 264.521
39.58000 270.319
39.59000 276.149
39.60000 276.731
39.61000 272.347
39.62000 267.999
39.63000 263.457
39.64000 258.879
39.65000 254.466
39.66000 253.881
39.67000 254.903
39.68000 256.239
39.69000 261.165
39.70000 267.111
39.71000 272.399
39.72000 265.587
39.73000 257.711
39.74000 251.067
39.75000 249.771
39.76000 249.097
39.77000 250.711
39.78000 258.981
39.79000 267.676
39.80000 273.497
39.81000 271.116
39.82000 269.187
39.83000 270.217
39.84000 275.153
39.85000 280.095
39.86000 277.910
39.87000 269.657
39.88000 261.504
39.89000 258.221
39.90000 257.702
39.91000 257.220
39.92000 257.469
39.93000 257.997
39.94000 258.197
39.95000 255.117
39.96000 251.192
39.97000 247.753
39.98000 256.325
39.99000 265.409
40.00000 270.833
40.01000 261.854
40.02000 251.407
40.03000 244.022
40.04000 244.750
40.05000 245.912
40.06000 246.664
40.07000 250.836
40.08000 253.938
40.09000 253.652
40.10000 249.327
40.11000 245.007
40.12000 243.446
40.13000 244.005
40.14000 244.555
40.15000 247.715
40.16000 252.068
40.17000 256.603
40.18000 264.058
40.19000 272.530
40.20000 279.491
40.21000 273.202
40.22000 263.820
40.23000 255.733
40.24000 256.114
40.25000 257.516
40.26000 258.426
40.27000 257.581
40.28000 256.579
40.29000 255.693
40.30000 255.087
40.31000 254.493
40.32000 254.123
40.33000 255.293
40.34000 256.152
40.35000 257.037
40.36000 257.949
40.37000 258.855
40.38000 258.956
40.39000 258.497
40.40000 258.049
40.41000 258.549
40.42000 259.455
40.43000 259.861
40.44000 253.437
40.45000 244.849
40.46000 237.420
40.47000 238.985
40.48000 242.449
40.49000 245.382
40.50000 244.917
40.51000 244.147
40.52000 244.921
40.53000 250.707
40.54000 256.879
40.55000 259.629
40.56000 254.856
40.57000 249.815
40.58000 246.795
40.59000 243.862
40.60000 241.780
40.61000 242.690
40.62000 246.481
40.63000 250.228
40.64000 250.500
40.65000 248.577
40.66000 246.709
40.67000 245.932
40.68000 245.635
40.69000 245.197
40.70000 243.097
40.71000 240.519
40.72000 237.971
40.73000 235.636
40.74000 233.341
40.75000 231.433
40.76000 242.097
40.77000 252.154
40.78000 259.231
40.79000 257.509
40.80000 255.211
40.81000 252.865
40.82000 250.424
40.83000 247.980
40.84000 246.577
40.85000 252.927
40.86000 257.385
40.87000 254.141
40.88000 244.230
40.89000 234.447
40.90000 231.738
40.91000 233.085
40.92000 234.385
40.93000 237.568
40.94000 241.252
40.95000 244.700
40.96000 245.738
40.97000 246.146
40.98000 246.480
40.99000 246.361
41.00000 246.165
41.01000 246.006
41.02000 246.750
41.03000 247.435
41.04000 246.428
41.05000 240.869
41.06000 235.059
41.07000 232.446
41.08000 235.660
41.09000 238.997
41.10000 240.827
41.11000 241.572
41.12000 242.084
41.13000 242.779
41.14000 243.616
41.15000 244.409
41.16000 243.380
41.17000 241.401
41.18000 239.506
41.19000 238.206
41.20000 237.189
41.21000 236.692
41.22000 240.851
41.23000 246.114
41.24000 249.916
41.25000 245.648
41.26000 240.146
41.27000 235.754
41.28000 237.096
41.29000 238.601
41.30000 238.676
41.31000 235.248
41.32000 231.661
41.33000 229.303
41.34000 228.982
41.35000 228.691
41.36000 228.540
41.37000 231.276
41.38000 233.138
41.39000 236.393
41.40000 240.634
41.41000 244.741
41.42000 244.652
41.43000 242.571
41.44000 240.596
41.45000 240.731
41.46000 241.481
41.47000 241.845
41.48000 239.158
41.49000 235.816
41.50000 232.753
41.51000 231.076
41.52000 229.587
41.53000 228.426
41.54000 228.324
41.55000 228.309
41.56000 227.207
41.57000 223.681
41.58000 220.064
41.59000 220.542
41.60000 227.179
41.61000 233.878
41.62000 237.964
41.63000 239.491
41.64000 241.038
41.65000 244.232
41.66000 248.483
41.67000 252.338
41.68000 246.320
41.69000 236.030
41.70000 226.362
41.71000 227.135
41.72000 230.630
41.73000 233.854
41.74000 235.171
41.75000 236.120
41.76000 236.964
41.77000 237.342
41.78000 237.663
41.79000 237.908
41.80000 238.905
41.81000 239.730
41.82000 240.411
41.83000 240.801
41.84000 241.182
41.85000 240.127
41.86000 237.113
41.87000 234.089
41.88000 232.596
41.89000 232.450
41.90000 232.347
41.91000 234.709
41.92000 238.506
41.93000 242.160
41.94000 242.892
41.95000 242.473
41.96000 242.083
41.97000 239.608
41.98000 236.873
41.99000 233.667
42.00000 227.508
42.01000 220.835
42.02000 216.943
42.03000 224.348
42.04000 232.955
42.05000 239.347
42.06000 239.585
42.07000 239.498
42.08000 237.951
42.09000 233.702
42.10000 229.393
42.11000 227.291
42.12000 227.909
42.13000 228.533
42.14000 228.378
42.15000 227.609
42.16000 226.903
42.17000 228.912
42.18000 232.359
42.19000 235.796
42.20000 239.050
42.21000 242.239
42.22000 245.169
42.23000 244.857
42.24000 243.880
42.25000 243.176
42.26000 243.999
42.27000 245.059
42.28000 245.293
42.29000 242.479
42.30000 239.382
42.31000 237.145
42.32000 234.548
42.33000 232.544
42.34000 228.754
42.35000 221.958
42.36000 215.114
42.37000 213.869
42.38000 218.842
42.39000 223.799
42.40000 228.716
42.41000 233.558
42.42000 238.217
42.43000 236.901
42.44000 232.705
42.45000 229.118
42.46000 234.288
42.47000 242.322
42.48000 249.613
42.49000 243.839
42.50000 236.226
42.51000 229.010
42.52000 223.804
42.53000 218.877
42.54000 216.112
42.55000 220.583
42.56000 225.636
42.57000 229.183
42.58000 223.112
42.59000 218.237
42.60000 218.298
42.61000 225.899
42.62000 233.582
42.63000 237.114
42.64000 236.508
42.65000 235.905
42.66000 233.859
42.67000 230.919
42.68000 227.990
42.69000 225.376
42.70000 222.899
42.71000 220.942
42.72000 225.380
42.73000 231.720
42.74000 237.398
42.75000 235.973
42.76000 233.510
42.77000 231.364
42.78000 230.660
42.79000 230.134
42.80000 228.541
42.81000 223.700
42.82000 218.634
42.83000 215.188
42.84000 222.432
42.85000 228.083
42.86000 227.183
42.87000 217.208
42.88000 207.181
42.89000 206.535
42.90000 214.289
42.91000 221.965
42.92000 223.198
42.93000 220.678
42.94000 218.363
42.95000 220.385
42.96000 224.142
42.97000 227.309
42.98000 224.187
42.99000 219.365
43.00000 215.109
43.01000 214.867
43.02000 215.271
43.03000 215.751
43.04000 216.542
43.05000 217.368
43.06000 218.596
43.07000 220.939
43.08000 223.348
43.09000 224.932
43.10000 226.344
43.11000 227.380
43.12000 226.148
43.13000 222.074
43.14000 217.993
43.15000 214.828
43.16000 212.401
43.17000 210.009
43.18000 211.665
43.19000 215.386
43.20000 218.622
43.21000 213.388
43.22000 205.065
43.23000 198.158
43.24000 204.458
43.25000 213.993
43.26000 222.277
43.27000 222.882
43.28000 222.359
43.29000 222.090
43.30000 222.778
43.31000 223.556
43.32000 224.740
43.33000 226.948
43.34000 229.206
43.35000 230.640
43.36000 227.485
43.37000 225.139
43.38000 224.301
43.39000 225.167
43.40000 226.014
43.41000 223.274
43.42000 217.918
43.43000 212.666
43.44000 213.482
43.45000 217.129
43.46000 220.781
43.47000 224.521
43.48000 228.290
43.49000 231.755
43.50000 232.717
43.51000 233.124
43.52000 233.472
43.53000 222.134
43.54000 211.188
43.55000 203.502
43.56000 206.901
43.57000 211.215
43.58000 214.641
43.59000 216.025
43.60000 217.329
43.61000 218.126
43.62000 218.992
43.63000 219.612
43.64000 220.268
43.65000 220.960
43.66000 221.646
43.67000 221.642
43.68000 221.184
43.69000 220.737
43.70000 220.894
43.71000 221.301
43.72000 221.423
43.73000 217.949
43.74000 213.389
43.75000 209.374
43.76000 209.342
43.77000 210.107
43.78000 210.749
43.79000 213.649
43.80000 216.299
43.81000 218.766
43.82000 220.667
43.83000 222.527
43.84000 222.918
43.85000 220.231
43.86000 217.446
43.87000 215.813
43.88000 217.510
43.89000 218.723
43.90000 220.032
43.91000 221.430
43.92000 222.749
43.93000 218.918
43.94000 211.995
43.95000 205.291
43.96000 209.340
43.97000 217.300
43.98000 224.146
43.99000 218.834
44.00000 210.187
44.01000 203.299
44.02000 207.844
44.03000 214.448
44.04000 219.885
44.05000 218.228
44.06000 216.218
44.07000 214.855
44.08000 215.308
44.09000 215.871
44.10000 215.530
44.11000 213.464
44.12000 211.355
44.13000 210.172
44.14000 213.776
44.15000 216.286
44.16000 218.658
44.17000 220.915
44.18000 223.114
44.19000 222.548
44.20000 220.473
44.21000 218.479
44.22000 223.309
44.23000 230.197
44.24000 235.960
44.25000 231.001
44.26000 223.374
44.27000 217.051
44.28000 218.323
44.29000 220.822
44.30000 222.837
44.31000 224.599
44.32000 226.009
44.33000 224.903
44.34000 217.346
44.35000 209.466
44.36000 205.542
44.37000 208.487
44.38000 211.555
44.39000 213.196
44.40000 217.750
44.41000 220.837
44.42000 220.001
44.43000 216.256
44.44000 212.659
44.45000 214.331
44.46000 218.620
44.47000 222.708
44.48000 219.227
44.49000 213.637
44.50000 209.507
44.51000 217.627
44.52000 228.507
44.53000 236.914
44.54000 232.390
44.55000 226.000
44.56000 220.958
44.57000 221.663
44.58000 222.619
44.59000 224.025
44.60000 226.482
44.61000 228.981
44.62000 225.873
44.63000 213.922
44.64000 201.862
44.65000 195.734
44.66000 204.159
44.67000 209.765
44.68000 211.065
44.69000 209.471
44.70000 207.968
44.71000 208.982
44.72000 211.135
44.73000 213.168
44.74000 218.728
44.75000 224.821
44.76000 229.988
44.77000 228.276
44.78000 225.165
44.79000 223.922
44.80000 231.482
44.81000 240.171
44.82000 246.870
44.83000 238.526
44.84000 231.050
44.85000 227.446
44.86000 232.076
44.87000 236.977
44.88000 239.320
44.89000 238.005
44.90000 236.662
44.91000 235.000
44.92000 233.045
44.93000 231.117
44.94000 231.111
44.95000 232.277
44.96000 233.669
44.97000 240.124
44.98000 248.668
44.99000 256.652
45.00000 254.778
45.01000 250.583
45.02000 246.820
45.03000 245.908
45.04000 245.519
45.05000 244.843
45.06000 242.946
45.07000 240.910
45.08000 239.380
45.09000 247.232
45.10000 253.827
45.11000 258.183
45.12000 258.203
45.13000 258.112
45.14000 259.478
45.15000 262.729
45.16000 265.985
45.17000 267.534
45.18000 267.659
45.19000 267.686
45.20000 262.919
45.21000 255.495
45.22000 248.316
45.23000 245.677
45.24000 244.743
45.25000 243.880
45.26000 249.503
45.27000 256.022
45.28000 261.397
45.29000 259.999
45.30000 257.487
45.31000 255.786
45.32000 257.213
45.33000 258.951
45.34000 260.223
45.35000 259.123
45.36000 258.179
45.37000 255.039
45.38000 248.028
45.39000 240.944
45.40000 238.533
45.41000 241.585
45.42000 244.636
45.43000 247.394
45.44000 249.915
45.45000 252.365
45.46000 252.230
45.47000 250.790
45.48000 249.349
45.49000 247.879
45.50000 246.399
45.51000 245.048
45.52000 246.215
45.53000 247.764
45.54000 248.957
45.55000 248.261
45.56000 247.287
45.57000 245.292
45.58000 239.721
45.59000 233.840
45.60000 229.654
45.61000 242.221
45.62000 252.338
45.63000 255.800
45.64000 248.601
45.65000 241.262
45.66000 239.689
45.67000 244.177
45.68000 248.643
45.69000 246.239
45.70000 239.230
45.71000 232.445
45.72000 232.074
45.73000 234.651
45.74000 236.769
45.75000 232.798
45.76000 226.932
45.77000 221.644
45.78000 222.933
45.79000 225.260
45.80000 226.796
45.81000 224.544
45.82000 221.798
45.83000 221.657
45.84000 229.820
45.85000 238.602
45.86000 244.667
45.87000 233.143
45.88000 224.030
45.89000 219.383
45.90000 221.226
45.91000 223.123
45.92000 224.853
45.93000 226.425
45.94000 227.984
45.95000 224.952
45.96000 219.184
45.97000 213.721
45.98000 215.320
45.99000 219.877
46.00000 223.999
46.01000 223.148
46.02000 220.890
46.03000 218.883
46.04000 219.496
46.05000 220.452
46.06000 220.872
46.07000 218.978
46.08000 216.815
46.09000 214.587
46.10000 212.167
46.11000 209.736
46.12000 208.110
46.13000 205.778
46.14000 204.036
46.15000 205.785
46.16000 212.128
46.17000 218.478
46.18000 216.459
46.19000 207.336
46.20000 198.326
46.21000 196.725
46.22000 199.230
46.23000 201.545
46.24000 200.217
46.25000 197.500
46.26000 195.143
46.27000 196.369
46.28000 198.516
46.29000 200.396
46.30000 198.807
46.31000 196.947
46.32000 195.630
46.33000 196.439
46.34000 197.464
46.35000 199.681
46.36000 205.043
46.37000 210.574
46.38000 214.147
46.39000 208.233
46.40000 203.772
46.41000 202.813
46.42000 206.017
46.43000 209.221
46.44000 210.988
46.45000 211.653
46.46000 212.306
46.47000 207.902
46.48000 201.137
46.49000 194.694
46.50000 193.367
46.51000 193.817
46.52000 194.183
46.53000 193.806
46.54000 193.257
46.55000 192.783
46.56000 189.962
46.57000 187.274
46.58000 185.612
46.59000 187.600
46.60000 189.910
46.61000 191.044
46.62000 189.345
46.63000 187.521
46.64000 186.386
46.65000 193.029
46.66000 197.893
46.67000 199.614
46.68000 197.973
46.69000 196.337
46.70000 195.431
46.71000 195.031
46.72000 194.641
46.73000 195.939
46.74000 197.938
46.75000 199.892
46.76000 201.214
46.77000 202.338
46.78000 202.806
46.79000 198.211
46.80000 192.552
46.81000 187.760
46.82000 189.767
46.83000 192.206
46.84000 193.489
46.85000 191.026
46.86000 188.278
46.87000 187.294
46.88000 190.180
46.89000 193.203
46.90000 195.012
46.91000 193.996
46.92000 193.256
46.93000 194.140
46.94000 196.583
46.95000 199.012
46.96000 200.319
46.97000 200.920
46.98000 201.504
46.99000 199.062
47.00000 195.519
47.01000 192.411
47.02000 194.376
47.03000 197.800
47.04000 200.375
47.05000 197.114
47.06000 192.745
47.07000 189.115
47.08000 187.524
47.09000 186.407
47.10000 185.900
47.11000 187.193
47.12000 188.602
47.13000 187.796
47.14000 182.568
47.15000 177.217
47.16000 174.149
47.17000 188.743
47.18000 198.994
47.19000 201.864
47.20000 198.362
47.21000 194.920
47.22000 194.735
47.23000 196.412
47.24000 198.030
47.25000 194.615
47.26000 189.567
47.27000 185.223
47.28000 188.034
47.29000 192.714
47.30000 196.423
47.31000 194.183
47.32000 190.928
47.33000 188.276
47.34000 190.314
47.35000 192.378
47.36000 193.115
47.37000 190.297
47.38000 187.284
47.39000 184.230
47.40000 181.100
47.41000 177.969
47.42000 176.254
47.43000 184.155
47.44000 189.577
47.45000 188.287
47.46000 181.771
47.47000 175.398
47.48000 174.786
47.49000 177.171
47.50000 179.453
47.51000 181.073
47.52000 182.365
47.53000 183.403
47.54000 182.177
47.55000 180.415
47.56000 179.645
47.57000 184.326
47.58000 189.838
47.59000 194.235
47.60000 188.801
47.61000 183.697
47.62000 180.539
47.63000 182.135
47.64000 183.947
47.65000 185.034
47.66000 184.925
47.67000 184.798
47.68000 184.732
47.69000 183.383
47.70000 182.493
47.71000 184.688
47.72000 189.059
47.73000 193.380
47.74000 196.186
47.75000 198.276
47.76000 200.257
47.77000 192.466
47.78000 182.389
47.79000 173.709
47.80000 176.037
47.81000 180.719
47.82000 183.607
47.83000 177.605
47.84000 170.394
47.85000 164.771
47.86000 176.158
47.87000 186.295
47.88000 192.331
47.89000 189.239
47.90000 185.812
47.91000 183.014
47.92000 181.160
47.93000 179.315
47.94000 181.237
47.95000 186.836
47.96000 192.386
47.97000 193.815
47.98000 192.610
47.99000 191.401
48.00000 190.088
48.01000 188.730
48.02000 187.455
48.03000 187.875
48.04000 188.710
48.05000 189.451
48.06000 189.529
48.07000 189.480
48.08000 189.624
48.09000 190.636
48.10000 191.752
48.11000 192.602
48.12000 191.038
48.13000 189.679
48.14000 187.629
48.15000 184.173
48.16000 180.678
48.17000 178.235
48.18000 177.224
48.19000 176.222
48.20000 178.053
48.21000 182.364
48.22000 186.620
48.23000 187.691
48.24000 186.914
48.25000 186.214
48.26000 187.070
48.27000 188.537
48.28000 189.900
48.29000 191.829
48.30000 193.705
48.31000 194.809
48.32000 191.089
48.33000 186.532
48.34000 182.717
48.35000 181.909
48.36000 181.420
48.37000 181.057
48.38000 185.368
48.39000 188.922
48.40000 190.564
48.41000 188.678
48.42000 186.715
48.43000 185.298
48.44000 184.552
48.45000 183.810
48.46000 183.541
48.47000 183.647
48.48000 183.724
48.49000 182.592
48.50000 180.822
48.51000 179.150
48.52000 179.134
48.53000 179.710
48.54000 180.240
48.55000 181.018
48.56000 181.765
48.57000 182.219
48.58000 181.032
48.59000 179.591
48.60000 179.135
48.61000 182.297
48.62000 185.794
48.63000 188.318
48.64000 180.228
48.65000 173.642
48.66000 171.905
48.67000 178.302
48.68000 184.828
48.69000 185.719
48.70000 180.372
48.71000 175.042
48.72000 174.193
48.73000 176.532
48.74000 178.807
48.75000 179.038
48.76000 178.285
48.77000 177.467
48.78000 175.709
48.79000 173.643
48.80000 171.770
48.81000 173.876
48.82000 176.498
48.83000 179.126
48.84000 181.781
48.85000 184.440
48.86000 185.326
48.87000 180.294
48.88000 174.787
48.89000 170.927
48.90000 169.945
48.91000 169.285
48.92000 168.982
48.93000 169.223
48.94000 169.471
48.95000 169.069
48.96000 168.021
48.97000 166.981
48.98000 171.974
48.99000 180.748
49.00000 189.170
49.01000 188.561
49.02000 183.996
49.03000 179.830
49.04000 180.559
49.05000 182.740
49.06000 184.692
49.07000 183.202
49.08000 181.314
49.09000 179.564
49.10000 178.449
49.11000 177.411
49.12000 176.040
49.13000 173.655
49.14000 171.201
49.15000 169.534
49.16000 163.020
49.17000 158.049
49.18000 161.211
49.19000 175.606
49.20000 190.062
49.21000 191.694
49.22000 181.878
49.23000 172.163
49.24000 169.834
49.25000 171.814
49.26000 173.762
49.27000 175.033
49.28000 176.033
49.29000 177.176
49.30000 179.835
49.31000 182.902
49.32000 185.608
49.33000 184.478
49.34000 182.921
49.35000 180.640
49.36000 175.385
49.37000 169.808
49.38000 166.747
49.39000 170.642
49.40000 174.941
49.41000 177.766
49.42000 172.061
49.43000 167.717
49.44000 166.596
49.45000 169.498
49.46000 172.414
49.47000 175.849
49.48000 179.703
49.49000 183.500
49.50000 182.469
49.51000 178.954
49.52000 175.701
49.53000 176.984
49.54000 179.917
49.55000 182.368
49.56000 180.336
49.57000 177.209
49.58000 174.493
49.59000 173.708
49.60000 173.298
49.61000 172.754
49.62000 171.709
49.63000 170.616
49.64000 170.392
49.65000 172.354
49.66000 174.421
49.67000 175.732
49.68000 168.936
49.69000 163.907
49.70000 162.552
49.71000 165.333
49.72000 168.098
49.73000 167.631
49.74000 164.814
49.75000 162.053
49.76000 162.324
49.77000 164.011
49.78000 165.893
49.79000 170.624
49.80000 176.299
49.81000 181.110
49.82000 178.848
49.83000 175.022
49.84000 171.755
49.85000 174.866
49.86000 178.244
49.87000 180.509
49.88000 179.002
49.89000 177.186
49.90000 174.880
49.91000 171.453
49.92000 167.982
49.93000 165.864
49.94000 172.284
49.95000 176.943
49.96000 179.974
49.97000 181.358
49.98000 182.727
49.99000 182.576
50.00000 181.423
50.01000 180.299
50.02000 175.609
50.03000 169.619
50.04000 164.015
50.05000 163.248
50.06000 163.937
50.07000 164.731
50.08000 166.292
50.09000 168.006
50.10000 169.444
50.11000 173.988
50.12000 178.093
50.13000 179.954
50.14000 174.899
50.15000 169.357
50.16000 167.287
50.17000 172.473
50.18000 177.885
50.19000 181.055
50.20000 175.662
50.21000 171.824
50.22000 170.101
50.23000 170.300
50.24000 170.499
50.25000 170.748
50.26000 171.027
50.27000 171.297
50.28000 173.840
50.29000 177.115
50.30000 179.760
50.31000 175.560
50.32000 169.488
50.33000 164.369
50.34000 165.431
50.35000 167.601
50.36000 169.387
50.37000 168.957
50.38000 168.402
50.39000 168.730
50.40000 171.536
50.41000 174.490
50.42000 175.976
50.43000 174.672
50.44000 173.301
50.45000 172.532
50.46000 177.054
50.47000 180.198
50.48000 182.072
50.49000 182.909
50.50000 183.645
50.51000 179.776
50.52000 173.398
50.53000 167.270
50.54000 172.783
50.55000 181.965
50.56000 190.472
50.57000 192.574
50.58000 193.086
50.59000 193.406
50.60000 192.613
50.61000 191.641
50.62000 190.858
50.63000 186.723
50.64000 183.102
50.65000 179.772
50.66000 177.186
50.67000 174.637
50.68000 173.338
50.69000 174.202
50.70000 175.105
50.71000 175.587
50.72000 177.261
50.73000 178.412
50.74000 181.210
50.75000 185.224
50.76000 189.141
50.77000 189.643
50.78000 188.453
50.79000 187.320
50.80000 185.767
50.81000 184.197
50.82000 183.042
50.83000 185.358
50.84000 188.454
50.85000 191.062
50.86000 191.131
50.87000 190.834
50.88000 190.601
50.89000 189.270
50.90000 188.128
50.91000 187.281
50.92000 187.119
50.93000 186.985
50.94000 185.010
50.95000 180.138
50.96000 175.231
50.97000 172.742
50.98000 178.639
50.99000 182.547
51.00000 182.034
51.01000 178.560
51.02000 175.124
51.03000 172.759
51.04000 170.876
51.05000 169.098
51.06000 171.937
51.07000 175.835
51.08000 179.027
51.09000 177.001
51.10000 173.917
51.11000 171.267
51.12000 170.663
51.13000 170.320
51.14000 170.056
51.15000 174.707
51.16000 178.672
51.17000 180.032
51.18000 175.868
51.19000 171.524
51.20000 169.385
51.21000 170.389
51.22000 171.417
51.23000 170.498
51.24000 167.782
51.25000 165.112
51.26000 165.564
51.27000 167.914
51.28000 170.260
51.29000 172.492
51.30000 174.678
51.31000 176.720
51.32000 172.202
51.33000 166.449
51.34000 161.954
51.35000 165.754
51.36000 171.070
51.37000 174.963
51.38000 172.809
51.39000 169.974
51.40000 167.843
51.41000 167.345
51.42000 167.035
51.43000 167.371
51.44000 168.958
51.45000 170.577
51.46000 170.060
51.47000 166.786
51.48000 163.506
51.49000 162.188
51.50000 162.503
51.51000 162.818
51.52000 163.193
51.53000 163.599
51.54000 164.244
51.55000 169.268
51.56000 175.934
51.57000 182.093
51.58000 176.976
51.59000 169.835
51.60000 163.647
51.61000 163.093
51.62000 163.462
51.63000 162.917
51.64000 158.851
51.65000 154.436
51.66000 151.205
51.67000 157.743
51.68000 163.176
51.69000 165.860
51.70000 163.715
51.71000 161.479
51.72000 162.241
51.73000 166.495
51.74000 170.741
51.75000 167.890
51.76000 159.761
51.77000 151.881
51.78000 153.042
51.79000 158.753
51.80000 164.395
51.81000 168.962
51.82000 173.164
51.83000 176.999
51.84000 169.050
51.85000 159.609
51.86000 151.964
51.87000 153.841
51.88000 157.112
51.89000 160.702
51.90000 165.405
51.91000 170.203
51.92000 173.616
51.93000 168.313
51.94000 163.994
51.95000 161.172
51.96000 160.740
51.97000 160.338
51.98000 158.554
51.99000 155.320
52.00000 152.102
52.01000 152.602
52.02000 155.595
52.03000 158.512
52.04000 159.281
52.05000 159.064
52.06000 158.767
52.07000 157.403
52.08000 155.708
52.09000 154.180
52.10000 152.189
52.11000 150.359
52.12000 149.782
52.13000 155.192
52.14000 161.382
52.15000 166.142
52.16000 166.359
52.17000 166.240
52.18000 166.157
52.19000 164.229
52.20000 162.734
52.21000 162.476
52.22000 164.011
52.23000 165.560
52.24000 165.170
52.25000 162.958
52.26000 160.765
52.27000 162.977
52.28000 167.817
52.29000 172.329
52.30000 169.289
52.31000 163.095
52.32000 157.424
52.33000 157.699
52.34000 159.653
52.35000 161.389
52.36000 157.724
52.37000 153.674
52.38000 151.429
52.39000 156.971
52.40000 163.410
52.41000 165.909
52.42000 157.013
52.43000 147.398
52.44000 140.974
52.45000 145.058
52.46000 148.289
52.47000 152.196
52.48000 156.989
52.49000 161.778
52.50000 162.208
52.51000 158.949
52.52000 155.731
52.53000 156.073
52.54000 158.355
52.55000 160.446
52.56000 158.942
52.57000 156.070
52.58000 153.422
52.59000 152.982
52.60000 153.109
52.61000 153.220
52.62000 152.697
52.63000 152.157
52.64000 151.961
52.65000 153.109
52.66000 154.393
52.67000 155.486
52.68000 156.077
52.69000 156.643
52.70000 157.007
52.71000 157.375
52.72000 157.643
52.73000 157.265
52.74000 156.121
52.75000 154.987
52.76000 156.390
52.77000 159.731
52.78000 163.015
52.79000 164.810
52.80000 165.811
52.81000 166.737
52.82000 166.488
52.83000 165.832
52.84000 164.991
52.85000 162.540
52.86000 159.716
52.87000 157.284
52.88000 158.013
52.89000 159.030
52.90000 159.945
52.91000 160.497
52.92000 161.017
52.93000 161.249
52.94000 160.790
52.95000 160.301
52.96000 159.997
52.97000 158.489
52.98000 157.391
52.99000 159.493
53.00000 165.007
53.01000 170.462
53.02000 168.768
53.03000 162.129
53.04000 155.640
53.05000 149.476
53.06000 143.715
53.07000 138.509
53.08000 140.806
53.09000 145.469
53.10000 150.148
53.11000 154.955
53.12000 159.789
53.13000 163.879
53.14000 159.810
53.15000 155.496
53.16000 152.336
53.17000 152.900
53.18000 153.746
53.19000 154.816
53.20000 156.375
53.21000 157.951
53.22000 158.893
53.23000 157.947
53.24000 157.263
53.25000 158.591
53.26000 161.843
53.27000 165.057
53.28000 165.359
53.29000 163.834
53.30000 162.352
53.31000 159.706
53.32000 156.725
53.33000 153.812
53.34000 151.691
53.35000 149.797
53.36000 148.529
53.37000 151.540
53.38000 155.360
53.39000 158.533
53.40000 163.827
53.41000 168.412
53.42000 171.550
53.43000 170.446
53.44000 169.065
53.45000 166.376
53.46000 161.080
53.47000 155.712
53.48000 152.638
53.49000 152.452
53.50000 152.333
53.51000 152.977
53.52000 154.277
53.53000 155.573
53.54000 156.611
53.55000 157.502
53.56000 158.362
53.57000 159.409
53.58000 160.462
53.59000 161.179
53.60000 158.501
53.61000 154.938
53.62000 151.680
53.63000 150.281
53.64000 149.198
53.65000 148.317
53.66000 146.752
53.67000 145.416
53.68000 144.478
53.69000 144.604
53.70000 144.788
53.71000 145.147
53.72000 145.824
53.73000 146.508
53.74000 146.882
53.75000 150.782
53.76000 153.457
53.77000 153.433
53.78000 151.312
53.79000 149.245
53.80000 149.277
53.81000 150.399
53.82000 151.472
53.83000 151.405
53.84000 150.970
53.85000 150.716
53.86000 152.087
53.87000 153.839
53.88000 154.872
53.89000 151.951
53.90000 148.431
53.91000 145.624
53.92000 150.117
53.93000 154.273
53.94000 156.533
53.95000 154.174
53.96000 151.606
53.97000 151.944
53.98000 157.067
53.99000 162.261
54.00000 164.964
54.01000 158.057
54.02000 153.417
54.03000 152.805
54.04000 155.023
54.05000 157.195
54.06000 157.977
54.07000 158.102
54.08000 158.220
54.09000 155.207
54.10000 151.506
54.11000 148.217
54.12000 148.167
54.13000 148.807
54.14000 149.307
54.15000 149.116
54.16000 148.832
54.17000 148.610
54.18000 148.315
54.19000 148.075
54.20000 147.722
54.21000 147.120
54.22000 146.509
54.23000 146.775
54.24000 148.353
54.25000 149.944
54.26000 149.106
54.27000 145.904
54.28000 142.749
54.29000 143.516
54.30000 146.782
54.31000 149.852
54.32000 148.089
54.33000 144.247
54.34000 140.639
54.35000 141.262
54.36000 142.954
54.37000 144.754
54.38000 147.313
54.39000 150.019
54.40000 151.889
54.41000 150.036
54.42000 147.737
54.43000 145.988
54.44000 150.922
54.45000 155.153
54.46000 157.063
54.47000 154.278
54.48000 151.358
54.49000 148.579
54.50000 145.988
54.51000 143.401
54.52000 143.779
54.53000 146.748
54.54000 149.681
54.55000 150.596
54.56000 150.343
54.57000 150.158
54.58000 151.336
54.59000 153.048
54.60000 154.639
54.61000 155.979
54.62000 157.130
54.63000 158.001
54.64000 157.141
54.65000 155.981
54.66000 155.441
54.67000 157.407
54.68000 159.637
54.69000 161.291
54.70000 154.649
54.71000 149.129
54.72000 146.177
54.73000 147.951
54.74000 149.827
54.75000 150.711
54.76000 150.380
54.77000 150.046
54.78000 151.756
54.79000 155.061
54.80000 158.225
54.81000 155.488
54.82000 149.645
54.83000 144.214
54.84000 145.717
54.85000 149.697
54.86000 153.351
54.87000 157.205
54.88000 160.687
54.89000 162.618
54.90000 155.899
54.91000 147.842
54.92000 142.657
54.93000 147.996
54.94000 154.305
54.95000 158.855
54.96000 154.889
54.97000 151.545
54.98000 150.261
54.99000 152.427
55.00000 154.646
55.01000 157.183
55.02000 160.072
55.03000 162.949
55.04000 162.850
55.05000 160.647
55.06000 158.432
55.07000 155.808
55.08000 152.988
55.09000 150.381
55.10000 150.805
55.11000 152.214
55.12000 153.491
55.13000 156.234
55.14000 158.934
55.15000 161.064
55.16000 160.333
55.17000 159.207
55.18000 156.663
55.19000 149.401
55.20000 141.764
55.21000 136.414
55.22000 146.321
55.23000 154.250
55.24000 159.461
55.25000 160.541
55.26000 161.577
55.27000 162.296
55.28000 162.700
55.29000 163.101
55.30000 161.870
55.31000 159.617
55.32000 157.416
55.33000 156.549
55.34000 156.265
55.35000 155.951
55.36000 155.276
55.37000 154.495
55.38000 153.795
55.39000 153.877
55.40000 154.082
55.41000 154.537
55.42000 156.125
55.43000 157.852
55.44000 159.620
55.45000 161.512
55.46000 163.414
55.47000 164.705
55.48000 168.024
55.49000 170.546
55.50000 171.208
55.51000 169.309
55.52000 167.399
55.53000 171.089
55.54000 179.760
55.55000 188.342
55.56000 187.646
55.57000 181.631
55.58000 176.023
55.59000 178.854
55.60000 185.043
55.61000 191.288
55.62000 198.115
55.63000 205.099
55.64000 211.257
55.65000 213.659
55.66000 215.161
55.67000 218.040
55.68000 226.571
55.69000 235.711
55.70000 242.794
55.71000 244.205
55.72000 245.288
55.73000 245.999
55.74000 268.692
55.75000 285.757
55.76000 296.379
55.77000 298.979
55.78000 301.560
55.79000 305.652
55.80000 310.956
55.81000 316.182
55.82000 329.973
55.83000 347.803
55.84000 364.972
55.85000 370.722
55.86000 372.332
55.87000 374.866
55.88000 385.954
55.89000 399.124
55.90000 410.555
55.91000 406.887
55.92000 401.733
55.93000 399.775
55.94000 409.705
55.95000 420.756
55.96000 428.828
55.97000 429.421
55.98000 429.655
55.99000 429.803
56.00000 421.335
56.01000 415.090
56.02000 412.346
56.03000 413.531
56.04000 414.716
56.05000 415.444
56.06000 415.841
56.07000 416.229
56.08000 410.469
56.09000 402.044
56.10000 393.331
56.11000 380.411
56.12000 366.102
56.13000 352.562
56.14000 345.300
56.15000 339.421
56.16000 334.403
56.17000 326.192
56.18000 318.901
56.19000 310.940
56.20000 300.716
56.21000 290.306
56.22000 281.423
56.23000 276.029
56.24000 270.772
56.25000 267.568
56.26000 265.267
56.27000 263.630
56.28000 259.497
56.29000 252.846
56.30000 246.166
56.31000 236.675
56.32000 225.336
56.33000 214.288
56.34000 211.223
56.35000 211.675
56.36000 211.660
56.37000 205.795
56.38000 198.173
56.39000 191.524
56.40000 191.919
56.41000 193.715
56.42000 195.221
56.43000 195.847
56.44000 196.276
56.45000 195.621
56.46000 191.631
56.47000 187.407
56.48000 183.891
56.49000 181.853
56.50000 179.860
56.51000 178.695
56.52000 174.366
56.53000 171.304
56.54000 168.442
56.55000 165.761
56.56000 163.087
56.57000 160.835
56.58000 158.836
56.59000 156.900
56.60000 156.448
56.61000 156.587
56.62000 156.876
56.63000 158.793
56.64000 161.154
56.65000 163.104
56.66000 162.395
56.67000 161.212
56.68000 160.238
56.69000 157.643
56.70000 155.364
56.71000 153.034
56.72000 150.562
56.73000 148.081
56.74000 148.310
56.75000 153.677
56.76000 159.166
56.77000 162.238
56.78000 154.371
56.79000 148.905
56.80000 147.319
56.81000 148.897
56.82000 150.442
56.83000 150.469
56.84000 149.673
56.85000 148.909
56.86000 145.366
56.87000 141.093
56.88000 137.466
56.89000 139.950
56.90000 143.945
56.91000 147.458
56.92000 148.179
56.93000 148.452
56.94000 148.672
56.95000 148.594
56.96000 148.508
56.97000 148.668
56.98000 149.455
56.99000 150.273
57.00000 151.116
57.01000 152.002
57.02000 152.889
57.03000 153.362
57.04000 149.320
57.05000 146.576
57.06000 146.140
57.07000 147.404
57.08000 148.600
57.09000 147.391
57.10000 144.993
57.11000 142.710
57.12000 143.733
57.13000 145.707
57.14000 147.181
57.15000 144.490
57.16000 140.865
57.17000 137.776
57.18000 137.464
57.19000 137.549
57.20000 137.617
57.21000 137.667
57.22000 137.706
57.23000 137.676
57.24000 137.483
57.25000 137.284
57.26000 136.679
57.27000 135.437
57.28000 134.187
57.29000 133.555
57.30000 137.531
57.31000 140.173
57.32000 140.668
57.33000 139.729
57.34000 138.911
57.35000 141.386
57.36000 145.344
57.37000 149.079
57.38000 147.238
57.39000 143.991
57.40000 140.921
57.41000 139.149
57.42000 137.640
57.43000 136.917
57.44000 139.878
57.45000 143.307
57.46000 145.947
57.47000 144.956
57.48000 143.965
57.49000 143.685
57.50000 144.909
57.51000 146.182
57.52000 147.289
57.53000 148.157
57.54000 149.023
57.55000 146.157
57.56000 139.857
57.57000 133.642
57.58000 133.168
57.59000 136.174
57.60000 139.068
57.61000 139.490
57.62000 138.898
57.63000 138.345
57.64000 141.862
57.65000 146.074
57.66000 149.594
57.67000 148.573
57.68000 146.724
57.69000 144.900
57.70000 143.182
57.71000 141.476
57.72000 140.195
57.73000 135.344
57.74000 131.382
57.75000 130.121
57.76000 134.061
57.77000 138.131
57.78000 139.888
57.79000 138.669
57.80000 137.439
57.81000 137.193
57.82000 137.761
57.83000 138.393
57.84000 142.092
57.85000 147.482
57.86000 152.332
57.87000 147.292
57.88000 138.558
57.89000 130.492
57.90000 132.611
57.91000 136.809
57.92000 141.160
57.93000 146.411
57.94000 151.809
57.95000 155.665
57.96000 153.603
57.97000 150.958
57.98000 149.023
57.99000 145.196
58.00000 142.170
58.01000 141.347
58.02000 144.385
58.03000 147.495
58.04000 149.184
58.05000 149.224
58.06000 149.261
58.07000 147.569
58.08000 144.602
58.09000 141.709
58.10000 141.517
58.11000 142.680
58.12000 143.686
58.13000 142.256
58.14000 139.999
58.15000 137.939
58.16000 138.553
58.17000 139.637
58.18000 141.283
58.19000 145.898
58.20000 150.946
58.21000 154.359
58.22000 152.079
58.23000 149.310
58.24000 147.342
58.25000 142.317
58.26000 138.395
58.27000 136.318
58.28000 137.178
58.29000 138.076
58.30000 138.614
58.31000 138.775
58.32000 138.935
58.33000 137.883
58.34000 136.032
58.35000 134.216
58.36000 133.425
58.37000 133.102
58.38000 132.752
58.39000 132.038
58.40000 131.211
58.41000 130.467
58.42000 135.313
58.43000 140.572
58.44000 144.595
58.45000 142.728
58.46000 140.098
58.47000 137.834
58.48000 136.730
58.49000 135.711
58.50000 135.008
58.51000 137.367
58.52000 139.215
58.53000 140.124
58.54000 139.674
58.55000 139.213
58.56000 138.860
58.57000 138.608
58.58000 138.358
58.59000 137.525
58.60000 136.354
58.61000 135.298
58.62000 136.860
58.63000 139.512
58.64000 141.778
58.65000 139.676
58.66000 136.345
58.67000 133.388
58.68000 133.068
58.69000 133.215
58.70000 133.639
58.71000 135.259
58.72000 137.015
58.73000 137.452
58.74000 134.081
58.75000 130.472
58.76000 128.063
58.77000 130.597
58.78000 132.570
58.79000 133.854
58.80000 134.235
58.81000 134.613
58.82000 135.112
58.83000 135.714
58.84000 136.308
58.85000 133.532
58.86000 128.991
58.87000 124.766
58.88000 126.517
58.89000 130.533
58.90000 134.507
58.91000 138.065
58.92000 141.518
58.93000 144.537
58.94000 138.242
58.95000 131.520
58.96000 125.911
58.97000 124.643
58.98000 123.813
58.99000 124.510
59.00000 129.215
59.01000 134.131
59.02000 137.300
59.03000 140.400
59.04000 142.664
59.05000 141.677
59.06000 136.853
59.07000 132.041
59.08000 131.233
59.09000 133.474
59.10000 135.677
59.11000 135.621
59.12000 134.455
59.13000 133.407
59.14000 134.240
59.15000 135.723
59.16000 137.282
59.17000 139.502
59.18000 141.875
59.19000 143.918
59.20000 139.510
59.21000 134.965
59.22000 131.462
59.23000 131.648
59.24000 132.157
59.25000 132.067
59.26000 130.541
59.27000 128.953
59.28000 127.967
59.29000 135.541
59.30000 141.077
59.31000 140.516
59.32000 133.476
59.33000 126.485
59.34000 125.695
59.35000 129.179
59.36000 132.584
59.37000 132.333
59.38000 130.467
59.39000 128.755
59.40000 129.127
59.41000 130.153
59.42000 131.220
59.43000 132.599
59.44000 134.043
59.45000 135.264
59.46000 137.428
59.47000 139.345
59.48000 140.135
59.49000 137.302
59.50000 134.196
59.51000 132.333
59.52000 133.179
59.53000 134.121
59.54000 134.683
59.55000 137.044
59.56000 138.730
59.57000 137.944
59.58000 134.801
59.59000 131.669
59.60000 129.381
59.61000 127.619
59.62000 125.908
59.63000 129.424
59.64000 134.858
59.65000 139.733
59.66000 138.116
59.67000 134.644
59.68000 131.411
59.69000 129.809
59.70000 128.514
59.71000 127.439
59.72000 127.896
59.73000 128.422
59.74000 129.323
59.75000 131.324
59.76000 133.397
59.77000 134.788
59.78000 134.828
59.79000 134.831
59.80000 134.832
59.81000 132.272
59.82000 130.482
59.83000 132.438
59.84000 137.608
59.85000 142.672
59.86000 142.116
59.87000 138.366
59.88000 134.750
59.89000 135.173
59.90000 137.033
59.91000 138.574
59.92000 136.903
59.93000 134.398
59.94000 132.005
59.95000 130.294
59.96000 128.699
59.97000 127.401
59.98000 127.392
59.99000 127.494
60.00000 126.951
60.01000 124.690
60.02000 122.337
60.03000 121.974
60.04000 125.208
60.05000 128.516
60.06000 130.323
60.07000 136.056
60.08000 139.981
60.09000 139.382
60.10000 135.281
60.11000 131.222
60.12000 128.849
60.13000 127.348
60.14000 125.911
60.15000 128.154
60.16000 131.443
60.17000 134.423
60.18000 134.662
60.19000 134.258
60.20000 134.609
60.21000 139.088
60.22000 144.191
60.23000 148.257
60.24000 139.101
60.25000 130.759
60.26000 126.588
60.27000 132.550
60.28000 138.966
60.29000 142.836
60.30000 142.522
60.31000 142.148
60.32000 141.953
60.33000 136.491
60.34000 132.806
60.35000 129.706
60.36000 127.018
60.37000 124.469
60.38000 126.203
60.39000 129.955
60.40000 133.511
60.41000 134.679
60.42000 135.053
60.43000 135.042
60.44000 132.023
60.45000 128.363
60.46000 125.851
60.47000 128.987
60.48000 132.884
60.49000 135.920
60.50000 139.728
60.51000 142.809
60.52000 144.277
60.53000 142.174
60.54000 139.941
60.55000 137.502
60.56000 134.754
60.57000 132.003
60.58000 132.404
60.59000 135.864
60.60000 139.257
60.61000 137.273
60.62000 131.872
60.63000 126.678
60.64000 126.542
60.65000 128.577
60.66000 130.486
60.67000 133.761
60.68000 137.107
60.69000 139.791
60.70000 137.873
60.71000 135.073
60.72000 133.035
60.73000 134.386
60.74000 136.142
60.75000 137.477
60.76000 135.605
60.77000 133.966
60.78000 132.584
60.79000 131.719
60.80000 130.870
60.81000 130.696
60.82000 131.436
60.83000 132.180
60.84000 133.818
60.85000 136.231
60.86000 138.592
60.87000 138.036
60.88000 135.794
60.89000 133.724
60.90000 135.065
60.91000 137.741
60.92000 140.226
60.93000 137.444
60.94000 133.683
60.95000 130.459
60.96000 130.567
60.97000 131.248
60.98000 131.669
60.99000 131.043
61.00000 130.306
61.01000 129.760
61.02000 128.906
61.03000 128.229
61.04000 128.435
61.05000 130.262
61.06000 132.124
61.07000 134.111
61.08000 136.252
61.09000 138.389
61.10000 140.380
61.11000 142.248
61.12000 144.069
61.13000 144.009
61.14000 142.960
61.15000 141.772
61.16000 138.260
61.17000 133.922
61.18000 129.939
61.19000 132.846
61.20000 136.907
61.21000 140.051
61.22000 138.096
61.23000 135.354
61.24000 133.581
61.25000 135.343
61.26000 137.429
61.27000 138.932
61.28000 139.636
61.29000 140.146
61.30000 140.079
61.31000 139.051
61.32000 138.007
61.33000 135.375
61.34000 130.997
61.35000 126.635
61.36000 128.387
61.37000 134.432
61.38000 140.304
61.39000 140.675
61.40000 138.416
61.41000 136.129
61.42000 133.455
61.43000 130.655
61.44000 128.116
61.45000 132.215
61.46000 137.094
61.47000 141.339
61.48000 142.405
61.49000 143.035
61.50000 144.309
61.51000 147.721
61.52000 151.304
61.53000 153.811
61.54000 166.827
61.55000 176.966
61.56000 186.314
61.57000 194.465
61.58000 202.604
61.59000 210.992
61.60000 219.626
61.61000 228.202
61.62000 237.517
61.63000 247.158
61.64000 256.631
61.65000 261.858
61.66000 265.235
61.67000 268.028
61.68000 263.717
61.69000 257.311
61.70000 251.583
61.71000 257.774
61.72000 265.198
61.73000 270.121
61.74000 263.737
61.75000 255.976
61.76000 249.661
61.77000 247.712
61.78000 246.059
61.79000 244.939
61.80000 223.492
61.81000 207.049
61.82000 194.714
61.83000 188.018
61.84000 181.357
61.85000 174.801
61.86000 168.338
61.87000 161.943
61.88000 154.750
61.89000 147.259
61.90000 140.080
61.91000 139.308
61.92000 141.080
61.93000 142.615
61.94000 141.646
61.95000 140.008
61.96000 138.564
61.97000 135.509
61.98000 132.633
61.99000 130.720
62.00000 132.743
62.01000 135.188
62.02000 136.830
62.03000 136.261
62.04000 135.565
62.05000 135.109
62.06000 138.862
62.07000 141.691
62.08000 140.188
62.09000 133.308
62.10000 126.430
62.11000 125.085
62.12000 128.166
62.13000 131.201
62.14000 134.075
62.15000 136.780
62.16000 139.257
62.17000 137.827
62.18000 134.985
62.19000 132.136
62.20000 129.227
62.21000 126.304
62.22000 123.767
62.23000 131.117
62.24000 138.699
62.25000 145.503
62.26000 149.423
62.27000 153.071
62.28000 155.035
62.29000 152.780
62.30000 150.323
62.31000 148.769
62.32000 147.582
62.33000 146.725
62.34000 144.702
62.35000 141.373
62.36000 138.053
62.37000 136.159
62.38000 135.296
62.39000 134.451
62.40000 137.328
62.41000 141.836
62.42000 145.970
62.43000 144.679
62.44000 141.603
62.45000 138.243
62.46000 132.570
62.47000 126.389
62.48000 121.116
62.49000 127.332
62.50000 133.918
62.51000 139.091
62.52000 139.505
62.53000 139.531
62.54000 140.215
62.55000 142.399
62.56000 144.642
62.57000 146.008
62.58000 149.733
62.59000 152.413
62.60000 152.208
62.61000 149.103
62.62000 146.007
62.63000 143.711
62.64000 141.942
62.65000 140.217
62.66000 140.149
62.67000 140.782
62.68000 141.369
62.69000 141.376
62.70000 141.210
62.71000 141.106
62.72000 141.441
62.73000 141.865
62.74000 142.219
62.75000 140.719
62.76000 139.281
62.77000 138.294
62.78000 138.695
62.79000 139.192
62.80000 140.157
62.81000 142.092
62.82000 144.057
62.83000 145.205
62.84000 145.797
62.85000 146.212
62.86000 148.229
62.87000 151.692
62.88000 155.065
62.89000 152.746
62.90000 147.038
62.91000 141.515
62.92000 138.581
62.93000 136.793
62.94000 135.338
62.95000 137.460
62.96000 140.556
62.97000 143.080
62.98000 141.928
62.99000 140.120
63.00000 138.634
63.01000 138.597
63.02000 138.697
63.03000 140.292
63.04000 146.060
63.05000 152.074
63.06000 155.777
63.07000 155.107
63.08000 154.335
63.09000 153.903
63.10000 146.489
63.11000 141.352
63.12000 141.028
63.13000 144.618
63.14000 148.171
63.15000 150.045
63.16000 151.011
63.17000 151.938
63.18000 150.873
63.19000 149.193
63.20000 147.414
63.21000 144.705
63.22000 141.766
63.23000 139.713
63.24000 142.763
63.25000 146.629
63.26000 149.742
63.27000 150.449
63.28000 150.837
63.29000 150.457
63.30000 148.131
63.31000 145.709
63.32000 145.173
63.33000 147.882
63.34000 150.648
63.35000 152.121
63.36000 157.804
63.37000 161.656
63.38000 161.810
63.39000 159.246
63.40000 156.684
63.41000 154.160
63.42000 151.654
63.43000 149.268
63.44000 147.736
63.45000 146.580
63.46000 145.456
63.47000 144.590
63.48000 143.783
63.49000 143.827
63.50000 148.285
63.51000 153.373
63.52000 157.381
63.53000 153.782
63.54000 150.390
63.55000 147.999
63.56000 147.925
63.57000 147.945
63.58000 148.817
63.59000 151.022
63.60000 153.243
63.61000 154.366
63.62000 153.004
63.63000 152.099
63.64000 151.777
63.65000 151.843
63.66000 151.904
63.67000 151.829
63.68000 151.693
63.69000 151.565
63.70000 154.170
63.71000 157.318
63.72000 159.681
63.73000 156.271
63.74000 151.697
63.75000 148.577
63.76000 152.249
63.77000 156.782
63.78000 160.269
63.79000 157.586
63.80000 155.113
63.81000 152.581
63.82000 149.923
63.83000 147.262
63.84000 147.192
63.85000 150.795
63.86000 154.425
63.87000 155.855
63.88000 155.265
63.89000 154.709
63.90000 156.419
63.91000 159.499
63.92000 162.376
63.93000 160.804
63.94000 157.413
63.95000 154.246
63.96000 156.960
63.97000 160.892
63.98000 163.973
63.99000 161.472
64.00000 157.959
64.01000 154.076
64.02000 148.629
64.03000 143.007
64.04000 138.788
64.05000 145.042
64.06000 150.424
64.07000 154.719
64.08000 156.925
64.09000 159.079
64.10000 160.307
64.11000 160.348
64.12000 160.384
64.13000 159.809
64.14000 158.732
64.15000 157.728
64.16000 160.202
64.17000 164.587
64.18000 168.549
64.19000 164.799
64.20000 158.176
64.21000 152.061
64.22000 154.853
64.23000 159.358
64.24000 163.095
64.25000 162.325
64.26000 160.822
64.27000 160.355
64.28000 163.854
64.29000 167.741
64.30000 170.582
64.31000 166.185
64.32000 162.512
64.33000 160.696
64.34000 162.127
64.35000 163.617
64.36000 163.276
64.37000 160.815
64.38000 158.359
64.39000 159.131
64.40000 162.290
64.41000 165.418
64.42000 167.429
64.43000 168.880
64.44000 170.358
64.45000 172.226
64.46000 174.226
64.47000 176.051
64.48000 168.443
64.49000 159.798
64.50000 152.903
64.51000 155.224
64.52000 158.886
64.53000 161.772
64.54000 161.964
64.55000 161.926
64.56000 161.899
64.57000 162.961
64.58000 163.803
64.59000 166.232
64.60000 171.177
64.61000 176.155
64.62000 178.933
64.63000 179.421
64.64000 179.906
64.65000 176.257
64.66000 169.890
64.67000 163.796
64.68000 165.366
64.69000 170.428
64.70000 175.287
64.71000 177.502
64.72000 178.899
64.73000 180.157
64.74000 177.809
64.75000 175.102
64.76000 172.618
64.77000 171.192
64.78000 169.903
64.79000 169.057
64.80000 169.609
64.81000 170.265
64.82000 170.716
64.83000 180.757
64.84000 188.535
64.85000 191.276
64.86000 186.763
64.87000 182.194
64.88000 182.079
64.89000 186.123
64.90000 190.132
64.91000 191.473
64.92000 191.180
64.93000 190.751
64.94000 187.237
64.95000 182.442
64.96000 178.101
64.97000 178.880
64.98000 181.096
64.99000 183.064
65.00000 180.772
65.01000 178.104
65.02000 176.301
65.03000 178.213
65.04000 180.549
65.05000 182.782
65.06000 184.717
65.07000 186.634
65.08000 187.912
65.09000 183.838
65.10000 180.718
65.11000 181.628
65.12000 187.791
65.13000 193.977
65.14000 199.651
65.15000 204.896
65.16000 210.075
65.17000 208.674
65.18000 203.731
65.19000 199.015
65.20000 198.536
65.21000 199.659
65.22000 200.642
65.23000 200.245
65.24000 199.496
65.25000 198.841
65.26000 200.337
65.27000 201.924
65.28000 204.643
65.29000 211.764
65.30000 219.328
65.31000 224.413
65.32000 223.008
65.33000 221.264
65.34000 220.141
65.35000 229.103
65.36000 235.788
65.37000 240.306
65.38000 242.274
65.39000 244.227
65.40000 243.825
65.41000 241.636
65.42000 239.485
65.43000 238.230
65.44000 237.458
65.45000 236.938
65.46000 240.372
65.47000 245.169
65.48000 250.054
65.49000 255.704
65.50000 261.531
65.51000 266.543
65.52000 267.224
65.53000 267.258
65.54000 269.552
65.55000 279.823
65.56000 290.790
65.57000 298.180
65.58000 297.035
65.59000 295.521
65.60000 294.582
65.61000 306.301
65.62000 314.856
65.63000 320.481
65.64000 323.002
65.65000 325.614
65.66000 339.158
65.67000 360.215
65.68000 380.791
65.69000 411.458
65.70000 445.304
65.71000 479.636
65.72000 520.492
65.73000 563.393
65.74000 607.974
65.75000 665.392
65.76000 725.484
65.77000 776.280
65.78000 827.443
65.79000 870.280
65.80000 911.063
65.81000 945.258
65.82000 978.957
65.83000 1006.371
65.84000 1020.124
65.85000 1033.403
65.86000 1041.320
65.87000 1051.668
65.88000 1059.017
65.89000 1063.589
65.90000 1065.524
65.91000 1067.271
65.92000 1054.870
65.93000 1033.645
65.94000 1013.038
65.95000 960.075
65.96000 896.864
65.97000 834.113
65.98000 776.660
65.99000 720.716
66.00000 664.406
66.01000 605.596
66.02000 546.317
66.03000 497.136
66.04000 453.977
66.05000 418.892
66.06000 388.864
66.07000 373.604
66.08000 359.292
66.09000 347.846
66.10000 342.076
66.11000 336.459
66.12000 333.251
66.13000 329.394
66.14000 326.696
66.15000 320.780
66.16000 312.115
66.17000 303.563
66.18000 301.034
66.19000 301.919
66.20000 302.771
66.21000 306.968
66.22000 312.120
66.23000 317.354
66.24000 323.411
66.25000 329.680
66.26000 336.258
66.27000 344.706
66.28000 353.469
66.29000 360.596
66.30000 365.885
66.31000 370.048
66.32000 375.083
66.33000 382.434
66.34000 389.910
66.35000 399.395
66.36000 412.501
66.37000 425.680
66.38000 432.867
66.39000 427.862
66.40000 424.437
66.41000 427.976
66.42000 436.889
66.43000 445.600
66.44000 446.395
66.45000 443.108
66.46000 439.965
66.47000 442.893
66.48000 447.594
66.49000 451.278
66.50000 445.993
66.51000 438.606
66.52000 430.182
66.53000 416.104
66.54000 401.174
66.55000 389.287
66.56000 383.501
66.57000 379.275
66.58000 370.548
66.59000 350.920
66.60000 330.806
66.61000 318.584
66.62000 319.287
66.63000 320.176
66.64000 320.638
66.65000 317.102
66.66000 314.756
66.67000 317.826
66.68000 324.679
66.69000 331.191
66.70000 327.358
66.71000 318.665
66.72000 310.428
66.73000 313.366
66.74000 319.348
66.75000 324.101
66.76000 319.274
66.77000 312.417
66.78000 308.796
66.79000 321.056
66.80000 335.452
66.81000 346.654
66.82000 341.161
66.83000 335.761
66.84000 331.521
66.85000 329.840
66.86000 328.252
66.87000 327.833
66.88000 329.154
66.89000 330.491
66.90000 329.545
66.91000 326.393
66.92000 323.298
66.93000 324.776
66.94000 329.152
66.95000 333.458
66.96000 336.080
66.97000 337.982
66.98000 339.766
66.99000 344.478
67.00000 349.545
67.01000 353.286
67.02000 347.852
67.03000 340.665
67.04000 336.851
67.05000 347.986
67.06000 360.901
67.07000 370.711
67.08000 362.256
67.09000 354.662
67.10000 351.542
67.11000 357.412
67.12000 363.537
67.13000 368.923
67.14000 373.314
67.15000 377.697
67.16000 377.995
67.17000 374.748
67.18000 371.523
67.19000 369.576
67.20000 368.363
67.21000 367.419
67.22000 371.837
67.23000 378.344
67.24000 384.386
67.25000 381.510
67.26000 376.804
67.27000 373.357
67.28000 377.686
67.29000 383.351
67.30000 389.238
67.31000 396.020
67.32000 402.894
67.33000 407.983
67.34000 400.492
67.35000 394.137
67.36000 390.036
67.37000 390.062
67.38000 390.176
67.39000 391.634
67.40000 394.729
67.41000 397.822
67.42000 397.058
67.43000 393.287
67.44000 389.671
67.45000 392.414
67.46000 398.486
67.47000 404.926
67.48000 417.489
67.49000 432.225
67.50000 445.748
67.51000 444.494
67.52000 440.238
67.53000 435.880
67.54000 430.954
67.55000 425.941
67.56000 423.042
67.57000 427.842
67.58000 433.345
67.59000 437.307
67.60000 438.552
67.61000 439.410
67.62000 439.142
67.63000 437.000
67.64000 434.830
67.65000 437.820
67.66000 446.469
67.67000 455.085
67.68000 457.097
67.69000 454.449
67.70000 451.982
67.71000 455.198
67.72000 461.125
67.73000 466.749
67.74000 468.104
67.75000 468.079
67.76000 468.057
67.77000 469.109
67.78000 470.241
67.79000 470.874
67.80000 469.020
67.81000 466.825
67.82000 467.074
67.83000 475.407
67.84000 484.379
67.85000 490.652
67.86000 494.194
67.87000 496.794
67.88000 498.872
67.89000 500.164
67.90000 501.447
67.91000 508.583
67.92000 521.478
67.93000 534.283
67.94000 536.000
67.95000 530.667
67.96000 525.435
67.97000 522.740
67.98000 521.147
67.99000 519.918
68.00000 523.086
68.01000 527.547
68.02000 531.534
68.03000 533.933
68.04000 535.755
68.05000 538.223
68.06000 543.598
68.07000 549.325
68.08000 552.814
68.09000 549.563
68.10000 545.856
68.11000 543.345
68.12000 552.129
68.13000 558.926
68.14000 566.217
68.15000 574.186
68.16000 582.159
68.17000 589.421
68.18000 596.055
68.19000 602.618
68.20000 605.443
68.21000 606.069
68.22000 606.793
68.23000 609.517
68.24000 613.032
68.25000 616.789
68.26000 623.081
68.27000 630.049
68.28000 636.187
68.29000 643.902
68.30000 650.785
68.31000 656.602
68.32000 658.071
68.33000 659.074
68.34000 658.809
68.35000 655.068
68.36000 651.128
68.37000 648.547
68.38000 664.307
68.39000 676.194
68.40000 685.115
68.41000 690.366
68.42000 695.623
68.43000 705.909
68.44000 720.203
68.45000 734.284
68.46000 742.012
68.47000 746.232
68.48000 750.863
68.49000 762.519
68.50000 776.707
68.51000 790.128
68.52000 796.500
68.53000 801.167
68.54000 805.213
68.55000 830.612
68.56000 855.083
68.57000 878.225
68.58000 896.449
68.59000 914.213
68.60000 935.457
68.61000 965.387
68.62000 995.729
68.63000 1014.902
68.64000 1085.775
68.65000 1137.738
68.66000 1186.323
68.67000 1231.140
68.68000 1276.025
68.69000 1331.813
68.70000 1395.465
68.71000 1457.837
68.72000 1518.752
68.73000 1576.671
68.74000 1633.640
68.75000 1676.876
68.76000 1715.605
68.77000 1755.485
68.78000 1804.679
68.79000 1855.913
68.80000 1899.595
68.81000 1964.158
68.82000 2020.931
68.83000 2087.022
68.84000 2184.417
68.85000 2284.349
68.86000 2395.013
68.87000 2530.082
68.88000 2666.095
68.89000 2748.790
68.90000 3210.468
68.91000 3543.060
68.92000 4200.639
68.93000 5183.725
68.94000 6176.439
68.95000 8063.167
68.96000 10534.244
68.97000 12941.139
68.98000 16652.912
68.99000 20740.260
69.00000 24853.754
69.01000 29291.260
69.02000 33825.484
69.03000 38221.727
69.04000 41626.168
69.05000 44834.605
69.06000 47521.113
69.07000 49486.852
69.08000 51046.711
69.09000 52298.402
69.10000 52608.469
69.11000 52853.102
69.12000 53110.383
69.13000 53393.855
69.14000 53678.137
69.15000 53843.965
69.16000 55061.176
69.17000 55921.594
69.18000 56304.199
69.19000 56257.078
69.20000 56190.949
69.21000 54940.129
69.22000 52986.070
69.23000 51095.723
69.24000 47996.832
69.25000 44611.480
69.26000 41284.938
69.27000 38589.828
69.28000 36065.941
69.29000 33666.027
69.30000 32060.734
69.31000 30596.723
69.32000 29394.328
69.33000 28491.701
69.34000 27777.354
69.35000 27090.682
69.36000 26480.996
69.37000 25875.840
69.38000 25059.510
69.39000 23844.900
69.40000 22620.938
69.41000 21938.072
69.42000 18766.859
69.43000 16566.525
69.44000 14335.199
69.45000 12078.750
69.46000 9834.610
69.47000 8144.825
69.48000 6754.296
69.49000 5419.365
69.50000 4467.764
69.51000 3708.988
69.52000 2986.143
69.53000 2600.520
69.54000 2297.831
69.55000 2020.074
69.56000 1885.455
69.57000 1773.649
69.58000 1683.698
69.59000 1578.522
69.60000 1492.030
69.61000 1413.511
69.62000 1355.199
69.63000 1297.876
69.64000 1249.972
69.65000 1218.227
69.66000 1186.758
69.67000 1170.025
69.68000 1120.096
69.69000 1086.094
69.70000 1052.764
69.71000 1019.925
69.72000 987.424
69.73000 966.480
69.74000 951.216
69.75000 936.687
69.76000 923.474
69.77000 911.647
69.78000 898.835
69.79000 877.872
69.80000 855.095
69.81000 833.538
69.82000 818.281
69.83000 803.920
69.84000 792.617
69.85000 782.117
69.86000 773.760
69.87000 766.186
69.88000 760.422
69.89000 754.731
69.90000 745.317
69.91000 730.101
69.92000 714.817
69.93000 707.101
69.94000 697.915
69.95000 691.748
69.96000 683.293
69.97000 673.318
69.98000 663.740
69.99000 664.837
70.00000 670.713
