20.00000 546.323
20.01000 545.907
20.02000 545.431
20.03000 546.526
20.04000 553.758
20.05000 561.609
20.06000 567.378
20.07000 561.559
20.08000 556.585
20.09000 554.926
20.10000 559.174
20.11000 563.539
20.12000 563.892
20.13000 559.498
20.14000 555.107
20.15000 549.913
20.16000 544.143
20.17000 538.707
20.18000 545.942
20.19000 559.645
20.20000 572.346
20.21000 569.170
20.22000 560.498
20.23000 552.566
20.24000 557.623
20.25000 564.795
20.26000 570.454
20.27000 567.965
20.28000 564.262
20.29000 558.538
20.30000 545.648
20.31000 532.127
20.32000 522.467
20.33000 542.332
20.34000 558.472
20.35000 568.124
20.36000 567.262
20.37000 566.254
20.38000 563.187
20.39000 557.927
20.40000 552.690
20.41000 552.012
20.42000 554.454
20.43000 556.676
20.44000 552.388
20.45000 545.073
20.46000 538.710
20.47000 545.192
20.48000 555.721
20.49000 565.227
20.50000 563.070
20.51000 559.027
20.52000 554.638
20.53000 548.569
20.54000 542.277
20.55000 538.575
20.56000 543.224
20.57000 548.507
20.58000 552.170
20.59000 545.718
20.60000 540.594
20.61000 537.565
20.62000 537.621
20.63000 537.703
20.64000 539.215
20.65000 542.092
20.66000 544.945
20.67000 546.231
20.68000 546.529
20.69000 547.054
20.70000 552.993
20.71000 561.224
20.72000 568.653
20.73000 566.756
20.74000 562.189
20.75000 558.122
20.76000 545.359
20.77000 532.843
20.78000 523.668
20.79000 529.137
20.80000 536.325
20.81000 541.080
20.82000 538.697
20.83000 535.853
20.84000 533.943
20.85000 530.783
20.86000 528.411
20.87000 526.061
20.88000 523.740
20.89000 521.427
20.90000 524.013
20.91000 530.809
20.92000 537.526
20.93000 541.323
20.94000 543.407
20.95000 545.273
20.96000 542.912
20.97000 538.918
20.98000 534.953
20.99000 531.267
21.00000 527.654
21.01000 524.485
21.02000 528.309
21.03000 532.612
21.04000 536.156
21.05000 536.684
21.06000 536.901
21.07000 538.516
21.08000 543.869
21.09000 549.426
21.10000 553.031
21.11000 549.529
21.12000 546.857
21.13000 547.110
21.14000 550.881
21.15000 554.654
21.16000 556.818
21.17000 557.733
21.18000 558.633
21.19000 553.914
21.20000 546.528
21.21000 539.784
21.22000 543.512
21.23000 550.920
21.24000 557.227
21.25000 553.751
21.26000 547.972
21.27000 542.983
21.28000 544.798
21.29000 547.215
21.30000 549.388
21.31000 550.682
21.32000 551.897
21.33000 551.686
21.34000 548.005
21.35000 544.168
21.36000 541.768
21.37000 529.158
21.38000 519.948
21.39000 521.584
21.40000 534.972
21.41000 548.290
21.42000 551.691
21.43000 548.132
21.44000 544.650
21.45000 542.133
21.46000 540.155
21.47000 538.162
21.48000 535.957
21.49000 533.685
21.50000 532.709
21.51000 541.898
21.52000 553.252
21.53000 562.885
21.54000 569.397
21.55000 574.503
21.56000 577.263
21.57000 572.343
21.58000 566.826
21.59000 563.391
21.60000 564.575
21.61000 565.927
21.62000 566.741
21.63000 577.046
21.64000 584.438
21.65000 583.016
21.66000 573.024
21.67000 563.189
21.68000 566.253
21.69000 577.528
21.70000 588.491
21.71000 595.002
21.72000 599.373
21.73000 603.599
21.74000 606.102
21.75000 608.103
21.76000 611.944
21.77000 628.598
21.78000 647.714
21.79000 663.638
21.80000 655.583
21.81000 646.529
21.82000 640.771
21.83000 644.827
21.84000 649.536
21.85000 659.367
21.86000 679.542
21.87000 700.012
21.88000 711.814
21.89000 717.096
21.90000 720.773
21.91000 728.278
21.92000 739.128
21.93000 749.987
21.94000 761.349
21.95000 773.001
21.96000 784.251
21.97000 795.808
21.98000 806.806
21.99000 816.225
22.00000 809.298
22.01000 798.054
22.02000 788.462
22.03000 789.145
22.04000 791.602
22.05000 793.609
22.06000 783.019
22.07000 773.266
22.08000 765.760
22.09000 764.350
22.10000 763.282
22.11000 761.602
22.12000 758.796
22.13000 755.965
22.14000 754.406
22.15000 743.584
22.16000 736.116
22.17000 729.876
22.18000 724.605
22.19000 719.237
22.20000 709.871
22.21000 698.401
22.22000 687.415
22.23000 675.273
22.24000 663.564
22.25000 652.369
22.26000 645.841
22.27000 640.430
22.28000 635.319
22.29000 631.877
22.30000 628.694
22.31000 626.147
22.32000 617.173
22.33000 609.439
22.34000 604.164
22.35000 604.964
22.36000 606.047
22.37000 608.274
22.38000 612.413
22.39000 616.583
22.40000 618.770
22.41000 608.197
22.42000 601.044
22.43000 595.957
22.44000 592.344
22.45000 588.716
22.46000 584.586
22.47000 580.215
22.48000 576.065
22.49000 566.352
22.50000 555.719
22.51000 546.407
22.52000 547.662
22.53000 551.204
22.54000 553.280
22.55000 547.997
22.56000 541.699
22.57000 536.774
22.58000 542.921
22.59000 548.533
22.60000 549.055
22.61000 538.117
22.62000 526.748
22.63000 522.168
22.64000 527.892
22.65000 533.724
22.66000 533.032
22.67000 525.886
22.68000 518.810
22.69000 518.005
22.70000 521.255
22.71000 524.499
22.72000 527.564
22.73000 530.553
22.74000 533.363
22.75000 528.000
22.76000 520.895
22.77000 514.173
22.78000 510.170
22.79000 506.698
22.80000 503.375
22.81000 500.728
22.82000 498.164
22.83000 496.205
22.84000 503.886
22.85000 510.458
22.86000 518.617
22.87000 530.028
22.88000 541.537
22.89000 544.521
22.90000 535.781
22.91000 526.972
22.92000 521.773
22.93000 519.785
22.94000 517.753
22.95000 513.116
22.96000 506.948
22.97000 501.272
22.98000 505.762
22.99000 514.296
23.00000 522.238
23.01000 521.545
23.02000 518.826
23.03000 515.731
23.04000 510.263
23.05000 504.377
23.06000 500.690
23.07000 506.015
23.08000 512.310
23.09000 516.995
23.10000 514.994
23.11000 513.136
23.12000 512.640
23.13000 514.686
23.14000 516.790
23.15000 518.343
23.16000 519.212
23.17000 520.077
23.18000 521.800
23.19000 524.200
23.20000 526.443
23.21000 521.851
23.22000 513.607
23.23000 505.721
23.24000 503.987
23.25000 504.483
23.26000 504.938
23.27000 507.600
23.28000 510.459
23.29000 512.839
23.30000 512.510
23.31000 511.755
23.32000 511.137
23.33000 511.029
23.34000 510.970
23.35000 510.927
23.36000 504.592
23.37000 499.495
23.38000 497.518
23.39000 500.837
23.40000 504.243
23.41000 506.073
23.42000 506.135
23.43000 506.195
23.44000 501.461
23.45000 493.324
23.46000 485.467
23.47000 486.887
23.48000 492.819
23.49000 498.387
23.50000 498.656
23.51000 497.178
23.52000 495.835
23.53000 504.157
23.54000 513.393
23.55000 520.353
23.56000 515.705
23.57000 509.428
23.58000 504.945
23.59000 506.518
23.60000 508.586
23.61000 510.041
23.62000 502.096
23.63000 495.796
23.64000 493.464
23.65000 497.248
23.66000 501.100
23.67000 501.242
23.68000 497.645
23.69000 494.072
23.70000 491.512
23.71000 489.645
23.72000 487.814
23.73000 486.923
23.74000 486.449
23.75000 486.175
23.76000 488.400
23.77000 491.375
23.78000 494.043
23.79000 495.278
23.80000 496.110
23.81000 496.247
23.82000 493.191
23.83000 489.736
23.84000 489.756
23.85000 500.445
23.86000 511.880
23.87000 519.681
23.88000 506.853
23.89000 496.783
23.90000 487.592
23.91000 479.627
23.92000 471.675
23.93000 470.029
23.94000 474.087
23.95000 478.105
23.96000 481.481
23.97000 484.411
23.98000 487.284
23.99000 488.922
24.00000 490.063
24.01000 491.646
24.02000 498.021
24.03000 505.701
24.04000 512.488
24.05000 499.446
24.06000 485.121
24.07000 474.424
24.08000 478.840
24.09000 484.918
24.10000 487.286
24.11000 479.286
24.12000 470.669
24.13000 464.984
24.14000 481.143
24.15000 493.442
24.16000 500.846
24.17000 502.063
24.18000 503.245
24.19000 498.656
24.20000 489.365
24.21000 480.204
24.22000 477.379
24.23000 477.974
24.24000 478.928
24.25000 486.256
24.26000 495.929
24.27000 503.890
24.28000 495.687
24.29000 483.489
24.30000 472.875
24.31000 478.534
24.32000 485.592
24.33000 492.018
24.34000 496.064
24.35000 499.881
24.36000 501.779
24.37000 498.791
24.38000 495.561
24.39000 493.503
24.40000 497.469
24.41000 500.429
24.42000 500.419
24.43000 497.022
24.44000 493.627
24.45000 491.168
24.46000 489.397
24.47000 487.660
24.48000 486.927
24.49000 486.698
24.50000 486.610
24.51000 488.636
24.52000 491.370
24.53000 493.524
24.54000 490.857
24.55000 487.111
24.56000 483.905
24.57000 470.834
24.58000 458.617
24.59000 451.112
24.60000 459.762
24.61000 469.762
24.62000 478.620
24.63000 484.827
24.64000 490.928
24.65000 494.668
24.66000 486.263
24.67000 480.139
24.68000 476.549
24.69000 475.557
24.70000 474.581
24.71000 475.297
24.72000 477.142
24.73000 478.942
24.74000 477.384
24.75000 474.452
24.76000 472.094
24.77000 477.065
24.78000 484.267
24.79000 490.178
24.80000 486.565
24.81000 481.029
24.82000 476.375
24.83000 472.008
24.84000 468.398
24.85000 466.545
24.86000 470.165
24.87000 474.178
24.88000 475.550
24.89000 471.338
24.90000 466.946
24.91000 464.361
24.92000 473.948
24.93000 480.773
24.94000 484.268
24.95000 484.699
24.96000 485.019
24.97000 477.886
24.98000 466.237
24.99000 454.951
25.00000 457.029
25.01000 464.178
25.02000 471.204
25.03000 476.869
25.04000 482.158
25.05000 485.833
25.06000 478.912
25.07000 470.065
25.08000 462.767
25.09000 474.452
25.10000 485.827
25.11000 493.467
25.12000 490.510
25.13000 486.906
25.14000 483.506
25.15000 480.499
25.16000 477.501
25.17000 475.812
25.18000 466.442
25.19000 459.926
25.20000 458.654
25.21000 461.727
25.22000 464.787
25.23000 467.247
25.24000 469.376
25.25000 471.424
25.26000 462.540
25.27000 450.389
25.28000 439.545
25.29000 441.326
25.30000 446.277
25.31000 450.895
25.32000 453.556
25.33000 455.896
25.34000 457.788
25.35000 467.059
25.36000 475.189
25.37000 477.804
25.38000 466.163
25.39000 453.795
25.40000 448.352
25.41000 455.032
25.42000 461.936
25.43000 465.646
25.44000 460.333
25.45000 456.723
25.46000 458.815
25.47000 465.173
25.48000 471.428
25.49000 473.936
25.50000 474.566
25.51000 475.167
25.52000 472.716
25.53000 469.479
25.54000 466.710
25.55000 467.902
25.56000 469.996
25.57000 471.275
25.58000 468.259
25.59000 464.617
25.60000 461.737
25.61000 467.623
25.62000 472.953
25.63000 475.361
25.64000 470.891
25.65000 466.133
25.66000 462.674
25.67000 461.279
25.68000 459.911
25.69000 459.213
25.70000 453.362
25.71000 449.473
25.72000 449.964
25.73000 453.424
25.74000 457.005
25.75000 464.015
25.76000 472.591
25.77000 480.695
25.78000 474.926
25.79000 465.688
25.80000 457.106
25.81000 453.450
25.82000 450.806
25.83000 448.973
25.84000 450.996
25.85000 453.518
25.86000 455.467
25.87000 462.568
25.88000 468.501
25.89000 472.164
25.90000 470.955
25.91000 469.583
25.92000 468.772
25.93000 468.770
25.94000 468.775
25.95000 466.427
25.96000 461.880
25.97000 457.408
25.98000 458.367
25.99000 462.666
26.00000 466.574
26.01000 461.556
26.02000 452.824
26.03000 444.656
26.04000 449.263
26.05000 456.711
26.06000 462.662
26.07000 458.597
26.08000 452.680
26.09000 447.860
26.10000 447.763
26.11000 448.207
26.12000 448.542
26.13000 447.862
26.14000 447.280
26.15000 445.972
26.16000 443.245
26.17000 440.481
26.18000 441.099
26.19000 446.137
26.20000 451.189
26.21000 450.913
26.22000 446.162
26.23000 441.517
26.24000 442.268
26.25000 446.037
26.26000 449.447
26.27000 446.116
26.28000 440.229
26.29000 434.783
26.30000 436.430
26.31000 439.536
26.32000 441.907
26.33000 439.883
26.34000 437.128
26.35000 436.234
26.36000 442.586
26.37000 449.666
26.38000 454.864
26.39000 448.339
26.40000 442.819
26.41000 437.391
26.42000 432.127
26.43000 426.865
26.44000 427.203
26.45000 434.146
26.46000 441.083
26.47000 444.737
26.48000 445.887
26.49000 446.912
26.50000 443.209
26.51000 437.100
26.52000 431.722
26.53000 437.877
26.54000 448.012
26.55000 457.278
26.56000 453.211
26.57000 446.859
26.58000 442.689
26.59000 450.231
26.60000 459.513
26.61000 466.262
26.62000 464.052
26.63000 461.058
26.64000 458.921
26.65000 462.046
26.66000 464.605
26.67000 462.484
26.68000 452.803
26.69000 443.018
26.70000 438.154
26.71000 438.512
26.72000 438.870
26.73000 443.148
26.74000 450.046
26.75000 456.656
26.76000 454.807
26.77000 449.037
26.78000 443.521
26.79000 441.419
26.80000 440.388
26.81000 439.458
26.82000 434.956
26.83000 430.345
26.84000 427.060
26.85000 430.190
26.86000 434.168
26.87000 437.266
26.88000 437.532
26.89000 437.585
26.90000 437.622
26.91000 441.607
26.92000 444.709
26.93000 445.308
26.94000 442.234
26.95000 439.129
26.96000 436.316
26.97000 433.781
26.98000 431.267
26.99000 432.076
27.00000 434.912
27.01000 437.616
27.02000 437.213
27.03000 435.499
27.04000 433.675
27.05000 430.592
27.06000 427.149
27.07000 424.084
27.08000 430.518
27.09000 437.659
27.10000 442.565
27.11000 437.699
27.12000 431.691
27.13000 428.066
27.14000 431.409
27.15000 435.202
27.16000 437.746
27.17000 439.127
27.18000 440.129
27.19000 441.698
27.20000 444.020
27.21000 446.336
27.22000 441.989
27.23000 431.932
27.24000 421.995
27.25000 417.899
27.26000 417.140
27.27000 416.518
27.28000 418.570
27.29000 421.651
27.30000 425.134
27.31000 432.670
27.32000 441.258
27.33000 448.787
27.34000 446.652
27.35000 443.417
27.36000 441.007
27.37000 441.867
27.38000 443.062
27.39000 443.678
27.40000 442.749
27.41000 441.737
27.42000 441.081
27.43000 444.034
27.44000 446.248
27.45000 444.770
27.46000 438.860
27.47000 432.975
27.48000 435.578
27.49000 444.744
27.50000 453.759
27.51000 445.109
27.52000 427.906
27.53000 411.951
27.54000 416.258
27.55000 427.665
27.56000 437.692
27.57000 435.532
27.58000 430.508
27.59000 426.174
27.60000 422.745
27.61000 419.951
27.62000 418.131
27.63000 419.808
27.64000 421.798
27.65000 422.703
27.66000 420.977
27.67000 419.133
27.68000 417.981
27.69000 415.763
27.70000 414.151
27.71000 417.543
27.72000 426.340
27.73000 435.106
27.74000 439.618
27.75000 441.152
27.76000 442.653
27.77000 439.785
27.78000 435.061
27.79000 430.664
27.80000 430.784
27.81000 432.343
27.82000 433.836
27.83000 434.806
27.84000 435.664
27.85000 436.393
27.86000 426.474
27.87000 416.957
27.88000 409.282
27.89000 407.623
27.90000 406.430
27.91000 406.176
27.92000 407.997
27.93000 409.893
27.94000 411.032
27.95000 412.164
27.96000 412.968
27.97000 414.102
27.98000 415.556
27.99000 417.032
28.00000 420.398
28.01000 424.963
28.02000 429.400
28.03000 425.891
28.04000 419.317
28.05000 413.494
28.06000 416.574
28.07000 422.235
28.08000 426.985
28.09000 425.408
28.10000 422.620
28.11000 420.298
28.12000 419.271
28.13000 418.547
28.14000 418.177
28.15000 418.858
28.16000 419.607
28.17000 420.445
28.18000 421.462
28.19000 422.484
28.20000 423.072
28.21000 415.284
28.22000 409.808
28.23000 410.438
28.24000 416.386
28.25000 422.325
28.26000 427.785
28.27000 432.967
28.28000 437.970
28.29000 438.278
28.30000 436.842
28.31000 434.990
28.32000 428.858
28.33000 421.600
28.34000 415.474
28.35000 416.364
28.36000 418.461
28.37000 420.173
28.38000 418.269
28.39000 416.401
28.40000 416.240
28.41000 420.701
28.42000 425.419
28.43000 428.009
28.44000 426.702
28.45000 425.311
28.46000 424.545
28.47000 413.404
28.48000 405.738
28.49000 404.682
28.50000 408.822
28.51000 412.900
28.52000 414.454
28.53000 414.682
28.54000 414.900
28.55000 409.409
28.56000 402.395
28.57000 396.445
28.58000 400.103
28.59000 406.053
28.60000 410.123
28.61000 403.740
28.62000 395.747
28.63000 389.358
28.64000 403.462
28.65000 416.377
28.66000 423.335
28.67000 415.616
28.68000 407.219
28.69000 399.472
28.70000 392.807
28.71000 386.160
28.72000 382.678
28.73000 401.665
28.74000 414.452
28.75000 416.179
28.76000 410.041
28.77000 404.067
28.78000 403.294
28.79000 405.007
28.80000 406.632
28.81000 402.416
28.82000 396.780
28.83000 392.620
28.84000 400.223
28.85000 410.364
28.86000 419.086
28.87000 420.716
28.88000 421.372
28.89000 421.884
28.90000 405.799
28.91000 391.912
28.92000 385.624
28.93000 396.394
28.94000 407.802
28.95000 412.668
28.96000 407.631
28.97000 402.492
28.98000 400.419
28.99000 401.369
29.00000 402.347
29.01000 405.797
29.02000 410.839
29.03000 415.656
29.04000 414.783
29.05000 411.434
29.06000 408.286
29.07000 403.677
29.08000 399.076
29.09000 394.530
29.10000 390.383
29.11000 386.314
29.12000 384.183
29.13000 390.808
29.14000 398.499
29.15000 404.368
29.16000 399.769
29.17000 395.586
29.18000 392.273
29.19000 390.738
29.20000 389.256
29.21000 389.172
29.22000 391.004
29.23000 392.847
29.24000 396.117
29.25000 400.646
29.26000 405.115
29.27000 406.007
29.28000 404.805
29.29000 403.479
29.30000 399.613
29.31000 394.739
29.32000 390.204
29.33000 395.204
29.34000 402.025
29.35000 408.671
29.36000 414.219
29.37000 419.576
29.38000 422.920
29.39000 418.041
29.40000 412.281
29.41000 407.996
29.42000 406.183
29.43000 404.883
29.44000 405.307
29.45000 408.938
29.46000 412.641
29.47000 410.049
29.48000 399.652
29.49000 389.251
29.50000 385.234
29.51000 386.313
29.52000 387.472
29.53000 392.071
29.54000 398.502
29.55000 404.818
29.56000 409.145
29.57000 412.754
29.58000 416.073
29.59000 416.201
29.60000 415.623
29.61000 415.198
29.62000 415.637
29.63000 416.211
29.64000 417.791
29.65000 423.099
29.66000 428.757
29.67000 432.852
29.68000 418.000
29.69000 405.905
29.70000 398.339
29.71000 398.439
29.72000 398.665
29.73000 400.829
29.74000 405.161
29.75000 409.478
29.76000 412.843
29.77000 415.495
29.78000 418.143
29.79000 420.628
29.80000 423.035
29.81000 424.865
29.82000 418.350
29.83000 409.091
29.84000 400.681
29.85000 410.355
29.86000 422.407
29.87000 431.498
29.88000 425.524
29.89000 417.441
29.90000 411.909
29.91000 414.959
29.92000 418.707
29.93000 421.342
29.94000 434.297
29.95000 444.415
29.96000 448.119
29.97000 441.964
29.98000 435.700
29.99000 435.270
30.00000 440.695
30.01000 446.085
30.02000 441.933
30.03000 431.684
30.04000 421.658
30.05000 417.454
30.06000 415.823
30.07000 414.443
30.08000 416.185
30.09000 418.860
30.10000 421.258
30.11000 420.238
30.12000 418.755
30.13000 417.246
30.14000 415.618
30.15000 413.975
30.16000 412.916
30.17000 413.643
30.18000 414.496
30.19000 415.076
30.20000 415.646
30.21000 416.071
30.22000 418.324
30.23000 423.122
30.24000 427.931
30.25000 422.494
30.26000 407.820
30.27000 393.292
30.28000 397.853
30.29000 413.428
30.30000 428.147
30.31000 424.639
30.32000 413.794
30.33000 403.888
30.34000 404.091
30.35000 407.040
30.36000 409.645
30.37000 400.656
30.38000 391.113
30.39000 384.524
30.40000 390.203
30.41000 397.227
30.42000 404.078
30.43000 410.452
30.44000 416.798
30.45000 420.982
30.46000 415.455
30.47000 411.214
30.48000 409.095
30.49000 409.652
30.50000 410.230
30.51000 415.272
30.52000 423.940
30.53000 432.486
30.54000 433.025
30.55000 429.343
30.56000 425.493
30.57000 418.705
30.58000 410.839
30.59000 404.317
30.60000 410.440
30.61000 419.678
30.62000 427.713
30.63000 421.052
30.64000 413.365
30.65000 408.030
30.66000 411.547
30.67000 415.914
30.68000 421.674
30.69000 430.974
30.70000 440.448
30.71000 446.475
30.72000 436.837
30.73000 429.638
30.74000 426.001
30.75000 426.412
30.76000 426.845
30.77000 430.392
30.78000 436.225
30.79000 441.947
30.80000 448.233
30.81000 454.559
30.82000 460.315
30.83000 457.589
30.84000 452.031
30.85000 447.897
30.86000 455.568
30.87000 465.872
30.88000 474.685
30.89000 479.925
30.90000 483.914
30.91000 487.419
30.92000 489.269
30.93000 490.981
30.94000 499.694
30.95000 524.597
30.96000 550.152
30.97000 565.802
30.98000 585.655
30.99000 599.904
31.00000 615.810
31.01000 633.409
31.02000 651.014
31.03000 669.363
31.04000 688.205
31.05000 706.580
31.06000 750.172
31.07000 802.603
31.08000 854.758
31.09000 903.396
31.10000 950.966
31.11000 997.868
31.12000 1039.867
31.13000 1080.878
31.14000 1115.335
31.15000 1180.796
31.16000 1238.604
31.17000 1298.365
31.18000 1364.194
31.19000 1430.458
31.20000 1497.994
31.21000 1568.209
31.22000 1638.511
31.23000 1679.840
31.24000 1773.551
31.25000 1839.902
31.26000 1907.542
31.27000 1976.367
31.28000 2044.777
31.29000 2085.628
31.30000 2109.833
31.31000 2133.280
31.32000 2174.525
31.33000 2220.429
31.34000 2264.412
31.35000 2287.233
31.36000 2304.214
31.37000 2318.339
31.38000 2313.785
31.39000 2305.844
31.40000 2299.299
31.41000 2246.689
31.42000 2199.151
31.43000 2155.447
31.44000 2122.591
31.45000 2090.394
31.46000 2043.029
31.47000 1966.562
31.48000 1889.375
31.49000 1845.949
31.50000 1743.898
31.51000 1672.934
31.52000 1612.424
31.53000 1560.547
31.54000 1508.547
31.55000 1450.655
31.56000 1389.529
31.57000 1330.761
31.58000 1275.405
31.59000 1224.731
31.60000 1174.657
31.61000 1130.352
31.62000 1087.491
31.63000 1044.214
31.64000 998.495
31.65000 952.379
31.66000 915.134
31.67000 859.294
31.68000 812.416
31.69000 776.076
31.70000 766.895
31.71000 759.092
31.72000 743.716
31.73000 715.119
31.74000 686.280
31.75000 670.807
31.76000 637.031
31.77000 613.992
31.78000 598.218
31.79000 587.866
31.80000 577.449
31.81000 564.731
31.82000 550.862
31.83000 537.639
31.84000 530.910
31.85000 526.709
31.86000 521.327
31.87000 505.953
31.88000 488.313
31.89000 472.102
31.90000 463.409
31.91000 455.809
31.92000 449.802
31.93000 446.516
31.94000 444.064
31.95000 440.140
31.96000 432.761
31.97000 425.239
31.98000 422.850
31.99000 428.603
32.00000 434.459
32.01000 437.444
32.02000 419.551
32.03000 407.616
32.04000 403.477
32.05000 404.608
32.06000 405.638
32.07000 403.810
32.08000 400.681
32.09000 397.725
32.10000 395.914
32.11000 394.577
32.12000 393.097
32.13000 390.556
32.14000 387.798
32.15000 386.378
32.16000 391.305
32.17000 397.052
32.18000 401.490
32.19000 389.599
32.20000 379.222
32.21000 374.020
32.22000 379.890
32.23000 386.129
32.24000 387.577
32.25000 382.131
32.26000 376.632
32.27000 377.886
32.28000 385.436
32.29000 392.918
32.30000 395.536
32.31000 395.169
32.32000 394.570
32.33000 388.692
32.34000 380.623
32.35000 373.078
32.36000 372.504
32.37000 373.759
32.38000 375.180
32.39000 377.713
32.40000 380.452
32.41000 382.977
32.42000 384.582
32.43000 386.083
32.44000 387.213
32.45000 384.496
32.46000 382.181
32.47000 379.305
32.48000 375.338
32.49000 371.343
32.50000 369.948
32.51000 371.941
32.52000 373.947
32.53000 370.748
32.54000 363.199
32.55000 355.778
32.56000 354.782
32.57000 357.369
32.58000 359.924
32.59000 361.892
32.60000 363.639
32.61000 365.254
32.62000 371.843
32.63000 378.899
32.64000 384.405
32.65000 380.678
32.66000 375.422
32.67000 371.224
32.68000 371.139
32.69000 371.465
32.70000 371.705
32.71000 366.853
32.72000 362.899
32.73000 363.275
32.74000 371.329
32.75000 379.530
32.76000 380.787
32.77000 373.878
32.78000 366.974
32.79000 365.261
32.80000 367.469
32.81000 369.740
32.82000 374.340
32.83000 380.122
32.84000 385.728
32.85000 388.585
32.86000 390.494
32.87000 392.240
32.88000 385.952
32.89000 378.723
32.90000 372.683
32.91000 373.010
32.92000 374.279
32.93000 375.946
32.94000 379.016
32.95000 382.208
32.96000 384.484
32.97000 384.747
32.98000 384.882
32.99000 383.273
33.00000 378.856
33.01000 374.401
33.02000 371.742
33.03000 370.983
33.04000 370.228
33.05000 371.550
33.06000 374.264
33.07000 376.713
33.08000 371.412
33.09000 362.529
33.10000 354.343
33.11000 355.475
33.12000 359.525
33.13000 363.179
33.14000 353.882
33.15000 343.347
33.16000 334.405
33.17000 333.147
33.18000 332.900
33.19000 334.116
33.20000 340.023
33.21000 346.283
33.22000 350.616
33.23000 348.769
33.24000 347.220
33.25000 344.763
33.26000 340.979
33.27000 337.184
33.28000 336.520
33.29000 338.827
33.30000 341.116
33.31000 344.855
33.32000 349.415
33.33000 353.910
33.34000 356.899
33.35000 359.254
33.36000 360.845
33.37000 353.627
33.38000 343.902
33.39000 335.250
33.40000 336.656
33.41000 339.516
33.42000 341.784
33.43000 341.474
33.44000 340.864
33.45000 339.941
33.46000 338.107
33.47000 336.214
33.48000 334.946
33.49000 338.122
33.50000 340.568
33.51000 342.404
33.52000 343.434
33.53000 344.460
33.54000 345.561
33.55000 346.725
33.56000 347.875
33.57000 347.478
33.58000 346.237
33.59000 345.058
33.60000 345.095
33.61000 345.599
33.62000 345.869
33.63000 343.802
33.64000 341.130
33.65000 338.789
33.66000 343.952
33.67000 349.468
33.68000 351.612
33.69000 340.448
33.70000 327.922
33.71000 319.417
33.72000 321.596
33.73000 324.350
33.74000 326.134
33.75000 329.693
33.76000 332.323
33.77000 331.000
33.78000 324.949
33.79000 318.920
33.80000 320.469
33.81000 327.858
33.82000 335.125
33.83000 334.774
33.84000 330.638
33.85000 326.765
33.86000 327.142
33.87000 329.004
33.88000 330.156
33.89000 325.068
33.90000 318.519
33.91000 312.871
33.92000 316.537
33.93000 320.836
33.94000 326.083
33.95000 334.723
33.96000 343.666
33.97000 351.000
33.98000 354.440
33.99000 357.707
34.00000 359.746
34.01000 348.572
34.02000 340.378
34.03000 335.975
34.04000 335.654
34.05000 335.316
34.06000 332.469
34.07000 327.873
34.08000 323.378
34.09000 321.478
34.10000 320.825
34.11000 320.778
34.12000 329.056
34.13000 339.981
34.14000 349.581
34.15000 348.878
34.16000 345.993
34.17000 343.548
34.18000 340.298
34.19000 337.483
34.20000 335.062
34.21000 333.925
34.22000 332.886
34.23000 331.557
34.24000 329.590
34.25000 327.600
34.26000 326.406
34.27000 328.639
34.28000 330.248
34.29000 329.019
34.30000 325.050
34.31000 321.096
34.32000 318.317
34.33000 316.283
34.34000 314.306
34.35000 317.398
34.36000 322.397
34.37000 326.922
34.38000 325.850
34.39000 323.159
34.40000 321.643
34.41000 328.254
34.42000 336.416
34.43000 343.207
34.44000 335.723
34.45000 328.123
34.46000 323.577
34.47000 328.076
34.48000 333.170
34.49000 334.272
34.50000 327.357
34.51000 320.216
34.52000 316.110
34.53000 321.325
34.54000 325.005
34.55000 326.590
34.56000 326.357
34.57000 326.096
34.58000 324.302
34.59000 321.627
34.60000 319.046
34.61000 316.706
34.62000 314.591
34.63000 313.483
34.64000 322.709
34.65000 334.648
34.66000 344.448
34.67000 341.031
34.68000 335.347
34.69000 330.711
34.70000 332.951
34.71000 335.371
34.72000 336.371
34.73000 333.542
34.74000 330.500
34.75000 328.412
34.76000 328.068
34.77000 327.761
34.78000 327.592
34.79000 330.311
34.80000 332.185
34.81000 333.386
34.82000 334.061
34.83000 334.689
34.84000 333.366
34.85000 331.023
34.86000 328.780
34.87000 326.832
34.88000 325.114
34.89000 323.338
34.90000 321.053
34.91000 318.646
34.92000 316.449
34.93000 315.417
34.94000 314.565
34.95000 313.884
34.96000 313.224
34.97000 312.692
34.98000 312.796
34.99000 314.462
35.00000 316.200
35.01000 316.171
35.02000 313.208
35.03000 310.199
35.04000 308.627
35.05000 309.567
35.06000 310.209
35.07000 311.477
35.08000 313.190
35.09000 314.926
35.10000 317.410
35.11000 320.250
35.12000 322.946
35.13000 317.903
35.14000 310.946
35.15000 304.949
35.16000 306.568
35.17000 309.826
35.18000 311.777
35.19000 307.210
35.20000 301.750
35.21000 297.486
35.22000 298.000
35.23000 298.710
35.24000 301.903
35.25000 310.651
35.26000 319.606
35.27000 320.557
35.28000 309.432
35.29000 298.184
35.30000 296.766
35.31000 305.010
35.32000 313.156
35.33000 312.815
35.34000 307.018
35.35000 301.565
35.36000 304.744
35.37000 311.669
35.38000 318.177
35.39000 317.769
35.40000 315.541
35.41000 313.249
35.42000 310.500
35.43000 307.662
35.44000 305.455
35.45000 306.090
35.46000 307.069
35.47000 307.815
35.48000 306.253
35.49000 304.899
35.50000 303.935
35.51000 303.766
35.52000 303.620
35.53000 306.852
35.54000 314.706
35.55000 322.582
35.56000 323.463
35.57000 318.172
35.58000 312.960
35.59000 312.352
35.60000 314.433
35.61000 316.171
35.62000 310.896
35.63000 302.849
35.64000 295.364
35.65000 294.752
35.66000 295.855
35.67000 297.215
35.68000 300.199
35.69000 303.467
35.70000 306.802
35.71000 310.411
35.72000 314.050
35.73000 316.754
35.74000 315.526
35.75000 314.397
35.76000 312.252
35.77000 308.222
35.78000 304.149
35.79000 304.084
35.80000 308.974
35.81000 313.868
35.82000 312.646
35.83000 306.580
35.84000 300.603
35.85000 298.421
35.86000 298.254
35.87000 298.125
35.88000 298.639
35.89000 299.383
35.90000 300.067
35.91000 297.591
35.92000 294.696
35.93000 292.938
35.94000 297.587
35.95000 303.239
35.96000 307.260
35.97000 305.257
35.98000 302.692
35.99000 300.837
36.00000 299.826
36.01000 299.081
36.02000 301.497
36.03000 309.250
36.04000 317.089
36.05000 317.897
36.06000 310.874
36.07000 303.871
36.08000 301.509
36.09000 302.483
36.10000 303.470
36.11000 304.913
36.12000 306.578
36.13000 308.131
36.14000 308.080
36.15000 307.502
36.16000 306.978
36.17000 305.725
36.18000 304.478
36.19000 303.598
36.20000 304.579
36.21000 305.818
36.22000 305.350
36.23000 299.149
36.24000 292.484
36.25000 287.803
36.26000 283.303
36.27000 279.902
36.28000 279.320
36.29000 283.062
36.30000 286.850
36.31000 289.752
36.32000 291.766
36.33000 293.767
36.34000 295.073
36.35000 295.912
36.36000 296.638
36.37000 294.405
36.38000 290.867
36.39000 287.687
36.40000 288.923
36.41000 291.476
36.42000 293.763
36.43000 299.969
36.44000 306.063
36.45000 310.774
36.46000 309.160
36.47000 306.762
36.48000 303.578
36.49000 297.988
36.50000 292.232
36.51000 288.313
36.52000 291.431
36.53000 293.920
36.54000 290.768
36.55000 279.777
36.56000 268.741
36.57000 267.842
36.58000 276.048
36.59000 284.172
36.60000 287.564
36.61000 288.136
36.62000 288.531
36.63000 285.158
36.64000 280.273
36.65000 276.059
36.66000 279.029
36.67000 283.947
36.68000 288.289
36.69000 291.437
36.70000 293.971
36.71000 296.560
36.72000 299.380
36.73000 302.226
36.74000 304.598
36.75000 305.657
36.76000 306.638
36.77000 307.284
36.78000 294.704
36.79000 285.208
36.80000 282.833
36.81000 289.405
36.82000 295.986
36.83000 295.167
36.84000 288.357
36.85000 281.644
36.86000 285.481
36.87000 294.734
36.88000 303.849
36.89000 310.526
36.90000 316.313
36.91000 320.937
36.92000 314.666
36.93000 305.718
36.94000 297.941
36.95000 293.023
36.96000 289.217
36.97000 285.581
36.98000 282.585
36.99000 279.650
37.00000 278.252
37.01000 280.746
37.02000 283.430
37.03000 285.136
37.04000 292.316
37.05000 297.598
37.06000 298.224
37.07000 293.571
37.08000 288.940
37.09000 288.866
37.10000 292.128
37.11000 295.327
37.12000 294.824
37.13000 292.588
37.14000 290.305
37.15000 287.322
37.16000 284.106
37.17000 282.018
37.18000 289.240
37.19000 298.533
37.20000 306.477
37.21000 305.703
37.22000 304.007
37.23000 301.505
37.24000 296.258
37.25000 290.783
37.26000 287.271
37.27000 288.284
37.28000 289.478
37.29000 290.209
37.30000 291.017
37.31000 291.596
37.32000 291.549
37.33000 290.864
37.34000 290.222
37.35000 293.856
37.36000 300.326
37.37000 306.634
37.38000 299.793
37.39000 287.649
37.40000 276.624
37.41000 279.802
37.42000 287.282
37.43000 294.103
37.44000 296.105
37.45000 297.140
37.46000 298.009
37.47000 290.279
37.48000 282.939
37.49000 276.074
37.50000 270.686
37.51000 265.403
37.52000 263.455
37.53000 268.514
37.54000 273.796
37.55000 276.897
37.56000 280.984
37.57000 283.870
37.58000 288.177
37.59000 293.782
37.60000 299.334
37.61000 301.346
37.62000 301.226
37.63000 301.109
37.64000 295.152
37.65000 287.267
37.66000 280.083
37.67000 280.589
37.68000 283.211
37.69000 285.527
37.70000 285.851
37.71000 285.815
37.72000 285.786
37.73000 278.362
37.74000 271.578
37.75000 269.064
37.76000 278.602
37.77000 288.868
37.78000 293.485
37.79000 287.297
37.80000 280.843
37.81000 277.217
37.82000 284.663
37.83000 289.853
37.84000 293.188
37.85000 294.997
37.86000 296.738
37.87000 295.246
37.88000 291.984
37.89000 288.848
37.90000 291.795
37.91000 296.671
37.92000 300.256
37.93000 291.475
37.94000 279.607
37.95000 269.628
37.96000 270.674
37.97000 273.507
37.98000 275.793
37.99000 279.402
38.00000 282.440
38.01000 284.831
38.02000 285.560
38.03000 286.206
38.04000 286.188
38.05000 285.015
38.06000 283.822
38.07000 283.182
38.08000 293.952
38.09000 301.276
38.10000 302.089
38.11000 298.057
38.12000 294.116
38.13000 293.396
38.14000 294.281
38.15000 295.125
38.16000 292.328
38.17000 288.592
38.18000 285.390
38.19000 286.674
38.20000 288.972
38.21000 291.159
38.22000 292.764
38.23000 294.284
38.24000 295.485
38.25000 303.969
38.26000 311.274
38.27000 314.117
38.28000 306.511
38.29000 298.472
38.30000 296.915
38.31000 305.608
38.32000 314.428
38.33000 318.917
38.34000 327.635
38.35000 333.481
38.36000 339.319
38.37000 345.150
38.38000 350.977
38.39000 356.649
38.40000 362.252
38.41000 367.543
38.42000 379.831
38.43000 393.082
38.44000 404.847
38.45000 405.533
38.46000 403.957
38.47000 404.253
38.48000 413.400
38.49000 423.686
38.50000 431.623
38.51000 442.640
38.52000 451.549
38.53000 461.278
38.54000 472.753
38.55000 484.285
38.56000 500.351
38.57000 522.920
38.58000 545.537
38.59000 551.410
38.60000 541.720
38.61000 532.233
38.62000 536.974
38.63000 550.418
38.64000 563.357
38.65000 564.915
38.66000 561.767
38.67000 558.824
38.68000 557.396
38.69000 556.484
38.70000 555.111
38.71000 550.669
38.72000 545.663
38.73000 539.975
38.74000 531.371
38.75000 522.435
38.76000 515.710
38.77000 509.661
38.78000 504.962
38.79000 501.971
38.80000 502.298
38.81000 502.710
38.82000 494.646
38.83000 475.574
38.84000 456.476
38.85000 445.609
38.86000 441.643
38.87000 437.607
38.88000 430.077
38.89000 420.606
38.90000 411.421
38.91000 407.566
38.92000 405.719
38.93000 404.012
38.94000 390.093
38.95000 374.813
38.96000 361.184
38.97000 357.359
38.98000 355.151
38.99000 350.764
39.00000 337.934
39.01000 324.262
39.02000 314.241
39.03000 308.591
39.04000 304.403
39.05000 301.098
39.06000 299.355
39.07000 297.641
39.08000 295.171
39.09000 291.815
39.10000 288.466
39.11000 285.385
39.12000 282.527
39.13000 279.764
39.14000 280.546
39.15000 283.121
39.16000 285.290
39.17000 281.106
39.18000 274.742
39.19000 268.928
39.20000 269.069
39.21000 270.409
39.22000 271.544
39.23000 271.585
39.24000 271.465
39.25000 271.523
39.26000 272.210
39.27000 272.951
39.28000 273.479
39.29000 276.681
39.30000 279.209
39.31000 281.619
39.32000 283.841
39.33000 286.061
39.34000 285.445
39.35000 281.839
39.36000 278.250
39.37000 273.927
39.38000 269.159
39.39000 264.496
39.40000 262.869
39.41000 262.641
39.42000 262.310
39.43000 260.606
39.44000 258.472
39.45000 256.548
39.46000 257.375
39.47000 258.603
39.48000 259.924
39.49000 261.689
39.50000 263.512
39.51000 264.839
39.52000 264.577
39.53000 264.196
39.54000 263.933
39.55000 263.034
39.56000 262.342
39.57000 262.219
39.58000 262.926
39.59000 263.640
39.60000 265.494
39.61000 268.425
39.62000 271.332
39.63000 268.600
39.64000 262.476
39.65000 256.651
39.66000 257.782
39.67000 261.834
39.68000 265.746
39.69000 268.047
39.70000 269.891
39.71000 271.531
39.72000 263.827
39.73000 255.624
39.74000 249.387
39.75000 251.690
39.76000 254.984
39.77000 257.851
39.78000 259.476
39.79000 261.021
39.80000 262.056
39.81000 264.247
39.82000 265.895
39.83000 265.513
39.84000 262.451
39.85000 259.377
39.86000 256.606
39.87000 254.094
39.88000 251.612
39.89000 251.502
39.90000 252.700
39.91000 253.691
39.92000 250.700
39.93000 246.187
39.94000 242.175
39.95000 243.165
39.96000 245.444
39.97000 247.440
39.98000 249.707
39.99000 251.691
40.00000 254.047
40.01000 257.874
40.02000 261.849
40.03000 263.206
40.04000 257.624
40.05000 251.671
40.06000 247.821
40.07000 257.882
40.08000 265.444
40.09000 268.564
40.10000 266.390
40.11000 264.208
40.12000 262.340
40.13000 260.714
40.14000 259.115
40.15000 254.700
40.16000 249.032
40.17000 243.610
40.18000 242.156
40.19000 242.084
40.20000 242.112
40.21000 243.014
40.22000 244.120
40.23000 245.073
40.24000 248.042
40.25000 250.816
40.26000 252.323
40.27000 249.304
40.28000 245.883
40.29000 245.789
40.30000 253.724
40.31000 262.014
40.32000 267.181
40.33000 267.604
40.34000 267.861
40.35000 264.327
40.36000 256.726
40.37000 249.165
40.38000 246.822
40.39000 248.109
40.40000 249.367
40.41000 250.862
40.42000 252.402
40.43000 253.472
40.44000 248.125
40.45000 240.743
40.46000 235.028
40.47000 242.234
40.48000 252.168
40.49000 260.582
40.50000 262.616
40.51000 263.605
40.52000 263.268
40.53000 258.625
40.54000 253.653
40.55000 251.854
40.56000 257.035
40.57000 262.464
40.58000 265.717
40.59000 256.185
40.60000 249.332
40.61000 246.642
40.62000 247.957
40.63000 249.231
40.64000 247.164
40.65000 242.988
40.66000 238.931
40.67000 237.635
40.68000 237.521
40.69000 237.519
40.70000 238.839
40.71000 240.540
40.72000 242.530
40.73000 246.512
40.74000 250.874
40.75000 254.500
40.76000 255.994
40.77000 257.020
40.78000 256.849
40.79000 253.141
40.80000 249.201
40.81000 248.548
40.82000 254.478
40.83000 260.593
40.84000 264.104
40.85000 260.845
40.86000 258.540
40.87000 254.918
40.88000 250.154
40.89000 245.488
40.90000 246.203
40.91000 250.002
40.92000 253.667
40.93000 251.843
40.94000 248.120
40.95000 244.778
40.96000 245.326
40.97000 246.893
40.98000 247.775
40.99000 244.444
41.00000 240.392
41.01000 237.089
41.02000 242.788
41.03000 248.213
41.04000 250.151
41.05000 242.717
41.06000 234.765
41.07000 230.642
41.08000 233.495
41.09000 236.496
41.10000 238.142
41.11000 239.978
41.12000 241.240
41.13000 242.366
41.14000 243.385
41.15000 244.426
41.16000 246.391
41.17000 248.837
41.18000 251.178
41.19000 245.637
41.20000 237.876
41.21000 231.431
41.22000 236.778
41.23000 244.923
41.24000 251.722
41.25000 251.093
41.26000 249.328
41.27000 247.919
41.28000 244.775
41.29000 242.108
41.30000 239.638
41.31000 237.649
41.32000 235.682
41.33000 233.048
41.34000 229.311
41.35000 225.557
41.36000 223.598
41.37000 240.780
41.38000 252.342
41.39000 254.811
41.40000 250.853
41.41000 246.889
41.42000 242.741
41.43000 238.507
41.44000 234.489
41.45000 239.238
41.46000 246.221
41.47000 252.180
41.48000 250.043
41.49000 246.169
41.50000 242.331
41.51000 238.674
41.52000 235.041
41.53000 232.206
41.54000 227.164
41.55000 223.005
41.56000 222.719
41.57000 231.076
41.58000 239.753
41.59000 244.119
41.60000 242.001
41.61000 239.818
41.62000 237.312
41.63000 234.488
41.64000 231.695
41.65000 231.551
41.66000 233.104
41.67000 234.646
41.68000 235.930
41.69000 237.103
41.70000 238.205
41.71000 237.137
41.72000 235.581
41.73000 233.582
41.74000 228.468
41.75000 222.751
41.76000 218.913
41.77000 223.508
41.78000 229.122
41.79000 233.400
41.80000 237.501
41.81000 240.721
41.82000 242.901
41.83000 242.966
41.84000 242.970
41.85000 244.326
41.86000 247.526
41.87000 250.735
41.88000 250.772
41.89000 248.019
41.90000 245.248
41.91000 241.453
41.92000 237.060
41.93000 232.981
41.94000 235.310
41.95000 240.165
41.96000 244.678
41.97000 245.361
41.98000 245.059
41.99000 244.541
42.00000 242.671
42.01000 240.566
42.02000 239.097
42.03000 240.213
42.04000 241.604
42.05000 242.637
42.06000 238.537
42.07000 235.125
42.08000 232.942
42.09000 233.038
42.10000 233.183
42.11000 231.022
42.12000 226.020
42.13000 221.019
42.14000 225.429
42.15000 237.257
42.16000 248.774
42.17000 247.075
42.18000 238.378
42.19000 230.159
42.20000 230.073
42.21000 232.908
42.22000 235.514
42.23000 230.362
42.24000 224.094
42.25000 219.227
42.26000 222.235
42.27000 226.471
42.28000 230.345
42.29000 232.891
42.30000 235.313
42.31000 237.063
42.32000 235.610
42.33000 234.380
42.34000 232.579
42.35000 229.818
42.36000 227.041
42.37000 226.369
42.38000 228.035
42.39000 229.695
42.40000 229.359
42.41000 227.605
42.42000 225.955
42.43000 227.648
42.44000 230.953
42.45000 233.811
42.46000 230.235
42.47000 224.555
42.48000 219.401
42.49000 217.408
42.50000 216.257
42.51000 215.108
42.52000 213.965
42.53000 212.824
42.54000 213.346
42.55000 219.437
42.56000 225.976
42.57000 230.564
42.58000 233.414
42.59000 235.520
42.60000 236.321
42.61000 235.125
42.62000 233.908
42.63000 231.684
42.64000 228.455
42.65000 225.248
42.66000 225.389
42.67000 227.675
42.68000 229.946
42.69000 231.829
42.70000 233.541
42.71000 234.794
42.72000 230.397
42.73000 224.320
42.74000 218.879
42.75000 217.272
42.76000 216.529
42.77000 216.741
42.78000 221.308
42.79000 226.412
42.80000 230.288
42.81000 230.429
42.82000 230.312
42.83000 230.232
42.84000 229.502
42.85000 228.942
42.86000 228.122
42.87000 226.943
42.88000 225.761
42.89000 224.296
42.90000 222.578
42.91000 220.878
42.92000 219.462
42.93000 218.242
42.94000 216.950
42.95000 214.144
42.96000 210.733
42.97000 208.416
42.98000 217.783
42.99000 230.307
43.00000 241.359
43.01000 240.890
43.02000 238.726
43.03000 235.973
43.04000 230.788
43.05000 225.338
43.06000 221.584
43.07000 222.530
43.08000 223.751
43.09000 224.554
43.10000 222.010
43.11000 220.079
43.12000 219.122
43.13000 219.384
43.14000 219.651
43.15000 220.439
43.16000 221.647
43.17000 222.837
43.18000 225.813
43.19000 229.635
43.20000 233.212
43.21000 232.511
43.22000 230.251
43.23000 227.976
43.24000 225.567
43.25000 223.126
43.26000 221.005
43.27000 222.221
43.28000 223.709
43.29000 225.216
43.30000 226.794
43.31000 228.379
43.32000 229.592
43.33000 229.866
43.34000 230.095
43.35000 230.241
43.36000 222.393
43.37000 216.598
43.38000 218.985
43.39000 230.614
43.40000 242.179
43.41000 241.575
43.42000 232.090
43.43000 222.789
43.44000 217.528
43.45000 214.366
43.46000 211.270
43.47000 209.154
43.48000 207.363
43.49000 205.835
43.50000 206.480
43.51000 207.606
43.52000 208.569
43.53000 215.291
43.54000 221.642
43.55000 227.175
43.56000 229.929
43.57000 232.454
43.58000 233.334
43.59000 230.433
43.60000 227.381
43.61000 225.516
43.62000 221.283
43.63000 218.235
43.64000 215.144
43.65000 212.009
43.66000 208.924
43.67000 210.696
43.68000 215.682
43.69000 220.542
43.70000 218.365
43.71000 213.292
43.72000 209.069
43.73000 215.583
43.74000 225.341
43.75000 233.934
43.76000 234.047
43.77000 232.463
43.78000 231.133
43.79000 228.326
43.80000 225.835
43.81000 224.801
43.82000 228.272
43.83000 232.062
43.84000 233.701
43.85000 230.834
43.86000 227.825
43.87000 226.060
43.88000 223.624
43.89000 221.904
43.90000 220.464
43.91000 219.278
43.92000 218.158
43.93000 221.357
43.94000 227.148
43.95000 232.756
43.96000 236.840
43.97000 240.116
43.98000 242.710
43.99000 237.846
44.00000 230.937
44.01000 224.765
44.02000 223.383
44.03000 222.864
44.04000 222.437
44.05000 221.318
44.06000 220.335
44.07000 219.498
44.08000 219.073
44.09000 218.673
44.10000 218.270
44.11000 217.860
44.12000 217.451
44.13000 217.221
44.14000 219.407
44.15000 220.932
44.16000 223.599
44.17000 227.203
44.18000 230.771
44.19000 232.631
44.20000 233.559
44.21000 234.451
44.22000 235.012
44.23000 235.422
44.24000 235.824
44.25000 236.149
44.26000 236.455
44.27000 236.260
44.28000 233.149
44.29000 229.567
44.30000 226.677
44.31000 228.706
44.32000 230.742
44.33000 232.189
44.34000 232.127
44.35000 231.990
44.36000 233.079
44.37000 236.299
44.38000 239.557
44.39000 241.299
44.40000 241.456
44.41000 241.553
44.42000 240.019
44.43000 237.276
44.44000 234.640
44.45000 235.767
44.46000 238.766
44.47000 241.623
44.48000 241.056
44.49000 239.461
44.50000 238.273
44.51000 240.503
44.52000 243.503
44.53000 245.826
44.54000 244.603
44.55000 242.869
44.56000 241.501
44.57000 250.612
44.58000 258.632
44.59000 264.329
44.60000 264.604
44.61000 264.656
44.62000 264.936
44.63000 265.575
44.64000 266.219
44.65000 266.546
44.66000 276.083
44.67000 282.419
44.68000 282.756
44.69000 279.061
44.70000 275.845
44.71000 285.890
44.72000 301.939
44.73000 317.090
44.74000 318.305
44.75000 315.499
44.76000 313.284
44.77000 315.459
44.78000 318.527
44.79000 323.059
44.80000 334.494
44.81000 346.815
44.82000 356.313
44.83000 357.558
44.84000 358.069
44.85000 356.902
44.86000 352.167
44.87000 347.315
44.88000 348.117
44.89000 357.007
44.90000 365.957
44.91000 376.685
44.92000 389.054
44.93000 401.276
44.94000 403.352
44.95000 399.239
44.96000 395.220
44.97000 393.280
44.98000 392.197
44.99000 391.185
45.00000 397.529
45.01000 405.145
45.02000 410.663
45.03000 402.284
45.04000 391.360
45.05000 382.269
45.06000 380.992
45.07000 380.599
45.08000 380.304
45.09000 377.266
45.10000 374.757
45.11000 372.544
45.12000 370.903
45.13000 369.277
45.14000 366.397
45.15000 361.893
45.16000 357.387
45.17000 355.560
45.18000 355.967
45.19000 356.332
45.20000 354.618
45.21000 351.751
45.22000 348.530
45.23000 338.742
45.24000 326.487
45.25000 315.159
45.26000 322.058
45.27000 332.387
45.28000 340.161
45.29000 332.806
45.30000 322.963
45.31000 315.446
45.32000 316.912
45.33000 319.270
45.34000 320.997
45.35000 304.599
45.36000 291.217
45.37000 286.636
45.38000 297.569
45.39000 308.794
45.40000 308.520
45.41000 294.809
45.42000 281.116
45.43000 278.185
45.44000 283.330
45.45000 288.399
45.46000 290.648
45.47000 291.475
45.48000 292.214
45.49000 291.602
45.50000 290.527
45.51000 289.545
45.52000 280.818
45.53000 271.497
45.54000 264.100
45.55000 266.933
45.56000 271.271
45.57000 273.255
45.58000 266.994
45.59000 260.019
45.60000 255.054
45.61000 256.469
45.62000 257.753
45.63000 253.809
45.64000 241.492
45.65000 229.065
45.66000 224.081
45.67000 226.922
45.68000 229.748
45.69000 234.430
45.70000 240.307
45.71000 246.046
45.72000 247.842
45.73000 247.826
45.74000 247.469
45.75000 242.589
45.76000 236.301
45.77000 230.633
45.78000 233.263
45.79000 237.078
45.80000 240.303
45.81000 240.697
45.82000 240.722
45.83000 239.647
45.84000 235.066
45.85000 230.224
45.86000 226.880
45.87000 223.308
45.88000 220.617
45.89000 219.618
45.90000 221.079
45.91000 222.559
45.92000 222.505
45.93000 221.004
45.94000 219.516
45.95000 220.648
45.96000 223.353
45.97000 225.917
45.98000 225.241
45.99000 223.207
46.00000 220.869
46.01000 215.048
46.02000 208.242
46.03000 202.192
46.04000 207.032
46.05000 212.992
46.06000 217.086
46.07000 213.097
46.08000 208.173
46.09000 204.105
46.10000 202.518
46.11000 201.089
46.12000 200.133
46.13000 212.940
46.14000 222.707
46.15000 226.829
46.16000 223.526
46.17000 220.184
46.18000 213.891
46.19000 205.093
46.20000 196.404
46.21000 195.681
46.22000 199.350
46.23000 202.775
46.24000 201.558
46.25000 198.570
46.26000 196.287
46.27000 201.014
46.28000 207.542
46.29000 213.257
46.30000 208.345
46.31000 202.606
46.32000 198.312
46.33000 199.684
46.34000 201.632
46.35000 204.042
46.36000 207.675
46.37000 211.372
46.38000 213.761
46.39000 207.173
46.40000 202.227
46.41000 199.892
46.42000 200.661
46.43000 201.434
46.44000 201.777
46.45000 201.790
46.46000 201.802
46.47000 198.832
46.48000 194.484
46.49000 190.596
46.50000 194.077
46.51000 200.118
46.52000 205.721
46.53000 207.487
46.54000 208.360
46.55000 209.113
46.56000 211.651
46.57000 214.029
46.58000 214.713
46.59000 209.362
46.60000 203.478
46.61000 199.242
46.62000 198.972
46.63000 198.876
46.64000 198.816
46.65000 199.474
46.66000 199.956
46.67000 199.652
46.68000 198.506
46.69000 197.348
46.70000 194.652
46.71000 190.888
46.72000 187.209
46.73000 187.324
46.74000 189.132
46.75000 190.842
46.76000 191.245
46.77000 191.234
46.78000 191.670
46.79000 195.564
46.80000 200.184
46.81000 204.096
46.82000 200.077
46.83000 195.826
46.84000 193.576
46.85000 197.800
46.86000 202.517
46.87000 205.095
46.88000 202.982
46.89000 200.703
46.90000 199.339
46.91000 195.354
46.92000 192.509
46.93000 193.158
46.94000 197.160
46.95000 201.139
46.96000 203.349
46.97000 204.446
46.98000 205.512
46.99000 204.072
47.00000 201.693
47.01000 199.565
47.02000 200.374
47.03000 202.026
47.04000 203.518
47.05000 203.902
47.06000 204.077
47.07000 204.222
47.08000 196.479
47.09000 189.304
47.10000 185.392
47.11000 191.088
47.12000 197.411
47.13000 200.014
47.14000 195.192
47.15000 190.164
47.16000 187.281
47.17000 187.272
47.18000 187.276
47.19000 187.785
47.20000 188.731
47.21000 189.695
47.22000 191.667
47.23000 194.216
47.24000 196.673
47.25000 195.889
47.26000 193.970
47.27000 192.397
47.28000 194.340
47.29000 197.201
47.30000 199.123
47.31000 195.286
47.32000 190.468
47.33000 186.542
47.34000 184.687
47.35000 183.346
47.36000 184.198
47.37000 190.926
47.38000 197.977
47.39000 201.749
47.40000 199.560
47.41000 197.246
47.42000 195.979
47.43000 192.414
47.44000 189.973
47.45000 191.171
47.46000 195.202
47.47000 199.095
47.48000 197.388
47.49000 192.769
47.50000 188.348
47.51000 185.838
47.52000 184.127
47.53000 182.748
47.54000 184.323
47.55000 186.598
47.56000 188.294
47.57000 186.807
47.58000 184.836
47.59000 183.263
47.60000 184.947
47.61000 186.544
47.62000 187.640
47.63000 187.508
47.64000 187.321
47.65000 186.001
47.66000 182.811
47.67000 179.594
47.68000 177.916
47.69000 179.177
47.70000 180.027
47.71000 180.439
47.72000 180.543
47.73000 180.810
47.74000 186.138
47.75000 193.863
47.76000 201.191
47.77000 196.304
47.78000 188.183
47.79000 180.923
47.80000 180.441
47.81000 181.409
47.82000 182.052
47.83000 181.087
47.84000 179.904
47.85000 178.981
47.86000 177.848
47.87000 176.931
47.88000 178.808
47.89000 186.900
47.90000 195.222
47.91000 198.035
47.92000 192.587
47.93000 187.057
47.94000 184.244
47.95000 184.083
47.96000 183.951
47.97000 186.220
47.98000 190.022
47.99000 193.597
48.00000 191.534
48.01000 187.038
48.02000 182.815
48.03000 175.458
48.04000 167.912
48.05000 162.137
48.06000 168.748
48.07000 177.748
48.08000 184.908
48.09000 183.838
48.10000 181.778
48.11000 180.209
48.12000 184.864
48.13000 188.855
48.14000 190.700
48.15000 188.194
48.16000 185.562
48.17000 184.790
48.18000 186.546
48.19000 188.315
48.20000 186.214
48.21000 180.725
48.22000 175.356
48.23000 176.885
48.24000 182.418
48.25000 187.627
48.26000 186.258
48.27000 182.302
48.28000 178.626
48.29000 179.052
48.30000 180.417
48.31000 181.412
48.32000 180.100
48.33000 178.388
48.34000 176.654
48.35000 174.832
48.36000 173.002
48.37000 171.643
48.38000 177.408
48.39000 182.198
48.40000 186.053
48.41000 188.180
48.42000 190.269
48.43000 189.180
48.44000 184.186
48.45000 179.191
48.46000 177.123
48.47000 177.370
48.48000 177.606
48.49000 177.378
48.50000 176.904
48.51000 176.319
48.52000 173.863
48.53000 170.738
48.54000 167.866
48.55000 170.761
48.56000 174.581
48.57000 178.524
48.58000 183.158
48.59000 187.900
48.60000 190.829
48.61000 187.103
48.62000 182.761
48.63000 179.626
48.64000 181.688
48.65000 183.455
48.66000 183.775
48.67000 181.667
48.68000 179.521
48.69000 179.241
48.70000 181.027
48.71000 182.807
48.72000 183.538
48.73000 183.518
48.74000 183.431
48.75000 181.168
48.76000 177.859
48.77000 174.988
48.78000 178.378
48.79000 183.809
48.80000 188.736
48.81000 191.048
48.82000 192.587
48.83000 192.625
48.84000 185.102
48.85000 176.534
48.86000 171.350
48.87000 177.462
48.88000 184.480
48.89000 189.401
48.90000 186.471
48.91000 184.028
48.92000 182.560
48.93000 182.578
48.94000 182.612
48.95000 181.614
48.96000 179.591
48.97000 177.580
48.98000 177.491
48.99000 178.632
49.00000 179.746
49.01000 180.181
49.02000 180.319
49.03000 180.286
49.04000 178.169
49.05000 175.433
49.06000 172.985
49.07000 175.649
49.08000 178.848
49.09000 181.014
49.10000 178.477
49.11000 175.363
49.12000 173.748
49.13000 176.684
49.14000 179.934
49.15000 182.141
49.16000 177.034
49.17000 173.058
49.18000 171.825
49.19000 174.379
49.20000 176.957
49.21000 180.088
49.22000 183.713
49.23000 187.301
49.24000 185.540
49.25000 180.732
49.26000 176.168
49.27000 176.691
49.28000 179.244
49.29000 181.860
49.30000 185.142
49.31000 188.604
49.32000 191.657
49.33000 193.124
49.34000 194.147
49.35000 193.627
49.36000 186.755
49.37000 179.195
49.38000 172.672
49.39000 169.013
49.40000 165.522
49.41000 163.227
49.42000 173.435
49.43000 181.161
49.44000 185.156
49.45000 184.492
49.46000 183.819
49.47000 185.029
49.48000 187.754
49.49000 190.439
49.50000 187.128
49.51000 180.792
49.52000 174.608
49.53000 171.055
49.54000 168.458
49.55000 166.739
49.56000 173.178
49.57000 181.610
49.58000 188.932
49.59000 185.605
49.60000 181.333
49.61000 177.610
49.62000 175.933
49.63000 174.449
49.64000 172.889
49.65000 171.138
49.66000 169.377
49.67000 168.261
49.68000 170.949
49.69000 172.946
49.70000 172.459
49.71000 169.177
49.72000 165.922
49.73000 167.455
49.74000 172.472
49.75000 177.391
49.76000 175.305
49.77000 170.005
49.78000 164.990
49.79000 164.145
49.80000 164.680
49.81000 165.579
49.82000 169.455
49.83000 173.988
49.84000 177.859
49.85000 175.115
49.86000 172.018
49.87000 169.641
49.88000 169.701
49.89000 169.961
49.90000 170.702
49.91000 172.544
49.92000 174.431
49.93000 175.582
49.94000 172.468
49.95000 170.208
49.96000 169.082
49.97000 169.103
49.98000 169.170
49.99000 173.645
50.00000 181.027
50.01000 188.222
50.02000 185.404
50.03000 178.467
50.04000 172.038
50.05000 172.002
50.06000 173.890
50.07000 175.677
50.08000 176.728
50.09000 177.633
50.10000 178.392
50.11000 175.464
50.12000 172.644
50.13000 171.566
50.14000 175.860
50.15000 180.532
50.16000 184.223
50.17000 185.862
50.18000 187.437
50.19000 188.360
50.20000 181.404
50.21000 176.472
50.22000 178.242
50.23000 186.098
50.24000 193.851
50.25000 194.985
50.26000 192.155
50.27000 189.416
50.28000 186.860
50.29000 184.513
50.30000 182.594
50.31000 185.312
50.32000 189.299
50.33000 193.177
50.34000 196.344
50.35000 199.383
50.36000 201.884
50.37000 203.140
50.38000 204.059
50.39000 203.296
50.40000 197.813
50.41000 192.047
50.42000 190.543
50.43000 197.144
50.44000 203.941
50.45000 207.749
50.46000 211.291
50.47000 213.737
50.48000 212.942
50.49000 209.495
50.50000 206.213
50.51000 210.548
50.52000 219.031
50.53000 227.180
50.54000 230.357
50.55000 231.612
50.56000 232.520
50.57000 230.131
50.58000 226.923
50.59000 224.417
50.60000 225.980
50.61000 228.199
50.62000 229.987
50.63000 227.303
50.64000 224.772
50.65000 223.834
50.66000 226.967
50.67000 230.303
50.68000 232.068
50.69000 231.116
50.70000 230.116
50.71000 229.581
50.72000 225.989
50.73000 223.550
50.74000 223.298
50.75000 224.664
50.76000 225.923
50.77000 223.446
50.78000 219.118
50.79000 214.994
50.80000 212.725
50.81000 211.199
50.82000 209.943
50.83000 210.949
50.84000 212.462
50.85000 213.359
50.86000 211.046
50.87000 208.272
50.88000 206.084
50.89000 204.191
50.90000 202.693
50.91000 201.398
50.92000 200.575
50.93000 199.771
50.94000 199.754
50.95000 200.974
50.96000 202.209
50.97000 202.836
50.98000 195.206
50.99000 190.140
51.00000 189.868
51.01000 192.807
51.02000 195.611
51.03000 194.687
51.04000 192.080
51.05000 189.619
51.06000 188.940
51.07000 188.817
51.08000 187.927
51.09000 181.366
51.10000 173.654
51.11000 167.724
51.12000 170.168
51.13000 173.682
51.14000 176.389
51.15000 182.349
51.16000 187.255
51.17000 189.900
51.18000 187.748
51.19000 185.439
51.20000 184.973
51.21000 187.136
51.22000 189.318
51.23000 190.001
51.24000 189.302
51.25000 188.571
51.26000 185.726
51.27000 181.595
51.28000 177.516
51.29000 174.608
51.30000 172.183
51.31000 169.916
51.32000 168.971
51.33000 168.446
51.34000 168.306
51.35000 170.705
51.36000 173.568
51.37000 176.059
51.38000 176.968
51.39000 177.699
51.40000 178.249
51.41000 179.452
51.42000 180.424
51.43000 178.524
51.44000 171.075
51.45000 163.487
51.46000 160.393
51.47000 163.102
51.48000 165.831
51.49000 166.483
51.50000 165.411
51.51000 164.329
51.52000 162.740
51.53000 160.870
51.54000 159.121
51.55000 159.569
51.56000 160.842
51.57000 162.018
51.58000 167.916
51.59000 174.278
51.60000 178.898
51.61000 173.242
51.62000 165.901
51.63000 160.855
51.64000 164.646
51.65000 169.311
51.66000 172.725
51.67000 173.255
51.68000 173.549
51.69000 172.019
51.70000 167.282
51.71000 162.485
51.72000 159.058
51.73000 157.226
51.74000 155.401
51.75000 155.603
51.76000 157.315
51.77000 158.990
51.78000 159.265
51.79000 158.837
51.80000 158.232
51.81000 154.893
51.82000 150.620
51.83000 146.719
51.84000 145.421
51.85000 144.797
51.86000 144.626
51.87000 146.854
51.88000 149.435
51.89000 152.437
51.90000 156.915
51.91000 161.519
51.92000 164.795
51.93000 163.273
51.94000 161.959
51.95000 159.753
51.96000 156.121
51.97000 152.471
51.98000 152.072
51.99000 155.080
52.00000 158.073
52.01000 159.930
52.02000 161.001
52.03000 162.025
52.04000 161.701
52.05000 160.760
52.06000 160.106
52.07000 163.244
52.08000 167.561
52.09000 171.450
52.10000 168.446
52.11000 164.563
52.12000 162.068
52.13000 166.204
52.14000 171.205
52.15000 174.183
52.16000 170.737
52.17000 166.814
52.18000 164.107
52.19000 161.040
52.20000 158.727
52.21000 158.007
52.22000 159.597
52.23000 161.205
52.24000 159.790
52.25000 155.535
52.26000 151.316
52.27000 151.061
52.28000 153.214
52.29000 155.308
52.30000 156.032
52.31000 156.185
52.32000 156.078
52.33000 153.017
52.34000 149.123
52.35000 145.663
52.36000 144.422
52.37000 143.703
52.38000 144.560
52.39000 152.219
52.40000 160.661
52.41000 166.386
52.42000 164.254
52.43000 161.626
52.44000 159.871
52.45000 155.590
52.46000 152.369
52.47000 152.818
52.48000 158.081
52.49000 163.357
52.50000 163.685
52.51000 159.827
52.52000 156.017
52.53000 154.667
52.54000 154.697
52.55000 154.820
52.56000 156.700
52.57000 159.248
52.58000 161.277
52.59000 158.161
52.60000 153.726
52.61000 149.845
52.62000 148.890
52.63000 148.490
52.64000 148.501
52.65000 150.123
52.66000 151.907
52.67000 153.857
52.68000 156.245
52.69000 158.656
52.70000 160.212
52.71000 155.232
52.72000 151.499
52.73000 150.568
52.74000 152.955
52.75000 155.334
52.76000 154.410
52.77000 150.962
52.78000 147.572
52.79000 147.988
52.80000 150.268
52.81000 152.387
52.82000 151.953
52.83000 150.635
52.84000 149.479
52.85000 149.734
52.86000 150.317
52.87000 150.819
52.88000 152.797
52.89000 154.659
52.90000 155.352
52.91000 151.891
52.92000 148.064
52.93000 146.460
52.94000 150.190
52.95000 154.153
52.96000 156.617
52.97000 160.528
52.98000 163.359
52.99000 163.739
53.00000 161.507
53.01000 159.279
53.02000 157.641
53.03000 156.410
53.04000 155.207
53.05000 153.828
53.06000 152.428
53.07000 151.242
53.08000 152.951
53.09000 155.572
53.10000 158.291
53.11000 161.760
53.12000 165.386
53.13000 168.455
53.14000 165.889
53.15000 163.115
53.16000 159.993
53.17000 155.748
53.18000 151.418
53.19000 150.961
53.20000 158.969
53.21000 167.276
53.22000 172.240
53.23000 168.839
53.24000 166.372
53.25000 161.107
53.26000 153.166
53.27000 145.351
53.28000 147.369
53.29000 155.557
53.30000 163.509
53.31000 162.639
53.32000 158.261
53.33000 154.238
53.34000 154.358
53.35000 155.664
53.36000 156.789
53.37000 156.666
53.38000 156.308
53.39000 156.010
53.40000 157.434
53.41000 158.778
53.42000 157.836
53.43000 150.180
53.44000 142.088
53.45000 140.164
53.46000 150.518
53.47000 161.209
53.48000 167.332
53.49000 162.349
53.50000 158.831
53.51000 156.048
53.52000 153.898
53.53000 151.790
53.54000 151.960
53.55000 153.427
53.56000 154.843
53.57000 154.438
53.58000 153.396
53.59000 152.963
53.60000 158.690
53.61000 166.019
53.62000 171.599
53.63000 166.477
53.64000 159.538
53.65000 153.888
53.66000 152.256
53.67000 151.263
53.68000 150.956
53.69000 152.486
53.70000 154.115
53.71000 154.495
53.72000 152.609
53.73000 150.676
53.74000 149.619
53.75000 151.987
53.76000 153.607
53.77000 152.202
53.78000 148.448
53.79000 144.818
53.80000 146.115
53.81000 149.967
53.82000 153.652
53.83000 158.452
53.84000 163.285
53.85000 167.103
53.86000 161.891
53.87000 154.550
53.88000 148.521
53.89000 149.694
53.90000 151.961
53.91000 153.769
53.92000 155.354
53.93000 156.617
53.94000 156.873
53.95000 154.675
53.96000 152.367
53.97000 152.759
53.98000 157.599
53.99000 162.504
54.00000 165.057
54.01000 162.182
54.02000 160.230
54.03000 157.282
54.04000 153.632
54.05000 150.115
54.06000 150.661
54.07000 153.126
54.08000 155.463
54.09000 156.052
54.10000 156.079
54.11000 156.046
54.12000 155.545
54.13000 154.943
54.14000 154.350
54.15000 153.794
54.16000 153.245
54.17000 152.816
54.18000 147.583
54.19000 143.115
54.20000 140.440
54.21000 141.745
54.22000 143.194
54.23000 144.302
54.24000 144.898
54.25000 145.489
54.26000 146.676
54.27000 148.443
54.28000 150.201
54.29000 151.169
54.30000 151.634
54.31000 152.102
54.32000 152.655
54.33000 153.244
54.34000 153.797
54.35000 153.346
54.36000 152.667
54.37000 151.740
54.38000 149.081
54.39000 146.089
54.40000 143.582
54.41000 143.238
54.42000 143.152
54.43000 143.088
54.44000 140.866
54.45000 139.006
54.46000 137.465
54.47000 136.572
54.48000 135.697
54.49000 139.233
54.50000 148.745
54.51000 158.286
54.52000 159.015
54.53000 152.047
54.54000 145.132
54.55000 141.232
54.56000 139.078
54.57000 137.233
54.58000 141.614
54.59000 148.437
54.60000 154.775
54.61000 151.738
54.62000 146.762
54.63000 142.551
54.64000 143.110
54.65000 144.492
54.66000 146.053
54.67000 148.338
54.68000 150.699
54.69000 152.450
54.70000 158.394
54.71000 163.193
54.72000 164.872
54.73000 160.812
54.74000 156.627
54.75000 153.465
54.76000 151.557
54.77000 149.655
54.78000 150.838
54.79000 154.439
54.80000 157.913
54.81000 156.104
54.82000 151.511
54.83000 147.363
54.84000 150.664
54.85000 156.625
54.86000 162.099
54.87000 161.876
54.88000 160.459
54.89000 159.011
54.90000 157.397
54.91000 155.757
54.92000 154.081
54.93000 152.274
54.94000 150.455
54.95000 149.143
54.96000 148.700
54.97000 148.391
54.98000 149.059
54.99000 151.360
55.00000 153.686
55.01000 159.206
55.02000 168.252
55.03000 177.263
55.04000 176.083
55.05000 167.708
55.06000 159.446
55.07000 154.836
55.08000 151.976
55.09000 149.325
55.10000 149.640
55.11000 150.919
55.12000 152.079
55.13000 151.463
55.14000 150.579
55.15000 150.475
55.16000 154.280
55.17000 158.625
55.18000 162.959
55.19000 167.259
55.20000 171.557
55.21000 174.567
55.22000 166.712
55.23000 160.461
55.24000 159.391
55.25000 166.192
55.26000 173.075
55.27000 173.927
55.28000 168.804
55.29000 163.716
55.30000 164.443
55.31000 168.864
55.32000 173.106
55.33000 172.784
55.34000 170.470
55.35000 168.471
55.36000 170.318
55.37000 173.303
55.38000 175.973
55.39000 178.299
55.40000 180.268
55.41000 182.613
55.42000 186.665
55.43000 190.925
55.44000 194.925
55.45000 198.137
55.46000 201.294
55.47000 203.438
55.48000 204.953
55.49000 206.069
55.50000 209.804
55.51000 217.144
55.52000 224.501
55.53000 225.844
55.54000 221.835
55.55000 217.867
55.56000 223.076
55.57000 233.447
55.58000 243.848
55.59000 254.869
55.60000 266.136
55.61000 276.770
55.62000 280.697
55.63000 282.823
55.64000 284.698
55.65000 294.271
55.66000 303.691
55.67000 312.459
55.68000 318.553
55.69000 324.359
55.70000 331.238
55.71000 341.074
55.72000 351.081
55.73000 357.650
55.74000 362.138
55.75000 365.406
55.76000 368.655
55.77000 371.884
55.78000 375.102
55.79000 374.929
55.80000 372.037
55.81000 369.187
55.82000 370.724
55.83000 374.494
55.84000 378.210
55.85000 381.007
55.86000 383.470
55.87000 385.914
55.88000 388.178
55.89000 390.399
55.90000 392.327
55.91000 392.855
55.92000 393.116
55.93000 393.486
55.94000 394.261
55.95000 395.073
55.96000 393.441
55.97000 385.672
55.98000 377.607
55.99000 372.500
56.00000 373.351
56.01000 374.040
56.02000 370.639
56.03000 362.646
56.04000 354.672
56.05000 350.571
56.06000 349.279
56.07000 348.013
56.08000 346.875
56.09000 345.840
56.10000 344.098
56.11000 332.034
56.12000 316.563
56.13000 302.415
56.14000 299.068
56.15000 298.101
56.16000 297.275
56.17000 291.957
56.18000 286.947
56.19000 280.932
56.20000 271.522
56.21000 261.835
56.22000 256.077
56.23000 259.308
56.24000 262.891
56.25000 265.074
56.26000 252.381
56.27000 243.191
56.28000 237.377
56.29000 234.968
56.30000 232.564
56.31000 230.630
56.32000 229.006
56.33000 227.423
56.34000 221.251
56.35000 213.422
56.36000 205.975
56.37000 203.314
56.38000 202.088
56.39000 200.146
56.40000 193.018
56.41000 184.859
56.42000 178.019
56.43000 183.813
56.44000 189.945
56.45000 193.104
56.46000 187.130
56.47000 180.514
56.48000 177.010
56.49000 179.989
56.50000 183.170
56.51000 185.031
56.52000 172.640
56.53000 163.855
56.54000 161.931
56.55000 166.216
56.56000 170.420
56.57000 169.386
56.58000 165.225
56.59000 161.198
56.60000 161.573
56.61000 163.609
56.62000 165.852
56.63000 170.354
56.64000 175.472
56.65000 179.016
56.66000 172.399
56.67000 163.965
56.68000 157.029
56.69000 155.644
56.70000 155.008
56.71000 155.032
56.72000 156.903
56.73000 158.884
56.74000 159.528
56.75000 157.637
56.76000 155.686
56.77000 154.594
56.78000 152.092
56.79000 150.365
56.80000 152.382
56.81000 157.453
56.82000 162.369
56.83000 160.159
56.84000 154.080
56.85000 148.241
56.86000 146.411
56.87000 146.078
56.88000 145.921
56.89000 147.417
56.90000 149.322
56.91000 150.252
56.92000 145.547
56.93000 139.938
56.94000 135.419
56.95000 144.622
56.96000 153.166
56.97000 157.691
56.98000 151.974
56.99000 145.749
57.00000 144.123
57.01000 150.432
57.02000 156.879
57.03000 160.318
57.04000 154.396
57.05000 150.359
57.06000 147.131
57.07000 144.500
57.08000 141.954
57.09000 142.387
57.10000 144.292
57.11000 146.106
57.12000 146.764
57.13000 147.015
57.14000 146.948
57.15000 144.238
57.16000 140.934
57.17000 138.064
57.18000 137.440
57.19000 137.138
57.20000 136.901
57.21000 139.104
57.22000 141.034
57.23000 141.889
57.24000 140.248
57.25000 138.506
57.26000 139.558
57.27000 144.989
57.28000 150.473
57.29000 153.250
57.30000 142.259
57.31000 134.937
57.32000 131.513
57.33000 130.691
57.34000 130.039
57.35000 134.030
57.36000 140.112
57.37000 145.851
57.38000 145.040
57.39000 142.466
57.40000 139.932
57.41000 137.691
57.42000 135.510
57.43000 134.042
57.44000 135.915
57.45000 138.214
57.46000 139.983
57.47000 144.978
57.48000 149.116
57.49000 150.596
57.50000 146.451
57.51000 142.125
57.52000 140.310
57.53000 142.068
57.54000 143.851
57.55000 143.283
57.56000 140.552
57.57000 137.870
57.58000 138.525
57.59000 141.205
57.60000 143.670
57.61000 141.401
57.62000 137.191
57.63000 133.258
57.64000 138.018
57.65000 144.520
57.66000 150.098
57.67000 149.606
57.68000 148.010
57.69000 146.188
57.70000 143.415
57.71000 140.535
57.72000 138.372
57.73000 135.214
57.74000 132.699
57.75000 133.467
57.76000 140.560
57.77000 147.811
57.78000 148.721
57.79000 141.472
57.80000 134.201
57.81000 133.923
57.82000 139.428
57.83000 144.869
57.84000 147.222
57.85000 147.872
57.86000 148.431
57.87000 147.320
57.88000 145.584
57.89000 143.981
57.90000 138.957
57.91000 133.678
57.92000 130.151
57.93000 136.924
57.94000 145.379
57.95000 151.063
57.96000 146.107
57.97000 140.103
57.98000 135.713
57.99000 138.717
58.00000 141.326
58.01000 143.291
58.02000 144.128
58.03000 144.944
58.04000 144.894
58.05000 143.840
58.06000 142.788
58.07000 142.274
58.08000 142.164
58.09000 141.963
58.10000 138.489
58.11000 133.373
58.12000 128.759
58.13000 131.870
58.14000 137.609
58.15000 142.846
58.16000 139.970
58.17000 135.781
58.18000 132.707
58.19000 135.531
58.20000 139.216
58.21000 141.459
58.22000 138.679
58.23000 135.468
58.24000 133.186
58.25000 135.709
58.26000 137.783
58.27000 138.047
58.28000 135.430
58.29000 132.776
58.30000 132.024
58.31000 133.259
58.32000 134.488
58.33000 135.620
58.34000 136.673
58.35000 137.640
58.36000 136.154
58.37000 133.547
58.38000 131.252
58.39000 133.048
58.40000 136.110
58.41000 138.868
58.42000 137.741
58.43000 136.051
58.44000 134.863
58.45000 136.065
58.46000 137.578
58.47000 138.876
58.48000 139.495
58.49000 140.063
58.50000 140.455
58.51000 146.288
58.52000 150.807
58.53000 151.766
58.54000 147.583
58.55000 143.360
58.56000 142.031
58.57000 143.414
58.58000 144.786
58.59000 143.422
58.60000 140.429
58.61000 137.606
58.62000 138.646
58.63000 141.295
58.64000 143.620
58.65000 142.287
58.66000 139.924
58.67000 137.826
58.68000 134.921
58.69000 132.273
58.70000 129.980
58.71000 129.214
58.72000 128.623
58.73000 128.094
58.74000 127.745
58.75000 127.407
58.76000 127.182
58.77000 126.712
58.78000 126.358
58.79000 127.253
58.80000 129.781
58.81000 132.314
58.82000 134.428
58.83000 136.189
58.84000 137.928
58.85000 137.903
58.86000 136.917
58.87000 135.896
58.88000 134.207
58.89000 132.265
58.90000 130.717
58.91000 133.057
58.92000 136.390
58.93000 139.306
58.94000 139.608
58.95000 139.495
58.96000 138.954
58.97000 136.744
58.98000 134.366
58.99000 133.386
59.00000 136.079
59.01000 138.964
59.02000 140.825
59.03000 137.157
59.04000 134.400
59.05000 133.083
59.06000 133.464
59.07000 133.856
59.08000 135.802
59.09000 138.933
59.10000 142.010
59.11000 142.892
59.12000 142.665
59.13000 142.222
59.14000 138.360
59.15000 133.318
59.16000 128.837
59.17000 129.223
59.18000 130.735
59.19000 132.035
59.20000 131.220
59.21000 130.262
59.22000 129.667
59.23000 130.353
59.24000 131.151
59.25000 132.000
59.26000 132.969
59.27000 133.942
59.28000 134.547
59.29000 135.300
59.30000 135.843
59.31000 134.229
59.32000 130.324
59.33000 126.445
59.34000 125.774
59.35000 127.316
59.36000 128.822
59.37000 131.133
59.38000 133.705
59.39000 136.171
59.40000 137.200
59.41000 137.778
59.42000 137.904
59.43000 134.565
59.44000 130.502
59.45000 127.066
59.46000 131.190
59.47000 135.478
59.48000 137.693
59.49000 133.240
59.50000 128.282
59.51000 125.693
59.52000 128.270
59.53000 131.027
59.54000 132.673
59.55000 136.175
59.56000 138.669
59.57000 138.788
59.58000 136.642
59.59000 134.513
59.60000 133.597
59.61000 133.439
59.62000 133.286
59.63000 130.568
59.64000 126.960
59.65000 123.889
59.66000 127.065
59.67000 132.025
59.68000 136.635
59.69000 138.860
59.70000 140.635
59.71000 142.108
59.72000 137.478
59.73000 133.059
59.74000 129.653
59.75000 129.214
59.76000 128.967
59.77000 128.862
59.78000 129.040
59.79000 129.225
59.80000 129.331
59.81000 127.066
59.82000 125.479
59.83000 126.171
59.84000 128.818
59.85000 131.452
59.86000 133.363
59.87000 134.863
59.88000 136.310
59.89000 133.025
59.90000 128.223
59.91000 123.944
59.92000 124.940
59.93000 127.304
59.94000 129.551
59.95000 131.081
59.96000 132.491
59.97000 133.637
59.98000 138.086
59.99000 141.997
60.00000 143.087
60.01000 136.659
60.02000 129.822
60.03000 127.899
60.04000 134.852
60.05000 141.987
60.06000 145.884
60.07000 137.481
60.08000 131.706
60.09000 129.523
60.10000 130.121
60.11000 130.690
60.12000 130.137
60.13000 129.004
60.14000 127.920
60.15000 126.952
60.16000 126.089
60.17000 125.753
60.18000 130.084
60.19000 135.512
60.20000 139.364
60.21000 134.604
60.22000 128.538
60.23000 123.706
60.24000 131.459
60.25000 138.624
60.26000 143.777
60.27000 144.046
60.28000 144.097
60.29000 141.844
60.30000 135.808
60.31000 129.717
60.32000 126.553
60.33000 134.621
60.34000 140.028
60.35000 139.443
60.36000 134.663
60.37000 130.012
60.38000 129.338
60.39000 130.538
60.40000 131.676
60.41000 132.970
60.42000 134.209
60.43000 134.953
60.44000 131.825
60.45000 127.873
60.46000 125.585
60.47000 131.491
60.48000 138.502
60.49000 143.962
60.50000 140.254
60.51000 136.735
60.52000 133.861
60.53000 132.417
60.54000 131.025
60.55000 130.877
60.56000 132.583
60.57000 134.306
60.58000 133.797
60.59000 131.122
60.60000 128.488
60.61000 129.164
60.62000 131.945
60.63000 134.611
60.64000 134.469
60.65000 133.121
60.66000 131.857
60.67000 134.283
60.68000 137.472
60.69000 139.535
60.70000 133.772
60.71000 126.510
60.72000 120.851
60.73000 122.321
60.74000 124.644
60.75000 126.409
60.76000 132.811
60.77000 138.088
60.78000 140.696
60.79000 137.928
60.80000 135.006
60.81000 134.101
60.82000 135.921
60.83000 137.755
60.84000 138.740
60.85000 138.984
60.86000 139.154
60.87000 135.158
60.88000 128.758
60.89000 122.807
60.90000 125.841
60.91000 132.387
60.92000 138.467
60.93000 139.316
60.94000 138.838
60.95000 138.724
60.96000 140.870
60.97000 143.406
60.98000 144.690
60.99000 140.938
61.00000 136.656
61.01000 133.484
61.02000 131.838
61.03000 130.626
61.04000 131.733
61.05000 137.095
61.06000 142.549
61.07000 144.816
61.08000 143.192
61.09000 141.562
61.10000 141.001
61.11000 141.278
61.12000 141.507
61.13000 139.704
61.14000 136.834
61.15000 134.182
61.16000 135.179
61.17000 137.474
61.18000 139.580
61.19000 139.483
61.20000 138.926
61.21000 138.506
61.22000 138.843
61.23000 139.297
61.24000 138.597
61.25000 133.683
61.26000 128.381
61.27000 124.560
61.28000 126.315
61.29000 127.856
61.30000 129.579
61.31000 131.602
61.32000 133.630
61.33000 135.424
61.34000 136.959
61.35000 138.487
61.36000 138.821
61.37000 138.310
61.38000 137.794
61.39000 137.139
61.40000 136.417
61.41000 135.881
61.42000 137.977
61.43000 140.924
61.44000 143.597
61.45000 142.968
61.46000 141.784
61.47000 141.525
61.48000 145.895
61.49000 150.902
61.50000 157.291
61.51000 168.269
61.52000 179.612
61.53000 187.549
61.54000 203.159
61.55000 215.178
61.56000 226.210
61.57000 235.744
61.58000 245.263
61.59000 255.425
61.60000 266.223
61.61000 276.947
61.62000 285.172
61.63000 291.681
61.64000 298.176
61.65000 304.327
61.66000 310.328
61.67000 315.655
61.68000 312.791
61.69000 307.514
61.70000 302.794
61.71000 316.007
61.72000 330.575
61.73000 340.085
61.74000 326.738
61.75000 310.605
61.76000 295.473
61.77000 283.359
61.78000 271.451
61.79000 263.376
61.80000 240.992
61.81000 223.984
61.82000 208.591
61.83000 195.417
61.84000 182.260
61.85000 172.721
61.86000 166.392
61.87000 160.130
61.88000 159.227
61.89000 161.416
61.90000 163.272
61.91000 158.250
61.92000 150.499
61.93000 143.559
61.94000 145.179
61.95000 149.091
61.96000 152.539
61.97000 148.699
61.98000 144.288
61.99000 140.919
62.00000 141.807
62.01000 143.153
62.02000 143.198
62.03000 139.665
62.04000 135.927
62.05000 133.476
62.06000 138.132
62.07000 141.673
62.08000 143.370
62.09000 142.778
62.10000 142.173
62.11000 139.536
62.12000 135.274
62.13000 131.075
62.14000 132.465
62.15000 136.704
62.16000 140.963
62.17000 145.554
62.18000 150.265
62.19000 153.937
62.20000 148.026
62.21000 139.788
62.22000 132.641
62.23000 133.771
62.24000 135.840
62.25000 137.356
62.26000 136.818
62.27000 136.088
62.28000 136.329
62.29000 139.000
62.30000 141.787
62.31000 143.550
62.32000 143.829
62.33000 144.013
62.34000 144.465
62.35000 145.217
62.36000 145.970
62.37000 146.928
62.38000 148.035
62.39000 149.120
62.40000 149.539
62.41000 149.631
62.42000 149.439
62.43000 145.125
62.44000 139.454
62.45000 134.859
62.46000 139.006
62.47000 145.075
62.48000 150.251
62.49000 149.318
62.50000 147.813
62.51000 147.133
62.52000 149.236
62.53000 151.566
62.54000 152.363
62.55000 149.664
62.56000 146.829
62.57000 145.103
62.58000 142.488
62.59000 140.612
62.60000 141.419
62.61000 144.921
62.62000 148.421
62.63000 151.808
62.64000 155.120
62.65000 158.346
62.66000 154.951
62.67000 148.922
62.68000 143.233
62.69000 141.787
62.70000 141.610
62.71000 141.662
62.72000 143.361
62.73000 145.386
62.74000 147.082
62.75000 146.118
62.76000 145.041
62.77000 144.814
62.78000 147.193
62.79000 149.754
62.80000 150.771
62.81000 148.583
62.82000 146.295
62.83000 144.959
62.84000 143.810
62.85000 143.003
62.86000 143.603
62.87000 145.471
62.88000 147.297
62.89000 146.469
62.90000 144.061
62.91000 141.732
62.92000 143.149
62.93000 145.914
62.94000 148.567
62.95000 150.015
62.96000 151.136
62.97000 151.489
62.98000 146.907
62.99000 141.445
63.00000 136.956
63.01000 145.165
63.02000 153.053
63.03000 159.023
63.04000 159.644
63.05000 159.949
63.06000 158.999
63.07000 155.677
63.08000 152.299
63.09000 150.411
63.10000 145.887
63.11000 142.758
63.12000 143.562
63.13000 147.564
63.14000 151.429
63.15000 149.086
63.16000 143.382
63.17000 137.905
63.18000 141.176
63.19000 147.240
63.20000 153.016
63.21000 156.092
63.22000 158.502
63.23000 160.374
63.24000 159.147
63.25000 157.425
63.26000 156.038
63.27000 150.090
63.28000 144.909
63.29000 141.656
63.30000 143.305
63.31000 145.195
63.32000 146.485
63.33000 146.739
63.34000 146.976
63.35000 147.102
63.36000 145.430
63.37000 144.303
63.38000 145.445
63.39000 148.256
63.40000 150.938
63.41000 149.204
63.42000 145.294
63.43000 141.572
63.44000 146.848
63.45000 154.518
63.46000 161.053
63.47000 158.165
63.48000 153.173
63.49000 148.831
63.50000 147.850
63.51000 147.348
63.52000 146.953
63.53000 146.123
63.54000 145.428
63.55000 145.427
63.56000 147.031
63.57000 148.700
63.58000 151.873
63.59000 157.399
63.60000 162.952
63.61000 165.760
63.62000 157.245
63.63000 151.591
63.64000 150.502
63.65000 152.451
63.66000 154.285
63.67000 152.994
63.68000 150.301
63.69000 147.761
63.70000 150.653
63.71000 154.817
63.72000 158.227
63.73000 156.101
63.74000 152.859
63.75000 149.715
63.76000 147.026
63.77000 144.395
63.78000 142.371
63.79000 146.419
63.80000 149.967
63.81000 153.245
63.82000 155.953
63.83000 158.643
63.84000 160.218
63.85000 160.211
63.86000 160.193
63.87000 159.918
63.88000 159.406
63.89000 158.876
63.90000 157.090
63.91000 154.545
63.92000 152.203
63.93000 154.334
63.94000 158.293
63.95000 161.990
63.96000 164.014
63.97000 165.432
63.98000 166.917
63.99000 168.850
64.00000 170.864
64.01000 171.475
64.02000 166.159
64.03000 160.180
64.04000 155.694
64.05000 159.179
64.06000 162.281
64.07000 163.581
64.08000 161.421
64.09000 159.175
64.10000 158.065
64.11000 158.412
64.12000 158.764
64.13000 160.822
64.14000 164.279
64.15000 167.720
64.16000 170.372
64.17000 172.591
64.18000 174.589
64.19000 172.588
64.20000 169.097
64.21000 165.873
64.22000 167.527
64.23000 170.106
64.24000 172.046
64.25000 170.244
64.26000 167.832
64.27000 165.451
64.28000 163.187
64.29000 160.934
64.30000 159.288
64.31000 158.185
64.32000 157.356
64.33000 156.980
64.34000 157.397
64.35000 157.828
64.36000 160.271
64.37000 165.044
64.38000 169.805
64.39000 171.742
64.40000 171.571
64.41000 171.314
64.42000 168.009
64.43000 163.177
64.44000 159.050
64.45000 165.702
64.46000 176.010
64.47000 185.413
64.48000 185.915
64.49000 184.570
64.50000 183.286
64.51000 182.327
64.52000 181.415
64.53000 180.032
64.54000 177.013
64.55000 173.854
64.56000 171.612
64.57000 168.926
64.58000 166.868
64.59000 165.394
64.60000 164.849
64.61000 164.316
64.62000 163.770
64.63000 163.209
64.64000 162.652
64.65000 167.701
64.66000 176.432
64.67000 184.823
64.68000 183.644
64.69000 178.104
64.70000 173.106
64.71000 175.183
64.72000 179.445
64.73000 183.281
64.74000 180.338
64.75000 176.539
64.76000 173.446
64.77000 173.705
64.78000 174.398
64.79000 175.157
64.80000 176.126
64.81000 177.110
64.82000 177.788
64.83000 183.271
64.84000 187.508
64.85000 188.632
64.86000 185.270
64.87000 181.874
64.88000 182.374
64.89000 186.511
64.90000 190.612
64.91000 192.141
64.92000 192.091
64.93000 192.115
64.94000 193.799
64.95000 196.173
64.96000 198.623
64.97000 201.938
64.98000 205.495
64.99000 208.653
65.00000 206.241
65.01000 203.259
65.02000 200.569
65.03000 199.133
65.04000 197.841
65.05000 200.048
65.06000 212.319
65.07000 225.218
65.08000 233.819
65.09000 230.685
65.10000 228.140
65.11000 228.177
65.12000 231.583
65.13000 234.999
65.14000 236.681
65.15000 236.904
65.16000 237.124
65.17000 239.367
65.18000 242.650
65.19000 245.934
65.20000 249.246
65.21000 252.568
65.22000 255.630
65.23000 256.129
65.24000 255.975
65.25000 255.840
65.26000 255.431
65.27000 255.042
65.28000 255.751
65.29000 260.733
65.30000 266.145
65.31000 270.800
65.32000 273.475
65.33000 276.047
65.34000 277.703
65.35000 279.302
65.36000 280.469
65.37000 284.155
65.38000 290.808
65.39000 297.435
65.40000 297.685
65.41000 293.094
65.42000 288.583
65.43000 293.292
65.44000 302.368
65.45000 311.025
65.46000 313.079
65.47000 312.858
65.48000 313.331
65.49000 319.791
65.50000 327.631
65.51000 334.376
65.52000 337.416
65.53000 339.526
65.54000 341.235
65.55000 341.535
65.56000 341.711
65.57000 343.424
65.58000 348.802
65.59000 354.338
65.60000 357.773
65.61000 370.356
65.62000 379.499
65.63000 393.684
65.64000 413.210
65.65000 432.747
65.66000 453.366
65.67000 474.729
65.68000 495.605
65.69000 537.613
65.70000 587.214
65.71000 637.268
65.72000 693.369
65.73000 751.367
65.74000 811.795
65.75000 890.794
65.76000 973.663
65.77000 1043.710
65.78000 1115.152
65.79000 1175.065
65.80000 1229.282
65.81000 1265.228
65.82000 1299.797
65.83000 1324.405
65.84000 1327.361
65.85000 1329.565
65.86000 1330.879
65.87000 1333.031
65.88000 1334.561
65.89000 1332.839
65.90000 1328.028
65.91000 1322.921
65.92000 1295.404
65.93000 1253.911
65.94000 1213.625
65.95000 1144.471
65.96000 1067.290
65.97000 990.273
65.98000 915.159
65.99000 840.588
66.00000 767.319
66.01000 702.897
66.02000 640.136
66.03000 588.067
66.04000 540.689
66.05000 501.989
66.06000 464.362
66.07000 429.867
66.08000 395.573
66.09000 369.650
66.10000 360.300
66.11000 351.399
66.12000 346.315
66.13000 339.085
66.14000 334.037
66.15000 332.664
66.16000 334.432
66.17000 336.205
66.18000 338.274
66.19000 340.510
66.20000 342.666
66.21000 352.321
66.22000 364.102
66.23000 374.858
66.24000 375.302
66.25000 373.078
66.26000 373.323
66.27000 388.555
66.28000 406.317
66.29000 420.761
66.30000 425.735
66.31000 429.002
66.32000 435.583
66.33000 450.971
66.34000 466.835
66.35000 478.741
66.36000 483.515
66.37000 488.144
66.38000 490.668
66.39000 502.328
66.40000 510.336
66.41000 515.712
66.42000 519.058
66.43000 522.226
66.44000 518.404
66.45000 510.978
66.46000 503.877
66.47000 499.890
66.48000 497.192
66.49000 493.880
66.50000 485.154
66.51000 475.159
66.52000 463.333
66.53000 441.521
66.54000 418.202
66.55000 399.638
66.56000 393.677
66.57000 389.779
66.58000 385.160
66.59000 378.791
66.60000 372.344
66.61000 367.445
66.62000 365.079
66.63000 362.750
66.64000 361.542
66.65000 350.070
66.66000 342.376
66.67000 341.301
66.68000 344.847
66.69000 348.170
66.70000 344.676
66.71000 337.980
66.72000 331.636
66.73000 335.734
66.74000 342.570
66.75000 349.229
66.76000 354.505
66.77000 359.486
66.78000 363.087
66.79000 359.908
66.80000 355.819
66.81000 352.636
66.82000 360.663
66.83000 367.743
66.84000 373.523
66.85000 376.436
66.86000 379.245
66.87000 375.682
66.88000 362.645
66.89000 349.519
66.90000 345.300
66.91000 349.692
66.92000 354.043
66.93000 355.015
66.94000 353.848
66.95000 352.964
66.96000 358.959
66.97000 367.897
66.98000 376.284
66.99000 381.372
67.00000 385.139
67.01000 387.919
67.02000 383.867
67.03000 378.510
67.04000 374.874
67.05000 378.869
67.06000 383.771
67.07000 387.495
67.08000 388.503
67.09000 389.154
67.10000 390.316
67.11000 392.502
67.12000 394.718
67.13000 396.415
67.14000 397.413
67.15000 398.406
67.16000 401.608
67.17000 406.721
67.18000 411.801
67.19000 415.078
67.20000 417.317
67.21000 419.514
67.22000 420.880
67.23000 421.922
67.24000 422.889
67.25000 426.254
67.26000 429.855
67.27000 432.796
67.28000 431.648
67.29000 429.799
67.30000 428.954
67.31000 432.145
67.32000 435.758
67.33000 438.432
67.34000 437.442
67.35000 436.516
67.36000 435.586
67.37000 434.648
67.38000 433.709
67.39000 434.187
67.40000 436.387
67.41000 438.587
67.42000 439.256
67.43000 438.727
67.44000 438.221
67.45000 438.698
67.46000 439.690
67.47000 440.787
67.48000 443.644
67.49000 447.126
67.50000 450.321
67.51000 456.108
67.52000 461.819
67.53000 467.031
67.54000 469.479
67.55000 471.503
67.56000 474.918
67.57000 483.397
67.58000 492.339
67.59000 498.777
67.60000 489.844
67.61000 482.461
67.62000 478.897
67.63000 481.685
67.64000 484.571
67.65000 489.768
67.66000 497.500
67.67000 505.202
67.68000 508.127
67.69000 507.667
67.70000 507.134
67.71000 504.289
67.72000 500.341
67.73000 497.162
67.74000 504.798
67.75000 515.930
67.76000 526.017
67.77000 525.142
67.78000 522.288
67.79000 519.008
67.80000 513.602
67.81000 507.906
67.82000 507.096
67.83000 522.452
67.84000 539.088
67.85000 550.718
67.86000 550.214
67.87000 549.490
67.88000 550.738
67.89000 554.962
67.90000 559.216
67.91000 559.744
67.92000 556.604
67.93000 553.487
67.94000 556.649
67.95000 563.739
67.96000 570.664
67.97000 573.449
67.98000 574.436
67.99000 575.283
68.00000 574.434
68.01000 573.087
68.02000 571.883
68.03000 580.204
68.04000 589.071
68.05000 596.836
68.06000 599.638
68.07000 601.838
68.08000 606.766
68.09000 619.901
68.10000 633.592
68.11000 642.867
68.12000 633.012
68.13000 625.246
68.14000 618.284
68.15000 612.424
68.16000 606.578
68.17000 610.317
68.18000 622.530
68.19000 634.613
68.20000 641.188
68.21000 644.467
68.22000 647.910
68.23000 654.721
68.24000 662.865
68.25000 671.199
68.26000 681.536
68.27000 692.407
68.28000 701.983
68.29000 701.868
68.30000 700.309
68.31000 700.390
68.32000 707.152
68.33000 714.630
68.34000 723.429
68.35000 735.849
68.36000 748.477
68.37000 756.749
68.38000 768.970
68.39000 778.019
68.40000 785.942
68.41000 792.470
68.42000 799.003
68.43000 808.405
68.44000 820.093
68.45000 831.606
68.46000 845.822
68.47000 861.006
68.48000 875.605
68.49000 880.206
68.50000 881.202
68.51000 883.204
68.52000 894.451
68.53000 907.936
68.54000 919.628
68.55000 951.238
68.56000 980.807
68.57000 1010.411
68.58000 1040.150
68.59000 1069.901
68.60000 1107.432
68.61000 1164.381
68.62000 1222.252
68.63000 1258.821
68.64000 1320.422
68.65000 1365.353
68.66000 1413.643
68.67000 1465.678
68.68000 1517.851
68.69000 1591.049
68.70000 1679.406
68.71000 1765.988
68.72000 1831.964
68.73000 1885.835
68.74000 1941.041
68.75000 2015.536
68.76000 2096.362
68.77000 2177.304
68.78000 2259.198
68.79000 2341.299
68.80000 2411.298
68.81000 2554.612
68.82000 2683.802
68.83000 2818.001
68.84000 2969.030
68.85000 3121.423
68.86000 3312.452
68.87000 3591.342
68.88000 3873.630
68.89000 4045.260
68.90000 4978.611
68.91000 5650.960
68.92000 6859.011
68.93000 8603.621
68.94000 10361.605
68.95000 13361.506
68.96000 17173.156
68.97000 20885.805
68.98000 26127.906
68.99000 31768.676
69.00000 37403.320
69.01000 42962.043
69.02000 48498.105
69.03000 53838.824
69.04000 57775.426
69.05000 61434.539
69.06000 64498.402
69.07000 66266.047
69.08000 67601.984
69.09000 68716.703
69.10000 69155.477
69.11000 69547.273
69.12000 70044.008
69.13000 70758.133
69.14000 71478.922
69.15000 71899.375
69.16000 72843.836
69.17000 73509.852
69.18000 73427.398
69.19000 72671.813
69.20000 71891.305
69.21000 69557.875
69.22000 66302.641
69.23000 63153.527
69.24000 59516.027
69.25000 55895.223
69.26000 52306.184
69.27000 49058.180
69.28000 45902.660
69.29000 42898.461
69.30000 40864.211
69.31000 39002.406
69.32000 37473.309
69.33000 36438.387
69.34000 35632.836
69.35000 34766.434
69.36000 33730.746
69.37000 32685.102
69.38000 31304.896
69.39000 29293.695
69.40000 27267.676
69.41000 26137.334
69.42000 21966.521
69.43000 19073.854
69.44000 16407.443
69.45000 13924.433
69.46000 11452.806
69.47000 9493.806
69.48000 7811.539
69.49000 6196.533
69.50000 5105.071
69.51000 4263.481
69.52000 3461.663
69.53000 3033.103
69.54000 2696.340
69.55000 2381.357
69.56000 2191.416
69.57000 2021.402
69.58000 1884.623
69.59000 1768.037
69.60000 1675.038
69.61000 1589.322
69.62000 1522.062
69.63000 1455.707
69.64000 1397.483
69.65000 1353.207
69.66000 1309.171
69.67000 1285.755
69.68000 1238.195
69.69000 1205.798
69.70000 1172.046
69.71000 1137.302
69.72000 1102.980
69.73000 1083.115
69.74000 1070.354
69.75000 1058.208
69.76000 1028.323
69.77000 995.184
69.78000 963.626
69.79000 945.135
69.80000 929.552
69.81000 912.821
69.82000 890.167
69.83000 866.670
69.84000 848.177
69.85000 840.931
69.86000 835.873
69.87000 826.196
69.88000 805.851
69.89000 785.079
69.90000 771.834
69.91000 770.319
69.92000 768.942
69.93000 768.246
69.94000 757.745
69.95000 750.685
69.96000 740.073
69.97000 727.103
69.98000 714.432
69.99000 709.865
70.00000 708.925
