20.00000 546.251
20.01000 555.846
20.02000 566.812
20.03000 574.434
20.04000 569.071
20.05000 562.408
20.06000 557.529
20.07000 548.769
20.08000 541.852
20.09000 538.859
20.10000 542.736
20.11000 546.740
20.12000 549.720
20.13000 551.522
20.14000 553.317
20.15000 552.261
20.16000 549.122
20.17000 546.161
20.18000 549.292
20.19000 555.423
20.20000 561.163
20.21000 561.144
20.22000 559.213
20.23000 557.459
20.24000 553.922
20.25000 550.450
20.26000 546.703
20.27000 541.564
20.28000 536.231
20.29000 535.359
20.30000 549.366
20.31000 564.567
20.32000 575.201
20.33000 560.237
20.34000 548.199
20.35000 542.429
20.36000 546.086
20.37000 549.837
20.38000 548.217
20.39000 541.374
20.40000 534.582
20.41000 536.963
20.42000 545.015
20.43000 552.631
20.44000 549.846
20.45000 542.641
20.46000 536.218
20.47000 538.856
20.48000 544.082
20.49000 548.730
20.50000 543.755
20.51000 537.874
20.52000 533.675
20.53000 536.736
20.54000 540.633
20.55000 545.747
20.56000 554.361
20.57000 563.193
20.58000 569.068
20.59000 547.388
20.60000 530.833
20.61000 528.442
20.62000 544.272
20.63000 560.144
20.64000 563.461
20.65000 556.438
20.66000 549.511
20.67000 546.621
20.68000 545.949
20.69000 545.174
20.70000 542.574
20.71000 539.304
20.72000 536.499
20.73000 538.026
20.74000 540.614
20.75000 542.861
20.76000 545.662
20.77000 548.123
20.78000 549.649
20.79000 547.719
20.80000 545.466
20.81000 545.581
20.82000 551.572
20.83000 557.838
20.84000 561.778
20.85000 560.036
20.86000 558.712
20.87000 554.700
20.88000 547.751
20.89000 540.813
20.90000 535.627
20.91000 531.670
20.92000 527.801
20.93000 531.980
20.94000 539.614
20.95000 546.677
20.96000 545.964
20.97000 542.791
20.98000 539.976
20.99000 539.902
21.00000 540.402
21.01000 540.825
21.02000 546.566
21.03000 551.950
21.04000 555.391
21.05000 552.649
21.06000 549.449
21.07000 544.979
21.08000 537.788
21.09000 530.506
21.10000 526.206
21.11000 529.667
21.12000 532.153
21.13000 534.364
21.14000 536.321
21.15000 538.337
21.16000 544.280
21.17000 552.591
21.18000 560.636
21.19000 551.307
21.20000 535.827
21.21000 521.925
21.22000 525.045
21.23000 532.797
21.24000 539.990
21.25000 543.603
21.26000 546.583
21.27000 549.025
21.28000 556.937
21.29000 563.912
21.30000 565.193
21.31000 550.866
21.32000 535.646
21.33000 527.588
21.34000 532.764
21.35000 538.232
21.36000 541.242
21.37000 535.952
21.38000 532.311
21.39000 533.502
21.40000 538.472
21.41000 543.408
21.42000 546.956
21.43000 549.783
21.44000 552.486
21.45000 553.815
21.46000 554.604
21.47000 554.881
21.48000 550.672
21.49000 545.417
21.50000 541.640
21.51000 545.811
21.52000 551.165
21.53000 555.411
21.54000 558.937
21.55000 561.724
21.56000 561.800
21.57000 555.463
21.58000 548.854
21.59000 545.107
21.60000 545.911
21.61000 546.773
21.62000 547.212
21.63000 545.138
21.64000 543.762
21.65000 543.923
21.66000 545.112
21.67000 546.116
21.68000 542.125
21.69000 535.895
21.70000 530.024
21.71000 545.288
21.72000 565.101
21.73000 581.952
21.74000 577.405
21.75000 568.609
21.76000 561.917
21.77000 564.844
21.78000 568.960
21.79000 572.106
21.80000 578.478
21.81000 583.677
21.82000 586.824
21.83000 585.775
21.84000 584.602
21.85000 584.628
21.86000 586.287
21.87000 587.954
21.88000 588.720
21.89000 588.699
21.90000 588.700
21.91000 589.942
21.92000 591.896
21.93000 593.970
21.94000 598.394
21.95000 603.727
21.96000 608.670
21.97000 599.108
21.98000 587.117
21.99000 579.115
22.00000 595.208
22.01000 615.345
22.02000 630.345
22.03000 625.271
22.04000 618.170
22.05000 612.962
22.06000 609.623
22.07000 607.119
22.08000 605.030
22.09000 603.672
22.10000 602.328
22.11000 607.126
22.12000 619.050
22.13000 630.948
22.14000 627.194
22.15000 611.917
22.16000 596.825
22.17000 588.187
22.18000 582.746
22.19000 577.623
22.20000 577.243
22.21000 578.446
22.22000 579.540
22.23000 580.759
22.24000 581.861
22.25000 582.459
22.26000 580.487
22.27000 578.155
22.28000 573.936
22.29000 563.388
22.30000 552.328
22.31000 544.576
22.32000 544.877
22.33000 545.337
22.34000 547.227
22.35000 551.282
22.36000 555.359
22.37000 551.689
22.38000 540.429
22.39000 529.251
22.40000 528.209
22.41000 533.534
22.42000 538.691
22.43000 539.803
22.44000 539.185
22.45000 538.716
22.46000 539.999
22.47000 541.786
22.48000 543.376
22.49000 541.227
22.50000 538.749
22.51000 537.489
22.52000 541.519
22.53000 546.162
22.54000 550.223
22.55000 552.597
22.56000 554.864
22.57000 556.376
22.58000 548.614
22.59000 542.689
22.60000 536.620
22.61000 530.364
22.62000 524.119
22.63000 523.077
22.64000 526.348
22.65000 529.575
22.66000 528.245
22.67000 524.523
22.68000 520.662
22.69000 514.305
22.70000 507.028
22.71000 501.558
22.72000 513.124
22.73000 528.892
22.74000 542.592
22.75000 534.888
22.76000 525.423
22.77000 518.451
22.78000 520.755
22.79000 523.935
22.80000 523.478
22.81000 513.947
22.82000 503.985
22.83000 497.706
22.84000 506.589
22.85000 513.194
22.86000 518.585
22.87000 522.643
22.88000 526.633
22.89000 521.353
22.90000 509.518
22.91000 497.938
22.92000 496.657
22.93000 500.098
22.94000 503.495
22.95000 506.281
22.96000 508.874
22.97000 511.119
22.98000 510.688
22.99000 509.693
23.00000 508.852
23.01000 505.064
23.02000 501.568
23.03000 498.731
23.04000 497.998
23.05000 497.424
23.06000 498.121
23.07000 501.556
23.08000 505.084
23.09000 507.173
23.10000 514.289
23.11000 519.348
23.12000 521.104
23.13000 519.796
23.14000 518.486
23.15000 517.050
23.16000 515.539
23.17000 514.074
23.18000 510.936
23.19000 507.322
23.20000 504.130
23.21000 505.529
23.22000 508.185
23.23000 509.585
23.24000 502.895
23.25000 494.762
23.26000 488.086
23.27000 489.261
23.28000 490.927
23.29000 494.106
23.30000 501.458
23.31000 509.052
23.32000 510.028
23.33000 498.703
23.34000 487.102
23.35000 480.696
23.36000 502.076
23.37000 516.818
23.38000 516.900
23.39000 505.438
23.40000 494.320
23.41000 497.204
23.42000 507.402
23.43000 517.159
23.44000 508.983
23.45000 495.488
23.46000 483.836
23.47000 488.446
23.48000 496.871
23.49000 504.138
23.50000 505.132
23.51000 505.185
23.52000 505.226
23.53000 501.038
23.54000 497.366
23.55000 495.512
23.56000 497.986
23.57000 500.646
23.58000 502.980
23.59000 504.796
23.60000 506.605
23.61000 507.528
23.62000 505.872
23.63000 504.793
23.64000 507.164
23.65000 511.856
23.66000 516.527
23.67000 520.628
23.68000 524.470
23.69000 528.094
23.70000 518.042
23.71000 505.029
23.72000 494.007
23.73000 497.468
23.74000 503.824
23.75000 508.232
23.76000 503.677
23.77000 498.005
23.78000 493.664
23.79000 505.163
23.80000 515.103
23.81000 519.173
23.82000 511.177
23.83000 502.818
23.84000 495.841
23.85000 490.759
23.86000 485.690
23.87000 487.759
23.88000 496.094
23.89000 504.404
23.90000 511.342
23.91000 517.487
23.92000 523.295
23.93000 522.423
23.94000 518.952
23.95000 515.731
23.96000 515.759
23.97000 516.546
23.98000 517.417
23.99000 518.795
24.00000 520.258
24.01000 519.517
24.02000 510.109
24.03000 499.819
24.04000 492.259
24.05000 503.112
24.06000 512.256
24.07000 515.271
24.08000 507.423
24.09000 499.367
24.10000 496.384
24.11000 499.323
24.12000 502.263
24.13000 500.267
24.14000 494.617
24.15000 489.078
24.16000 487.466
24.17000 487.812
24.18000 488.042
24.19000 486.534
24.20000 484.441
24.21000 482.536
24.22000 489.063
24.23000 496.504
24.24000 501.395
24.25000 493.183
24.26000 483.117
24.27000 475.038
24.28000 473.668
24.29000 472.846
24.30000 472.268
24.31000 478.604
24.32000 483.603
24.33000 486.150
24.34000 484.961
24.35000 483.733
24.36000 484.433
24.37000 487.034
24.38000 489.618
24.39000 484.213
24.40000 473.857
24.41000 464.064
24.42000 468.074
24.43000 478.020
24.44000 487.457
24.45000 490.877
24.46000 492.558
24.47000 494.056
24.48000 490.884
24.49000 487.357
24.50000 484.453
24.51000 484.267
24.52000 484.399
24.53000 485.465
24.54000 489.243
24.55000 493.195
24.56000 495.835
24.57000 487.487
24.58000 481.086
24.59000 480.730
24.60000 488.251
24.61000 495.787
24.62000 494.168
24.63000 484.908
24.64000 475.771
24.65000 476.332
24.66000 482.079
24.67000 487.594
24.68000 488.925
24.69000 488.702
24.70000 487.871
24.71000 481.260
24.72000 473.215
24.73000 466.217
24.74000 467.147
24.75000 469.022
24.76000 472.039
24.77000 479.333
24.78000 487.033
24.79000 493.345
24.80000 496.173
24.81000 498.834
24.82000 500.515
24.83000 488.948
24.84000 480.412
24.85000 473.238
24.86000 467.575
24.87000 461.942
24.88000 460.568
24.89000 462.227
24.90000 463.851
24.91000 464.689
24.92000 465.135
24.93000 465.701
24.94000 467.936
24.95000 470.706
24.96000 473.544
24.97000 476.917
24.98000 480.403
24.99000 483.355
25.00000 475.778
25.01000 468.255
25.02000 464.203
25.03000 471.314
25.04000 479.271
25.05000 483.397
25.06000 479.220
25.07000 474.757
25.08000 472.108
25.09000 472.899
25.10000 473.479
25.11000 470.883
25.12000 465.322
25.13000 459.839
25.14000 459.755
25.15000 462.968
25.16000 466.081
25.17000 469.669
25.18000 473.250
25.19000 476.130
25.20000 471.315
25.21000 464.381
25.22000 458.937
25.23000 463.149
25.24000 469.097
25.25000 473.986
25.26000 470.471
25.27000 466.826
25.28000 462.985
25.29000 458.604
25.30000 454.191
25.31000 453.126
25.32000 458.323
25.33000 463.664
25.34000 466.621
25.35000 458.280
25.36000 452.521
25.37000 453.153
25.38000 458.850
25.39000 464.527
25.40000 469.337
25.41000 473.692
25.42000 477.861
25.43000 475.093
25.44000 470.224
25.45000 465.407
25.46000 461.053
25.47000 456.809
25.48000 453.533
25.49000 455.537
25.50000 458.339
25.51000 460.567
25.52000 459.554
25.53000 458.506
25.54000 459.841
25.55000 466.883
25.56000 474.173
25.57000 476.974
25.58000 472.554
25.59000 468.037
25.60000 465.724
25.61000 456.735
25.62000 450.735
25.63000 449.313
25.64000 450.992
25.65000 452.552
25.66000 450.804
25.67000 447.556
25.68000 444.491
25.69000 448.728
25.70000 454.657
25.71000 460.481
25.72000 465.541
25.73000 470.447
25.74000 473.752
25.75000 469.641
25.76000 464.599
25.77000 460.735
25.78000 459.793
25.79000 459.211
25.80000 458.020
25.81000 455.570
25.82000 453.081
25.83000 452.959
25.84000 456.099
25.85000 459.259
25.86000 460.752
25.87000 460.769
25.88000 460.763
25.89000 459.457
25.90000 457.393
25.91000 455.599
25.92000 459.241
25.93000 465.011
25.94000 470.366
25.95000 465.947
25.96000 459.653
25.97000 453.492
25.98000 448.150
25.99000 442.949
26.00000 439.570
26.01000 443.402
26.02000 447.975
26.03000 451.341
26.04000 444.460
26.05000 438.710
26.06000 437.512
26.07000 444.425
26.08000 451.497
26.09000 454.557
26.10000 452.901
26.11000 451.242
26.12000 450.517
26.13000 450.496
26.14000 450.459
26.15000 449.900
26.16000 449.078
26.17000 448.309
26.18000 448.327
26.19000 448.612
26.20000 448.871
26.21000 452.877
26.22000 457.169
26.23000 459.693
26.24000 453.066
26.25000 445.135
26.26000 439.852
26.27000 443.564
26.28000 448.016
26.29000 451.150
26.30000 452.374
26.31000 453.246
26.32000 453.152
26.33000 451.577
26.34000 449.987
26.35000 448.211
26.36000 446.251
26.37000 444.305
26.38000 446.377
26.39000 450.967
26.40000 455.115
26.41000 448.254
26.42000 436.630
26.43000 426.555
26.44000 434.922
26.45000 448.655
26.46000 460.901
26.47000 465.818
26.48000 468.878
26.49000 471.333
26.50000 471.126
26.51000 470.605
26.52000 467.668
26.53000 457.661
26.54000 447.199
26.55000 440.195
26.56000 431.826
26.57000 425.591
26.58000 424.976
26.59000 431.730
26.60000 438.506
26.61000 439.085
26.62000 434.461
26.63000 429.896
26.64000 430.466
26.65000 433.792
26.66000 437.320
26.67000 444.542
26.68000 453.144
26.69000 460.965
26.70000 461.306
26.71000 459.780
26.72000 458.451
26.73000 451.303
26.74000 444.398
26.75000 438.866
26.76000 438.502
26.77000 438.634
26.78000 439.475
26.79000 442.109
26.80000 444.829
26.81000 446.552
26.82000 453.322
26.83000 458.292
26.84000 456.207
26.85000 446.256
26.86000 436.361
26.87000 435.806
26.88000 441.939
26.89000 447.945
26.90000 449.613
26.91000 449.223
26.92000 449.019
26.93000 451.418
26.94000 454.656
26.95000 456.940
26.96000 451.730
26.97000 444.923
26.98000 439.152
26.99000 443.681
27.00000 448.637
27.01000 452.862
27.02000 454.720
27.03000 456.398
27.04000 455.678
27.05000 449.730
27.06000 443.599
27.07000 439.949
27.08000 441.853
27.09000 443.236
27.10000 443.256
27.11000 441.997
27.12000 440.741
27.13000 439.784
27.14000 439.009
27.15000 438.259
27.16000 433.928
27.17000 428.428
27.18000 423.694
27.19000 427.467
27.20000 433.597
27.21000 439.668
27.22000 445.352
27.23000 450.966
27.24000 455.586
27.25000 444.452
27.26000 433.866
27.27000 425.949
27.28000 425.483
27.29000 425.459
27.30000 424.392
27.31000 421.363
27.32000 418.289
27.33000 416.581
27.34000 440.734
27.35000 457.429
27.36000 458.796
27.37000 447.935
27.38000 437.218
27.39000 432.572
27.40000 431.134
27.41000 429.758
27.42000 430.312
27.43000 431.471
27.44000 432.934
27.45000 437.132
27.46000 441.979
27.47000 444.702
27.48000 435.767
27.49000 425.057
27.50000 416.529
27.51000 431.885
27.52000 445.990
27.53000 454.002
27.54000 447.335
27.55000 440.021
27.56000 434.866
27.57000 433.205
27.58000 431.592
27.59000 430.763
27.60000 416.769
27.61000 407.446
27.62000 408.659
27.63000 417.054
27.64000 425.280
27.65000 428.773
27.66000 430.106
27.67000 431.365
27.68000 430.561
27.69000 429.242
27.70000 427.889
27.71000 426.287
27.72000 424.634
27.73000 424.199
27.74000 429.440
27.75000 435.399
27.76000 439.974
27.77000 440.153
27.78000 440.049
27.79000 439.163
27.80000 436.649
27.81000 434.084
27.82000 429.841
27.83000 423.268
27.84000 416.684
27.85000 416.562
27.86000 422.193
27.87000 427.779
27.88000 430.620
27.89000 431.855
27.90000 432.990
27.91000 432.113
27.92000 430.443
27.93000 428.892
27.94000 431.527
27.95000 434.901
27.96000 437.789
27.97000 437.671
27.98000 437.039
27.99000 435.463
28.00000 430.128
28.01000 424.405
28.02000 420.185
28.03000 429.212
28.04000 436.759
28.05000 437.086
28.06000 424.466
28.07000 411.587
28.08000 402.300
28.09000 397.265
28.10000 392.251
28.11000 399.462
28.12000 415.830
28.13000 431.807
28.14000 433.387
28.15000 427.709
28.16000 422.459
28.17000 423.772
28.18000 427.317
28.19000 430.549
28.20000 429.997
28.21000 428.751
28.22000 426.950
28.23000 422.267
28.24000 417.170
28.25000 414.361
28.26000 419.371
28.27000 425.032
28.28000 429.022
28.29000 424.402
28.30000 420.638
28.31000 417.684
28.32000 415.977
28.33000 414.284
28.34000 416.575
28.35000 422.853
28.36000 429.087
28.37000 428.572
28.38000 423.750
28.39000 419.252
28.40000 422.918
28.41000 430.137
28.42000 436.674
28.43000 435.002
28.44000 430.928
28.45000 427.291
28.46000 427.661
28.47000 428.652
28.48000 430.371
28.49000 435.306
28.50000 440.623
28.51000 442.971
28.52000 436.580
28.53000 429.619
28.54000 424.949
28.55000 409.337
28.56000 397.526
28.57000 394.762
28.58000 403.940
28.59000 413.165
28.60000 417.550
28.61000 417.841
28.62000 418.130
28.63000 415.719
28.64000 411.906
28.65000 408.462
28.66000 411.853
28.67000 417.812
28.68000 423.205
28.69000 423.128
28.70000 421.677
28.71000 420.412
28.72000 417.284
28.73000 414.352
28.74000 413.458
28.75000 420.287
28.76000 427.863
28.77000 433.633
28.78000 434.817
28.79000 435.775
28.80000 436.383
28.81000 422.789
28.82000 412.747
28.83000 407.686
28.84000 408.217
28.85000 408.729
28.86000 405.646
28.87000 399.973
28.88000 394.416
28.89000 399.998
28.90000 410.514
28.91000 420.329
28.92000 420.207
28.93000 416.864
28.94000 413.560
28.95000 410.569
28.96000 407.644
28.97000 405.162
28.98000 408.360
28.99000 411.687
29.00000 414.874
29.01000 417.606
29.02000 420.302
29.03000 419.765
29.04000 412.136
29.05000 404.255
29.06000 399.551
29.07000 410.182
29.08000 417.815
29.09000 420.321
29.10000 417.972
29.11000 415.659
29.12000 416.029
29.13000 418.057
29.14000 420.024
29.15000 423.441
29.16000 427.249
29.17000 430.212
29.18000 423.716
29.19000 414.582
29.20000 406.892
29.21000 408.701
29.22000 412.240
29.23000 415.156
29.24000 409.705
29.25000 404.451
29.26000 400.670
29.27000 401.024
29.28000 401.626
29.29000 403.200
29.30000 406.615
29.31000 410.074
29.32000 412.001
29.33000 404.859
29.34000 399.911
29.35000 399.193
29.36000 401.872
29.37000 404.553
29.38000 407.304
29.39000 410.092
29.40000 412.763
29.41000 407.343
29.42000 399.580
29.43000 393.361
29.44000 401.120
29.45000 412.221
29.46000 420.925
29.47000 416.370
29.48000 409.783
29.49000 404.531
29.50000 403.962
29.51000 403.845
29.52000 402.458
29.53000 397.997
29.54000 393.398
29.55000 393.444
29.56000 401.056
29.57000 408.774
29.58000 412.752
29.59000 410.702
29.60000 409.321
29.61000 408.094
29.62000 406.972
29.63000 405.735
29.64000 401.221
29.65000 395.203
29.66000 389.516
29.67000 395.038
29.68000 403.286
29.69000 410.757
29.70000 412.444
29.71000 412.953
29.72000 413.180
29.73000 412.090
29.74000 410.832
29.75000 409.865
29.76000 408.233
29.77000 406.905
29.78000 405.720
29.79000 404.835
29.80000 403.959
29.81000 404.289
29.82000 406.302
29.83000 408.326
29.84000 412.103
29.85000 417.449
29.86000 422.642
29.87000 418.580
29.88000 409.068
29.89000 399.814
29.90000 395.864
29.91000 394.015
29.92000 392.297
29.93000 396.237
29.94000 401.151
29.95000 405.745
29.96000 408.353
29.97000 410.618
29.98000 411.819
29.99000 408.756
30.00000 405.247
30.01000 402.656
30.02000 401.985
30.03000 401.546
30.04000 399.879
30.05000 395.996
30.06000 392.068
30.07000 389.822
30.08000 389.580
30.09000 389.342
30.10000 390.912
30.11000 393.842
30.12000 396.763
30.13000 399.335
30.14000 401.730
30.15000 404.024
30.16000 404.759
30.17000 404.961
30.18000 405.146
30.19000 407.903
30.20000 410.868
30.21000 413.318
30.22000 413.068
30.23000 412.427
30.24000 410.307
30.25000 403.098
30.26000 395.462
30.27000 390.069
30.28000 394.314
30.29000 397.831
30.30000 399.424
30.31000 398.029
30.32000 396.600
30.33000 395.321
30.34000 394.191
30.35000 393.070
30.36000 395.086
30.37000 399.091
30.38000 402.898
30.39000 401.660
30.40000 398.212
30.41000 395.338
30.42000 399.423
30.43000 405.556
30.44000 411.036
30.45000 411.276
30.46000 410.601
30.47000 409.430
30.48000 406.041
30.49000 402.386
30.50000 400.593
30.51000 404.313
30.52000 408.395
30.53000 411.140
30.54000 414.691
30.55000 417.345
30.56000 416.164
30.57000 409.888
30.58000 403.599
30.59000 404.867
30.60000 412.567
30.61000 420.173
30.62000 418.501
30.63000 411.798
30.64000 405.429
30.65000 405.306
30.66000 407.544
30.67000 409.987
30.68000 414.431
30.69000 419.381
30.70000 423.700
30.71000 420.326
30.72000 416.366
30.73000 414.140
30.74000 418.523
30.75000 423.553
30.76000 426.184
30.77000 422.686
30.78000 418.884
30.79000 416.464
30.80000 427.082
30.81000 434.961
30.82000 441.114
30.83000 445.316
30.84000 449.499
30.85000 450.971
30.86000 450.475
30.87000 449.990
30.88000 449.534
30.89000 449.108
30.90000 449.371
30.91000 459.482
30.92000 472.805
30.93000 484.734
30.94000 485.554
30.95000 483.974
30.96000 482.631
30.97000 489.025
30.98000 495.278
30.99000 502.755
31.00000 514.242
31.01000 526.041
31.02000 535.445
31.03000 539.563
31.04000 543.491
31.05000 545.841
31.06000 581.672
31.07000 607.321
31.08000 631.430
31.09000 654.071
31.10000 676.573
31.11000 688.658
31.12000 694.267
31.13000 699.710
31.14000 726.724
31.15000 760.886
31.16000 794.230
31.17000 818.357
31.18000 839.897
31.19000 862.813
31.20000 894.843
31.21000 928.544
31.22000 956.348
31.23000 984.545
31.24000 1007.801
31.25000 1027.825
31.26000 1038.720
31.27000 1049.064
31.28000 1066.945
31.29000 1099.176
31.30000 1131.754
31.31000 1149.958
31.32000 1155.371
31.33000 1159.071
31.34000 1155.609
31.35000 1146.362
31.36000 1137.241
31.37000 1133.655
31.38000 1133.031
31.39000 1132.432
31.40000 1136.890
31.41000 1142.754
31.42000 1146.315
31.43000 1128.874
31.44000 1106.380
31.45000 1083.295
31.46000 1056.921
31.47000 1030.039
31.48000 1008.575
31.49000 982.704
31.50000 961.486
31.51000 939.740
31.52000 916.707
31.53000 893.615
31.54000 863.509
31.55000 821.908
31.56000 780.142
31.57000 758.539
31.58000 706.694
31.59000 671.843
31.60000 650.784
31.61000 639.241
31.62000 627.695
31.63000 616.043
31.64000 604.342
31.65000 593.280
31.66000 571.946
31.67000 549.415
31.68000 528.476
31.69000 519.494
31.70000 512.965
31.71000 505.827
31.72000 495.820
31.73000 485.444
31.74000 477.454
31.75000 465.522
31.76000 455.850
31.77000 446.260
31.78000 436.843
31.79000 427.430
31.80000 421.949
31.81000 421.993
31.82000 422.076
31.83000 417.590
31.84000 408.987
31.85000 400.608
31.86000 406.104
31.87000 419.820
31.88000 432.665
31.89000 427.390
31.90000 414.893
31.91000 403.268
31.92000 399.934
31.93000 398.924
31.94000 397.233
31.95000 391.280
31.96000 384.586
31.97000 379.062
31.98000 378.253
31.99000 377.941
32.00000 377.710
32.01000 386.546
32.02000 393.790
32.03000 395.878
32.04000 388.606
32.05000 381.140
32.06000 377.804
32.07000 379.419
32.08000 381.041
32.09000 380.324
32.10000 377.828
32.11000 375.313
32.12000 372.122
32.13000 368.585
32.14000 365.078
32.15000 362.029
32.16000 359.137
32.17000 356.497
32.18000 368.193
32.19000 381.486
32.20000 391.475
32.21000 384.034
32.22000 374.053
32.23000 366.963
32.24000 369.875
32.25000 373.635
32.26000 376.295
32.27000 367.317
32.28000 360.134
32.29000 358.305
32.30000 364.834
32.31000 371.461
32.32000 375.579
32.33000 377.151
32.34000 378.713
32.35000 377.277
32.36000 373.921
32.37000 370.723
32.38000 371.620
32.39000 374.322
32.40000 376.576
32.41000 373.340
32.42000 368.477
32.43000 364.129
32.44000 357.753
32.45000 351.851
32.46000 347.227
32.47000 348.338
32.48000 350.142
32.49000 352.461
32.50000 356.315
32.51000 360.271
32.52000 362.936
32.53000 358.078
32.54000 354.309
32.55000 352.646
32.56000 353.799
32.57000 354.967
32.58000 356.155
32.59000 357.359
32.60000 358.549
32.61000 358.606
32.62000 358.038
32.63000 357.303
32.64000 353.407
32.65000 348.309
32.66000 344.076
32.67000 348.336
32.68000 354.756
32.69000 360.364
32.70000 358.691
32.71000 356.236
32.72000 354.373
32.73000 354.787
32.74000 355.425
32.75000 355.277
32.76000 353.109
32.77000 350.838
32.78000 349.390
32.79000 346.799
32.80000 344.901
32.81000 342.789
32.82000 340.435
32.83000 338.096
32.84000 338.208
32.85000 340.109
32.86000 341.972
32.87000 347.142
32.88000 353.666
32.89000 359.846
32.90000 361.047
32.91000 360.616
32.92000 359.333
32.93000 351.199
32.94000 341.576
32.95000 333.391
32.96000 336.142
32.97000 339.715
32.98000 343.767
32.99000 349.394
33.00000 355.145
33.01000 357.436
33.02000 352.047
33.03000 346.377
33.04000 342.975
33.05000 343.897
33.06000 344.582
33.07000 345.689
33.08000 347.202
33.09000 348.624
33.10000 343.099
33.11000 333.228
33.12000 323.647
33.13000 327.130
33.14000 335.644
33.15000 343.373
33.16000 342.175
33.17000 338.456
33.18000 335.343
33.19000 336.271
33.20000 337.944
33.21000 339.326
33.22000 340.629
33.23000 341.695
33.24000 341.237
33.25000 336.451
33.26000 331.400
33.27000 331.105
33.28000 339.921
33.29000 348.960
33.30000 354.026
33.31000 346.442
33.32000 341.159
33.33000 337.846
33.34000 336.135
33.35000 334.515
33.36000 336.903
33.37000 341.450
33.38000 345.811
33.39000 340.765
33.40000 332.861
33.41000 325.953
33.42000 328.201
33.43000 332.666
33.44000 337.468
33.45000 344.166
33.46000 351.158
33.47000 356.748
33.48000 359.455
33.49000 361.428
33.50000 360.459
33.51000 352.273
33.52000 343.758
33.53000 336.570
33.54000 331.573
33.55000 326.607
33.56000 324.031
33.57000 325.629
33.58000 326.700
33.59000 326.608
33.60000 325.710
33.61000 324.776
33.62000 322.794
33.63000 320.327
33.64000 317.992
33.65000 323.485
33.66000 330.784
33.67000 337.545
33.68000 340.228
33.69000 342.070
33.70000 343.331
33.71000 341.836
33.72000 339.983
33.73000 338.555
33.74000 338.004
33.75000 337.619
33.76000 337.036
33.77000 336.036
33.78000 335.022
33.79000 335.189
33.80000 337.026
33.81000 338.874
33.82000 338.523
33.83000 336.174
33.84000 333.898
33.85000 336.259
33.86000 341.385
33.87000 345.975
33.88000 339.274
33.89000 328.046
33.90000 317.594
33.91000 317.399
33.92000 319.715
33.93000 321.222
33.94000 317.634
33.95000 313.155
33.96000 311.884
33.97000 323.633
33.98000 336.765
33.99000 346.496
34.00000 344.732
34.01000 342.862
34.02000 340.583
34.03000 337.559
34.04000 334.518
34.05000 331.441
34.06000 328.322
34.07000 325.209
34.08000 322.760
34.09000 320.835
34.10000 318.973
34.11000 319.576
34.12000 321.445
34.13000 322.901
34.14000 317.816
34.15000 310.467
34.16000 303.752
34.17000 316.601
34.18000 332.016
34.19000 344.278
34.20000 339.788
34.21000 332.840
34.22000 326.617
34.23000 322.918
34.24000 319.435
34.25000 316.966
34.26000 324.365
34.27000 330.301
34.28000 333.165
34.29000 331.206
34.30000 329.188
34.31000 326.790
34.32000 324.004
34.33000 321.235
34.34000 319.704
34.35000 319.001
34.36000 318.377
34.37000 319.836
34.38000 322.217
34.39000 324.235
34.40000 321.764
34.41000 317.955
34.42000 314.546
34.43000 322.836
34.44000 332.070
34.45000 339.419
34.46000 338.261
34.47000 336.069
34.48000 332.278
34.49000 323.701
34.50000 314.802
34.51000 308.794
34.52000 311.006
34.53000 312.827
34.54000 314.996
34.55000 317.631
34.56000 320.266
34.57000 321.268
34.58000 320.861
34.59000 320.458
34.60000 321.947
34.61000 324.447
34.62000 327.064
34.63000 331.921
34.64000 337.635
34.65000 342.415
34.66000 337.948
34.67000 331.114
34.68000 325.140
34.69000 321.003
34.70000 317.720
34.71000 314.067
34.72000 308.987
34.73000 303.765
34.74000 302.159
34.75000 309.904
34.76000 318.126
34.77000 323.382
34.78000 320.810
34.79000 318.835
34.80000 316.741
34.81000 314.509
34.82000 312.293
34.83000 312.635
34.84000 314.857
34.85000 317.036
34.86000 318.645
34.87000 319.927
34.88000 321.001
34.89000 319.044
34.90000 316.088
34.91000 313.034
34.92000 309.182
34.93000 305.155
34.94000 301.725
34.95000 303.035
34.96000 304.689
34.97000 306.966
34.98000 311.316
34.99000 315.830
35.00000 317.771
35.01000 313.967
35.02000 309.951
35.03000 307.534
35.04000 306.577
35.05000 305.907
35.06000 304.856
35.07000 303.437
35.08000 302.053
35.09000 303.380
35.10000 306.413
35.11000 309.359
35.12000 310.086
35.13000 309.887
35.14000 309.898
35.15000 312.343
35.16000 315.478
35.17000 318.159
35.18000 317.790
35.19000 316.854
35.20000 316.080
35.21000 311.410
35.22000 307.191
35.23000 304.905
35.24000 308.147
35.25000 311.730
35.26000 312.918
35.27000 309.493
35.28000 305.952
35.29000 303.962
35.30000 298.345
35.31000 294.455
35.32000 297.718
35.33000 306.835
35.34000 315.778
35.35000 316.769
35.36000 313.455
35.37000 310.274
35.38000 307.775
35.39000 305.672
35.40000 304.036
35.41000 306.733
35.42000 310.485
35.43000 313.526
35.44000 312.548
35.45000 310.941
35.46000 309.654
35.47000 308.162
35.48000 306.940
35.49000 305.515
35.50000 303.590
35.51000 301.642
35.52000 301.039
35.53000 302.665
35.54000 304.325
35.55000 305.190
35.56000 313.530
35.57000 319.119
35.58000 318.434
35.59000 313.364
35.60000 308.323
35.61000 304.175
35.62000 300.443
35.63000 296.911
35.64000 296.830
35.65000 297.754
35.66000 299.169
35.67000 304.317
35.68000 310.241
35.69000 314.257
35.70000 309.149
35.71000 302.850
35.72000 297.985
35.73000 297.921
35.74000 298.150
35.75000 297.223
35.76000 293.830
35.77000 290.357
35.78000 289.487
35.79000 292.322
35.80000 295.185
35.81000 296.490
35.82000 296.367
35.83000 296.253
35.84000 296.709
35.85000 297.506
35.86000 298.312
35.87000 299.288
35.88000 300.333
35.89000 301.307
35.90000 294.802
35.91000 287.088
35.92000 281.555
35.93000 289.864
35.94000 300.610
35.95000 308.915
35.96000 307.250
35.97000 304.518
35.98000 302.490
35.99000 303.672
36.00000 304.732
36.01000 305.686
36.02000 306.444
36.03000 307.199
36.04000 308.990
36.05000 312.041
36.06000 315.088
36.07000 318.114
36.08000 321.109
36.09000 323.880
36.10000 317.859
36.11000 307.299
36.12000 297.265
36.13000 295.655
36.14000 296.978
36.15000 298.188
36.16000 295.755
36.17000 292.842
36.18000 290.936
36.19000 294.417
36.20000 298.695
36.21000 301.582
36.22000 299.597
36.23000 297.191
36.24000 295.483
36.25000 295.691
36.26000 295.911
36.27000 297.534
36.28000 301.374
36.29000 305.243
36.30000 305.847
36.31000 303.095
36.32000 300.359
36.33000 298.054
36.34000 296.064
36.35000 294.158
36.36000 294.527
36.37000 295.910
36.38000 297.057
36.39000 295.257
36.40000 292.573
36.41000 290.168
36.42000 286.190
36.43000 282.445
36.44000 280.407
36.45000 286.125
36.46000 292.794
36.47000 297.656
36.48000 297.066
36.49000 296.107
36.50000 295.458
36.51000 299.507
36.52000 302.625
36.53000 300.972
36.54000 292.858
36.55000 284.715
36.56000 282.450
36.57000 285.289
36.58000 288.094
36.59000 289.802
36.60000 290.856
36.61000 291.763
36.62000 289.812
36.63000 286.761
36.64000 283.750
36.65000 281.140
36.66000 278.633
36.67000 276.439
36.68000 289.975
36.69000 303.826
36.70000 313.162
36.71000 304.960
36.72000 295.001
36.73000 287.050
36.74000 284.320
36.75000 281.860
36.76000 280.284
36.77000 286.850
36.78000 291.744
36.79000 293.793
36.80000 292.562
36.81000 291.329
36.82000 290.310
36.83000 289.450
36.84000 288.606
36.85000 289.186
36.86000 290.419
36.87000 291.504
36.88000 290.394
36.89000 288.556
36.90000 287.434
36.91000 292.149
36.92000 298.149
36.93000 303.265
36.94000 301.557
36.95000 299.318
36.96000 297.592
36.97000 297.573
36.98000 297.691
36.99000 296.910
37.00000 294.111
37.01000 291.235
37.02000 289.501
37.03000 288.273
37.04000 287.403
37.05000 290.142
37.06000 296.396
37.07000 302.597
37.08000 304.575
37.09000 303.880
37.10000 303.204
37.11000 296.491
37.12000 287.675
37.13000 279.434
37.14000 277.863
37.15000 278.199
37.16000 279.277
37.17000 285.380
37.18000 292.423
37.19000 298.255
37.20000 292.175
37.21000 286.024
37.22000 281.296
37.23000 280.660
37.24000 280.280
37.25000 278.442
37.26000 273.778
37.27000 269.042
37.28000 266.372
37.29000 280.326
37.30000 290.045
37.31000 291.976
37.32000 287.490
37.33000 283.102
37.34000 283.275
37.35000 285.931
37.36000 288.482
37.37000 283.805
37.38000 276.947
37.39000 270.901
37.40000 272.441
37.41000 275.840
37.42000 279.009
37.43000 280.860
37.44000 282.504
37.45000 283.822
37.46000 284.636
37.47000 285.256
37.48000 284.927
37.49000 282.240
37.50000 279.442
37.51000 277.797
37.52000 278.078
37.53000 278.389
37.54000 278.551
37.55000 280.959
37.56000 282.610
37.57000 287.003
37.58000 293.324
37.59000 299.448
37.60000 299.595
37.61000 296.934
37.62000 294.413
37.63000 289.900
37.64000 285.166
37.65000 280.925
37.66000 280.471
37.67000 280.809
37.68000 280.791
37.69000 279.059
37.70000 277.101
37.71000 275.587
37.72000 275.260
37.73000 275.070
37.74000 277.658
37.75000 286.198
37.76000 294.938
37.77000 297.455
37.78000 291.060
37.79000 284.598
37.80000 281.637
37.81000 281.905
37.82000 282.154
37.83000 281.148
37.84000 279.385
37.85000 277.741
37.86000 278.687
37.87000 280.683
37.88000 282.543
37.89000 286.972
37.90000 291.614
37.91000 294.610
37.92000 287.086
37.93000 277.695
37.94000 270.902
37.95000 274.778
37.96000 279.807
37.97000 283.546
37.98000 281.898
37.99000 280.375
38.00000 280.705
38.01000 284.458
38.02000 288.287
38.03000 289.538
38.04000 287.638
38.05000 285.734
38.06000 286.271
38.07000 288.706
38.08000 291.105
38.09000 292.074
38.10000 292.301
38.11000 292.138
38.12000 285.675
38.13000 277.006
38.14000 269.072
38.15000 279.174
38.16000 291.900
38.17000 301.918
38.18000 297.348
38.19000 290.605
38.20000 285.205
38.21000 284.533
38.22000 284.274
38.23000 284.089
38.24000 278.473
38.25000 274.019
38.26000 271.814
38.27000 273.185
38.28000 274.602
38.29000 283.762
38.30000 300.940
38.31000 318.020
38.32000 327.154
38.33000 330.919
38.34000 334.545
38.35000 334.390
38.36000 332.541
38.37000 331.012
38.38000 333.512
38.39000 337.227
38.40000 340.558
38.41000 337.538
38.42000 333.797
38.43000 332.474
38.44000 342.210
38.45000 353.313
38.46000 362.843
38.47000 367.600
38.48000 372.030
38.49000 375.032
38.50000 369.775
38.51000 365.674
38.52000 368.373
38.53000 380.339
38.54000 392.356
38.55000 401.833
38.56000 409.089
38.57000 416.264
38.58000 419.420
38.59000 420.245
38.60000 421.460
38.61000 430.310
38.62000 442.116
38.63000 452.553
38.64000 449.198
38.65000 442.269
38.66000 436.200
38.67000 442.587
38.68000 449.861
38.69000 455.354
38.70000 453.882
38.71000 451.707
38.72000 449.231
38.73000 445.965
38.74000 442.658
38.75000 440.535
38.76000 431.379
38.77000 424.606
38.78000 419.800
38.79000 417.277
38.80000 414.739
38.81000 408.833
38.82000 400.421
38.83000 392.168
38.84000 391.597
38.85000 394.718
38.86000 397.358
38.87000 392.845
38.88000 385.943
38.89000 378.804
38.90000 369.704
38.91000 360.169
38.92000 352.032
38.93000 338.242
38.94000 325.962
38.95000 318.247
38.96000 325.853
38.97000 334.699
38.98000 338.160
38.99000 329.453
39.00000 320.282
39.01000 314.737
39.02000 305.134
39.03000 298.262
39.04000 293.571
39.05000 291.016
39.06000 288.470
39.07000 286.638
39.08000 285.261
39.09000 283.923
39.10000 287.652
39.11000 293.256
39.12000 298.351
39.13000 297.502
39.14000 294.944
39.15000 292.583
39.16000 291.575
39.17000 290.822
39.18000 290.198
39.19000 278.029
39.20000 266.869
39.21000 259.314
39.22000 262.185
39.23000 265.714
39.24000 266.977
39.25000 263.819
39.26000 260.546
39.27000 258.696
39.28000 265.523
39.29000 270.288
39.30000 272.314
39.31000 272.068
39.32000 271.785
39.33000 269.761
39.34000 266.783
39.35000 263.922
39.36000 258.358
39.37000 252.214
39.38000 247.057
39.39000 251.190
39.40000 257.615
39.41000 262.874
39.42000 261.459
39.43000 258.984
39.44000 256.996
39.45000 258.627
39.46000 260.225
39.47000 261.177
39.48000 260.515
39.49000 259.778
39.50000 259.806
39.51000 261.123
39.52000 262.459
39.53000 263.160
39.54000 258.451
39.55000 255.286
39.56000 255.710
39.57000 258.675
39.58000 261.524
39.59000 260.824
39.60000 258.446
39.61000 256.192
39.62000 256.776
39.63000 258.146
39.64000 259.052
39.65000 256.364
39.66000 252.919
39.67000 250.592
39.68000 253.678
39.69000 257.482
39.70000 260.428
39.71000 260.161
39.72000 259.758
39.73000 260.967
39.74000 265.654
39.75000 270.458
39.76000 268.521
39.77000 256.865
39.78000 245.133
39.79000 237.591
39.80000 233.940
39.81000 230.450
39.82000 237.851
39.83000 251.864
39.84000 265.157
39.85000 262.678
39.86000 253.763
39.87000 245.448
39.88000 247.392
39.89000 251.699
39.90000 255.633
39.91000 257.163
39.92000 258.265
39.93000 257.911
39.94000 251.538
39.95000 244.510
39.96000 239.275
39.97000 245.138
39.98000 250.201
39.99000 255.434
40.00000 260.983
40.01000 266.539
40.02000 266.856
40.03000 260.725
40.04000 254.590
40.05000 254.985
40.06000 260.498
40.07000 265.767
40.08000 261.133
40.09000 251.322
40.10000 242.051
40.11000 241.633
40.12000 244.332
40.13000 246.804
40.14000 250.031
40.15000 253.061
40.16000 255.863
40.17000 257.429
40.18000 258.809
40.19000 259.798
40.20000 259.402
40.21000 258.885
40.22000 258.516
40.23000 257.508
40.24000 256.720
40.25000 257.054
40.26000 259.185
40.27000 261.339
40.28000 263.114
40.29000 264.493
40.30000 265.865
40.31000 262.944
40.32000 257.208
40.33000 251.599
40.34000 249.468
40.35000 248.904
40.36000 248.206
40.37000 245.805
40.38000 242.887
40.39000 240.268
40.40000 243.736
40.41000 247.832
40.42000 251.206
40.43000 251.257
40.44000 250.895
40.45000 250.307
40.46000 249.028
40.47000 247.701
40.48000 246.800
40.49000 253.482
40.50000 258.639
40.51000 260.178
40.52000 256.757
40.53000 253.307
40.54000 252.250
40.55000 253.299
40.56000 254.336
40.57000 250.799
40.58000 244.762
40.59000 239.098
40.60000 240.837
40.61000 245.459
40.62000 249.635
40.63000 249.283
40.64000 247.750
40.65000 246.406
40.66000 251.140
40.67000 256.087
40.68000 258.604
40.69000 251.560
40.70000 243.542
40.71000 239.632
40.72000 246.534
40.73000 254.008
40.74000 258.819
40.75000 256.870
40.76000 255.353
40.77000 252.792
40.78000 249.013
40.79000 245.245
40.80000 244.162
40.81000 245.089
40.82000 245.998
40.83000 242.790
40.84000 237.716
40.85000 233.114
40.86000 235.611
40.87000 240.493
40.88000 245.315
40.89000 249.638
40.90000 253.850
40.91000 257.449
40.92000 254.140
40.93000 250.528
40.94000 246.697
40.95000 242.124
40.96000 237.490
40.97000 236.930
40.98000 245.625
40.99000 254.677
41.00000 260.165
41.01000 256.570
41.02000 253.938
41.03000 253.786
41.04000 256.082
41.05000 258.306
41.06000 254.364
41.07000 246.467
41.08000 238.789
41.09000 234.505
41.10000 231.819
41.11000 229.349
41.12000 229.428
41.13000 230.245
41.14000 231.634
41.15000 236.962
41.16000 243.037
41.17000 248.080
41.18000 247.081
41.19000 245.671
41.20000 244.159
41.21000 242.348
41.22000 240.518
41.23000 239.218
41.24000 238.955
41.25000 238.720
41.26000 238.587
41.27000 238.244
41.28000 238.010
41.29000 240.154
41.30000 244.285
41.31000 248.344
41.32000 248.980
41.33000 247.728
41.34000 246.525
41.35000 246.319
41.36000 246.472
41.37000 246.709
41.38000 247.739
41.39000 248.967
41.40000 249.432
41.41000 245.507
41.42000 240.879
41.43000 237.159
41.44000 238.898
41.45000 240.729
41.46000 240.743
41.47000 236.198
41.48000 231.432
41.49000 229.194
41.50000 231.224
41.51000 233.324
41.52000 234.428
41.53000 239.973
41.54000 243.714
41.55000 244.495
41.56000 243.169
41.57000 241.843
41.58000 240.539
41.59000 239.245
41.60000 238.018
41.61000 240.215
41.62000 243.250
41.63000 245.795
41.64000 244.518
41.65000 242.430
41.66000 240.150
41.67000 236.933
41.68000 233.591
41.69000 230.998
41.70000 227.655
41.71000 224.952
41.72000 224.649
41.73000 229.548
41.74000 234.627
41.75000 235.058
41.76000 228.750
41.77000 222.386
41.78000 221.989
41.79000 227.166
41.80000 232.346
41.81000 237.803
41.82000 243.429
41.83000 248.676
41.84000 245.525
41.85000 238.927
41.86000 232.768
41.87000 232.151
41.88000 232.977
41.89000 233.734
41.90000 234.049
41.91000 234.285
41.92000 234.071
41.93000 231.983
41.94000 229.689
41.95000 227.978
41.96000 231.988
41.97000 235.373
41.98000 239.297
41.99000 244.227
42.00000 249.180
42.01000 248.358
42.02000 240.383
42.03000 232.403
42.04000 229.524
42.05000 230.685
42.06000 231.860
42.07000 233.645
42.08000 235.752
42.09000 237.875
42.10000 240.269
42.11000 242.760
42.12000 245.044
42.13000 242.907
42.14000 240.074
42.15000 238.203
42.16000 241.579
42.17000 245.748
42.18000 248.870
42.19000 248.257
42.20000 247.313
42.21000 246.639
42.22000 239.320
42.23000 233.514
42.24000 229.222
42.25000 227.369
42.26000 225.548
42.27000 228.148
42.28000 235.389
42.29000 242.592
42.30000 241.698
42.31000 235.398
42.32000 229.260
42.33000 227.629
42.34000 228.042
42.35000 228.408
42.36000 228.172
42.37000 227.752
42.38000 227.374
42.39000 226.442
42.40000 225.529
42.41000 225.457
42.42000 229.279
42.43000 233.589
42.44000 236.536
42.45000 235.293
42.46000 233.758
42.47000 232.712
42.48000 230.291
42.49000 228.451
42.50000 226.752
42.51000 225.248
42.52000 223.747
42.53000 225.076
42.54000 228.911
42.55000 232.705
42.56000 231.835
42.57000 228.333
42.58000 225.133
42.59000 227.982
42.60000 233.201
42.61000 237.382
42.62000 230.926
42.63000 221.678
42.64000 213.561
42.65000 217.271
42.66000 222.188
42.67000 226.719
42.68000 229.722
42.69000 232.567
42.70000 232.555
42.71000 224.976
42.72000 216.991
42.73000 211.839
42.74000 218.744
42.75000 223.961
42.76000 226.186
42.77000 224.892
42.78000 223.605
42.79000 224.894
42.80000 228.122
42.81000 231.292
42.82000 231.424
42.83000 230.080
42.84000 228.922
42.85000 230.576
42.86000 233.180
42.87000 234.820
42.88000 228.399
42.89000 220.168
42.90000 213.128
42.91000 220.088
42.92000 227.641
42.93000 232.348
42.94000 227.381
42.95000 221.617
42.96000 218.816
42.97000 222.792
42.98000 227.033
42.99000 229.611
43.00000 235.670
43.01000 240.022
43.02000 238.412
43.03000 230.878
43.04000 223.386
43.05000 219.658
43.06000 218.357
43.07000 217.092
43.08000 217.704
43.09000 219.061
43.10000 220.458
43.11000 222.343
43.12000 224.369
43.13000 226.170
43.14000 226.408
43.15000 226.347
43.16000 226.296
43.17000 222.357
43.18000 218.718
43.19000 216.235
43.20000 217.136
43.21000 218.254
43.22000 218.395
43.23000 216.606
43.24000 214.766
43.25000 213.720
43.26000 222.437
43.27000 228.536
43.28000 232.103
43.29000 233.542
43.30000 234.893
43.31000 231.943
43.32000 226.608
43.33000 221.477
43.34000 223.598
43.35000 228.126
43.36000 232.200
43.37000 231.919
43.38000 230.551
43.39000 229.238
43.40000 228.245
43.41000 227.304
43.42000 226.546
43.43000 228.113
43.44000 229.565
43.45000 229.085
43.46000 223.723
43.47000 218.124
43.48000 215.799
43.49000 219.041
43.50000 222.376
43.51000 224.135
43.52000 216.170
43.53000 210.805
43.54000 212.504
43.55000 219.263
43.56000 225.868
43.57000 227.603
43.58000 227.007
43.59000 226.441
43.60000 227.042
43.61000 227.942
43.62000 229.000
43.63000 231.298
43.64000 233.861
43.65000 234.928
43.66000 228.651
43.67000 221.387
43.68000 215.742
43.69000 217.510
43.70000 219.368
43.71000 221.579
43.72000 224.558
43.73000 227.563
43.74000 228.516
43.75000 226.473
43.76000 224.404
43.77000 224.189
43.78000 225.717
43.79000 227.196
43.80000 225.168
43.81000 220.985
43.82000 216.769
43.83000 211.805
43.84000 206.532
43.85000 201.606
43.86000 206.216
43.87000 212.796
43.88000 218.409
43.89000 217.707
43.90000 215.862
43.91000 214.339
43.92000 214.169
43.93000 214.148
43.94000 214.133
43.95000 215.511
43.96000 216.650
43.97000 217.484
43.98000 217.747
43.99000 217.996
44.00000 215.028
44.01000 208.049
44.02000 201.070
44.03000 202.501
44.04000 210.607
44.05000 218.601
44.06000 221.811
44.07000 222.491
44.08000 223.014
44.09000 220.891
44.10000 217.825
44.11000 215.013
44.12000 219.167
44.13000 224.347
44.14000 228.462
44.15000 226.729
44.16000 224.106
44.17000 223.000
44.18000 227.335
44.19000 232.158
44.20000 235.609
44.21000 230.160
44.22000 225.699
44.23000 222.342
44.24000 220.772
44.25000 219.227
44.26000 217.701
44.27000 216.196
44.28000 214.699
44.29000 217.432
44.30000 222.981
44.31000 228.413
44.32000 230.545
44.33000 231.172
44.34000 231.639
44.35000 230.035
44.36000 227.794
44.37000 225.780
44.38000 226.772
44.39000 228.175
44.40000 229.047
44.41000 227.444
44.42000 225.528
44.43000 223.779
44.44000 222.541
44.45000 221.339
44.46000 220.519
44.47000 228.556
44.48000 234.770
44.49000 237.289
44.50000 234.676
44.51000 232.031
44.52000 230.285
44.53000 229.341
44.54000 228.407
44.55000 226.177
44.56000 223.254
44.57000 220.633
44.58000 224.150
44.59000 230.086
44.60000 235.560
44.61000 236.265
44.62000 235.710
44.63000 235.222
44.64000 235.503
44.65000 235.857
44.66000 236.468
44.67000 238.099
44.68000 239.836
44.69000 239.593
44.70000 234.079
44.71000 228.279
44.72000 224.529
44.73000 238.485
44.74000 248.950
44.75000 252.625
44.76000 248.262
44.77000 243.905
44.78000 243.977
44.79000 247.407
44.80000 250.777
44.81000 252.250
44.82000 252.749
44.83000 253.319
44.84000 254.976
44.85000 257.003
44.86000 259.061
44.87000 261.384
44.88000 263.767
44.89000 265.807
44.90000 267.078
44.91000 268.057
44.92000 268.486
44.93000 267.033
44.94000 265.424
44.95000 265.342
44.96000 268.774
44.97000 272.346
44.98000 274.522
44.99000 277.812
45.00000 280.172
45.01000 279.316
45.02000 275.243
45.03000 271.236
45.04000 273.268
45.05000 279.218
45.06000 285.009
45.07000 287.639
45.08000 288.833
45.09000 289.263
45.10000 280.502
45.11000 269.049
45.12000 258.869
45.13000 257.555
45.14000 257.945
45.15000 258.270
45.16000 258.331
45.17000 258.356
45.18000 259.159
45.19000 262.254
45.20000 265.499
45.21000 266.207
45.22000 261.883
45.23000 257.422
45.24000 254.878
45.25000 254.515
45.26000 254.274
45.27000 257.090
45.28000 262.494
45.29000 267.710
45.30000 263.565
45.31000 254.197
45.32000 245.182
45.33000 245.006
45.34000 247.958
45.35000 250.580
45.36000 250.022
45.37000 248.664
45.38000 247.061
45.39000 244.024
45.40000 240.754
45.41000 238.118
45.42000 239.702
45.43000 241.319
45.44000 241.469
45.45000 237.889
45.46000 234.125
45.47000 232.446
45.48000 234.333
45.49000 236.281
45.50000 237.311
45.51000 235.392
45.52000 234.068
45.53000 229.996
45.54000 223.942
45.55000 218.026
45.56000 216.549
45.57000 217.207
45.58000 217.833
45.59000 216.615
45.60000 214.939
45.61000 213.841
45.62000 217.325
45.63000 221.792
45.64000 225.601
45.65000 226.159
45.66000 226.277
45.67000 226.369
45.68000 218.209
45.69000 211.206
45.70000 206.146
45.71000 205.350
45.72000 204.706
45.73000 204.838
45.74000 206.110
45.75000 207.392
45.76000 208.923
45.77000 210.688
45.78000 212.424
45.79000 211.974
45.80000 210.173
45.81000 208.352
45.82000 206.094
45.83000 203.654
45.84000 201.373
45.85000 199.962
45.86000 198.902
45.87000 198.257
45.88000 200.347
45.89000 202.935
45.90000 204.766
45.91000 203.409
45.92000 201.696
45.93000 200.414
45.94000 206.202
45.95000 211.048
45.96000 212.625
45.97000 208.013
45.98000 203.253
45.99000 200.978
46.00000 201.819
46.01000 202.669
46.02000 202.525
46.03000 201.587
46.04000 200.729
46.05000 203.344
46.06000 207.806
46.07000 211.869
46.08000 209.181
46.09000 204.071
46.10000 199.380
46.11000 198.544
46.12000 198.622
46.13000 199.340
46.14000 203.602
46.15000 208.409
46.16000 210.801
46.17000 204.477
46.18000 197.367
46.19000 192.269
46.20000 199.420
46.21000 205.305
46.22000 207.766
46.23000 204.649
46.24000 201.453
46.25000 199.768
46.26000 199.690
46.27000 199.613
46.28000 200.868
46.29000 203.012
46.30000 204.984
46.31000 202.022
46.32000 196.796
46.33000 192.122
46.34000 194.675
46.35000 199.462
46.36000 203.769
46.37000 201.061
46.38000 197.435
46.39000 194.665
46.40000 195.916
46.41000 197.679
46.42000 199.024
46.43000 199.068
46.44000 199.020
46.45000 198.986
46.46000 197.921
46.47000 197.100
46.48000 197.820
46.49000 200.696
46.50000 203.581
46.51000 199.884
46.52000 190.279
46.53000 180.772
46.54000 181.869
46.55000 189.050
46.56000 195.905
46.57000 196.054
46.58000 193.544
46.59000 191.269
46.60000 191.450
46.61000 192.283
46.62000 193.016
46.63000 196.693
46.64000 200.294
46.65000 202.931
46.66000 201.698
46.67000 200.061
46.68000 197.654
46.69000 193.182
46.70000 188.597
46.71000 185.625
46.72000 187.528
46.73000 188.993
46.74000 188.412
46.75000 185.393
46.76000 182.392
46.77000 184.496
46.78000 190.497
46.79000 196.393
46.80000 196.618
46.81000 194.055
46.82000 191.664
46.83000 191.945
46.84000 193.141
46.85000 193.689
46.86000 188.741
46.87000 182.543
46.88000 177.229
46.89000 184.424
46.90000 192.028
46.91000 197.544
46.92000 195.873
46.93000 193.598
46.94000 191.787
46.95000 191.050
46.96000 190.355
46.97000 189.931
46.98000 192.941
46.99000 195.122
47.00000 194.411
47.01000 190.785
47.02000 187.200
47.03000 187.427
47.04000 190.145
47.05000 192.790
47.06000 191.319
47.07000 188.200
47.08000 185.413
47.09000 186.661
47.10000 189.097
47.11000 190.854
47.12000 187.846
47.13000 183.915
47.14000 180.639
47.15000 190.834
47.16000 200.619
47.17000 207.368
47.18000 205.126
47.19000 202.290
47.20000 199.481
47.21000 196.722
47.22000 193.965
47.23000 192.388
47.24000 195.484
47.25000 197.655
47.26000 195.033
47.27000 188.330
47.28000 181.740
47.29000 180.859
47.30000 183.183
47.31000 185.421
47.32000 187.396
47.33000 189.156
47.34000 190.569
47.35000 188.601
47.36000 185.778
47.37000 183.334
47.38000 183.125
47.39000 183.281
47.40000 183.407
47.41000 185.903
47.42000 188.119
47.43000 189.383
47.44000 188.212
47.45000 186.919
47.46000 186.077
47.47000 186.011
47.48000 185.958
47.49000 185.930
47.50000 182.864
47.51000 180.794
47.52000 181.567
47.53000 184.405
47.54000 187.153
47.55000 186.992
47.56000 185.422
47.57000 183.930
47.58000 185.534
47.59000 187.948
47.60000 190.203
47.61000 191.191
47.62000 191.905
47.63000 192.316
47.64000 191.214
47.65000 189.907
47.66000 188.887
47.67000 186.214
47.68000 183.980
47.69000 181.606
47.70000 178.918
47.71000 176.219
47.72000 175.797
47.73000 178.740
47.74000 181.713
47.75000 181.698
47.76000 178.833
47.77000 176.023
47.78000 177.378
47.79000 181.323
47.80000 185.170
47.81000 186.731
47.82000 187.338
47.83000 187.905
47.84000 183.764
47.85000 178.803
47.86000 175.080
47.87000 179.569
47.88000 185.565
47.89000 190.170
47.90000 188.876
47.91000 186.919
47.92000 185.451
47.93000 181.961
47.94000 179.140
47.95000 178.362
47.96000 181.474
47.97000 184.680
47.98000 186.533
47.99000 186.678
48.00000 186.817
48.01000 185.910
48.02000 184.163
48.03000 182.452
48.04000 182.291
48.05000 182.959
48.06000 183.390
48.07000 179.765
48.08000 174.677
48.09000 170.001
48.10000 173.788
48.11000 178.986
48.12000 183.373
48.13000 183.243
48.14000 182.415
48.15000 180.842
48.16000 176.564
48.17000 172.040
48.18000 168.790
48.19000 171.110
48.20000 173.078
48.21000 175.697
48.22000 179.383
48.23000 183.083
48.24000 183.121
48.25000 179.233
48.26000 175.363
48.27000 176.195
48.28000 180.226
48.29000 184.202
48.30000 186.595
48.31000 188.256
48.32000 189.750
48.33000 189.026
48.34000 187.612
48.35000 186.339
48.36000 181.828
48.37000 177.290
48.38000 174.032
48.39000 176.823
48.40000 180.391
48.41000 183.504
48.42000 185.195
48.43000 186.783
48.44000 187.870
48.45000 188.029
48.46000 188.126
48.47000 187.108
48.48000 184.525
48.49000 181.932
48.50000 181.289
48.51000 182.408
48.52000 183.515
48.53000 183.575
48.54000 183.025
48.55000 182.607
48.56000 184.910
48.57000 188.299
48.58000 190.857
48.59000 184.678
48.60000 176.163
48.61000 168.667
48.62000 170.662
48.63000 173.801
48.64000 178.097
48.65000 187.066
48.66000 196.528
48.67000 201.874
48.68000 196.126
48.69000 189.763
48.70000 185.630
48.71000 185.135
48.72000 184.828
48.73000 183.878
48.74000 182.159
48.75000 180.450
48.76000 181.612
48.77000 184.979
48.78000 188.289
48.79000 187.614
48.80000 184.995
48.81000 182.315
48.82000 178.666
48.83000 174.685
48.84000 171.362
48.85000 173.665
48.86000 177.256
48.87000 180.337
48.88000 179.997
48.89000 179.289
48.90000 178.680
48.91000 178.415
48.92000 178.180
48.93000 179.457
48.94000 184.251
48.95000 189.189
48.96000 192.213
48.97000 180.925
48.98000 172.722
48.99000 170.832
49.00000 175.350
49.01000 179.840
49.02000 181.754
49.03000 181.975
49.04000 182.189
49.05000 177.911
49.06000 171.945
49.07000 166.641
49.08000 169.445
49.09000 174.653
49.10000 178.971
49.11000 176.993
49.12000 173.787
49.13000 171.113
49.14000 171.400
49.15000 171.935
49.16000 172.196
49.17000 171.641
49.18000 171.033
49.19000 172.219
49.20000 177.012
49.21000 181.906
49.22000 184.713
49.23000 182.697
49.24000 181.270
49.25000 179.721
49.26000 178.067
49.27000 176.463
49.28000 177.487
49.29000 179.997
49.30000 182.414
49.31000 179.546
49.32000 174.964
49.33000 170.626
49.34000 168.674
49.35000 167.331
49.36000 167.098
49.37000 173.441
49.38000 180.866
49.39000 186.868
49.40000 185.479
49.41000 183.756
49.42000 182.284
49.43000 181.456
49.44000 180.661
49.45000 179.475
49.46000 177.612
49.47000 175.736
49.48000 174.738
49.49000 178.795
49.50000 181.548
49.51000 182.097
49.52000 181.034
49.53000 179.956
49.54000 178.343
49.55000 176.471
49.56000 174.691
49.57000 173.557
49.58000 172.705
49.59000 171.764
49.60000 170.110
49.61000 168.300
49.62000 167.375
49.63000 170.876
49.64000 174.987
49.65000 178.195
49.66000 174.262
49.67000 170.677
49.68000 168.219
49.69000 168.263
49.70000 168.398
49.71000 169.869
49.72000 173.329
49.73000 176.806
49.74000 178.395
49.75000 178.169
49.76000 177.922
49.77000 176.048
49.78000 173.156
49.79000 170.476
49.80000 172.745
49.81000 177.095
49.82000 181.166
49.83000 178.814
49.84000 175.027
49.85000 171.154
49.86000 166.700
49.87000 162.138
49.88000 159.024
49.89000 162.082
49.90000 165.840
49.91000 168.663
49.92000 166.763
49.93000 165.052
49.94000 166.327
49.95000 173.325
49.96000 180.464
49.97000 181.268
49.98000 174.022
49.99000 166.758
50.00000 164.554
50.01000 166.459
50.02000 168.392
50.03000 171.573
50.04000 175.426
50.05000 179.140
50.06000 180.441
50.07000 180.866
50.08000 181.257
50.09000 175.450
50.10000 168.922
50.11000 163.530
50.12000 164.515
50.13000 166.492
50.14000 167.840
50.15000 166.896
50.16000 165.740
50.17000 164.908
50.18000 172.562
50.19000 178.720
50.20000 181.868
50.21000 180.051
50.22000 178.160
50.23000 176.540
50.24000 175.211
50.25000 173.888
50.26000 173.735
50.27000 174.387
50.28000 175.109
50.29000 177.880
50.30000 181.603
50.31000 184.944
50.32000 183.180
50.33000 179.818
50.34000 176.789
50.35000 180.180
50.36000 184.320
50.37000 188.536
50.38000 193.116
50.39000 197.743
50.40000 200.205
50.41000 195.859
50.42000 191.017
50.43000 187.694
50.44000 185.334
50.45000 183.588
50.46000 182.891
50.47000 183.679
50.48000 184.476
50.49000 183.441
50.50000 180.739
50.51000 178.063
50.52000 180.846
50.53000 186.756
50.54000 192.497
50.55000 194.681
50.56000 195.437
50.57000 196.204
50.58000 197.082
50.59000 197.990
50.60000 198.790
50.61000 198.947
50.62000 198.985
50.63000 199.738
50.64000 203.392
50.65000 207.354
50.66000 209.106
50.67000 204.867
50.68000 200.292
50.69000 197.314
50.70000 194.289
50.71000 192.071
50.72000 190.880
50.73000 190.930
50.74000 190.989
50.75000 192.478
50.76000 195.072
50.77000 197.623
50.78000 196.043
50.79000 192.463
50.80000 189.218
50.81000 191.271
50.82000 195.157
50.83000 198.008
50.84000 191.920
50.85000 183.774
50.86000 176.775
50.87000 180.059
50.88000 184.113
50.89000 186.408
50.90000 182.574
50.91000 178.216
50.92000 175.364
50.93000 176.037
50.94000 176.856
50.95000 177.359
50.96000 180.752
50.97000 183.209
50.98000 181.253
50.99000 174.786
51.00000 168.388
51.01000 168.660
51.02000 173.342
51.03000 177.904
51.04000 174.470
51.05000 167.815
51.06000 161.909
51.07000 165.268
51.08000 171.390
51.09000 176.547
51.10000 174.820
51.11000 171.744
51.12000 169.175
51.13000 165.459
51.14000 162.260
51.15000 160.115
51.16000 161.134
51.17000 162.366
51.18000 163.760
51.19000 165.482
51.20000 167.213
51.21000 168.209
51.22000 164.435
51.23000 161.777
51.24000 159.004
51.25000 156.131
51.26000 153.336
51.27000 154.711
51.28000 158.455
51.29000 162.063
51.30000 161.287
51.31000 158.983
51.32000 157.037
51.33000 158.648
51.34000 161.171
51.35000 163.353
51.36000 163.502
51.37000 163.314
51.38000 163.163
51.39000 163.907
51.40000 164.585
51.41000 164.718
51.42000 163.441
51.43000 162.091
51.44000 159.753
51.45000 155.693
51.46000 151.601
51.47000 149.416
51.48000 160.034
51.49000 167.252
51.50000 169.055
51.51000 166.878
51.52000 164.776
51.53000 165.202
51.54000 166.864
51.55000 168.446
51.56000 167.493
51.57000 165.839
51.58000 164.332
51.59000 164.027
51.60000 163.986
51.61000 163.551
51.62000 161.139
51.63000 158.452
51.64000 156.351
51.65000 155.520
51.66000 154.937
51.67000 156.850
51.68000 164.337
51.69000 172.031
51.70000 173.795
51.71000 166.687
51.72000 159.494
51.73000 158.637
51.74000 163.906
51.75000 169.142
51.76000 171.774
51.77000 172.767
51.78000 173.600
51.79000 170.655
51.80000 166.112
51.81000 161.858
51.82000 159.676
51.83000 158.228
51.84000 156.816
51.85000 155.653
51.86000 154.536
51.87000 154.731
51.88000 160.559
51.89000 167.031
51.90000 171.900
51.91000 165.315
51.92000 159.611
51.93000 154.957
51.94000 152.329
51.95000 149.751
51.96000 149.167
51.97000 151.134
51.98000 153.107
51.99000 152.820
52.00000 150.690
52.01000 148.603
52.02000 148.510
52.03000 149.497
52.04000 150.505
52.05000 151.886
52.06000 153.402
52.07000 154.798
52.08000 158.083
52.09000 161.430
52.10000 164.003
52.11000 162.202
52.12000 159.715
52.13000 158.373
52.14000 161.236
52.15000 164.489
52.16000 166.835
52.17000 165.086
52.18000 163.600
52.19000 163.002
52.20000 163.877
52.21000 164.774
52.22000 163.316
52.23000 159.298
52.24000 155.297
52.25000 154.411
52.26000 155.690
52.27000 157.008
52.28000 159.488
52.29000 162.511
52.30000 165.328
52.31000 165.377
52.32000 164.553
52.33000 163.810
52.34000 162.503
52.35000 161.252
52.36000 159.481
52.37000 155.217
52.38000 150.628
52.39000 148.576
52.40000 154.548
52.41000 161.111
52.42000 165.623
52.43000 172.744
52.44000 178.150
52.45000 176.852
52.46000 166.005
52.47000 155.090
52.48000 150.674
52.49000 152.210
52.50000 153.732
52.51000 155.814
52.52000 158.183
52.53000 160.407
52.54000 159.549
52.55000 157.448
52.56000 155.425
52.57000 154.234
52.58000 153.270
52.59000 152.419
52.60000 156.310
52.61000 160.385
52.62000 163.158
52.63000 160.614
52.64000 157.500
52.65000 156.051
52.66000 159.141
52.67000 162.489
52.68000 164.673
52.69000 159.518
52.70000 155.618
52.71000 155.805
52.72000 160.959
52.73000 166.102
52.74000 165.430
52.75000 160.235
52.76000 155.125
52.77000 153.241
52.78000 153.030
52.79000 152.823
52.80000 152.667
52.81000 152.530
52.82000 152.796
52.83000 156.559
52.84000 161.134
52.85000 165.068
52.86000 162.085
52.87000 158.693
52.88000 156.302
52.89000 157.414
52.90000 158.829
52.91000 159.462
52.92000 158.249
52.93000 156.960
52.94000 156.166
52.95000 156.773
52.96000 157.221
52.97000 157.625
52.98000 157.984
52.99000 158.326
53.00000 156.953
53.01000 154.441
53.02000 151.991
53.03000 153.603
53.04000 156.870
53.05000 159.848
53.06000 159.224
53.07000 157.520
53.08000 155.337
53.09000 149.721
53.10000 143.428
53.11000 138.166
53.12000 144.796
53.13000 151.514
53.14000 155.889
53.15000 153.196
53.16000 150.022
53.17000 146.958
53.18000 144.114
53.19000 141.276
53.20000 139.640
53.21000 146.998
53.22000 152.180
53.23000 153.535
53.24000 151.565
53.25000 149.690
53.26000 152.921
53.27000 159.073
53.28000 165.004
53.29000 162.805
53.30000 157.793
53.31000 152.966
53.32000 149.977
53.33000 147.463
53.34000 145.731
53.35000 148.694
53.36000 152.442
53.37000 155.479
53.38000 152.996
53.39000 150.523
53.40000 148.363
53.41000 147.016
53.42000 145.712
53.43000 146.843
53.44000 152.243
53.45000 157.722
53.46000 160.659
53.47000 159.180
53.48000 158.181
53.49000 159.641
53.50000 162.919
53.51000 165.960
53.52000 160.831
53.53000 151.677
53.54000 142.966
53.55000 142.242
53.56000 144.026
53.57000 145.517
53.58000 144.610
53.59000 143.175
53.60000 142.901
53.61000 148.514
53.62000 154.948
53.63000 159.986
53.64000 161.041
53.65000 161.629
53.66000 160.717
53.67000 156.435
53.68000 152.026
53.69000 148.507
53.70000 146.330
53.71000 144.166
53.72000 146.316
53.73000 152.667
53.74000 158.978
53.75000 162.126
53.76000 163.270
53.77000 164.222
53.78000 160.552
53.79000 154.917
53.80000 149.637
53.81000 152.161
53.82000 156.490
53.83000 160.224
53.84000 159.926
53.85000 158.873
53.86000 156.958
53.87000 151.318
53.88000 145.249
53.89000 140.677
53.90000 140.705
53.91000 140.952
53.92000 143.808
53.93000 151.724
53.94000 159.768
53.95000 163.225
53.96000 160.773
53.97000 158.301
53.98000 156.143
53.99000 154.248
54.00000 152.415
54.01000 153.421
54.02000 155.974
54.03000 158.208
54.04000 154.792
54.05000 149.301
54.06000 144.245
54.07000 143.405
54.08000 143.580
54.09000 143.762
54.10000 143.989
54.11000 144.222
54.12000 143.928
54.13000 141.681
54.14000 139.251
54.15000 137.496
54.16000 145.606
54.17000 152.181
54.18000 157.834
54.19000 161.946
54.20000 166.034
54.21000 165.650
54.22000 160.375
54.23000 155.120
54.24000 154.359
54.25000 156.735
54.26000 159.022
54.27000 158.640
54.28000 157.004
54.29000 155.405
54.30000 154.324
54.31000 153.406
54.32000 152.578
54.33000 150.710
54.34000 148.876
54.35000 147.188
54.36000 146.201
54.37000 145.306
54.38000 145.090
54.39000 147.037
54.40000 149.145
54.41000 150.596
54.42000 150.746
54.43000 150.825
54.44000 149.861
54.45000 147.401
54.46000 144.929
54.47000 143.387
54.48000 142.703
54.49000 142.025
54.50000 143.016
54.51000 144.972
54.52000 146.943
54.53000 149.206
54.54000 151.588
54.55000 153.675
54.56000 152.577
54.57000 150.612
54.58000 148.877
54.59000 146.237
54.60000 143.819
54.61000 142.386
54.62000 144.995
54.63000 148.042
54.64000 150.778
54.65000 152.662
54.66000 154.497
54.67000 155.697
54.68000 154.994
54.69000 154.448
54.70000 153.654
54.71000 152.558
54.72000 151.466
54.73000 151.546
54.74000 152.544
54.75000 153.525
54.76000 153.657
54.77000 153.357
54.78000 152.746
54.79000 147.099
54.80000 139.687
54.81000 133.638
54.82000 139.531
54.83000 148.210
54.84000 155.682
54.85000 156.929
54.86000 157.199
54.87000 158.143
54.88000 161.462
54.89000 164.989
54.90000 166.648
54.91000 163.884
54.92000 160.933
54.93000 159.111
54.94000 165.313
54.95000 169.840
54.96000 170.315
54.97000 166.592
54.98000 162.885
54.99000 160.837
55.00000 159.900
55.01000 158.986
55.02000 158.335
55.03000 157.826
55.04000 157.253
55.05000 155.879
55.06000 154.264
55.07000 152.691
55.08000 151.431
55.09000 150.233
55.10000 149.230
55.11000 153.340
55.12000 157.281
55.13000 159.628
55.14000 157.137
55.15000 154.315
55.16000 153.992
55.17000 158.782
55.18000 163.724
55.19000 166.582
55.20000 164.936
55.21000 163.763
55.22000 160.783
55.23000 156.225
55.24000 151.745
55.25000 151.629
55.26000 154.024
55.27000 156.334
55.28000 155.399
55.29000 153.337
55.30000 151.803
55.31000 155.592
55.32000 160.761
55.33000 165.730
55.34000 169.493
55.35000 173.054
55.36000 175.943
55.37000 171.095
55.38000 166.504
55.39000 163.457
55.40000 164.452
55.41000 165.658
55.42000 167.406
55.43000 170.108
55.44000 172.828
55.45000 174.290
55.46000 176.936
55.47000 178.755
55.48000 182.578
55.49000 187.893
55.50000 193.120
55.51000 195.259
55.52000 195.868
55.53000 196.447
55.54000 196.632
55.55000 196.680
55.56000 196.245
55.57000 191.834
55.58000 186.542
55.59000 183.527
55.60000 192.146
55.61000 202.401
55.62000 210.441
55.63000 208.676
55.64000 206.631
55.65000 207.882
55.66000 216.583
55.67000 225.568
55.68000 231.843
55.69000 234.010
55.70000 236.135
55.71000 235.061
55.72000 230.853
55.73000 226.780
55.74000 233.994
55.75000 248.401
55.76000 262.231
55.77000 262.038
55.78000 255.845
55.79000 250.037
55.80000 257.819
55.81000 268.468
55.82000 277.723
55.83000 277.470
55.84000 275.425
55.85000 274.051
55.86000 275.593
55.87000 277.474
55.88000 278.893
55.89000 272.585
55.90000 267.259
55.91000 266.453
55.92000 274.463
55.93000 282.702
55.94000 284.236
55.95000 277.080
55.96000 269.897
55.97000 265.634
55.98000 263.801
55.99000 261.841
56.00000 253.895
56.01000 242.667
56.02000 232.070
56.03000 232.762
56.04000 237.625
56.05000 242.106
56.06000 237.987
56.07000 232.399
56.08000 227.532
56.09000 226.789
56.10000 226.701
56.11000 225.462
56.12000 219.940
56.13000 214.014
56.14000 209.726
56.15000 215.873
56.16000 220.972
56.17000 220.673
56.18000 211.307
56.19000 201.797
56.20000 193.918
56.21000 187.833
56.22000 181.775
56.23000 180.220
56.24000 181.835
56.25000 183.395
56.26000 183.282
56.27000 182.377
56.28000 181.378
56.29000 179.102
56.30000 176.419
56.31000 173.995
56.32000 173.175
56.33000 172.752
56.34000 171.823
56.35000 168.443
56.36000 164.738
56.37000 162.544
56.38000 165.184
56.39000 168.188
56.40000 170.262
56.41000 159.883
56.42000 151.765
56.43000 148.649
56.44000 152.744
56.45000 156.897
56.46000 159.458
56.47000 160.541
56.48000 161.613
56.49000 160.047
56.50000 156.939
56.51000 153.953
56.52000 153.626
56.53000 154.385
56.54000 154.794
56.55000 151.395
56.56000 146.952
56.57000 143.027
56.58000 143.483
56.59000 144.552
56.60000 145.138
56.61000 143.721
56.62000 142.086
56.63000 140.592
56.64000 139.488
56.65000 138.407
56.66000 137.698
56.67000 141.876
56.68000 145.028
56.69000 146.749
56.70000 146.709
56.71000 146.657
56.72000 144.265
56.73000 140.029
56.74000 135.861
56.75000 137.262
56.76000 141.440
56.77000 145.390
56.78000 145.604
56.79000 144.501
56.80000 143.453
56.81000 142.896
56.82000 142.454
56.83000 142.072
56.84000 139.126
56.85000 136.301
56.86000 134.771
56.87000 137.827
56.88000 141.287
56.89000 143.672
56.90000 143.496
56.91000 143.210
56.92000 143.033
56.93000 141.727
56.94000 140.777
56.95000 140.550
56.96000 141.075
56.97000 141.597
56.98000 141.709
56.99000 141.545
57.00000 141.384
57.01000 141.586
57.02000 141.934
57.03000 142.232
57.04000 141.896
57.05000 141.368
57.06000 140.895
57.07000 140.829
57.08000 140.844
57.09000 140.857
57.10000 141.272
57.11000 141.659
57.12000 141.114
57.13000 137.722
57.14000 134.132
57.15000 131.799
57.16000 132.048
57.17000 132.375
57.18000 132.565
57.19000 141.336
57.20000 147.523
57.21000 150.006
57.22000 149.230
57.23000 148.398
57.24000 144.423
57.25000 138.629
57.26000 133.038
57.27000 133.617
57.28000 136.423
57.29000 139.209
57.30000 141.777
57.31000 144.288
57.32000 146.642
57.33000 148.046
57.34000 149.289
57.35000 150.299
57.36000 146.209
57.37000 142.447
57.38000 140.380
57.39000 142.776
57.40000 145.408
57.41000 145.355
57.42000 140.541
57.43000 135.635
57.44000 132.989
57.45000 133.280
57.46000 133.482
57.47000 133.695
57.48000 133.917
57.49000 134.188
57.50000 136.222
57.51000 139.136
57.52000 141.911
57.53000 140.703
57.54000 138.342
57.55000 136.372
57.56000 137.644
57.57000 139.640
57.58000 140.766
57.59000 137.421
57.60000 133.443
57.61000 130.319
57.62000 135.249
57.63000 139.720
57.64000 141.992
57.65000 139.266
57.66000 136.346
57.67000 135.641
57.68000 138.310
57.69000 141.015
57.70000 143.284
57.71000 145.122
57.72000 146.973
57.73000 149.914
57.74000 153.552
57.75000 156.893
57.76000 152.906
57.77000 145.764
57.78000 139.062
57.79000 137.687
57.80000 137.839
57.81000 138.209
57.82000 140.082
57.83000 142.240
57.84000 143.700
57.85000 142.106
57.86000 140.155
57.87000 138.681
57.88000 130.144
57.89000 123.096
57.90000 119.940
57.91000 124.422
57.92000 129.105
57.93000 133.978
57.94000 139.099
57.95000 144.215
57.96000 144.132
57.97000 139.719
57.98000 135.400
57.99000 135.643
58.00000 138.402
58.01000 140.860
58.02000 137.868
58.03000 132.851
58.04000 128.223
58.05000 129.091
58.06000 131.091
58.07000 133.322
58.08000 136.884
58.09000 140.659
58.10000 142.209
58.11000 135.423
58.12000 127.842
58.13000 122.348
58.14000 126.654
58.15000 130.325
58.16000 132.435
58.17000 131.908
58.18000 131.339
58.19000 131.991
58.20000 133.998
58.21000 135.998
58.22000 136.604
58.23000 136.222
58.24000 135.840
58.25000 135.475
58.26000 135.119
58.27000 134.721
58.28000 133.745
58.29000 132.585
58.30000 131.536
58.31000 130.288
58.32000 129.152
58.33000 128.632
58.34000 131.111
58.35000 133.991
58.36000 136.485
58.37000 137.738
58.38000 138.897
58.39000 139.698
58.40000 139.262
58.41000 138.902
58.42000 136.835
58.43000 132.293
58.44000 127.731
58.45000 124.648
58.46000 122.947
58.47000 121.262
58.48000 122.828
58.49000 126.311
58.50000 129.718
58.51000 131.452
58.52000 132.498
58.53000 133.504
58.54000 134.069
58.55000 134.512
58.56000 134.904
58.57000 135.984
58.58000 137.025
58.59000 136.824
58.60000 131.460
58.61000 125.530
58.62000 122.098
58.63000 125.606
58.64000 129.520
58.65000 132.091
58.66000 128.239
58.67000 125.296
58.68000 127.087
58.69000 134.745
58.70000 142.396
58.71000 143.113
58.72000 138.328
58.73000 133.618
58.74000 133.660
58.75000 136.123
58.76000 138.336
58.77000 136.401
58.78000 132.996
58.79000 130.161
58.80000 132.408
58.81000 135.856
58.82000 138.831
58.83000 135.921
58.84000 132.697
58.85000 130.261
58.86000 130.634
58.87000 131.257
58.88000 131.587
58.89000 131.217
58.90000 130.816
58.91000 130.567
58.92000 131.677
58.93000 132.489
58.94000 133.390
58.95000 134.384
58.96000 135.381
58.97000 136.745
58.98000 138.356
58.99000 139.928
59.00000 141.036
59.01000 141.893
59.02000 142.612
59.03000 141.548
59.04000 139.938
59.05000 138.293
59.06000 136.388
59.07000 134.431
59.08000 132.788
59.09000 132.410
59.10000 132.227
59.11000 132.015
59.12000 131.711
59.13000 131.402
59.14000 132.141
59.15000 135.053
59.16000 138.031
59.17000 139.763
59.18000 132.376
59.19000 127.151
59.20000 125.901
59.21000 128.174
59.22000 130.442
59.23000 132.455
59.24000 134.317
59.25000 136.116
59.26000 133.791
59.27000 130.079
59.28000 126.678
59.29000 126.478
59.30000 127.119
59.31000 128.242
59.32000 132.325
59.33000 136.912
59.34000 140.645
59.35000 139.130
59.36000 137.452
59.37000 135.578
59.38000 133.186
59.39000 130.767
59.40000 128.988
59.41000 128.353
59.42000 127.741
59.43000 127.410
59.44000 130.455
59.45000 132.538
59.46000 133.768
59.47000 134.355
59.48000 134.922
59.49000 134.812
59.50000 134.361
59.51000 133.931
59.52000 132.480
59.53000 130.815
59.54000 129.130
59.55000 127.281
59.56000 125.396
59.57000 123.761
59.58000 123.422
59.59000 123.268
59.60000 123.147
59.61000 126.292
59.62000 129.027
59.63000 131.140
59.64000 131.831
59.65000 132.467
59.66000 131.765
59.67000 129.012
59.68000 126.236
59.69000 127.815
59.70000 133.724
59.71000 139.570
59.72000 139.886
59.73000 136.633
59.74000 133.404
59.75000 130.742
59.76000 128.327
59.77000 126.060
59.78000 126.980
59.79000 128.666
59.80000 130.057
59.81000 129.408
59.82000 128.369
59.83000 127.962
59.84000 130.338
59.85000 133.042
59.86000 135.090
59.87000 132.461
59.88000 130.161
59.89000 128.499
59.90000 128.099
59.91000 127.732
59.92000 129.203
59.93000 133.086
59.94000 136.976
59.95000 137.988
59.96000 136.585
59.97000 135.251
59.98000 137.325
59.99000 141.288
60.00000 144.904
60.01000 142.158
60.02000 137.034
60.03000 132.304
60.04000 130.973
60.05000 130.542
60.06000 131.125
60.07000 137.596
60.08000 145.015
60.09000 149.731
60.10000 144.261
60.11000 137.812
60.12000 133.130
60.13000 136.409
60.14000 139.228
60.15000 141.771
60.16000 143.844
60.17000 145.909
60.18000 146.128
60.19000 144.287
60.20000 142.452
60.21000 140.985
60.22000 139.793
60.23000 138.552
60.24000 135.725
60.25000 132.138
60.26000 128.757
60.27000 128.256
60.28000 128.685
60.29000 129.072
60.30000 129.457
60.31000 129.796
60.32000 130.116
60.33000 130.344
60.34000 130.560
60.35000 130.504
60.36000 129.565
60.37000 128.559
60.38000 127.862
60.39000 132.600
60.40000 136.310
60.41000 138.751
60.42000 139.342
60.43000 139.916
60.44000 140.468
60.45000 141.001
60.46000 141.528
60.47000 136.673
60.48000 128.663
60.49000 121.135
60.50000 124.422
60.51000 132.177
60.52000 139.180
60.53000 137.838
60.54000 134.180
60.55000 130.943
60.56000 132.380
60.57000 134.356
60.58000 135.944
60.59000 135.909
60.60000 135.694
60.61000 135.531
60.62000 135.513
60.63000 135.504
60.64000 135.498
60.65000 135.541
60.66000 135.574
60.67000 136.011
60.68000 136.953
60.69000 137.892
60.70000 137.696
60.71000 136.594
60.72000 135.509
60.73000 134.039
60.74000 132.416
60.75000 130.933
60.76000 131.781
60.77000 133.459
60.78000 134.358
60.79000 128.256
60.80000 120.488
60.81000 113.780
60.82000 118.847
60.83000 124.671
60.84000 128.706
60.85000 126.313
60.86000 123.344
60.87000 123.066
60.88000 129.273
60.89000 135.767
60.90000 139.803
60.91000 138.261
60.92000 137.095
60.93000 137.343
60.94000 139.088
60.95000 140.802
60.96000 138.955
60.97000 134.680
60.98000 130.505
60.99000 133.381
61.00000 139.212
61.01000 144.586
61.02000 144.047
61.03000 141.690
61.04000 139.846
61.05000 141.801
61.06000 144.525
61.07000 146.813
61.08000 142.870
61.09000 138.927
61.10000 135.172
61.11000 131.997
61.12000 128.863
61.13000 128.512
61.14000 133.956
61.15000 139.579
61.16000 142.857
61.17000 137.316
61.18000 133.382
61.19000 130.260
61.20000 127.865
61.21000 125.529
61.22000 126.646
61.23000 129.787
61.24000 132.822
61.25000 131.991
61.26000 129.771
61.27000 127.740
61.28000 127.662
61.29000 128.099
61.30000 129.027
61.31000 132.985
61.32000 137.462
61.33000 141.109
61.34000 138.150
61.35000 135.172
61.36000 133.310
61.37000 134.420
61.38000 135.691
61.39000 136.559
61.40000 136.705
61.41000 136.836
61.42000 136.907
61.43000 137.181
61.44000 137.381
61.45000 140.260
61.46000 145.170
61.47000 149.980
61.48000 151.117
61.49000 150.398
61.50000 149.714
61.51000 153.811
61.52000 159.123
61.53000 164.674
61.54000 172.251
61.55000 180.285
61.56000 188.654
61.57000 198.766
61.58000 209.128
61.59000 217.288
61.60000 214.944
61.61000 212.364
61.62000 214.114
61.63000 225.824
61.64000 237.930
61.65000 247.058
61.66000 251.592
61.67000 256.075
61.68000 258.318
61.69000 270.864
61.70000 279.090
61.71000 274.734
61.72000 262.208
61.73000 250.042
61.74000 246.973
61.75000 247.867
61.76000 248.707
61.77000 246.718
61.78000 244.146
61.79000 240.621
61.80000 230.449
61.81000 219.000
61.82000 207.947
61.83000 198.656
61.84000 189.574
61.85000 182.688
61.86000 174.469
61.87000 167.946
61.88000 161.723
61.89000 156.097
61.90000 150.487
61.91000 147.916
61.92000 149.360
61.93000 150.822
61.94000 148.966
61.95000 144.314
61.96000 139.754
61.97000 139.825
61.98000 142.481
61.99000 144.912
62.00000 143.183
62.01000 139.890
62.02000 136.849
62.03000 136.087
62.04000 135.918
62.05000 135.902
62.06000 136.777
62.07000 137.797
62.08000 139.149
62.09000 141.758
62.10000 144.489
62.11000 146.475
62.12000 142.812
62.13000 139.779
62.14000 138.699
62.15000 140.958
62.16000 143.274
62.17000 144.213
62.18000 143.605
62.19000 142.998
62.20000 138.527
62.21000 131.335
62.22000 124.425
62.23000 126.611
62.24000 133.177
62.25000 139.358
62.26000 140.079
62.27000 139.030
62.28000 138.079
62.29000 142.618
62.30000 147.658
62.31000 150.701
62.32000 143.868
62.33000 135.698
62.34000 129.777
62.35000 131.191
62.36000 133.172
62.37000 134.548
62.38000 135.982
62.39000 137.063
62.40000 137.885
62.41000 138.326
62.42000 138.762
62.43000 139.302
62.44000 139.938
62.45000 140.569
62.46000 140.755
62.47000 140.666
62.48000 140.488
62.49000 138.269
62.50000 135.202
62.51000 132.868
62.52000 138.746
62.53000 146.916
62.54000 154.156
62.55000 147.282
62.56000 139.104
62.57000 132.998
62.58000 135.621
62.59000 139.220
62.60000 141.361
62.61000 139.410
62.62000 137.213
62.63000 135.764
62.64000 137.967
62.65000 139.655
62.66000 140.818
62.67000 141.321
62.68000 141.823
62.69000 142.490
62.70000 143.288
62.71000 144.075
62.72000 142.662
62.73000 140.155
62.74000 137.839
62.75000 138.746
62.76000 140.810
62.77000 142.720
62.78000 143.239
62.79000 143.424
62.80000 143.585
62.81000 142.723
62.82000 141.857
62.83000 140.815
62.84000 139.138
62.85000 137.405
62.86000 136.756
62.87000 138.737
62.88000 140.835
62.89000 142.143
62.90000 143.843
62.91000 145.072
62.92000 145.713
62.93000 145.729
62.94000 145.744
62.95000 145.711
62.96000 145.645
62.97000 145.580
62.98000 145.705
62.99000 145.907
63.00000 146.188
63.01000 147.516
63.02000 149.167
63.03000 150.565
63.04000 150.076
63.05000 149.203
63.06000 148.469
63.07000 150.638
63.08000 152.756
63.09000 153.409
63.10000 149.514
63.11000 145.293
63.12000 143.535
63.13000 146.937
63.14000 150.501
63.15000 152.585
63.16000 148.527
63.17000 145.643
63.18000 144.416
63.19000 144.678
63.20000 144.921
63.21000 143.991
63.22000 142.371
63.23000 140.806
63.24000 138.890
63.25000 136.952
63.26000 135.781
63.27000 142.615
63.28000 151.578
63.29000 159.681
63.30000 162.433
63.31000 164.261
63.32000 165.752
63.33000 160.604
63.34000 155.827
63.35000 152.285
63.36000 152.054
63.37000 152.005
63.38000 152.939
63.39000 155.649
63.40000 158.395
63.41000 159.890
63.42000 148.845
63.43000 141.280
63.44000 140.467
63.45000 144.809
63.46000 148.971
63.47000 146.418
63.48000 140.455
63.49000 134.766
63.50000 140.456
63.51000 149.355
63.52000 157.094
63.53000 154.976
63.54000 150.616
63.55000 147.413
63.56000 150.279
63.57000 154.025
63.58000 156.979
63.59000 151.522
63.60000 146.578
63.61000 143.658
63.62000 145.421
63.63000 147.372
63.64000 149.137
63.65000 150.611
63.66000 152.081
63.67000 152.820
63.68000 155.253
63.69000 156.861
63.70000 156.980
63.71000 156.126
63.72000 155.226
63.73000 153.154
63.74000 150.569
63.75000 148.138
63.76000 150.783
63.77000 154.566
63.78000 157.757
63.79000 156.786
63.80000 155.010
63.81000 153.841
63.82000 155.380
63.83000 157.243
63.84000 158.658
63.85000 160.332
63.86000 161.661
63.87000 162.893
63.88000 163.931
63.89000 164.964
63.90000 165.161
63.91000 164.249
63.92000 163.332
63.93000 161.870
63.94000 159.949
63.95000 158.094
63.96000 159.628
63.97000 163.064
63.98000 166.436
63.99000 168.582
64.00000 170.265
64.01000 171.821
64.02000 166.816
64.03000 160.834
64.04000 156.039
64.05000 158.238
64.06000 161.581
64.07000 164.399
64.08000 165.217
64.09000 165.839
64.10000 166.293
64.11000 161.994
64.12000 158.500
64.13000 156.671
64.14000 157.706
64.15000 158.791
64.16000 159.964
64.17000 161.234
64.18000 162.500
64.19000 162.912
64.20000 162.705
64.21000 162.464
64.22000 161.085
64.23000 159.155
64.24000 157.549
64.25000 160.580
64.26000 165.125
64.27000 169.246
64.28000 169.179
64.29000 168.321
64.30000 166.968
64.31000 163.149
64.32000 158.994
64.33000 157.154
64.34000 162.907
64.35000 169.253
64.36000 173.668
64.37000 173.247
64.38000 172.799
64.39000 169.489
64.40000 161.949
64.41000 154.371
64.42000 151.921
64.43000 154.366
64.44000 156.791
64.45000 158.593
64.46000 159.983
64.47000 161.379
64.48000 162.926
64.49000 164.537
64.50000 165.969
64.51000 165.396
64.52000 164.260
64.53000 163.252
64.54000 164.017
64.55000 164.961
64.56000 166.429
64.57000 170.118
64.58000 174.057
64.59000 176.968
64.60000 176.972
64.61000 176.800
64.62000 176.686
64.63000 173.753
64.64000 171.539
64.65000 169.517
64.66000 167.736
64.67000 165.962
64.68000 165.869
64.69000 167.137
64.70000 168.387
64.71000 169.622
64.72000 170.812
64.73000 171.949
64.74000 172.188
64.75000 172.103
64.76000 172.195
64.77000 173.907
64.78000 176.008
64.79000 177.826
64.80000 179.730
64.81000 181.361
64.82000 183.298
64.83000 186.349
64.84000 189.501
64.85000 191.266
64.86000 189.646
64.87000 187.871
64.88000 186.763
64.89000 184.995
64.90000 183.712
64.91000 185.797
64.92000 191.494
64.93000 197.151
64.94000 197.824
64.95000 195.056
64.96000 192.352
64.97000 192.836
64.98000 194.711
64.99000 196.282
65.00000 193.842
65.01000 190.154
65.02000 186.969
65.03000 187.567
65.04000 188.941
65.05000 190.098
65.06000 191.309
65.07000 192.325
65.08000 193.845
65.09000 196.941
65.10000 200.150
65.11000 203.014
65.12000 205.149
65.13000 207.261
65.14000 208.499
65.15000 218.890
65.16000 226.252
65.17000 227.420
65.18000 222.989
65.19000 218.581
65.20000 215.647
65.21000 213.588
65.22000 211.597
65.23000 212.688
65.24000 214.879
65.25000 217.039
65.26000 218.877
65.27000 220.629
65.28000 221.702
65.29000 218.517
65.30000 214.591
65.31000 211.384
65.32000 216.737
65.33000 221.858
65.34000 226.919
65.35000 231.820
65.36000 236.711
65.37000 238.598
65.38000 235.025
65.39000 231.339
65.40000 229.326
65.41000 237.862
65.42000 243.725
65.43000 246.221
65.44000 246.128
65.45000 246.004
65.46000 244.719
65.47000 242.840
65.48000 241.046
65.49000 242.243
65.50000 244.311
65.51000 246.395
65.52000 248.612
65.53000 250.860
65.54000 252.888
65.55000 253.754
65.56000 254.451
65.57000 255.001
65.58000 265.786
65.59000 275.140
65.60000 281.765
65.61000 282.037
65.62000 282.050
65.63000 283.918
65.64000 288.682
65.65000 293.481
65.66000 295.898
65.67000 332.989
65.68000 357.743
65.69000 379.107
65.70000 398.242
65.71000 417.844
65.72000 449.556
65.73000 486.606
65.74000 521.464
65.75000 575.107
65.76000 629.221
65.77000 681.816
65.78000 723.666
65.79000 763.422
65.80000 802.127
65.81000 836.110
65.82000 869.523
65.83000 894.943
65.84000 909.341
65.85000 920.090
65.86000 927.569
65.87000 928.476
65.88000 929.198
65.89000 926.577
65.90000 919.484
65.91000 912.375
65.92000 898.498
65.93000 878.860
65.94000 858.953
65.95000 824.989
65.96000 783.081
65.97000 740.735
65.98000 690.064
65.99000 636.225
66.00000 586.422
66.01000 540.157
66.02000 499.405
66.03000 459.903
66.04000 427.813
66.05000 396.942
66.06000 369.468
66.07000 355.033
66.08000 341.885
66.09000 332.288
66.10000 319.981
66.11000 310.390
66.12000 302.741
66.13000 298.455
66.14000 294.229
66.15000 290.067
66.16000 285.978
66.17000 281.904
66.18000 281.883
66.19000 284.799
66.20000 287.800
66.21000 293.620
66.22000 300.814
66.23000 307.548
66.24000 307.626
66.25000 305.519
66.26000 303.607
66.27000 306.961
66.28000 310.933
66.29000 316.568
66.30000 330.533
66.31000 345.643
66.32000 360.559
66.33000 374.831
66.34000 389.053
66.35000 398.968
66.36000 403.476
66.37000 406.729
66.38000 407.903
66.39000 405.984
66.40000 404.037
66.41000 407.728
66.42000 416.837
66.43000 425.873
66.44000 426.660
66.45000 422.359
66.46000 418.301
66.47000 419.925
66.48000 423.938
66.49000 426.964
66.50000 418.750
66.51000 407.358
66.52000 397.245
66.53000 383.684
66.54000 371.378
66.55000 360.311
66.56000 354.534
66.57000 349.357
66.58000 342.050
66.59000 328.690
66.60000 314.959
66.61000 305.861
66.62000 313.534
66.63000 319.507
66.64000 322.454
66.65000 321.552
66.66000 320.634
66.67000 318.143
66.68000 314.372
66.69000 310.655
66.70000 311.112
66.71000 313.740
66.72000 316.446
66.73000 320.494
66.74000 325.030
66.75000 328.816
66.76000 325.709
66.77000 320.931
66.78000 316.791
66.79000 316.594
66.80000 316.949
66.81000 317.151
66.82000 316.795
66.83000 316.387
66.84000 315.488
66.85000 313.383
66.86000 311.223
66.87000 309.870
66.88000 320.595
66.89000 328.467
66.90000 333.309
66.91000 334.878
66.92000 336.441
66.93000 337.310
66.94000 337.697
66.95000 338.075
66.96000 338.699
66.97000 339.408
66.98000 340.346
66.99000 344.348
67.00000 349.310
67.01000 353.168
67.02000 348.676
67.03000 342.458
67.04000 337.216
67.05000 338.150
67.06000 339.598
67.07000 341.908
67.08000 346.929
67.09000 352.147
67.10000 354.202
67.11000 349.555
67.12000 344.690
67.13000 341.830
67.14000 357.265
67.15000 368.240
67.16000 374.522
67.17000 376.533
67.18000 378.469
67.19000 375.609
67.20000 369.889
67.21000 364.355
67.22000 366.503
67.23000 371.441
67.24000 376.039
67.25000 377.017
67.26000 377.021
67.27000 377.587
67.28000 381.700
67.29000 386.434
67.30000 390.306
67.31000 391.953
67.32000 393.108
67.33000 393.784
67.34000 393.162
67.35000 392.467
67.36000 392.111
67.37000 392.375
67.38000 392.651
67.39000 392.803
67.40000 397.620
67.41000 400.937
67.42000 403.787
67.43000 406.274
67.44000 408.657
67.45000 406.975
67.46000 403.206
67.47000 399.605
67.48000 404.963
67.49000 412.828
67.50000 419.763
67.51000 418.664
67.52000 415.714
67.53000 413.199
67.54000 412.996
67.55000 413.133
67.56000 413.241
67.57000 422.217
67.58000 430.037
67.59000 438.231
67.60000 447.301
67.61000 456.407
67.62000 460.015
67.63000 454.978
67.64000 449.836
67.65000 447.236
67.66000 453.225
67.67000 457.243
67.68000 462.229
67.69000 467.855
67.70000 473.259
67.71000 472.801
67.72000 469.744
67.73000 466.866
67.74000 468.200
67.75000 470.569
67.76000 472.931
67.77000 475.240
67.78000 477.537
67.79000 478.607
67.80000 474.127
67.81000 468.970
67.82000 465.041
67.83000 483.870
67.84000 499.902
67.85000 511.009
67.86000 512.163
67.87000 513.032
67.88000 509.222
67.89000 499.114
67.90000 488.979
67.91000 489.289
67.92000 498.599
67.93000 507.831
67.94000 512.922
67.95000 515.659
67.96000 517.858
67.97000 509.741
67.98000 497.675
67.99000 486.506
68.00000 500.876
68.01000 519.678
68.02000 537.120
68.03000 546.450
68.04000 554.436
68.05000 562.622
68.06000 571.582
68.07000 580.620
68.08000 587.228
68.09000 580.508
68.10000 574.797
68.11000 569.904
68.12000 566.437
68.13000 562.996
68.14000 565.518
68.15000 574.874
68.16000 584.207
68.17000 591.111
68.18000 596.187
68.19000 601.185
68.20000 603.559
68.21000 604.646
68.22000 605.905
68.23000 609.666
68.24000 614.253
68.25000 618.418
68.26000 630.742
68.27000 643.206
68.28000 653.956
68.29000 656.067
68.30000 656.980
68.31000 656.352
68.32000 650.608
68.33000 644.457
68.34000 640.160
68.35000 649.201
68.36000 656.403
68.37000 665.577
68.38000 677.701
68.39000 689.853
68.40000 699.818
68.41000 707.669
68.42000 715.459
68.43000 720.622
68.44000 724.072
68.45000 727.761
68.46000 737.126
68.47000 748.894
68.48000 760.015
68.49000 763.706
68.50000 765.285
68.51000 766.688
68.52000 777.684
68.53000 788.772
68.54000 801.485
68.55000 821.186
68.56000 841.687
68.57000 862.513
68.58000 884.271
68.59000 906.087
68.60000 920.573
68.61000 976.075
68.62000 1017.861
68.63000 1053.263
68.64000 1080.494
68.65000 1107.740
68.66000 1153.933
68.67000 1215.652
68.68000 1276.505
68.69000 1329.518
68.70000 1376.898
68.71000 1424.232
68.72000 1470.790
68.73000 1517.064
68.74000 1564.573
68.75000 1623.544
68.76000 1685.310
68.77000 1738.879
68.78000 1772.932
68.79000 1799.325
68.80000 1836.603
68.81000 1913.933
68.82000 1994.981
68.83000 2073.625
68.84000 2146.333
68.85000 2218.765
68.86000 2264.227
68.87000 2500.162
68.88000 2672.766
68.89000 2924.789
68.90000 3263.119
68.91000 3604.334
68.92000 4316.862
68.93000 5289.065
68.94000 6239.683
68.95000 8287.628
68.96000 10743.050
68.97000 13294.714
68.98000 17145.242
68.99000 21404.775
69.00000 25702.686
69.01000 30293.211
69.02000 34944.625
69.03000 38870.668
69.04000 43029.406
69.05000 46530.059
69.06000 49593.676
69.07000 51274.324
69.08000 52853.090
69.09000 53984.590
69.10000 54162.645
69.11000 54309.207
69.12000 54395.590
69.13000 54669.039
69.14000 54863.156
69.15000 55318.844
69.16000 56014.270
69.17000 56703.117
69.18000 56965.074
69.19000 56970.840
69.20000 56976.422
69.21000 55544.688
69.22000 53643.641
69.23000 51648.875
69.24000 48649.805
69.25000 45378.770
69.26000 42206.230
69.27000 39659.574
69.28000 37223.266
69.29000 35228.012
69.30000 33129.668
69.31000 31400.455
69.32000 29911.070
69.33000 29076.092
69.34000 28278.240
69.35000 27551.818
69.36000 26956.727
69.37000 26364.482
69.38000 26039.191
69.39000 24121.018
69.40000 22796.246
69.41000 20963.791
69.42000 18736.176
69.43000 16508.984
69.44000 14298.465
69.45000 12096.561
69.46000 9991.917
69.47000 8269.211
69.48000 6790.390
69.49000 5369.938
69.50000 4457.299
69.51000 3662.438
69.52000 2935.711
69.53000 2573.704
69.54000 2265.685
69.55000 2021.732
69.56000 1853.733
69.57000 1723.959
69.58000 1612.479
69.59000 1544.093
69.60000 1477.513
69.61000 1415.484
69.62000 1360.653
69.63000 1305.912
69.64000 1278.144
69.65000 1227.194
69.66000 1193.037
69.67000 1156.319
69.68000 1117.896
69.69000 1080.082
69.70000 1058.552
69.71000 1044.283
69.72000 1030.842
69.73000 1009.739
69.74000 988.323
69.75000 965.406
69.76000 931.705
69.77000 895.873
69.78000 866.643
69.79000 867.433
69.80000 871.909
69.81000 875.325
69.82000 845.954
69.83000 821.052
69.84000 799.515
69.85000 784.819
69.86000 770.323
69.87000 758.347
69.88000 749.785
69.89000 741.249
69.90000 734.915
69.91000 730.504
69.92000 726.043
69.93000 718.817
69.94000 710.011
69.95000 701.361
69.96000 695.735
69.97000 691.273
69.98000 687.140
69.99000 676.292
70.00000 664.975
