20.00000 563.635
20.01000 558.566
20.02000 552.773
20.03000 548.376
20.04000 549.400
20.05000 550.968
20.06000 552.115
20.07000 545.314
20.08000 539.747
20.09000 538.587
20.10000 545.143
20.11000 551.840
20.12000 555.585
20.13000 555.927
20.14000 556.264
20.15000 556.336
20.16000 556.212
20.17000 555.949
20.18000 550.870
20.19000 543.420
20.20000 536.586
20.21000 538.833
20.22000 544.094
20.23000 548.874
20.24000 556.758
20.25000 564.329
20.26000 570.618
20.27000 570.405
20.28000 569.285
20.29000 568.442
20.30000 568.519
20.31000 568.669
20.32000 568.775
20.33000 571.317
20.34000 573.307
20.35000 571.437
20.36000 563.760
20.37000 556.025
20.38000 551.667
20.39000 550.593
20.40000 549.528
20.41000 547.925
20.42000 546.014
20.43000 544.317
20.44000 547.718
20.45000 553.287
20.46000 558.338
20.47000 557.373
20.48000 554.689
20.49000 552.303
20.50000 542.747
20.51000 533.289
20.52000 526.356
20.53000 530.320
20.54000 535.540
20.55000 541.152
20.56000 547.892
20.57000 554.703
20.58000 559.233
20.59000 545.411
20.60000 534.841
20.61000 528.286
20.62000 526.895
20.63000 525.543
20.64000 532.498
20.65000 546.297
20.66000 559.905
20.67000 558.785
20.68000 549.901
20.69000 541.193
20.70000 535.587
20.71000 531.118
20.72000 527.242
20.73000 528.895
20.74000 531.903
20.75000 534.514
20.76000 543.619
20.77000 552.249
20.78000 559.410
20.79000 561.140
20.80000 562.361
20.81000 562.616
20.82000 560.470
20.83000 558.212
20.84000 556.792
20.85000 552.062
20.86000 548.604
20.87000 548.456
20.88000 551.925
20.89000 555.367
20.90000 554.934
20.91000 551.777
20.92000 548.689
20.93000 538.057
20.94000 524.460
20.95000 512.155
20.96000 517.411
20.97000 528.223
20.98000 538.175
20.99000 541.523
21.00000 543.491
21.01000 545.154
21.02000 544.813
21.03000 544.308
21.04000 544.509
21.05000 546.953
21.06000 549.564
21.07000 547.036
21.08000 533.501
21.09000 519.598
21.10000 511.387
21.11000 526.038
21.12000 536.512
21.13000 544.133
21.14000 549.126
21.15000 554.040
21.16000 553.755
21.17000 550.335
21.18000 547.024
21.19000 543.664
21.20000 540.468
21.21000 537.622
21.22000 538.548
21.23000 540.501
21.24000 542.124
21.25000 541.640
21.26000 540.783
21.27000 540.081
21.28000 537.181
21.29000 534.607
21.30000 533.818
21.31000 537.919
21.32000 542.301
21.33000 542.697
21.34000 535.728
21.35000 528.598
21.36000 524.672
21.37000 543.775
21.38000 556.934
21.39000 559.276
21.40000 553.156
21.41000 547.044
21.42000 541.301
21.43000 535.748
21.44000 530.438
21.45000 532.261
21.46000 536.282
21.47000 539.479
21.48000 535.459
21.49000 529.756
21.50000 525.721
21.51000 530.662
21.52000 536.940
21.53000 541.918
21.54000 538.081
21.55000 534.377
21.56000 532.721
21.57000 535.911
21.58000 539.306
21.59000 542.876
21.60000 546.724
21.61000 550.576
21.62000 552.535
21.63000 544.748
21.64000 539.601
21.65000 542.166
21.66000 549.889
21.67000 557.216
21.68000 553.819
21.69000 545.618
21.70000 537.888
21.71000 539.926
21.72000 544.490
21.73000 548.973
21.74000 552.871
21.75000 556.653
21.76000 560.531
21.77000 564.853
21.78000 569.229
21.79000 572.573
21.80000 580.543
21.81000 587.078
21.82000 590.724
21.83000 588.464
21.84000 586.031
21.85000 585.316
21.86000 586.942
21.87000 588.581
21.88000 591.813
21.89000 596.429
21.90000 601.041
21.91000 605.388
21.92000 609.582
21.93000 613.831
21.94000 619.131
21.95000 624.837
21.96000 630.126
21.97000 637.007
21.98000 643.572
21.99000 649.378
22.00000 650.604
22.01000 651.062
22.02000 653.589
22.03000 664.206
22.04000 675.639
22.05000 684.026
22.06000 675.596
22.07000 668.405
22.08000 668.101
22.09000 679.927
22.10000 691.981
22.11000 692.082
22.12000 678.318
22.13000 664.577
22.14000 657.765
22.15000 656.119
22.16000 654.621
22.17000 658.296
22.18000 664.533
22.19000 669.453
22.20000 654.752
22.21000 633.502
22.22000 614.177
22.23000 611.791
22.24000 613.001
22.25000 612.752
22.26000 605.056
22.27000 596.313
22.28000 589.619
22.29000 589.794
22.30000 590.526
22.31000 591.039
22.32000 585.329
22.33000 580.830
22.34000 577.340
22.35000 575.376
22.36000 573.427
22.37000 571.917
22.38000 570.838
22.39000 569.766
22.40000 565.350
22.41000 558.910
22.42000 552.569
22.43000 548.619
22.44000 545.692
22.45000 542.522
22.46000 536.527
22.47000 529.720
22.48000 523.662
22.49000 527.290
22.50000 532.026
22.51000 535.422
22.52000 532.996
22.53000 529.894
22.54000 527.336
22.55000 526.347
22.56000 525.458
22.57000 524.865
22.58000 521.862
22.59000 519.592
22.60000 516.619
22.61000 512.735
22.62000 508.853
22.63000 507.700
22.64000 508.810
22.65000 509.904
22.66000 508.776
22.67000 506.495
22.68000 504.364
22.69000 504.910
22.70000 506.445
22.71000 508.441
22.72000 514.788
22.73000 522.207
22.74000 528.654
22.75000 523.437
22.76000 517.409
22.77000 513.596
22.78000 518.018
22.79000 523.217
22.80000 524.219
22.81000 514.745
22.82000 504.773
22.83000 498.488
22.84000 503.388
22.85000 507.064
22.86000 505.074
22.87000 496.853
22.88000 488.699
22.89000 490.203
22.90000 498.540
22.91000 506.697
22.92000 513.031
22.93000 518.283
22.94000 523.212
22.95000 523.691
22.96000 522.753
22.97000 521.826
22.98000 520.976
22.99000 520.142
23.00000 519.437
23.01000 507.148
23.02000 495.582
23.03000 487.589
23.04000 491.027
23.05000 495.322
23.06000 500.380
23.07000 507.083
23.08000 513.841
23.09000 517.843
23.10000 518.026
23.11000 518.132
23.12000 515.814
23.13000 511.246
23.14000 506.722
23.15000 505.155
23.16000 505.380
23.17000 505.599
23.18000 513.895
23.19000 524.859
23.20000 534.664
23.21000 531.846
23.22000 525.570
23.23000 519.695
23.24000 516.391
23.25000 513.546
23.26000 511.211
23.27000 510.574
23.28000 510.204
23.29000 509.927
23.30000 509.907
23.31000 509.902
23.32000 505.853
23.33000 494.286
23.34000 482.550
23.35000 476.070
23.36000 500.228
23.37000 516.901
23.38000 521.662
23.39000 517.044
23.40000 512.506
23.41000 511.242
23.42000 511.689
23.43000 512.117
23.44000 510.141
23.45000 507.511
23.46000 505.158
23.47000 505.246
23.48000 505.907
23.49000 505.064
23.50000 496.077
23.51000 485.868
23.52000 477.762
23.53000 481.849
23.54000 486.001
23.55000 491.893
23.56000 501.926
23.57000 512.136
23.58000 516.635
23.59000 511.999
23.60000 507.243
23.61000 504.816
23.62000 508.001
23.63000 510.085
23.64000 506.403
23.65000 498.838
23.66000 491.701
23.67000 496.264
23.68000 506.103
23.69000 515.381
23.70000 511.229
23.71000 503.692
23.72000 498.269
23.73000 508.241
23.74000 521.290
23.75000 531.899
23.76000 531.287
23.77000 529.277
23.78000 527.739
23.79000 520.941
23.80000 515.290
23.81000 513.396
23.82000 519.228
23.83000 525.292
23.84000 528.241
23.85000 526.920
23.86000 525.574
23.87000 523.393
23.88000 520.482
23.89000 517.710
23.90000 522.904
23.91000 532.703
23.92000 542.077
23.93000 543.021
23.94000 540.684
23.95000 538.517
23.96000 531.119
23.97000 523.227
23.98000 517.466
23.99000 524.669
24.00000 534.063
24.01000 540.490
24.02000 535.248
24.03000 528.818
24.04000 524.093
24.05000 533.018
24.06000 540.476
24.07000 543.210
24.08000 537.571
24.09000 531.771
24.10000 527.388
24.11000 524.658
24.12000 521.938
24.13000 522.140
24.14000 524.511
24.15000 526.850
24.16000 528.040
24.17000 528.658
24.18000 529.137
24.19000 527.528
24.20000 525.217
24.21000 523.113
24.22000 524.910
24.23000 527.271
24.24000 528.047
24.25000 520.679
24.26000 512.159
24.27000 504.042
24.28000 497.286
24.29000 490.640
24.30000 485.973
24.31000 500.480
24.32000 512.025
24.33000 511.891
24.34000 493.970
24.35000 475.861
24.36000 472.478
24.37000 483.620
24.38000 494.684
24.39000 499.553
24.40000 500.437
24.41000 501.189
24.42000 498.671
24.43000 494.747
24.44000 491.519
24.45000 496.513
24.46000 503.883
24.47000 510.450
24.48000 507.405
24.49000 503.173
24.50000 499.180
24.51000 496.227
24.52000 493.396
24.53000 488.302
24.54000 476.624
24.55000 464.527
24.56000 456.446
24.57000 463.191
24.58000 468.478
24.59000 473.451
24.60000 478.016
24.61000 482.566
24.62000 480.472
24.63000 472.835
24.64000 465.298
24.65000 467.713
24.66000 475.398
24.67000 482.515
24.68000 479.356
24.69000 472.381
24.70000 466.350
24.71000 469.284
24.72000 474.443
24.73000 478.930
24.74000 482.515
24.75000 485.451
24.76000 487.025
24.77000 483.503
24.78000 479.496
24.79000 477.171
24.80000 479.070
24.81000 481.172
24.82000 482.500
24.83000 477.911
24.84000 474.516
24.85000 469.399
24.86000 462.377
24.87000 455.403
24.88000 455.547
24.89000 460.759
24.90000 465.860
24.91000 468.820
24.92000 470.684
24.93000 471.900
24.94000 464.102
24.95000 453.418
24.96000 444.287
24.97000 447.258
24.98000 452.793
24.99000 457.481
25.00000 461.728
25.01000 465.237
25.02000 468.852
25.03000 472.812
25.04000 476.799
25.05000 475.381
25.06000 462.250
25.07000 448.716
25.08000 440.680
25.09000 457.065
25.10000 468.803
25.11000 473.499
25.12000 471.619
25.13000 469.717
25.14000 466.368
25.15000 462.136
25.16000 458.034
25.17000 461.050
25.18000 466.669
25.19000 471.652
25.20000 469.644
25.21000 465.710
25.22000 462.633
25.23000 465.109
25.24000 468.582
25.25000 471.437
25.26000 474.119
25.27000 476.307
25.28000 480.253
25.29000 489.073
25.30000 498.178
25.31000 502.038
25.32000 496.087
25.33000 489.913
25.34000 486.493
25.35000 469.948
25.36000 458.523
25.37000 453.271
25.38000 452.913
25.39000 452.647
25.40000 456.222
25.41000 461.814
25.42000 467.167
25.43000 467.809
25.44000 466.853
25.45000 466.025
25.46000 466.330
25.47000 466.903
25.48000 466.555
25.49000 461.178
25.50000 455.042
25.51000 450.164
25.52000 450.213
25.53000 450.606
25.54000 452.812
25.55000 459.364
25.56000 466.106
25.57000 465.752
25.58000 453.983
25.59000 442.061
25.60000 435.955
25.61000 444.356
25.62000 449.978
25.63000 452.846
25.64000 453.850
25.65000 454.826
25.66000 455.049
25.67000 454.930
25.68000 454.818
25.69000 443.319
25.70000 429.589
25.71000 418.619
25.72000 427.899
25.73000 441.254
25.74000 452.118
25.75000 451.451
25.76000 449.338
25.77000 447.718
25.78000 449.231
25.79000 450.600
25.80000 449.334
25.81000 442.624
25.82000 435.747
25.83000 434.993
25.84000 442.684
25.85000 450.424
25.86000 451.820
25.87000 447.606
25.88000 443.501
25.89000 445.743
25.90000 451.677
25.91000 457.428
25.92000 459.522
25.93000 460.185
25.94000 460.800
25.95000 457.622
25.96000 453.860
25.97000 450.758
25.98000 451.700
25.99000 453.329
26.00000 454.396
26.01000 453.235
26.02000 451.845
26.03000 450.823
26.04000 448.392
26.05000 446.453
26.06000 448.266
26.07000 456.765
26.08000 465.396
26.09000 465.270
26.10000 454.853
26.11000 444.447
26.12000 445.634
26.13000 455.482
26.14000 464.901
26.15000 458.792
26.16000 444.899
26.17000 431.848
26.18000 431.583
26.19000 435.636
26.20000 439.329
26.21000 447.343
26.22000 455.299
26.23000 460.155
26.24000 448.972
26.25000 435.502
26.26000 426.520
26.27000 432.781
26.28000 440.299
26.29000 445.590
26.30000 445.761
26.31000 445.739
26.32000 448.366
26.33000 455.053
26.34000 461.784
26.35000 458.183
26.36000 444.321
26.37000 430.554
26.38000 430.369
26.39000 438.807
26.40000 446.835
26.41000 444.664
26.42000 438.082
26.43000 432.172
26.44000 434.279
26.45000 438.719
26.46000 442.678
26.47000 441.244
26.48000 439.102
26.49000 436.890
26.50000 434.370
26.51000 431.815
26.52000 430.035
26.53000 430.524
26.54000 431.159
26.55000 431.584
26.56000 448.508
26.57000 461.387
26.58000 463.599
26.59000 451.821
26.60000 440.001
26.61000 438.605
26.62000 445.968
26.63000 453.235
26.64000 449.650
26.65000 440.303
26.66000 431.492
26.67000 432.472
26.68000 437.108
26.69000 441.684
26.70000 445.684
26.71000 449.539
26.72000 452.896
26.73000 452.714
26.74000 452.071
26.75000 450.808
26.76000 447.210
26.77000 443.388
26.78000 441.198
26.79000 443.129
26.80000 445.260
26.81000 446.610
26.82000 446.039
26.83000 445.603
26.84000 447.593
26.85000 452.291
26.86000 456.938
26.87000 453.790
26.88000 445.059
26.89000 436.509
26.90000 440.647
26.91000 450.451
26.92000 458.827
26.93000 447.183
26.94000 429.088
26.95000 413.168
26.96000 414.315
26.97000 419.101
26.98000 423.158
26.99000 423.120
27.00000 422.627
27.01000 422.872
27.02000 425.511
27.03000 428.333
27.04000 431.583
27.05000 435.765
27.06000 439.979
27.07000 442.489
27.08000 432.704
27.09000 425.700
27.10000 423.715
27.11000 426.451
27.12000 429.211
27.13000 433.627
27.14000 439.061
27.15000 444.328
27.16000 453.274
27.17000 463.185
27.18000 471.388
27.19000 460.666
27.20000 444.698
27.21000 430.778
27.22000 430.235
27.23000 432.111
27.24000 433.656
27.25000 436.566
27.26000 439.083
27.27000 440.399
27.28000 438.364
27.29000 436.130
27.30000 434.708
27.31000 434.812
27.32000 434.952
27.33000 435.029
27.34000 431.730
27.35000 429.464
27.36000 433.503
27.37000 442.572
27.38000 451.290
27.39000 445.184
27.40000 431.240
27.41000 417.885
27.42000 422.471
27.43000 432.709
27.44000 442.076
27.45000 443.625
27.46000 443.315
27.47000 441.875
27.48000 434.223
27.49000 425.626
27.50000 418.780
27.51000 410.526
27.52000 403.769
27.53000 403.375
27.54000 418.310
27.55000 433.920
27.56000 440.838
27.57000 433.682
27.58000 426.332
27.59000 422.556
27.60000 432.690
27.61000 439.400
27.62000 433.728
27.63000 419.619
27.64000 405.952
27.65000 404.778
27.66000 409.303
27.67000 413.575
27.68000 417.667
27.69000 421.371
27.70000 425.064
27.71000 428.684
27.72000 432.288
27.73000 435.350
27.74000 435.877
27.75000 436.084
27.76000 436.242
27.77000 428.030
27.78000 421.070
27.79000 417.135
27.80000 419.489
27.81000 422.039
27.82000 421.918
27.83000 418.090
27.84000 414.241
27.85000 416.510
27.86000 424.225
27.87000 431.836
27.88000 433.249
27.89000 431.035
27.90000 428.891
27.91000 428.162
27.92000 427.991
27.93000 427.832
27.94000 429.595
27.95000 431.642
27.96000 433.352
27.97000 432.984
27.98000 432.259
27.99000 431.163
28.00000 428.585
28.01000 425.854
28.02000 423.841
28.03000 426.731
28.04000 429.175
28.05000 430.242
28.06000 428.839
28.07000 427.388
28.08000 427.344
28.09000 428.968
28.10000 430.590
28.11000 429.085
28.12000 425.236
28.13000 421.613
28.14000 426.268
28.15000 435.097
28.16000 443.037
28.17000 437.333
28.18000 426.992
28.19000 417.564
28.20000 419.998
28.21000 424.530
28.22000 428.067
28.23000 426.426
28.24000 424.042
28.25000 422.009
28.26000 421.175
28.27000 420.440
28.28000 419.923
28.29000 414.655
28.30000 410.516
28.31000 409.653
28.32000 413.841
28.33000 418.085
28.34000 420.001
28.35000 419.589
28.36000 419.179
28.37000 413.630
28.38000 404.881
28.39000 396.669
28.40000 402.008
28.41000 413.243
28.42000 423.243
28.43000 418.382
28.44000 409.172
28.45000 400.952
28.46000 406.622
28.47000 413.881
28.48000 419.694
28.49000 419.101
28.50000 417.746
28.51000 417.137
28.52000 418.723
28.53000 420.452
28.54000 421.611
28.55000 417.294
28.56000 413.978
28.57000 408.904
28.58000 401.509
28.59000 394.121
28.60000 397.007
28.61000 408.579
28.62000 420.006
28.63000 421.200
28.64000 416.805
28.65000 412.413
28.66000 408.080
28.67000 403.770
28.68000 400.106
28.69000 402.690
28.70000 406.844
28.71000 410.464
28.72000 411.082
28.73000 411.195
28.74000 411.761
28.75000 414.046
28.76000 416.497
28.77000 416.528
28.78000 410.410
28.79000 403.989
28.80000 399.913
28.81000 407.694
28.82000 413.489
28.83000 419.111
28.84000 424.541
28.85000 429.921
28.86000 427.663
28.87000 419.899
28.88000 412.295
28.89000 410.141
28.90000 410.589
28.91000 410.893
28.92000 409.158
28.93000 406.762
28.94000 404.803
28.95000 406.305
28.96000 408.550
28.97000 410.456
28.98000 414.303
28.99000 417.750
29.00000 419.698
29.01000 416.765
29.02000 413.455
29.03000 412.480
29.04000 416.625
29.05000 420.951
29.06000 423.534
29.07000 421.085
29.08000 419.316
29.09000 415.038
29.10000 408.384
29.11000 401.816
29.12000 401.549
29.13000 405.174
29.14000 408.691
29.15000 403.688
29.16000 395.594
29.17000 388.262
29.18000 389.436
29.19000 392.984
29.20000 396.561
29.21000 400.332
29.22000 404.139
29.23000 407.275
29.24000 400.774
29.25000 394.540
29.26000 390.691
29.27000 393.534
29.28000 396.777
29.29000 396.647
29.30000 390.133
29.31000 383.468
29.32000 379.754
29.33000 388.645
29.34000 394.817
29.35000 399.391
29.36000 402.682
29.37000 405.930
29.38000 407.307
29.39000 407.689
29.40000 408.055
29.41000 409.755
29.42000 411.787
29.43000 413.297
29.44000 410.086
29.45000 405.745
29.46000 402.345
29.47000 404.143
29.48000 406.737
29.49000 408.806
29.50000 404.566
29.51000 400.685
29.52000 399.519
29.53000 404.936
29.54000 410.646
29.55000 415.708
29.56000 419.717
29.57000 423.710
29.58000 425.769
29.59000 407.826
29.60000 395.848
29.61000 396.777
29.62000 406.556
29.63000 416.045
29.64000 417.222
29.65000 414.585
29.66000 412.093
29.67000 405.468
29.68000 398.213
29.69000 391.802
29.70000 391.675
29.71000 392.829
29.72000 393.223
29.73000 390.055
29.74000 386.433
29.75000 383.647
29.76000 381.140
29.77000 379.173
29.78000 380.147
29.79000 387.275
29.80000 394.597
29.81000 398.784
29.82000 398.593
29.83000 398.372
29.84000 398.981
29.85000 400.334
29.86000 401.688
29.87000 403.096
29.88000 404.537
29.89000 406.181
29.90000 412.002
29.91000 419.478
29.92000 426.428
29.93000 419.768
29.94000 410.494
29.95000 402.314
29.96000 400.926
29.97000 400.710
29.98000 401.376
29.99000 405.571
30.00000 410.134
30.01000 413.504
30.02000 411.917
30.03000 410.476
30.04000 411.569
30.05000 417.231
30.06000 422.987
30.07000 425.731
30.08000 424.887
30.09000 424.038
30.10000 423.589
30.11000 423.445
30.12000 423.076
30.13000 414.270
30.14000 401.185
30.15000 388.855
30.16000 388.246
30.17000 391.644
30.18000 394.745
30.19000 401.598
30.20000 408.433
30.21000 413.967
30.22000 412.680
30.23000 410.406
30.24000 409.556
30.25000 413.600
30.26000 418.056
30.27000 421.203
30.28000 416.743
30.29000 413.126
30.30000 412.436
30.31000 416.287
30.32000 420.190
30.33000 414.503
30.34000 399.156
30.35000 383.908
30.36000 380.831
30.37000 385.627
30.38000 390.387
30.39000 394.198
30.40000 397.594
30.41000 400.903
30.42000 403.159
30.43000 405.105
30.44000 406.843
30.45000 409.398
30.46000 411.760
30.47000 415.313
30.48000 424.171
30.49000 433.664
30.50000 439.354
30.51000 433.782
30.52000 427.469
30.53000 423.225
30.54000 425.995
30.55000 428.198
30.56000 424.646
30.57000 413.452
30.58000 402.231
30.59000 397.874
30.60000 399.358
30.61000 400.824
30.62000 407.426
30.63000 416.668
30.64000 425.282
30.65000 422.143
30.66000 414.562
30.67000 407.492
30.68000 405.400
30.69000 404.568
30.70000 403.841
30.71000 408.341
30.72000 412.919
30.73000 417.167
30.74000 420.157
30.75000 423.024
30.76000 427.480
30.77000 435.995
30.78000 444.711
30.79000 450.258
30.80000 435.831
30.81000 425.097
30.82000 422.311
30.83000 428.505
30.84000 434.667
30.85000 434.410
30.86000 429.496
30.87000 424.681
30.88000 429.314
30.89000 438.168
30.90000 446.376
30.91000 445.360
30.92000 441.336
30.93000 438.418
30.94000 444.318
30.95000 452.123
30.96000 458.754
30.97000 460.987
30.98000 462.358
30.99000 465.136
31.00000 472.523
31.01000 480.270
31.02000 487.451
31.03000 493.383
31.04000 499.270
31.05000 502.794
31.06000 519.542
31.07000 531.516
31.08000 550.803
31.09000 577.062
31.10000 603.258
31.11000 624.708
31.12000 643.208
31.13000 661.158
31.14000 689.486
31.15000 720.458
31.16000 751.419
31.17000 782.254
31.18000 813.053
31.19000 846.299
31.20000 895.755
31.21000 948.182
31.22000 991.435
31.23000 1053.155
31.24000 1105.691
31.25000 1160.940
31.26000 1223.856
31.27000 1287.236
31.28000 1347.138
31.29000 1400.421
31.30000 1453.545
31.31000 1483.229
31.32000 1533.042
31.33000 1567.582
31.34000 1601.867
31.35000 1635.947
31.36000 1669.638
31.37000 1686.290
31.38000 1693.824
31.39000 1701.048
31.40000 1718.985
31.41000 1739.341
31.42000 1754.661
31.43000 1724.066
31.44000 1682.424
31.45000 1642.406
31.46000 1611.426
31.47000 1581.840
31.48000 1558.217
31.49000 1505.926
31.50000 1461.586
31.51000 1410.371
31.52000 1342.392
31.53000 1273.655
31.54000 1211.261
31.55000 1159.261
31.56000 1107.411
31.57000 1080.593
31.58000 1022.464
31.59000 983.177
31.60000 933.588
31.61000 876.888
31.62000 820.580
31.63000 775.623
31.64000 735.906
31.65000 698.356
31.66000 677.114
31.67000 662.256
31.68000 647.136
31.69000 630.046
31.70000 612.552
31.71000 593.634
31.72000 567.996
31.73000 541.494
31.74000 521.085
31.75000 513.199
31.76000 507.671
31.77000 501.713
31.78000 494.851
31.79000 487.961
31.80000 481.122
31.81000 474.355
31.82000 467.592
31.83000 457.042
31.84000 443.085
31.85000 429.267
31.86000 424.091
31.87000 424.033
31.88000 423.707
31.89000 417.780
31.90000 409.621
31.91000 402.031
31.92000 401.124
31.93000 401.919
31.94000 402.472
31.95000 401.517
31.96000 400.301
31.97000 400.196
31.98000 404.572
31.99000 409.420
32.00000 413.006
32.01000 413.379
32.02000 413.530
32.03000 410.838
32.04000 402.985
32.05000 395.024
32.06000 391.132
32.07000 392.116
32.08000 393.108
32.09000 390.756
32.10000 385.865
32.11000 381.039
32.12000 378.671
32.13000 377.557
32.14000 376.550
32.15000 377.223
32.16000 378.473
32.17000 379.614
32.18000 385.393
32.19000 391.464
32.20000 396.624
32.21000 396.974
32.22000 396.624
32.23000 396.156
32.24000 395.286
32.25000 394.381
32.26000 393.740
32.27000 386.379
32.28000 380.578
32.29000 377.788
32.30000 379.699
32.31000 381.665
32.32000 380.427
32.33000 375.940
32.34000 371.480
32.35000 375.387
32.36000 384.654
32.37000 393.475
32.38000 390.743
32.39000 382.922
32.40000 375.237
32.41000 369.222
32.42000 363.703
32.43000 358.767
32.44000 365.573
32.45000 373.499
32.46000 380.737
32.47000 384.889
32.48000 388.668
32.49000 390.019
32.50000 384.135
32.51000 377.770
32.52000 373.482
32.53000 376.605
32.54000 379.083
32.55000 380.711
32.56000 381.204
32.57000 381.685
32.58000 378.036
32.59000 370.847
32.60000 363.745
32.61000 362.854
32.62000 365.402
32.63000 367.844
32.64000 368.252
32.65000 367.889
32.66000 367.178
32.67000 363.067
32.68000 358.090
32.69000 353.743
32.70000 357.878
32.71000 362.610
32.72000 366.303
32.73000 366.005
32.74000 365.315
32.75000 364.762
32.76000 364.562
32.77000 364.380
32.78000 364.264
32.79000 368.698
32.80000 371.980
32.81000 369.095
32.82000 359.193
32.83000 349.321
32.84000 345.636
32.85000 346.468
32.86000 347.283
32.87000 348.270
32.88000 349.300
32.89000 350.403
32.90000 352.558
32.91000 355.059
32.92000 356.364
32.93000 348.061
32.94000 337.668
32.95000 328.828
32.96000 337.556
32.97000 346.916
32.98000 353.585
32.99000 351.378
33.00000 348.473
33.01000 346.037
33.02000 344.639
33.03000 343.279
33.04000 342.464
33.05000 341.835
33.06000 341.391
33.07000 346.476
33.08000 356.871
33.09000 367.110
33.10000 365.430
33.11000 356.294
33.12000 347.427
33.13000 346.686
33.14000 349.223
33.15000 351.370
33.16000 349.068
33.17000 345.510
33.18000 342.395
33.19000 342.230
33.20000 342.610
33.21000 342.924
33.22000 341.897
33.23000 340.925
33.24000 339.194
33.25000 335.305
33.26000 331.285
33.27000 328.773
33.28000 329.148
33.29000 329.594
33.30000 329.844
33.31000 330.247
33.32000 330.535
33.33000 333.928
33.34000 339.846
33.35000 345.571
33.36000 342.638
33.37000 335.044
33.38000 327.759
33.39000 331.177
33.40000 337.999
33.41000 344.118
33.42000 343.788
33.43000 341.896
33.44000 339.115
33.45000 331.348
33.46000 322.807
33.47000 315.978
33.48000 328.209
33.49000 339.511
33.50000 345.791
33.51000 339.754
33.52000 333.154
33.53000 330.965
33.54000 336.051
33.55000 341.245
33.56000 343.940
33.57000 336.181
33.58000 331.012
33.59000 334.776
33.60000 344.743
33.61000 354.412
33.62000 355.299
33.63000 352.108
33.64000 349.089
33.65000 348.031
33.66000 347.621
33.67000 346.592
33.68000 340.878
33.69000 334.197
33.70000 329.805
33.71000 336.285
33.72000 344.172
33.73000 350.255
33.74000 345.097
33.75000 340.361
33.76000 337.871
33.77000 340.138
33.78000 342.560
33.79000 341.543
33.80000 335.664
33.81000 329.752
33.82000 328.704
33.83000 332.076
33.84000 335.436
33.85000 337.938
33.86000 339.929
33.87000 341.791
33.88000 340.935
33.89000 338.990
33.90000 337.178
33.91000 337.821
33.92000 338.999
33.93000 339.729
33.94000 337.634
33.95000 335.044
33.96000 333.130
33.97000 333.954
33.98000 335.069
33.99000 335.895
34.00000 349.300
34.01000 360.255
34.02000 367.474
34.03000 367.868
34.04000 368.119
34.05000 366.349
34.06000 362.142
34.07000 357.940
34.08000 352.820
34.09000 347.025
34.10000 341.429
34.11000 343.524
34.12000 349.568
34.13000 355.018
34.14000 351.050
34.15000 343.823
34.16000 337.219
34.17000 342.540
34.18000 349.705
34.19000 355.114
34.20000 351.199
34.21000 345.916
34.22000 343.061
34.23000 348.659
34.24000 354.980
34.25000 359.462
34.26000 355.384
34.27000 352.015
34.28000 352.556
34.29000 359.239
34.30000 365.997
34.31000 367.489
34.32000 363.604
34.33000 359.742
34.34000 357.407
34.35000 356.100
34.36000 354.844
34.37000 354.938
34.38000 355.630
34.39000 356.431
34.40000 358.579
34.41000 361.128
34.42000 363.410
34.43000 364.362
34.44000 364.966
34.45000 364.985
34.46000 362.366
34.47000 359.426
34.48000 358.224
34.49000 362.234
34.50000 366.594
34.51000 369.537
34.52000 354.417
34.53000 342.778
34.54000 341.028
34.55000 352.580
34.56000 364.190
34.57000 365.504
34.58000 357.939
34.59000 350.463
34.60000 347.498
34.61000 347.106
34.62000 346.724
34.63000 346.546
34.64000 346.448
34.65000 346.299
34.66000 345.656
34.67000 344.887
34.68000 344.214
34.69000 341.876
34.70000 339.637
34.71000 336.778
34.72000 331.526
34.73000 326.037
34.74000 320.613
34.75000 315.357
34.76000 310.111
34.77000 306.756
34.78000 316.086
34.79000 323.044
34.80000 324.215
34.81000 318.760
34.82000 313.332
34.83000 314.181
34.84000 319.640
34.85000 324.993
34.86000 326.436
34.87000 325.984
34.88000 325.704
34.89000 327.956
34.90000 331.044
34.91000 333.474
34.92000 330.578
34.93000 326.517
34.94000 323.059
34.95000 315.491
34.96000 308.651
34.97000 305.820
34.98000 316.287
34.99000 327.811
35.00000 332.353
35.01000 321.308
35.02000 309.685
35.03000 302.693
35.04000 307.491
35.05000 310.985
35.06000 314.944
35.07000 319.353
35.08000 323.703
35.09000 323.435
35.10000 320.261
35.11000 317.178
35.12000 318.038
35.13000 320.436
35.14000 322.457
35.15000 320.147
35.16000 316.606
35.17000 313.842
35.18000 316.298
35.19000 319.724
35.20000 322.557
35.21000 322.496
35.22000 322.172
35.23000 321.154
35.24000 318.152
35.25000 315.027
35.26000 311.608
35.27000 307.623
35.28000 303.623
35.29000 301.376
35.30000 306.332
35.31000 309.790
35.32000 313.514
35.33000 317.456
35.34000 321.316
35.35000 321.486
35.36000 319.657
35.37000 317.901
35.38000 310.252
35.39000 301.089
35.40000 293.336
35.41000 298.658
35.42000 307.166
35.43000 313.813
35.44000 309.957
35.45000 304.457
35.46000 300.054
35.47000 302.924
35.48000 305.791
35.49000 310.126
35.50000 318.082
35.51000 326.205
35.52000 329.206
35.53000 323.708
35.54000 318.082
35.55000 315.152
35.56000 308.941
35.57000 304.770
35.58000 304.098
35.59000 305.870
35.60000 307.567
35.61000 306.975
35.62000 305.314
35.63000 303.742
35.64000 300.994
35.65000 298.126
35.66000 295.625
35.67000 295.928
35.68000 296.814
35.69000 298.309
35.70000 302.718
35.71000 307.507
35.72000 311.206
35.73000 308.443
35.74000 305.875
35.75000 303.476
35.76000 301.435
35.77000 299.407
35.78000 298.671
35.79000 299.775
35.80000 300.892
35.81000 304.042
35.82000 309.048
35.83000 314.020
35.84000 316.850
35.85000 318.396
35.86000 319.565
35.87000 312.708
35.88000 302.616
35.89000 293.214
35.90000 290.904
35.91000 290.550
35.92000 290.814
35.93000 295.005
35.94000 299.888
35.95000 302.151
35.96000 293.719
35.97000 284.143
35.98000 277.033
35.99000 286.391
36.00000 294.388
36.01000 301.138
36.02000 305.596
36.03000 310.005
36.04000 309.102
36.05000 301.747
36.06000 294.393
36.07000 292.204
36.08000 294.022
36.09000 295.819
36.10000 296.789
36.11000 297.332
36.12000 297.923
36.13000 299.270
36.14000 300.881
36.15000 302.353
36.16000 311.315
36.17000 320.823
36.18000 326.682
36.19000 313.024
36.20000 296.480
36.21000 283.868
36.22000 285.026
36.23000 287.373
36.24000 289.040
36.25000 301.168
36.26000 310.731
36.27000 312.830
36.28000 303.133
36.29000 293.289
36.30000 290.833
36.31000 295.975
36.32000 301.087
36.33000 301.249
36.34000 298.163
36.35000 295.145
36.36000 293.958
36.37000 293.586
36.38000 293.098
36.39000 291.155
36.40000 288.775
36.41000 286.644
36.42000 287.646
36.43000 289.060
36.44000 290.770
36.45000 293.824
36.46000 297.043
36.47000 299.574
36.48000 300.032
36.49000 300.349
36.50000 300.564
36.51000 290.337
36.52000 282.491
36.53000 281.388
36.54000 289.414
36.55000 297.484
36.56000 301.165
36.57000 301.034
36.58000 300.904
36.59000 297.652
36.60000 292.737
36.61000 287.807
36.62000 282.565
36.63000 277.205
36.64000 272.734
36.65000 277.149
36.66000 283.854
36.67000 289.721
36.68000 292.359
36.69000 294.159
36.70000 295.284
36.71000 293.792
36.72000 292.037
36.73000 291.121
36.74000 292.391
36.75000 293.774
36.76000 294.660
36.77000 296.424
36.78000 297.721
36.79000 296.079
36.80000 291.049
36.81000 286.047
36.82000 286.949
36.83000 292.215
36.84000 297.382
36.85000 295.885
36.86000 291.281
36.87000 286.802
36.88000 284.171
36.89000 282.154
36.90000 281.195
36.91000 288.878
36.92000 298.464
36.93000 306.637
36.94000 306.443
36.95000 305.298
36.96000 304.732
36.97000 306.099
36.98000 307.621
36.99000 307.747
37.00000 304.742
37.01000 301.619
37.02000 299.735
37.03000 298.946
37.04000 298.393
37.05000 299.221
37.06000 301.393
37.07000 303.527
37.08000 302.596
37.09000 299.726
37.10000 296.937
37.11000 295.871
37.12000 295.555
37.13000 295.185
37.14000 294.196
37.15000 293.029
37.16000 291.923
37.17000 291.230
37.18000 290.613
37.19000 290.103
37.20000 290.069
37.21000 290.086
37.22000 290.113
37.23000 290.171
37.24000 290.230
37.25000 291.755
37.26000 296.118
37.27000 300.554
37.28000 303.054
37.29000 300.184
37.30000 298.173
37.31000 294.647
37.32000 289.874
37.33000 285.125
37.34000 281.538
37.35000 278.582
37.36000 275.745
37.37000 279.644
37.38000 285.606
37.39000 291.300
37.40000 294.481
37.41000 297.047
37.42000 299.700
37.43000 302.851
37.44000 306.080
37.45000 308.670
37.46000 299.163
37.47000 290.552
37.48000 282.521
37.49000 275.931
37.50000 269.409
37.51000 268.384
37.52000 276.534
37.53000 284.826
37.54000 289.157
37.55000 279.134
37.56000 272.403
37.57000 273.019
37.58000 278.799
37.59000 284.278
37.60000 280.582
37.61000 272.575
37.62000 264.991
37.63000 269.992
37.64000 278.263
37.65000 285.672
37.66000 286.460
37.67000 285.863
37.68000 284.849
37.69000 281.826
37.70000 278.540
37.71000 275.997
37.72000 285.429
37.73000 293.620
37.74000 299.933
37.75000 302.219
37.76000 304.370
37.77000 301.494
37.78000 291.418
37.79000 281.287
37.80000 279.278
37.81000 284.752
37.82000 290.150
37.83000 290.455
37.84000 287.689
37.85000 285.099
37.86000 286.302
37.87000 289.043
37.88000 291.599
37.89000 287.690
37.90000 282.560
37.91000 278.235
37.92000 279.064
37.93000 280.807
37.94000 281.848
37.95000 280.000
37.96000 277.842
37.97000 276.236
37.98000 277.021
37.99000 277.739
38.00000 280.549
38.01000 287.229
38.02000 293.993
38.03000 295.652
38.04000 291.067
38.05000 286.477
38.06000 283.390
38.07000 281.490
38.08000 279.634
38.09000 279.549
38.10000 280.384
38.11000 281.253
38.12000 282.680
38.13000 284.301
38.14000 285.785
38.15000 288.751
38.16000 291.696
38.17000 293.879
38.18000 291.959
38.19000 289.428
38.20000 288.715
38.21000 294.407
38.22000 300.658
38.23000 305.107
38.24000 290.858
38.25000 279.401
38.26000 276.389
38.27000 286.807
38.28000 297.396
38.29000 303.684
38.30000 305.519
38.31000 307.343
38.32000 306.541
38.33000 304.015
38.34000 301.630
38.35000 303.064
38.36000 306.208
38.37000 309.484
38.38000 314.405
38.39000 319.823
38.40000 324.681
38.41000 329.672
38.42000 334.055
38.43000 340.523
38.44000 356.524
38.45000 373.703
38.46000 389.701
38.47000 402.119
38.48000 414.291
38.49000 422.542
38.50000 429.614
38.51000 434.862
38.52000 444.481
38.53000 460.057
38.54000 475.673
38.55000 496.424
38.56000 521.663
38.57000 546.617
38.58000 575.377
38.59000 605.590
38.60000 635.802
38.61000 665.985
38.62000 696.155
38.63000 724.868
38.64000 738.886
38.65000 749.096
38.66000 758.039
38.67000 794.972
38.68000 830.687
38.69000 865.159
38.70000 894.776
38.71000 923.902
38.72000 947.206
38.73000 955.275
38.74000 962.548
38.75000 967.219
38.76000 953.004
38.77000 942.379
38.78000 927.216
38.79000 906.788
38.80000 886.357
38.81000 866.678
38.82000 847.559
38.83000 828.798
38.84000 805.987
38.85000 782.061
38.86000 758.287
38.87000 736.751
38.88000 715.962
38.89000 693.997
38.90000 662.351
38.91000 628.559
38.92000 599.719
38.93000 575.010
38.94000 554.695
38.95000 534.711
38.96000 515.837
38.97000 497.052
38.98000 477.222
38.99000 455.028
39.00000 432.745
39.01000 419.270
39.02000 390.966
39.03000 370.689
39.04000 357.177
39.05000 350.296
39.06000 343.447
39.07000 339.367
39.08000 337.051
39.09000 334.799
39.10000 329.001
39.11000 322.048
39.12000 315.071
39.13000 307.812
39.14000 300.472
39.15000 294.912
39.16000 301.490
39.17000 310.354
39.18000 317.703
39.19000 308.693
39.20000 299.681
39.21000 291.223
39.22000 284.365
39.23000 277.609
39.24000 276.641
39.25000 286.955
39.26000 297.561
39.27000 303.557
39.28000 283.352
39.29000 269.260
39.30000 269.534
39.31000 281.726
39.32000 293.652
39.33000 293.033
39.34000 285.539
39.35000 278.340
39.36000 273.061
39.37000 268.784
39.38000 264.726
39.39000 262.737
39.40000 261.258
39.41000 260.738
39.42000 265.700
39.43000 271.533
39.44000 276.216
39.45000 281.495
39.46000 285.817
39.47000 288.401
39.48000 286.646
39.49000 284.685
39.50000 280.863
39.51000 273.918
39.52000 266.922
39.53000 263.256
39.54000 272.377
39.55000 278.525
39.56000 280.001
39.57000 278.171
39.58000 276.458
39.59000 278.382
39.60000 282.023
39.61000 285.475
39.62000 279.417
39.63000 271.048
39.64000 263.499
39.65000 262.298
39.66000 262.434
39.67000 263.819
39.68000 271.257
39.69000 279.496
39.70000 285.880
39.71000 287.635
39.72000 288.753
39.73000 288.046
39.74000 283.405
39.75000 278.630
39.76000 275.298
39.77000 274.046
39.78000 272.811
39.79000 273.598
39.80000 276.261
39.81000 278.907
39.82000 280.375
39.83000 281.128
39.84000 281.714
39.85000 278.652
39.86000 274.100
39.87000 269.854
39.88000 270.103
39.89000 271.444
39.90000 272.451
39.91000 271.306
39.92000 269.777
39.93000 268.425
39.94000 267.811
39.95000 267.277
39.96000 266.880
39.97000 261.636
39.98000 257.336
39.99000 256.679
40.00000 262.796
40.01000 269.065
40.02000 269.499
40.03000 262.750
40.04000 255.996
40.05000 254.861
40.06000 258.136
40.07000 261.315
40.08000 260.560
40.09000 257.749
40.10000 255.271
40.11000 258.252
40.12000 263.156
40.13000 267.648
40.14000 266.168
40.15000 263.604
40.16000 261.584
40.17000 262.520
40.18000 263.899
40.19000 264.914
40.20000 264.638
40.21000 264.250
40.22000 263.972
40.23000 255.199
40.24000 248.233
40.25000 244.322
40.26000 245.302
40.27000 246.345
40.28000 249.266
40.29000 254.145
40.30000 258.996
40.31000 256.692
40.32000 249.661
40.33000 243.071
40.34000 248.595
40.35000 259.582
40.36000 269.752
40.37000 269.542
40.38000 266.180
40.39000 263.163
40.40000 258.486
40.41000 254.106
40.42000 250.460
40.43000 250.190
40.44000 250.342
40.45000 250.661
40.46000 251.495
40.47000 252.365
40.48000 252.955
40.49000 243.491
40.50000 236.202
40.51000 233.215
40.52000 236.124
40.53000 239.073
40.54000 245.044
40.55000 253.676
40.56000 262.212
40.57000 260.804
40.58000 253.809
40.59000 247.025
40.60000 244.408
40.61000 243.413
40.62000 242.921
40.63000 247.526
40.64000 253.462
40.65000 258.666
40.66000 256.153
40.67000 252.875
40.68000 250.004
40.69000 248.733
40.70000 247.625
40.71000 246.481
40.72000 245.244
40.73000 244.001
40.74000 243.201
40.75000 239.645
40.76000 237.010
40.77000 237.584
40.78000 241.906
40.79000 246.207
40.80000 245.248
40.81000 240.352
40.82000 235.546
40.83000 239.328
40.84000 247.104
40.85000 254.415
40.86000 254.712
40.87000 252.653
40.88000 250.584
40.89000 248.439
40.90000 246.276
40.91000 244.428
40.92000 249.830
40.93000 255.246
40.94000 258.736
40.95000 255.718
40.96000 252.169
40.97000 248.654
40.98000 245.218
40.99000 241.785
41.00000 239.704
41.01000 245.701
41.02000 250.040
41.03000 250.098
41.04000 245.933
41.05000 241.786
41.06000 239.235
41.07000 237.706
41.08000 236.220
41.09000 235.939
41.10000 236.164
41.11000 236.672
41.12000 240.518
41.13000 245.330
41.14000 249.464
41.15000 248.945
41.16000 247.544
41.17000 246.380
41.18000 247.119
41.19000 247.914
41.20000 248.258
41.21000 247.294
41.22000 246.247
41.23000 244.241
41.24000 240.358
41.25000 236.425
41.26000 234.195
41.27000 244.627
41.28000 251.906
41.29000 249.091
41.30000 237.848
41.31000 226.774
41.32000 223.810
41.33000 225.318
41.34000 226.767
41.35000 232.671
41.36000 239.752
41.37000 245.707
41.38000 240.969
41.39000 233.575
41.40000 227.165
41.41000 226.423
41.42000 226.587
41.43000 226.719
41.44000 231.600
41.45000 235.924
41.46000 238.866
41.47000 238.340
41.48000 237.647
41.49000 237.565
41.50000 238.514
41.51000 239.479
41.52000 239.987
41.53000 244.024
41.54000 246.747
41.55000 247.178
41.56000 245.977
41.57000 244.751
41.58000 242.754
41.59000 240.390
41.60000 238.148
41.61000 233.794
41.62000 229.157
41.63000 224.891
41.64000 223.516
41.65000 222.755
41.66000 222.405
41.67000 224.064
41.68000 225.990
41.69000 227.484
41.70000 238.530
41.71000 247.885
41.72000 252.649
41.73000 247.457
41.74000 241.921
41.75000 238.084
41.76000 236.710
41.77000 235.357
41.78000 235.012
41.79000 235.610
41.80000 236.228
41.81000 238.325
41.82000 241.324
41.83000 244.273
41.84000 246.112
41.85000 247.495
41.86000 248.786
41.87000 248.686
41.88000 248.248
41.89000 248.107
41.90000 249.893
41.91000 252.025
41.92000 252.168
41.93000 244.034
41.94000 234.992
41.95000 228.245
41.96000 231.730
41.97000 234.912
41.98000 237.742
41.99000 239.913
42.00000 242.070
42.01000 243.623
42.02000 244.430
42.03000 245.233
42.04000 242.631
42.05000 237.355
42.06000 232.132
42.07000 229.120
42.08000 227.271
42.09000 225.580
42.10000 226.532
42.11000 228.420
42.12000 230.150
42.13000 227.331
42.14000 223.862
42.15000 221.254
42.16000 223.341
42.17000 226.139
42.18000 229.333
42.19000 233.944
42.20000 238.681
42.21000 242.064
42.22000 241.936
42.23000 241.722
42.24000 242.239
42.25000 243.931
42.26000 245.639
42.27000 246.077
42.28000 245.182
42.29000 244.291
42.30000 240.864
42.31000 235.783
42.32000 230.845
42.33000 229.890
42.34000 230.741
42.35000 231.785
42.36000 235.302
42.37000 239.574
42.38000 243.410
42.39000 245.472
42.40000 246.964
42.41000 248.098
42.42000 247.571
42.43000 246.837
42.44000 244.870
42.45000 239.123
42.46000 233.112
42.47000 229.020
42.48000 234.248
42.49000 238.366
42.50000 241.083
42.51000 241.865
42.52000 242.635
42.53000 243.522
42.54000 244.513
42.55000 245.493
42.56000 243.246
42.57000 239.216
42.58000 235.290
42.59000 233.445
42.60000 232.415
42.61000 231.378
42.62000 230.260
42.63000 229.122
42.64000 228.123
42.65000 230.144
42.66000 232.323
42.67000 234.113
42.68000 234.365
42.69000 234.458
42.70000 234.068
42.71000 232.400
42.72000 230.663
42.73000 229.542
42.74000 224.913
42.75000 221.480
42.76000 222.333
42.77000 228.227
42.78000 234.103
42.79000 234.891
42.80000 231.844
42.81000 228.852
42.82000 225.466
42.83000 222.008
42.84000 218.895
42.85000 221.046
42.86000 224.975
42.87000 228.503
42.88000 228.680
42.89000 228.106
42.90000 227.614
42.91000 229.978
42.92000 232.314
42.93000 233.585
42.94000 231.235
42.95000 228.587
42.96000 226.303
42.97000 224.856
42.98000 223.442
42.99000 222.582
43.00000 228.389
43.01000 232.587
43.02000 231.259
43.03000 224.440
43.04000 217.695
43.05000 217.484
43.06000 221.488
43.07000 225.383
43.08000 224.914
43.09000 222.669
43.10000 220.673
43.11000 221.643
43.12000 223.475
43.13000 225.034
43.14000 224.700
43.15000 224.004
43.16000 223.426
43.17000 227.397
43.18000 231.125
43.19000 232.498
43.20000 226.973
43.21000 221.003
43.22000 217.406
43.23000 218.492
43.24000 219.704
43.25000 220.393
43.26000 220.653
43.27000 220.838
43.28000 223.678
43.29000 228.748
43.30000 233.712
43.31000 233.475
43.32000 230.351
43.33000 227.348
43.34000 225.007
43.35000 223.045
43.36000 221.098
43.37000 219.289
43.38000 217.515
43.39000 215.692
43.40000 213.592
43.41000 211.447
43.42000 209.720
43.43000 215.073
43.44000 219.968
43.45000 221.964
43.46000 216.637
43.47000 210.953
43.48000 210.494
43.49000 218.917
43.50000 227.486
43.51000 232.007
43.52000 229.038
43.53000 227.004
43.54000 222.765
43.55000 216.945
43.56000 211.376
43.57000 213.757
43.58000 219.941
43.59000 225.809
43.60000 231.616
43.61000 236.955
43.62000 241.353
43.63000 238.368
43.64000 233.807
43.65000 229.957
43.66000 229.596
43.67000 229.705
43.68000 229.789
43.69000 223.536
43.70000 218.175
43.71000 216.312
43.72000 222.076
43.73000 228.107
43.74000 231.604
43.75000 231.403
43.76000 231.171
43.77000 231.366
43.78000 231.964
43.79000 232.532
43.80000 231.059
43.81000 228.332
43.82000 225.616
43.83000 223.173
43.84000 220.842
43.85000 218.665
43.86000 216.975
43.87000 215.566
43.88000 214.462
43.89000 215.349
43.90000 216.596
43.91000 218.043
43.92000 220.323
43.93000 222.695
43.94000 224.467
43.95000 224.267
43.96000 224.020
43.97000 222.014
43.98000 216.700
43.99000 211.309
44.00000 209.874
44.01000 213.371
44.02000 216.876
44.03000 222.300
44.04000 229.223
44.05000 235.983
44.06000 235.863
44.07000 232.103
44.08000 228.360
44.09000 224.883
44.10000 221.502
44.11000 218.401
44.12000 219.716
44.13000 221.824
44.14000 223.687
44.15000 224.202
44.16000 224.512
44.17000 223.526
44.18000 217.893
44.19000 211.843
44.20000 207.514
44.21000 212.182
44.22000 216.049
44.23000 218.532
44.24000 218.770
44.25000 218.978
44.26000 219.090
44.27000 219.102
44.28000 219.114
44.29000 221.387
44.30000 225.156
44.31000 228.908
44.32000 232.184
44.33000 235.244
44.34000 237.852
44.35000 234.600
44.36000 229.547
44.37000 225.005
44.38000 224.027
44.39000 223.802
44.40000 224.074
44.41000 226.657
44.42000 229.532
44.43000 230.823
44.44000 227.222
44.45000 223.274
44.46000 220.582
44.47000 220.732
44.48000 220.911
44.49000 223.752
44.50000 230.290
44.51000 236.846
44.52000 236.546
44.53000 230.131
44.54000 223.784
44.55000 224.225
44.56000 228.541
44.57000 232.687
44.58000 233.368
44.59000 232.683
44.60000 231.617
44.61000 226.600
44.62000 220.540
44.63000 215.216
44.64000 223.296
44.65000 232.219
44.66000 240.391
44.67000 245.570
44.68000 250.440
44.69000 253.564
44.70000 252.037
44.71000 250.259
44.72000 249.109
44.73000 240.893
44.74000 234.781
44.75000 233.645
44.76000 238.398
44.77000 243.159
44.78000 247.519
44.79000 251.576
44.80000 255.561
44.81000 262.148
44.82000 269.775
44.83000 276.832
44.84000 275.127
44.85000 270.441
44.86000 266.389
44.87000 267.670
44.88000 270.157
44.89000 272.286
44.90000 274.838
44.91000 277.044
44.92000 279.469
44.93000 282.648
44.94000 285.890
44.95000 290.425
44.96000 297.934
44.97000 305.561
44.98000 310.209
44.99000 310.599
45.00000 310.843
45.01000 315.235
45.02000 323.776
45.03000 332.247
45.04000 334.346
45.05000 332.310
45.06000 330.329
45.07000 331.345
45.08000 333.555
45.09000 335.419
45.10000 333.114
45.11000 329.590
45.12000 326.323
45.13000 324.858
45.14000 323.738
45.15000 322.807
45.16000 329.120
45.17000 335.060
45.18000 339.487
45.19000 339.459
45.20000 339.141
45.21000 337.169
45.22000 331.915
45.23000 326.572
45.24000 323.525
45.25000 314.279
45.26000 307.810
45.27000 301.235
45.28000 294.570
45.29000 288.018
45.30000 287.088
45.31000 289.295
45.32000 291.418
45.33000 287.985
45.34000 282.805
45.35000 277.689
45.36000 273.191
45.37000 268.849
45.38000 265.224
45.39000 265.788
45.40000 267.032
45.41000 268.035
45.42000 262.741
45.43000 257.947
45.44000 252.917
45.45000 247.285
45.46000 241.623
45.47000 238.341
45.48000 239.128
45.49000 239.984
45.50000 240.437
45.51000 243.191
45.52000 245.066
45.53000 247.330
45.54000 249.874
45.55000 252.201
45.56000 247.531
45.57000 239.494
45.58000 231.863
45.59000 231.318
45.60000 232.934
45.61000 233.932
45.62000 230.034
45.63000 225.083
45.64000 221.031
45.65000 221.418
45.66000 222.407
45.67000 223.176
45.68000 216.985
45.69000 211.628
45.70000 206.605
45.71000 202.317
45.72000 198.055
45.73000 198.726
45.74000 206.643
45.75000 214.624
45.76000 218.943
45.77000 219.793
45.78000 220.599
45.79000 218.176
45.80000 213.758
45.81000 209.577
45.82000 210.817
45.83000 214.309
45.84000 217.572
45.85000 213.515
45.86000 207.980
45.87000 203.515
45.88000 206.097
45.89000 209.963
45.90000 212.384
45.91000 208.714
45.92000 204.364
45.93000 201.108
45.94000 203.060
45.95000 204.827
45.96000 205.235
45.97000 203.069
45.98000 200.843
45.99000 201.029
46.00000 204.242
46.01000 207.459
46.02000 210.275
46.03000 212.759
46.04000 215.116
46.05000 212.024
46.06000 206.033
46.07000 200.309
46.08000 199.089
46.09000 199.484
46.10000 199.847
46.11000 201.062
46.12000 202.328
46.13000 203.231
46.14000 202.122
46.15000 200.704
46.16000 198.982
46.17000 196.160
46.18000 193.239
46.19000 191.145
46.20000 195.876
46.21000 199.726
46.22000 200.983
46.23000 198.015
46.24000 194.988
46.25000 194.680
46.26000 197.265
46.27000 199.838
46.28000 201.380
46.29000 202.205
46.30000 202.952
46.31000 201.444
46.32000 198.902
46.33000 196.875
46.34000 201.589
46.35000 208.387
46.36000 214.503
46.37000 212.993
46.38000 210.306
46.39000 207.984
46.40000 207.370
46.41000 206.974
46.42000 205.884
46.43000 202.638
46.44000 199.237
46.45000 196.913
46.46000 193.990
46.47000 191.788
46.48000 191.656
46.49000 194.416
46.50000 197.193
46.51000 196.573
46.52000 192.904
46.53000 189.272
46.54000 192.865
46.55000 200.543
46.56000 207.669
46.57000 203.463
46.58000 194.766
46.59000 186.763
46.60000 186.007
46.61000 187.178
46.62000 188.207
46.63000 195.026
46.64000 201.753
46.65000 206.052
46.66000 200.621
46.67000 194.173
46.68000 190.419
46.69000 193.884
46.70000 197.745
46.71000 200.247
46.72000 201.141
46.73000 201.772
46.74000 199.154
46.75000 192.663
46.76000 186.195
46.77000 186.322
46.78000 191.484
46.79000 196.555
46.80000 199.551
46.81000 201.427
46.82000 203.248
46.83000 204.195
46.84000 204.844
46.85000 205.648
46.86000 207.765
46.87000 210.182
46.88000 212.254
46.89000 211.830
46.90000 211.168
46.91000 209.112
46.92000 202.262
46.93000 195.009
46.94000 190.201
46.95000 191.049
46.96000 192.125
46.97000 192.782
46.98000 192.089
46.99000 191.582
47.00000 190.759
47.01000 189.618
47.02000 188.512
47.03000 190.681
47.04000 194.988
47.05000 199.181
47.06000 204.791
47.07000 210.727
47.08000 215.867
47.09000 211.340
47.10000 203.965
47.11000 197.363
47.12000 196.187
47.13000 196.062
47.14000 195.957
47.15000 194.156
47.16000 192.495
47.17000 191.699
47.18000 193.464
47.19000 195.398
47.20000 195.965
47.21000 193.804
47.22000 191.568
47.23000 190.289
47.24000 181.425
47.25000 175.224
47.26000 177.252
47.27000 186.289
47.28000 195.188
47.29000 197.043
47.30000 194.944
47.31000 192.923
47.32000 189.159
47.33000 185.009
47.34000 181.088
47.35000 179.404
47.36000 178.285
47.37000 177.581
47.38000 179.315
47.39000 181.447
47.40000 183.167
47.41000 181.112
47.42000 179.142
47.43000 179.502
47.44000 185.821
47.45000 192.438
47.46000 194.693
47.47000 189.443
47.48000 184.063
47.49000 181.207
47.50000 185.804
47.51000 188.930
47.52000 190.971
47.53000 192.226
47.54000 193.373
47.55000 190.986
47.56000 186.887
47.57000 182.993
47.58000 181.209
47.59000 180.197
47.60000 179.449
47.61000 180.800
47.62000 182.605
47.63000 184.168
47.64000 184.525
47.65000 184.717
47.66000 184.867
47.67000 183.666
47.68000 182.624
47.69000 180.636
47.70000 176.559
47.71000 172.407
47.72000 175.554
47.73000 189.488
47.74000 203.520
47.75000 204.544
47.76000 193.163
47.77000 181.852
47.78000 175.814
47.79000 173.055
47.80000 170.555
47.81000 174.003
47.82000 179.937
47.83000 185.487
47.84000 186.240
47.85000 185.700
47.86000 185.634
47.87000 188.702
47.88000 192.345
47.89000 194.205
47.90000 188.507
47.91000 181.957
47.92000 177.047
47.93000 176.141
47.94000 175.624
47.95000 176.672
47.96000 180.704
47.97000 184.807
47.98000 186.233
47.99000 184.277
48.00000 182.313
48.01000 184.936
48.02000 191.242
48.03000 197.376
48.04000 195.944
48.05000 190.463
48.06000 185.470
48.07000 188.830
48.08000 195.203
48.09000 201.059
48.10000 194.820
48.11000 186.652
48.12000 179.990
48.13000 181.717
48.14000 184.740
48.15000 187.696
48.16000 190.411
48.17000 193.103
48.18000 195.037
48.19000 185.821
48.20000 178.386
48.21000 173.307
48.22000 172.092
48.23000 170.932
48.24000 174.956
48.25000 184.535
48.26000 194.069
48.27000 193.238
48.28000 185.342
48.29000 177.564
48.30000 173.207
48.31000 170.429
48.32000 168.277
48.33000 174.407
48.34000 183.112
48.35000 190.951
48.36000 187.703
48.37000 182.860
48.38000 179.429
48.39000 182.671
48.40000 186.771
48.41000 188.693
48.42000 183.807
48.43000 178.429
48.44000 174.747
48.45000 183.687
48.46000 190.684
48.47000 192.533
48.48000 187.142
48.49000 181.703
48.50000 179.635
48.51000 180.613
48.52000 181.582
48.53000 181.505
48.54000 180.822
48.55000 180.098
48.56000 178.525
48.57000 176.613
48.58000 175.160
48.59000 178.530
48.60000 183.189
48.61000 187.290
48.62000 181.845
48.63000 175.728
48.64000 170.392
48.65000 168.206
48.66000 166.353
48.67000 165.737
48.68000 168.455
48.69000 171.357
48.70000 173.243
48.71000 170.819
48.72000 168.977
48.73000 169.483
48.74000 172.803
48.75000 176.127
48.76000 179.014
48.77000 181.566
48.78000 184.073
48.79000 183.997
48.80000 182.649
48.81000 181.479
48.82000 183.112
48.83000 185.708
48.84000 187.278
48.85000 180.059
48.86000 170.828
48.87000 162.906
48.88000 167.466
48.89000 172.857
48.90000 177.237
48.91000 178.118
48.92000 178.702
48.93000 179.104
48.94000 179.081
48.95000 179.040
48.96000 179.015
48.97000 180.644
48.98000 181.823
48.99000 180.931
49.00000 177.937
49.01000 174.958
49.02000 173.447
49.03000 172.901
49.04000 172.369
49.05000 172.417
49.06000 172.706
49.07000 173.209
49.08000 176.338
49.09000 180.245
49.10000 183.887
49.11000 185.664
49.12000 187.078
49.13000 188.257
49.14000 184.551
49.15000 180.989
49.16000 177.864
49.17000 176.043
49.18000 174.310
49.19000 173.768
49.20000 175.623
49.21000 177.545
49.22000 178.647
49.23000 178.632
49.24000 178.617
49.25000 178.608
49.26000 178.603
49.27000 178.546
49.28000 175.815
49.29000 171.574
49.30000 167.488
49.31000 169.407
49.32000 173.353
49.33000 177.063
49.34000 178.450
49.35000 179.247
49.36000 180.026
49.37000 180.700
49.38000 181.357
49.39000 181.888
49.40000 177.989
49.41000 174.462
49.42000 172.005
49.43000 172.300
49.44000 172.734
49.45000 174.195
49.46000 177.437
49.47000 180.710
49.48000 182.453
49.49000 182.293
49.50000 182.189
49.51000 183.291
49.52000 185.274
49.53000 187.181
49.54000 186.586
49.55000 184.773
49.56000 183.050
49.57000 180.765
49.58000 178.484
49.59000 176.214
49.60000 174.034
49.61000 171.875
49.62000 169.882
49.63000 168.724
49.64000 167.682
49.65000 166.868
49.66000 172.354
49.67000 177.124
49.68000 182.471
49.69000 189.098
49.70000 195.771
49.71000 197.106
49.72000 190.503
49.73000 183.826
49.74000 177.592
49.75000 171.784
49.76000 166.076
49.77000 167.992
49.78000 174.678
49.79000 181.191
49.80000 183.653
49.81000 184.411
49.82000 185.121
49.83000 182.796
49.84000 179.905
49.85000 177.164
49.86000 175.428
49.87000 173.877
49.88000 171.996
49.89000 168.705
49.90000 165.254
49.91000 162.662
49.92000 163.115
49.93000 163.616
49.94000 165.606
49.95000 170.451
49.96000 175.367
49.97000 178.808
49.98000 180.376
49.99000 181.935
50.00000 180.315
50.01000 176.124
50.02000 172.050
50.03000 173.234
50.04000 177.249
50.05000 181.041
50.06000 180.962
50.07000 179.478
50.08000 178.114
50.09000 176.183
50.10000 174.336
50.11000 172.625
50.12000 171.679
50.13000 170.853
50.14000 170.940
50.15000 174.365
50.16000 178.098
50.17000 180.784
50.18000 179.519
50.19000 178.411
50.20000 176.996
50.21000 175.073
50.22000 173.142
50.23000 172.340
50.24000 172.755
50.25000 173.169
50.26000 170.865
50.27000 166.719
50.28000 162.798
50.29000 165.498
50.30000 171.273
50.31000 176.828
50.32000 179.454
50.33000 181.163
50.34000 182.704
50.35000 181.179
50.36000 179.285
50.37000 177.882
50.38000 178.811
50.39000 180.041
50.40000 180.645
50.41000 179.278
50.42000 177.767
50.43000 176.730
50.44000 175.853
50.45000 175.199
50.46000 179.387
50.47000 190.426
50.48000 201.509
50.49000 201.371
50.50000 191.023
50.51000 180.776
50.52000 181.995
50.53000 189.882
50.54000 197.537
50.55000 200.303
50.56000 201.108
50.57000 201.775
50.58000 200.969
50.59000 199.768
50.60000 198.710
50.61000 203.550
50.62000 208.610
50.63000 212.764
50.64000 213.242
50.65000 213.329
50.66000 212.318
50.67000 208.330
50.68000 204.175
50.69000 201.470
50.70000 205.461
50.71000 208.492
50.72000 211.454
50.73000 214.335
50.74000 217.217
50.75000 220.644
50.76000 224.493
50.77000 228.277
50.78000 226.889
50.79000 222.976
50.80000 219.289
50.81000 219.170
50.82000 220.286
50.83000 220.775
50.84000 215.851
50.85000 209.680
50.86000 204.378
50.87000 203.145
50.88000 202.608
50.89000 202.533
50.90000 204.065
50.91000 205.735
50.92000 205.554
50.93000 201.041
50.94000 196.349
50.95000 193.468
50.96000 192.290
50.97000 191.460
50.98000 190.340
50.99000 188.922
51.00000 187.494
51.01000 185.049
51.02000 181.933
51.03000 178.897
51.04000 181.834
51.05000 187.160
51.06000 191.890
51.07000 189.232
51.08000 184.371
51.09000 179.573
51.10000 175.219
51.11000 170.953
51.12000 167.390
51.13000 169.112
51.14000 171.076
51.15000 173.202
51.16000 175.817
51.17000 178.465
51.18000 178.447
51.19000 173.045
51.20000 167.488
51.21000 164.292
51.22000 173.417
51.23000 179.838
51.24000 180.544
51.25000 176.319
51.26000 172.062
51.27000 166.118
51.28000 159.215
51.29000 152.562
51.30000 156.109
51.31000 163.110
51.32000 169.099
51.33000 165.058
51.34000 158.449
51.35000 152.629
51.36000 151.519
51.37000 151.188
51.38000 150.920
51.39000 156.296
51.40000 161.129
51.41000 164.393
51.42000 163.600
51.43000 162.601
51.44000 163.153
51.45000 166.407
51.46000 169.710
51.47000 171.475
51.48000 176.395
51.49000 179.718
51.50000 177.237
51.51000 170.491
51.52000 163.860
51.53000 161.115
51.54000 160.274
51.55000 159.475
51.56000 161.747
51.57000 164.787
51.58000 167.285
51.59000 165.401
51.60000 162.558
51.61000 159.935
51.62000 158.426
51.63000 157.071
51.64000 156.011
51.65000 161.311
51.66000 165.944
51.67000 168.466
51.68000 166.274
51.69000 163.907
51.70000 161.311
51.71000 158.372
51.72000 155.430
51.73000 154.191
51.74000 154.598
51.75000 154.989
51.76000 154.152
51.77000 152.540
51.78000 151.079
51.79000 153.181
51.80000 156.789
51.81000 160.168
51.82000 163.537
51.83000 166.598
51.84000 169.006
51.85000 167.020
51.86000 164.216
51.87000 161.672
51.88000 160.248
51.89000 158.952
51.90000 157.977
51.91000 156.794
51.92000 155.859
51.93000 155.460
51.94000 156.091
51.95000 156.748
51.96000 158.747
51.97000 162.463
51.98000 166.180
51.99000 163.861
52.00000 156.622
52.01000 149.515
52.02000 148.422
52.03000 150.587
52.04000 152.717
52.05000 154.226
52.06000 155.507
52.07000 156.687
52.08000 159.861
52.09000 163.134
52.10000 166.057
52.11000 167.006
52.12000 167.646
52.13000 166.549
52.14000 159.066
52.15000 150.991
52.16000 145.170
52.17000 148.514
52.18000 151.402
52.19000 154.667
52.20000 158.557
52.21000 162.457
52.22000 165.647
52.23000 168.065
52.24000 170.472
52.25000 171.011
52.26000 170.252
52.27000 169.380
52.28000 165.109
52.29000 159.250
52.30000 153.700
52.31000 152.320
52.32000 152.253
52.33000 152.192
52.34000 156.353
52.35000 160.778
52.36000 164.415
52.37000 164.278
52.38000 163.648
52.39000 162.927
52.40000 161.915
52.41000 160.882
52.42000 160.172
52.43000 156.020
52.44000 152.821
52.45000 150.712
52.46000 150.158
52.47000 149.616
52.48000 151.307
52.49000 155.044
52.50000 158.746
52.51000 160.639
52.52000 161.431
52.53000 162.161
52.54000 161.550
52.55000 160.399
52.56000 159.150
52.57000 156.845
52.58000 154.255
52.59000 151.971
52.60000 152.341
52.61000 153.063
52.62000 153.581
52.63000 153.270
52.64000 152.870
52.65000 152.846
52.66000 153.851
52.67000 154.913
52.68000 155.606
52.69000 158.027
52.70000 159.831
52.71000 159.673
52.72000 157.132
52.73000 154.589
52.74000 152.979
52.75000 152.094
52.76000 151.223
52.77000 150.971
52.78000 151.036
52.79000 151.206
52.80000 153.068
52.81000 155.519
52.82000 157.652
52.83000 157.011
52.84000 155.727
52.85000 154.623
52.86000 161.308
52.87000 167.942
52.88000 172.359
52.89000 169.007
52.90000 164.984
52.91000 161.311
52.92000 158.463
52.93000 155.650
52.94000 153.918
52.95000 154.025
52.96000 154.118
52.97000 153.986
52.98000 153.624
52.99000 153.268
53.00000 153.520
53.01000 154.179
53.02000 154.821
53.03000 154.088
53.04000 152.804
53.05000 151.889
53.06000 155.590
53.07000 160.675
53.08000 164.725
53.09000 161.341
53.10000 156.489
53.11000 152.431
53.12000 155.528
53.13000 158.829
53.14000 161.237
53.15000 160.951
53.16000 160.483
53.17000 161.165
53.18000 164.188
53.19000 167.279
53.20000 169.061
53.21000 161.237
53.22000 155.726
53.23000 153.798
53.24000 154.984
53.25000 156.147
53.26000 156.121
53.27000 155.415
53.28000 154.735
53.29000 156.026
53.30000 157.954
53.31000 159.982
53.32000 163.017
53.33000 166.312
53.34000 168.853
53.35000 166.866
53.36000 164.124
53.37000 161.902
53.38000 166.160
53.39000 170.159
53.40000 171.395
53.41000 165.443
53.42000 159.118
53.43000 155.391
53.44000 156.214
53.45000 157.121
53.46000 157.607
53.47000 154.616
53.48000 152.599
53.49000 155.286
53.50000 161.454
53.51000 167.435
53.52000 166.977
53.53000 163.347
53.54000 159.892
53.55000 159.564
53.56000 160.221
53.57000 160.326
53.58000 155.920
53.59000 150.520
53.60000 146.853
53.61000 151.984
53.62000 158.343
53.63000 163.322
53.64000 164.842
53.65000 165.834
53.66000 165.597
53.67000 162.597
53.68000 159.493
53.69000 157.477
53.70000 157.099
53.71000 156.738
53.72000 157.274
53.73000 158.686
53.74000 160.055
53.75000 158.044
53.76000 153.891
53.77000 150.043
53.78000 153.486
53.79000 160.032
53.80000 166.166
53.81000 168.666
53.82000 169.995
53.83000 170.599
53.84000 166.289
53.85000 161.059
53.86000 156.730
53.87000 156.292
53.88000 156.303
53.89000 156.311
53.90000 158.346
53.91000 160.038
53.92000 159.828
53.93000 155.932
53.94000 151.942
53.95000 149.169
53.96000 147.964
53.97000 146.766
53.98000 146.425
53.99000 146.788
54.00000 147.140
54.01000 146.965
54.02000 146.502
54.03000 146.208
54.04000 148.900
54.05000 152.689
54.06000 156.178
54.07000 155.670
54.08000 154.339
54.09000 153.438
54.10000 154.978
54.11000 156.904
54.12000 158.300
54.13000 157.735
54.14000 156.987
54.15000 156.446
54.16000 159.541
54.17000 162.046
54.18000 161.390
54.19000 155.454
54.20000 149.436
54.21000 147.178
54.22000 149.031
54.23000 150.879
54.24000 152.018
54.25000 152.652
54.26000 153.228
54.27000 152.040
54.28000 150.023
54.29000 148.339
54.30000 151.186
54.31000 155.468
54.32000 159.334
54.33000 156.559
54.34000 152.898
54.35000 149.745
54.36000 149.040
54.37000 148.656
54.38000 149.268
54.39000 153.047
54.40000 157.062
54.41000 159.828
54.42000 155.102
54.43000 151.365
54.44000 148.059
54.45000 145.369
54.46000 142.685
54.47000 141.589
54.48000 141.959
54.49000 142.326
54.50000 142.316
54.51000 142.083
54.52000 142.089
54.53000 147.255
54.54000 154.514
54.55000 160.914
54.56000 158.028
54.57000 152.613
54.58000 147.833
54.59000 150.529
54.60000 154.000
54.61000 157.535
54.62000 161.330
54.63000 165.153
54.64000 167.649
54.65000 166.503
54.66000 165.148
54.67000 164.262
54.68000 159.667
54.69000 156.231
54.70000 155.738
54.71000 158.845
54.72000 161.948
54.73000 161.506
54.74000 158.287
54.75000 155.120
54.76000 152.220
54.77000 149.547
54.78000 147.114
54.79000 148.562
54.80000 151.370
54.81000 154.052
54.82000 155.624
54.83000 156.937
54.84000 158.067
54.85000 156.859
54.86000 155.541
54.87000 155.308
54.88000 158.901
54.89000 162.826
54.90000 164.702
54.91000 161.720
54.92000 158.532
54.93000 156.565
54.94000 157.271
54.95000 157.803
54.96000 155.413
54.97000 149.996
54.98000 144.620
54.99000 143.421
55.00000 145.018
55.01000 146.576
55.02000 149.830
55.03000 153.664
55.04000 157.555
55.05000 162.175
55.06000 167.014
55.07000 170.789
55.08000 166.858
55.09000 161.396
55.10000 156.823
55.11000 162.548
55.12000 168.366
55.13000 170.965
55.14000 163.799
55.15000 155.962
55.16000 151.811
55.17000 155.196
55.18000 158.804
55.19000 160.891
55.20000 161.697
55.21000 162.256
55.22000 161.457
55.23000 159.470
55.24000 157.572
55.25000 160.589
55.26000 166.434
55.27000 172.071
55.28000 169.099
55.29000 163.166
55.30000 157.988
55.31000 160.418
55.32000 164.821
55.33000 168.861
55.34000 170.700
55.35000 172.170
55.36000 173.362
55.37000 180.675
55.38000 187.142
55.39000 191.097
55.40000 188.477
55.41000 185.514
55.42000 182.092
55.43000 177.862
55.44000 173.617
55.45000 171.335
55.46000 181.057
55.47000 187.696
55.48000 191.560
55.49000 193.358
55.50000 195.090
55.51000 194.494
55.52000 192.743
55.53000 191.077
55.54000 190.796
55.55000 190.964
55.56000 191.749
55.57000 197.599
55.58000 204.573
55.59000 210.936
55.60000 214.177
55.61000 216.979
55.62000 219.176
55.63000 227.396
55.64000 234.357
55.65000 240.363
55.66000 244.210
55.67000 247.975
55.68000 255.223
55.69000 267.747
55.70000 280.326
55.71000 290.972
55.72000 299.722
55.73000 308.462
55.74000 316.341
55.75000 323.670
55.76000 331.293
55.77000 346.025
55.78000 363.799
55.79000 380.467
55.80000 394.759
55.81000 407.153
55.82000 419.744
55.83000 433.679
55.84000 447.866
55.85000 460.831
55.86000 468.478
55.87000 475.506
55.88000 480.811
55.89000 504.093
55.90000 523.225
55.91000 534.581
55.92000 530.770
55.93000 526.565
55.94000 529.055
55.95000 540.219
55.96000 551.405
55.97000 557.488
55.98000 559.330
55.99000 560.977
56.00000 553.383
56.01000 540.722
56.02000 528.326
56.03000 520.674
56.04000 514.774
56.05000 509.336
56.06000 507.472
56.07000 506.594
56.08000 502.512
56.09000 480.095
56.10000 454.765
56.11000 433.351
56.12000 426.521
56.13000 421.067
56.14000 417.122
56.15000 401.834
56.16000 389.685
56.17000 379.147
56.18000 371.312
56.19000 363.520
56.20000 352.655
56.21000 338.404
56.22000 324.212
56.23000 312.115
56.24000 301.607
56.25000 291.077
56.26000 279.860
56.27000 268.318
56.28000 257.275
56.29000 253.111
56.30000 251.139
56.31000 249.357
56.32000 242.739
56.33000 236.024
56.34000 229.198
56.35000 221.838
56.36000 214.407
56.37000 206.958
56.38000 199.450
56.39000 191.937
56.40000 186.751
56.41000 188.271
56.42000 189.585
56.43000 189.632
56.44000 187.855
56.45000 186.063
56.46000 184.772
56.47000 183.947
56.48000 183.128
56.49000 181.267
56.50000 178.822
56.51000 176.329
56.52000 172.777
56.53000 168.792
56.54000 165.104
56.55000 164.662
56.56000 165.108
56.57000 165.503
56.58000 162.075
56.59000 158.526
56.60000 155.382
56.61000 153.914
56.62000 152.630
56.63000 152.929
56.64000 157.601
56.65000 162.526
56.66000 165.754
56.67000 157.079
56.68000 150.504
56.69000 144.351
56.70000 138.717
56.71000 133.110
56.72000 135.075
56.73000 143.009
56.74000 150.817
56.75000 152.770
56.76000 151.697
56.77000 150.566
56.78000 148.497
56.79000 146.098
56.80000 144.203
56.81000 146.765
56.82000 150.374
56.83000 153.485
56.84000 150.557
56.85000 147.308
56.86000 145.545
56.87000 149.055
56.88000 153.029
56.89000 155.390
56.90000 153.906
56.91000 152.258
56.92000 151.238
56.93000 149.417
56.94000 148.100
56.95000 145.432
56.96000 141.353
56.97000 137.306
56.98000 136.738
56.99000 138.513
57.00000 140.245
57.01000 140.966
57.02000 141.220
57.03000 141.451
57.04000 141.405
57.05000 141.274
57.06000 141.203
57.07000 141.572
57.08000 142.029
57.09000 142.412
57.10000 137.531
57.11000 132.924
57.12000 130.867
57.13000 136.591
57.14000 142.854
57.15000 146.598
57.16000 145.159
57.17000 143.564
57.18000 142.639
57.19000 140.859
57.20000 139.607
57.21000 138.603
57.22000 137.819
57.23000 137.018
57.24000 135.291
57.25000 133.029
57.26000 130.845
57.27000 134.790
57.28000 140.750
57.29000 146.027
57.30000 144.344
57.31000 140.845
57.32000 137.746
57.33000 137.082
57.34000 136.829
57.35000 136.624
57.36000 137.308
57.37000 137.939
57.38000 140.038
57.39000 145.999
57.40000 152.165
57.41000 155.074
57.42000 152.208
57.43000 149.231
57.44000 147.626
57.45000 144.517
57.46000 142.389
57.47000 140.196
57.48000 137.955
57.49000 135.745
57.50000 134.654
57.51000 134.121
57.52000 133.613
57.53000 132.900
57.54000 132.175
57.55000 131.685
57.56000 133.136
57.57000 135.021
57.58000 136.602
57.59000 136.624
57.60000 136.425
57.61000 136.269
57.62000 136.171
57.63000 136.096
57.64000 136.623
57.65000 138.522
57.66000 140.473
57.67000 142.481
57.68000 144.575
57.69000 146.669
57.70000 146.021
57.71000 142.666
57.72000 139.324
57.73000 137.130
57.74000 135.671
57.75000 134.209
57.76000 132.669
57.77000 131.096
57.78000 129.620
57.79000 128.364
57.80000 127.278
57.81000 126.897
57.82000 131.364
57.83000 136.752
57.84000 140.599
57.85000 137.706
57.86000 134.023
57.87000 131.240
57.88000 138.419
57.89000 144.548
57.90000 148.109
57.91000 146.632
57.92000 145.022
57.93000 145.126
57.94000 147.467
57.95000 149.815
57.96000 147.164
57.97000 140.358
57.98000 133.703
57.99000 134.352
58.00000 139.030
58.01000 143.520
58.02000 144.603
58.03000 144.420
58.04000 144.251
58.05000 145.619
58.06000 147.187
58.07000 148.458
58.08000 148.019
58.09000 147.306
58.10000 146.302
58.11000 144.211
58.12000 142.017
58.13000 140.427
58.14000 141.186
58.15000 141.857
58.16000 139.943
58.17000 133.662
58.18000 127.309
58.19000 126.921
58.20000 133.144
58.21000 139.347
58.22000 140.425
58.23000 137.877
58.24000 135.444
58.25000 136.617
58.26000 139.507
58.27000 142.276
58.28000 143.376
58.29000 143.942
58.30000 144.453
58.31000 141.946
58.32000 139.177
58.33000 136.732
58.34000 135.873
58.35000 135.226
58.36000 133.987
58.37000 130.841
58.38000 127.551
58.39000 125.275
58.40000 135.505
58.41000 143.524
58.42000 146.769
58.43000 143.087
58.44000 139.348
58.45000 138.978
58.46000 141.757
58.47000 144.512
58.48000 141.963
58.49000 136.285
58.50000 130.789
58.51000 129.317
58.52000 129.496
58.53000 129.796
58.54000 131.418
58.55000 133.405
58.56000 135.161
58.57000 135.030
58.58000 134.622
58.59000 134.106
58.60000 133.133
58.61000 132.111
58.62000 131.587
58.63000 132.448
58.64000 133.389
58.65000 134.008
58.66000 132.395
58.67000 131.171
58.68000 131.031
58.69000 132.234
58.70000 133.443
58.71000 135.373
58.72000 137.874
58.73000 140.337
58.74000 139.041
58.75000 135.869
58.76000 132.910
58.77000 133.478
58.78000 135.296
58.79000 136.887
58.80000 136.458
58.81000 135.551
58.82000 134.769
58.83000 134.266
58.84000 133.874
58.85000 134.203
58.86000 137.103
58.87000 140.231
58.88000 141.623
58.89000 138.852
58.90000 135.899
58.91000 134.068
58.92000 132.332
58.93000 131.084
58.94000 130.777
58.95000 131.459
58.96000 132.131
58.97000 131.720
58.98000 130.574
58.99000 129.456
59.00000 132.254
59.01000 136.628
59.02000 140.866
59.03000 143.361
59.04000 145.322
59.05000 146.935
59.06000 145.996
59.07000 144.543
59.08000 143.324
59.09000 141.365
59.10000 139.658
59.11000 138.287
59.12000 137.952
59.13000 137.689
59.14000 137.259
59.15000 136.484
59.16000 135.698
59.17000 135.242
59.18000 134.224
59.19000 133.507
59.20000 131.878
59.21000 129.441
59.22000 127.001
59.23000 124.369
59.24000 121.625
59.25000 118.975
59.26000 119.399
59.27000 120.934
59.28000 122.819
59.29000 128.296
59.30000 134.716
59.31000 139.902
59.32000 137.521
59.33000 133.851
59.34000 130.864
59.35000 133.294
59.36000 135.732
59.37000 138.064
59.38000 140.112
59.39000 142.146
59.40000 141.314
59.41000 135.369
59.42000 129.324
59.43000 126.053
59.44000 131.704
59.45000 135.561
59.46000 134.818
59.47000 130.608
59.48000 126.545
59.49000 127.803
59.50000 131.732
59.51000 135.477
59.52000 134.172
59.53000 131.378
59.54000 129.269
59.55000 132.882
59.56000 137.781
59.57000 141.728
59.58000 140.750
59.59000 139.070
59.60000 137.749
59.61000 129.047
59.62000 121.592
59.63000 118.709
59.64000 126.286
59.65000 134.273
59.66000 136.436
59.67000 129.669
59.68000 122.805
59.69000 120.634
59.70000 123.130
59.71000 125.604
59.72000 126.250
59.73000 125.715
59.74000 125.310
59.75000 128.151
59.76000 132.398
59.77000 136.386
59.78000 133.918
59.79000 129.953
59.80000 126.611
59.81000 127.588
59.82000 129.391
59.83000 130.581
59.84000 129.080
59.85000 127.260
59.86000 125.883
59.87000 122.754
59.88000 120.209
59.89000 119.627
59.90000 122.916
59.91000 126.310
59.92000 127.972
59.93000 127.362
59.94000 126.743
59.95000 125.761
59.96000 124.478
59.97000 123.257
59.98000 125.076
59.99000 128.583
60.00000 131.943
60.01000 132.611
60.02000 132.272
60.03000 131.960
60.04000 132.194
60.05000 132.526
60.06000 132.316
60.07000 128.963
60.08000 125.104
60.09000 122.830
60.10000 126.531
60.11000 130.807
60.12000 133.911
60.13000 136.029
60.14000 137.619
60.15000 137.512
60.16000 134.518
60.17000 131.475
60.18000 131.031
60.19000 133.487
60.20000 135.935
60.21000 133.256
60.22000 126.961
60.23000 120.866
60.24000 121.159
60.25000 124.508
60.26000 127.585
60.27000 126.845
60.28000 124.873
60.29000 123.088
60.30000 127.352
60.31000 132.244
60.32000 136.224
60.33000 135.723
60.34000 134.620
60.35000 133.734
60.36000 133.552
60.37000 133.423
60.38000 133.334
60.39000 130.759
60.40000 128.754
60.41000 128.089
60.42000 129.380
60.43000 130.688
60.44000 132.810
60.45000 135.700
60.46000 138.566
60.47000 134.605
60.48000 126.604
60.49000 118.948
60.50000 119.076
60.51000 122.420
60.52000 125.604
60.53000 127.016
60.54000 127.937
60.55000 128.753
60.56000 129.150
60.57000 129.429
60.58000 130.468
60.59000 134.690
60.60000 139.264
60.61000 141.646
60.62000 137.903
60.63000 133.797
60.64000 131.094
60.65000 128.498
60.66000 126.587
60.67000 126.368
60.68000 128.256
60.69000 130.155
60.70000 133.028
60.71000 136.681
60.72000 140.278
60.73000 139.734
60.74000 137.081
60.75000 134.620
60.76000 135.372
60.77000 137.270
60.78000 138.784
60.79000 136.844
60.80000 134.084
60.81000 131.699
60.82000 132.648
60.83000 133.883
60.84000 134.404
60.85000 132.359
60.86000 130.083
60.87000 128.539
60.88000 128.760
60.89000 129.058
60.90000 129.244
60.91000 130.171
60.92000 130.847
60.93000 131.497
60.94000 132.120
60.95000 132.735
60.96000 132.324
60.97000 131.213
60.98000 130.129
60.99000 131.572
61.00000 134.057
61.01000 136.367
61.02000 136.400
61.03000 135.734
61.04000 135.076
61.05000 134.484
61.06000 133.905
61.07000 133.419
61.08000 131.435
61.09000 129.625
61.10000 127.816
61.11000 126.014
61.12000 124.212
61.13000 124.261
61.14000 128.164
61.15000 132.186
61.16000 134.531
61.17000 139.179
61.18000 142.455
61.19000 142.622
61.20000 140.014
61.21000 137.394
61.22000 134.018
61.23000 130.199
61.24000 126.511
61.25000 129.403
61.26000 134.575
61.27000 139.560
61.28000 142.611
61.29000 145.149
61.30000 147.247
61.31000 146.621
61.32000 145.527
61.33000 144.636
61.34000 143.087
61.35000 141.766
61.36000 141.690
61.37000 144.934
61.38000 148.358
61.39000 149.016
61.40000 144.707
61.41000 140.298
61.42000 137.906
61.43000 139.961
61.44000 141.365
61.45000 140.803
61.46000 138.750
61.47000 136.770
61.48000 137.503
61.49000 139.606
61.50000 141.611
61.51000 142.905
61.52000 143.881
61.53000 145.578
61.54000 153.351
61.55000 162.496
61.56000 171.690
61.57000 181.130
61.58000 190.606
61.59000 198.068
61.60000 207.222
61.61000 214.670
61.62000 222.116
61.63000 229.556
61.64000 236.995
61.65000 242.348
61.66000 244.483
61.67000 246.582
61.68000 247.632
61.69000 250.265
61.70000 251.994
61.71000 251.264
61.72000 248.938
61.73000 246.542
61.74000 242.378
61.75000 237.445
61.76000 232.810
61.77000 225.503
61.78000 218.120
61.79000 210.807
61.80000 203.979
61.81000 197.243
61.82000 190.705
61.83000 185.043
61.84000 179.484
61.85000 175.269
61.86000 165.461
61.87000 157.471
61.88000 150.862
61.89000 146.995
61.90000 143.203
61.91000 142.464
61.92000 145.760
61.93000 149.072
61.94000 149.867
61.95000 148.535
61.96000 147.174
61.97000 144.351
61.98000 140.712
61.99000 137.151
62.00000 135.051
62.01000 133.500
62.02000 132.067
62.03000 134.793
62.04000 138.178
62.05000 141.073
62.06000 141.112
62.07000 140.687
62.08000 139.990
62.09000 138.259
62.10000 136.428
62.11000 135.096
62.12000 136.416
62.13000 137.532
62.14000 137.809
62.15000 136.651
62.16000 135.468
62.17000 135.743
62.18000 137.657
62.19000 139.565
62.20000 141.511
62.21000 143.466
62.22000 145.294
62.23000 143.022
62.24000 138.776
62.25000 134.992
62.26000 137.760
62.27000 142.654
62.28000 147.087
62.29000 143.524
62.30000 138.870
62.31000 135.668
62.32000 139.644
62.33000 144.592
62.34000 147.367
62.35000 143.057
62.36000 138.199
62.37000 134.826
62.38000 137.690
62.39000 140.015
62.40000 142.422
62.41000 144.948
62.42000 147.476
62.43000 147.132
62.44000 144.069
62.45000 141.031
62.46000 142.256
62.47000 146.048
62.48000 149.681
62.49000 149.704
62.50000 148.227
62.51000 146.757
62.52000 145.354
62.53000 143.970
62.54000 142.744
62.55000 140.161
62.56000 137.712
62.57000 136.543
62.58000 140.773
62.59000 145.605
62.60000 148.770
62.61000 147.247
62.62000 145.444
62.63000 144.255
62.64000 141.527
62.65000 139.489
62.66000 139.559
62.67000 142.275
62.68000 144.999
62.69000 147.241
62.70000 149.098
62.71000 150.926
62.72000 147.784
62.73000 142.168
62.74000 136.916
62.75000 137.825
62.76000 140.944
62.77000 143.908
62.78000 145.467
62.79000 146.690
62.80000 147.747
62.81000 144.859
62.82000 141.892
62.83000 139.733
62.84000 140.494
62.85000 141.519
62.86000 141.525
62.87000 139.057
62.88000 136.478
62.89000 134.871
62.90000 135.004
62.91000 135.118
62.92000 134.698
62.93000 133.711
62.94000 132.754
62.95000 135.401
62.96000 140.522
62.97000 145.524
62.98000 144.271
62.99000 140.323
63.00000 136.790
63.01000 138.691
63.02000 142.272
63.03000 145.318
63.04000 144.376
63.05000 142.620
63.06000 141.143
63.07000 140.244
63.08000 139.556
63.09000 139.216
63.10000 139.958
63.11000 140.777
63.12000 142.523
63.13000 146.212
63.14000 149.961
63.15000 152.154
63.16000 141.201
63.17000 133.435
63.18000 131.774
63.19000 135.596
63.20000 139.360
63.21000 139.559
63.22000 137.658
63.23000 135.820
63.24000 138.856
63.25000 143.541
63.26000 147.485
63.27000 143.684
63.28000 137.825
63.29000 133.346
63.30000 137.446
63.31000 143.029
63.32000 147.583
63.33000 145.605
63.34000 143.428
63.35000 142.572
63.36000 145.254
63.37000 148.130
63.38000 148.537
63.39000 144.484
63.40000 140.340
63.41000 138.084
63.42000 136.646
63.43000 135.672
63.44000 137.266
63.45000 140.820
63.46000 144.342
63.47000 146.657
63.48000 148.358
63.49000 149.982
63.50000 148.217
63.51000 145.502
63.52000 143.084
63.53000 143.185
63.54000 143.858
63.55000 144.691
63.56000 146.361
63.57000 148.151
63.58000 149.562
63.59000 147.210
63.60000 145.070
63.61000 143.129
63.62000 141.649
63.63000 140.186
63.64000 141.866
63.65000 148.423
63.66000 155.037
63.67000 158.357
63.68000 152.868
63.69000 149.223
63.70000 147.392
63.71000 146.746
63.72000 146.150
63.73000 146.800
63.74000 147.998
63.75000 149.123
63.76000 147.317
63.77000 144.879
63.78000 143.039
63.79000 145.409
63.80000 148.593
63.81000 151.644
63.82000 154.106
63.83000 156.497
63.84000 158.312
63.85000 157.271
63.86000 156.304
63.87000 155.525
63.88000 155.123
63.89000 154.731
63.90000 154.225
63.91000 153.568
63.92000 152.911
63.93000 151.818
63.94000 150.358
63.95000 148.956
63.96000 150.520
63.97000 153.749
63.98000 156.885
63.99000 158.290
64.00000 159.040
64.01000 159.733
64.02000 159.823
64.03000 159.766
64.04000 159.417
64.05000 157.344
64.06000 154.990
64.07000 153.129
64.08000 153.153
64.09000 153.361
64.10000 153.512
64.11000 154.713
64.12000 155.678
64.13000 155.580
64.14000 153.651
64.15000 151.690
64.16000 150.830
64.17000 151.215
64.18000 151.599
64.19000 154.371
64.20000 158.835
64.21000 163.224
64.22000 165.105
64.23000 165.773
64.24000 166.345
64.25000 165.545
64.26000 164.298
64.27000 163.167
64.28000 164.315
64.29000 165.764
64.30000 166.544
64.31000 164.000
64.32000 161.002
64.33000 158.651
64.34000 158.424
64.35000 158.362
64.36000 158.319
64.37000 164.220
64.38000 168.832
64.39000 169.508
64.40000 164.365
64.41000 159.169
64.42000 155.951
64.43000 154.619
64.44000 153.299
64.45000 152.437
64.46000 151.870
64.47000 151.520
64.48000 156.191
64.49000 162.959
64.50000 169.230
64.51000 169.876
64.52000 168.942
64.53000 168.114
64.54000 167.211
64.55000 166.416
64.56000 166.314
64.57000 169.145
64.58000 172.305
64.59000 173.834
64.60000 170.747
64.61000 167.381
64.62000 165.155
64.63000 160.349
64.64000 156.757
64.65000 155.154
64.66000 156.065
64.67000 156.986
64.68000 158.455
64.69000 160.368
64.70000 162.253
64.71000 165.747
64.72000 169.974
64.73000 173.834
64.74000 171.413
64.75000 166.724
64.76000 162.413
64.77000 161.546
64.78000 161.508
64.79000 161.475
64.80000 159.671
64.81000 157.904
64.82000 158.330
64.83000 166.724
64.84000 175.844
64.85000 181.257
64.86000 177.623
64.87000 173.580
64.88000 171.055
64.89000 170.458
64.90000 170.048
64.91000 172.558
64.92000 178.200
64.93000 183.798
64.94000 183.956
64.95000 180.356
64.96000 176.840
64.97000 174.356
64.98000 172.433
64.99000 170.812
65.00000 173.181
65.01000 176.791
65.02000 180.293
65.03000 182.986
65.04000 185.511
65.05000 187.638
65.06000 191.838
65.07000 195.565
65.08000 196.568
65.09000 189.053
65.10000 180.923
65.11000 177.770
65.12000 185.102
65.13000 192.769
65.14000 197.263
65.15000 206.170
65.16000 212.463
65.17000 213.511
65.18000 209.818
65.19000 206.135
65.20000 203.073
65.21000 200.378
65.22000 197.773
65.23000 197.831
65.24000 198.890
65.25000 200.190
65.26000 204.044
65.27000 208.580
65.28000 212.349
65.29000 211.318
65.30000 209.451
65.31000 207.925
65.32000 217.084
65.33000 225.502
65.34000 231.537
65.35000 231.146
65.36000 230.398
65.37000 232.773
65.38000 240.820
65.39000 248.984
65.40000 253.442
65.41000 257.587
65.42000 260.422
65.43000 260.460
65.44000 258.348
65.45000 256.450
65.46000 262.669
65.47000 273.034
65.48000 282.929
65.49000 283.581
65.50000 281.230
65.51000 279.446
65.52000 282.516
65.53000 286.698
65.54000 290.986
65.55000 295.836
65.56000 300.767
65.57000 304.662
65.58000 313.581
65.59000 321.081
65.60000 324.206
65.61000 317.141
65.62000 309.661
65.63000 307.050
65.64000 312.048
65.65000 317.135
65.66000 319.698
65.67000 357.251
65.68000 382.298
65.69000 402.435
65.70000 419.344
65.71000 436.491
65.72000 459.816
65.73000 485.864
65.74000 510.371
65.75000 554.851
65.76000 600.913
65.77000 645.165
65.78000 676.614
65.79000 705.567
65.80000 735.316
65.81000 768.636
65.82000 802.388
65.83000 828.066
65.84000 838.699
65.85000 846.275
65.86000 851.731
65.87000 852.926
65.88000 854.001
65.89000 854.233
65.90000 853.337
65.91000 852.436
65.92000 848.842
65.93000 842.949
65.94000 836.537
65.95000 802.936
65.96000 753.972
65.97000 704.849
65.98000 652.710
65.99000 599.423
66.00000 550.131
66.01000 502.721
66.02000 460.561
66.03000 420.767
66.04000 395.000
66.05000 371.542
66.06000 350.112
66.07000 336.472
66.08000 323.601
66.09000 314.206
66.10000 310.177
66.11000 307.281
66.12000 300.880
66.13000 288.410
66.14000 275.831
66.15000 272.554
66.16000 279.867
66.17000 287.166
66.18000 290.015
66.19000 289.616
66.20000 289.126
66.21000 285.585
66.22000 280.559
66.23000 275.957
66.24000 277.502
66.25000 281.065
66.26000 284.298
66.27000 286.551
66.28000 288.351
66.29000 291.365
66.30000 300.460
66.31000 310.391
66.32000 320.515
66.33000 331.277
66.34000 342.090
66.35000 349.628
66.36000 358.513
66.37000 365.256
66.38000 368.649
66.39000 367.061
66.40000 365.426
66.41000 369.173
66.42000 378.093
66.43000 386.942
66.44000 387.930
66.45000 384.066
66.46000 380.250
66.47000 377.587
66.48000 375.409
66.49000 373.233
66.50000 371.091
66.51000 368.958
66.52000 367.064
66.53000 355.758
66.54000 344.451
66.55000 334.260
66.56000 328.834
66.57000 323.949
66.58000 317.686
66.59000 307.507
66.60000 297.088
66.61000 290.184
66.62000 293.700
66.63000 296.487
66.64000 296.327
66.65000 292.419
66.66000 288.509
66.67000 288.668
66.68000 292.141
66.69000 295.564
66.70000 297.347
66.71000 298.220
66.72000 298.963
66.73000 297.446
66.74000 295.109
66.75000 292.893
66.76000 291.797
66.77000 290.972
66.78000 290.257
66.79000 290.447
66.80000 290.729
66.81000 290.739
66.82000 289.757
66.83000 288.684
66.84000 290.421
66.85000 299.055
66.86000 308.005
66.87000 313.609
66.88000 308.611
66.89000 304.889
66.90000 301.651
66.91000 298.936
66.92000 296.243
66.93000 296.395
66.94000 298.524
66.95000 300.605
66.96000 307.078
66.97000 315.235
66.98000 322.787
66.99000 322.242
67.00000 319.162
67.01000 316.792
67.02000 319.795
67.03000 323.909
67.04000 327.377
67.05000 322.693
67.06000 317.899
67.07000 316.932
67.08000 328.000
67.09000 339.946
67.10000 344.829
67.11000 334.747
67.12000 324.178
67.13000 317.966
67.14000 319.728
67.15000 321.012
67.16000 324.183
67.17000 329.071
67.18000 333.983
67.19000 340.418
67.20000 347.763
67.21000 354.867
67.22000 355.439
67.23000 353.505
67.24000 351.734
67.25000 351.710
67.26000 352.157
67.27000 353.010
67.28000 356.427
67.29000 360.294
67.30000 363.456
67.31000 364.296
67.32000 364.782
67.33000 364.948
67.34000 364.245
67.35000 363.494
67.36000 364.942
67.37000 370.409
67.38000 375.962
67.39000 379.003
67.40000 378.006
67.41000 377.320
67.42000 378.087
67.43000 379.976
67.44000 381.925
67.45000 386.161
67.46000 391.573
67.47000 396.742
67.48000 395.263
67.49000 391.748
67.50000 388.681
67.51000 389.488
67.52000 391.189
67.53000 393.677
67.54000 400.358
67.55000 407.654
67.56000 413.424
67.57000 408.009
67.58000 402.890
67.59000 399.856
67.60000 401.705
67.61000 403.757
67.62000 408.194
67.63000 416.381
67.64000 424.615
67.65000 428.777
67.66000 430.620
67.67000 431.829
67.68000 430.647
67.69000 427.885
67.70000 425.163
67.71000 423.507
67.72000 422.325
67.73000 421.211
67.74000 420.211
67.75000 419.326
67.76000 419.664
67.77000 428.717
67.78000 439.479
67.79000 448.908
67.80000 452.306
67.81000 454.971
67.82000 457.001
67.83000 465.578
67.84000 472.679
67.85000 473.552
67.86000 461.837
67.87000 449.760
67.88000 446.886
67.89000 456.403
67.90000 465.980
67.91000 472.227
67.92000 475.592
67.93000 478.935
67.94000 481.126
67.95000 482.661
67.96000 484.148
67.97000 484.706
67.98000 484.909
67.99000 485.097
68.00000 487.280
68.01000 489.702
68.02000 492.209
68.03000 495.226
68.04000 498.328
68.05000 500.317
68.06000 498.007
68.07000 495.269
68.08000 493.268
68.09000 510.573
68.10000 524.685
68.11000 531.799
68.12000 526.721
68.13000 521.422
68.14000 521.872
68.15000 528.910
68.16000 535.933
68.17000 543.937
68.18000 552.591
68.19000 561.145
68.20000 566.307
68.21000 569.807
68.22000 572.641
68.23000 565.744
68.24000 555.632
68.25000 546.449
68.26000 557.796
68.27000 571.790
68.28000 583.260
68.29000 581.997
68.30000 578.969
68.31000 580.326
68.32000 596.236
68.33000 613.304
68.34000 625.227
68.35000 619.994
68.36000 615.560
68.37000 616.052
68.38000 623.917
68.39000 631.853
68.40000 638.980
68.41000 645.322
68.42000 651.616
68.43000 658.305
68.44000 665.123
68.45000 671.980
68.46000 679.757
68.47000 687.922
68.48000 696.019
68.49000 703.326
68.50000 710.409
68.51000 716.703
68.52000 725.450
68.53000 733.433
68.54000 743.344
68.55000 761.538
68.56000 780.679
68.57000 798.928
68.58000 814.624
68.59000 830.163
68.60000 840.481
68.61000 882.222
68.62000 913.659
68.63000 950.437
68.64000 994.050
68.65000 1037.680
68.66000 1077.906
68.67000 1115.342
68.68000 1152.253
68.69000 1186.633
68.70000 1218.704
68.71000 1251.312
68.72000 1293.318
68.73000 1338.757
68.74000 1385.184
68.75000 1440.787
68.76000 1498.628
68.77000 1548.791
68.78000 1592.484
68.79000 1628.828
68.80000 1672.784
68.81000 1744.748
68.82000 1819.312
68.83000 1886.359
68.84000 1934.845
68.85000 1982.469
68.86000 2012.360
68.87000 2159.377
68.88000 2266.914
68.89000 2436.497
68.90000 2673.506
68.91000 2912.822
68.92000 3448.990
68.93000 4192.760
68.94000 4920.017
68.95000 6562.750
68.96000 8548.143
68.97000 10620.548
68.98000 13867.240
68.99000 17483.709
69.00000 21173.580
69.01000 25423.129
69.02000 29789.137
69.03000 33474.281
69.04000 37311.438
69.05000 40534.563
69.06000 43422.836
69.07000 45251.512
69.08000 47002.133
69.09000 48303.586
69.10000 48647.551
69.11000 48959.891
69.12000 49143.977
69.13000 49236.547
69.14000 49301.539
69.15000 49664.398
69.16000 50300.258
69.17000 50933.031
69.18000 51365.293
69.19000 51677.219
69.20000 51979.090
69.21000 51010.801
69.22000 49611.430
69.23000 48106.391
69.24000 45469.070
69.25000 42525.125
69.26000 39632.672
69.27000 37067.406
69.28000 34559.824
69.29000 32506.203
69.30000 30549.771
69.31000 28954.496
69.32000 27573.219
69.33000 26775.861
69.34000 26011.631
69.35000 25310.922
69.36000 24727.000
69.37000 24145.611
69.38000 23826.283
69.39000 22322.809
69.40000 21284.373
69.41000 19802.309
69.42000 17974.941
69.43000 16142.063
69.44000 14091.781
69.45000 11929.140
69.46000 9862.023
69.47000 8147.611
69.48000 6667.030
69.49000 5246.591
69.50000 4349.365
69.51000 3573.490
69.52000 2861.701
69.53000 2492.962
69.54000 2175.003
69.55000 1923.179
69.56000 1750.022
69.57000 1616.290
69.58000 1501.408
69.59000 1430.929
69.60000 1362.311
69.61000 1302.819
69.62000 1257.761
69.63000 1212.884
69.64000 1190.120
69.65000 1149.941
69.66000 1122.965
69.67000 1089.937
69.68000 1052.880
69.69000 1016.172
69.70000 988.795
69.71000 965.580
69.72000 943.710
69.73000 926.126
69.74000 911.210
69.75000 895.954
69.76000 878.248
69.77000 860.057
69.78000 841.336
69.79000 820.201
69.80000 798.768
69.81000 782.412
69.82000 778.225
69.83000 775.578
69.84000 774.002
69.85000 774.603
69.86000 775.268
69.87000 764.262
69.88000 737.442
69.89000 710.551
69.90000 700.244
69.91000 704.342
69.92000 708.257
69.93000 702.167
69.94000 690.354
69.95000 679.097
69.96000 678.611
69.97000 682.273
69.98000 685.666
69.99000 676.681
70.00000 665.728
