20.00000 576.253
20.01000 568.672
20.02000 560.009
20.03000 553.359
20.04000 554.529
20.05000 556.482
20.06000 557.913
20.07000 564.569
20.08000 569.916
20.09000 572.027
20.10000 568.473
20.11000 564.814
20.12000 562.832
20.13000 562.782
20.14000 562.735
20.15000 563.957
20.16000 566.102
20.17000 568.045
20.18000 563.029
20.19000 554.588
20.20000 546.596
20.21000 545.232
20.22000 546.067
20.23000 546.825
20.24000 550.933
20.25000 555.216
20.26000 558.069
20.27000 553.674
20.28000 548.269
20.29000 546.441
20.30000 556.545
20.31000 567.605
20.32000 575.342
20.33000 552.971
20.34000 535.207
20.35000 526.779
20.36000 532.397
20.37000 538.154
20.38000 542.954
20.39000 546.822
20.40000 550.660
20.41000 546.654
20.42000 537.832
20.43000 529.638
20.44000 536.480
20.45000 549.712
20.46000 561.919
20.47000 562.249
20.48000 559.185
20.49000 556.460
20.50000 555.825
20.51000 555.614
20.52000 554.476
20.53000 549.338
20.54000 543.741
20.55000 538.966
20.56000 536.558
20.57000 534.297
20.58000 532.794
20.59000 531.723
20.60000 530.939
20.61000 532.706
20.62000 537.755
20.63000 542.800
20.64000 541.056
20.65000 533.719
20.66000 526.482
20.67000 532.082
20.68000 544.319
20.69000 555.702
20.70000 551.998
20.71000 542.758
20.72000 534.756
20.73000 538.312
20.74000 544.701
20.75000 550.247
20.76000 550.780
20.77000 550.562
20.78000 552.402
20.79000 561.852
20.80000 572.013
20.81000 576.817
20.82000 568.334
20.83000 559.228
20.84000 553.502
20.85000 542.938
20.86000 535.244
20.87000 530.744
20.88000 529.735
20.89000 528.755
20.90000 531.511
20.91000 536.893
20.92000 542.156
20.93000 536.941
20.94000 527.217
20.95000 518.309
20.96000 520.500
20.97000 526.203
20.98000 532.029
20.99000 538.799
21.00000 545.768
21.01000 551.655
21.02000 547.385
21.03000 542.698
21.04000 539.130
21.05000 539.116
21.06000 539.366
21.07000 542.756
21.08000 552.870
21.09000 563.208
21.10000 569.314
21.11000 561.440
21.12000 555.803
21.13000 552.523
21.14000 551.416
21.15000 550.241
21.16000 544.612
21.17000 536.297
21.18000 528.247
21.19000 524.281
21.20000 522.098
21.21000 520.454
21.22000 524.633
21.23000 530.397
21.24000 534.889
21.25000 531.251
21.26000 526.172
21.27000 522.008
21.28000 528.989
21.29000 535.703
21.30000 539.891
21.31000 537.156
21.32000 534.025
21.33000 530.620
21.34000 526.708
21.35000 522.786
21.36000 520.626
21.37000 537.974
21.38000 549.921
21.39000 551.757
21.40000 545.683
21.41000 539.851
21.42000 543.640
21.43000 552.426
21.44000 560.827
21.45000 559.251
21.46000 554.532
21.47000 550.316
21.48000 550.489
21.49000 551.685
21.50000 552.136
21.51000 548.579
21.52000 544.424
21.53000 541.130
21.54000 539.090
21.55000 537.537
21.56000 537.617
21.57000 541.564
21.58000 545.675
21.59000 550.255
21.60000 555.580
21.61000 560.914
21.62000 563.627
21.63000 551.380
21.64000 543.240
21.65000 542.699
21.66000 547.241
21.67000 552.018
21.68000 563.186
21.69000 577.216
21.70000 590.439
21.71000 576.777
21.72000 556.843
21.73000 540.135
21.74000 546.729
21.75000 557.950
21.76000 567.259
21.77000 567.830
21.78000 567.321
21.79000 566.932
21.80000 563.528
21.81000 560.681
21.82000 557.165
21.83000 552.280
21.84000 547.355
21.85000 549.826
21.86000 562.370
21.87000 574.964
21.88000 585.512
21.89000 594.259
21.90000 602.946
21.91000 608.302
21.92000 611.744
21.93000 615.183
21.94000 618.566
21.95000 621.929
21.96000 625.046
21.97000 620.660
21.98000 614.963
21.99000 611.720
22.00000 623.307
22.01000 637.383
22.02000 649.610
22.03000 654.615
22.04000 658.891
22.05000 662.027
22.06000 650.362
22.07000 640.753
22.08000 635.002
22.09000 636.046
22.10000 637.218
22.11000 635.737
22.12000 631.177
22.13000 626.627
22.14000 625.865
22.15000 627.903
22.16000 630.038
22.17000 635.561
22.18000 642.763
22.19000 648.891
22.20000 639.051
22.21000 623.879
22.22000 610.081
22.23000 614.125
22.24000 621.198
22.25000 624.771
22.26000 610.480
22.27000 593.679
22.28000 581.861
22.29000 586.763
22.30000 593.018
22.31000 597.402
22.32000 597.037
22.33000 596.624
22.34000 592.602
22.35000 583.118
22.36000 573.577
22.37000 568.500
22.38000 567.795
22.39000 567.096
22.40000 561.272
22.41000 552.334
22.42000 543.878
22.43000 547.115
22.44000 555.351
22.45000 562.577
22.46000 557.987
22.47000 550.000
22.48000 542.892
22.49000 543.723
22.50000 545.744
22.51000 545.003
22.52000 532.264
22.53000 518.132
22.54000 511.311
22.55000 525.625
22.56000 541.273
22.57000 551.704
22.58000 541.224
22.59000 533.064
22.60000 527.482
22.61000 525.238
22.62000 523.012
22.63000 523.175
22.64000 525.319
22.65000 527.433
22.66000 528.962
22.67000 530.137
22.68000 530.865
22.69000 523.616
22.70000 513.423
22.71000 504.080
22.72000 502.754
22.73000 503.404
22.74000 503.969
22.75000 511.113
22.76000 518.094
22.77000 522.423
22.78000 516.881
22.79000 510.409
22.80000 506.403
22.81000 508.555
22.82000 510.998
22.83000 512.538
22.84000 497.783
22.85000 486.915
22.86000 485.444
22.87000 494.309
22.88000 503.148
22.89000 507.590
22.90000 508.922
22.91000 510.226
22.92000 518.404
22.93000 529.371
22.94000 539.369
22.95000 536.044
22.96000 528.479
22.97000 522.258
22.98000 526.427
22.99000 532.784
23.00000 538.160
23.01000 530.769
23.02000 523.170
23.03000 517.439
23.04000 517.678
23.05000 518.366
23.06000 517.901
23.07000 514.956
23.08000 511.926
23.09000 510.132
23.10000 513.518
23.11000 515.942
23.12000 521.098
23.13000 528.788
23.14000 536.273
23.15000 529.811
23.16000 514.888
23.17000 500.435
23.18000 496.141
23.19000 496.000
23.20000 495.784
23.21000 494.752
23.22000 493.497
23.23000 492.706
23.24000 494.900
23.25000 497.626
23.26000 499.864
23.27000 493.982
23.28000 488.429
23.29000 486.347
23.30000 493.839
23.31000 501.885
23.32000 507.906
23.33000 510.163
23.34000 512.335
23.35000 513.534
23.36000 501.918
23.37000 493.904
23.38000 491.416
23.39000 493.280
23.40000 495.123
23.41000 496.119
23.42000 496.673
23.43000 497.202
23.44000 500.633
23.45000 504.780
23.46000 508.509
23.47000 508.550
23.48000 507.725
23.49000 506.960
23.50000 506.521
23.51000 506.131
23.52000 505.821
23.53000 504.048
23.54000 502.517
23.55000 503.166
23.56000 509.004
23.57000 515.065
23.58000 517.110
23.59000 512.732
23.60000 508.271
23.61000 505.994
23.62000 492.020
23.63000 482.759
23.64000 486.328
23.65000 498.531
23.66000 510.235
23.67000 508.225
23.68000 500.034
23.69000 492.309
23.70000 500.585
23.71000 512.615
23.72000 523.160
23.73000 522.886
23.74000 520.450
23.75000 518.455
23.76000 518.483
23.77000 518.763
23.78000 518.977
23.79000 527.201
23.80000 534.128
23.81000 535.956
23.82000 527.305
23.83000 518.339
23.84000 516.000
23.85000 522.744
23.86000 529.538
23.87000 532.571
23.88000 532.295
23.89000 532.061
23.90000 534.122
23.91000 537.510
23.92000 540.842
23.93000 543.047
23.94000 544.812
23.95000 546.451
23.96000 549.552
23.97000 552.690
23.98000 553.948
23.99000 543.768
24.00000 531.656
24.01000 523.892
24.02000 533.225
24.03000 544.300
24.04000 552.438
24.05000 559.777
24.06000 565.419
24.07000 564.714
24.08000 552.760
24.09000 540.590
24.10000 535.705
24.11000 539.328
24.12000 542.953
24.13000 544.686
24.14000 545.000
24.15000 544.949
24.16000 531.885
24.17000 512.339
24.18000 493.997
24.19000 493.778
24.20000 499.644
24.21000 504.983
24.22000 502.323
24.23000 498.389
24.24000 495.274
24.25000 496.370
24.26000 498.062
24.27000 498.078
24.28000 492.437
24.29000 486.334
24.30000 482.047
24.31000 489.659
24.32000 495.770
24.33000 499.923
24.34000 501.092
24.35000 502.229
24.36000 501.070
24.37000 497.644
24.38000 494.243
24.39000 490.473
24.40000 486.530
24.41000 482.659
24.42000 480.562
24.43000 479.227
24.44000 478.042
24.45000 478.626
24.46000 479.723
24.47000 480.700
24.48000 480.482
24.49000 480.096
24.50000 480.725
24.51000 485.796
24.52000 491.386
24.53000 494.795
24.54000 491.861
24.55000 488.523
24.56000 486.293
24.57000 475.648
24.58000 467.595
24.59000 465.243
24.60000 470.319
24.61000 475.421
24.62000 477.742
24.63000 477.744
24.64000 477.746
24.65000 482.727
24.66000 490.243
24.67000 497.232
24.68000 494.709
24.69000 488.654
24.70000 482.672
24.71000 477.384
24.72000 472.270
24.73000 467.821
24.74000 472.391
24.75000 477.522
24.76000 480.925
24.77000 477.860
24.78000 474.180
24.79000 472.549
24.80000 476.061
24.81000 479.820
24.82000 482.196
24.83000 482.853
24.84000 483.310
24.85000 480.563
24.86000 474.269
24.87000 468.014
24.88000 467.559
24.89000 471.234
24.90000 474.830
24.91000 478.647
24.92000 482.414
24.93000 485.945
24.94000 486.218
24.95000 485.447
24.96000 483.807
24.97000 475.404
24.98000 465.568
24.99000 457.240
25.00000 464.957
25.01000 473.211
25.02000 479.048
25.03000 477.106
25.04000 474.574
25.05000 474.885
25.06000 481.360
25.07000 488.048
25.08000 492.018
25.09000 484.724
25.10000 479.496
25.11000 474.733
25.12000 470.405
25.13000 466.117
25.14000 464.612
25.15000 464.807
25.16000 464.995
25.17000 462.285
25.18000 458.594
25.19000 455.183
25.20000 454.845
25.21000 455.352
25.22000 456.047
25.23000 457.954
25.24000 460.079
25.25000 461.826
25.26000 464.244
25.27000 466.292
25.28000 466.979
25.29000 463.892
25.30000 460.585
25.31000 461.270
25.32000 469.419
25.33000 477.738
25.34000 482.346
25.35000 476.628
25.36000 472.664
25.37000 469.366
25.38000 466.597
25.39000 463.846
25.40000 461.867
25.41000 460.292
25.42000 458.785
25.43000 454.041
25.44000 448.552
25.45000 444.300
25.46000 451.056
25.47000 460.411
25.48000 468.136
25.49000 466.969
25.50000 464.458
25.51000 462.461
25.52000 469.427
25.53000 475.679
25.54000 479.066
25.55000 475.589
25.56000 471.813
25.57000 469.820
25.58000 470.695
25.59000 471.609
25.60000 472.077
25.61000 471.592
25.62000 471.228
25.63000 466.661
25.64000 459.247
25.65000 452.097
25.66000 452.320
25.67000 455.886
25.68000 459.250
25.69000 460.953
25.70000 462.048
25.71000 463.848
25.72000 470.811
25.73000 478.813
25.74000 484.976
25.75000 482.623
25.76000 479.202
25.77000 476.579
25.78000 472.393
25.79000 469.001
25.80000 464.979
25.81000 459.656
25.82000 454.293
25.83000 454.048
25.84000 460.863
25.85000 467.718
25.86000 468.920
25.87000 465.121
25.88000 461.262
25.89000 453.906
25.90000 444.515
25.91000 435.982
25.92000 444.672
25.93000 460.105
25.94000 474.431
25.95000 473.408
25.96000 468.857
25.97000 464.100
25.98000 458.077
25.99000 451.839
26.00000 447.337
26.01000 449.704
26.02000 452.776
26.03000 455.037
26.04000 460.686
26.05000 465.198
26.06000 468.102
26.07000 468.142
26.08000 468.126
26.09000 466.969
26.10000 464.473
26.11000 461.981
26.12000 460.271
26.13000 459.157
26.14000 457.929
26.15000 452.581
26.16000 445.168
26.17000 438.281
26.18000 439.383
26.19000 443.184
26.20000 446.646
26.21000 448.344
26.22000 449.497
26.23000 450.567
26.24000 451.213
26.25000 451.798
26.26000 451.181
26.27000 446.485
26.28000 441.453
26.29000 437.912
26.30000 449.470
26.31000 458.677
26.32000 463.449
26.33000 461.424
26.34000 459.325
26.35000 454.120
26.36000 445.830
26.37000 437.597
26.38000 438.088
26.39000 444.107
26.40000 449.945
26.41000 451.250
26.42000 450.594
26.43000 449.829
26.44000 447.768
26.45000 445.330
26.46000 443.155
26.47000 450.508
26.48000 458.486
26.49000 464.261
26.50000 460.346
26.51000 455.287
26.52000 451.302
26.53000 450.458
26.54000 449.816
26.55000 449.387
26.56000 440.079
26.57000 432.999
26.58000 429.650
26.59000 431.195
26.60000 432.765
26.61000 435.659
26.62000 439.665
26.63000 443.620
26.64000 446.798
26.65000 449.474
26.66000 451.903
26.67000 449.817
26.68000 446.046
26.69000 442.756
26.70000 444.083
26.71000 446.564
26.72000 448.723
26.73000 444.502
26.74000 440.019
26.75000 437.732
26.76000 443.714
26.77000 450.489
26.78000 455.083
26.79000 454.171
26.80000 452.991
26.81000 452.243
26.82000 448.982
26.83000 446.586
26.84000 446.960
26.85000 450.420
26.86000 453.845
26.87000 451.744
26.88000 445.684
26.89000 439.750
26.90000 437.844
26.91000 437.861
26.92000 437.917
26.93000 438.497
26.94000 439.247
26.95000 440.089
26.96000 441.660
26.97000 443.387
26.98000 444.851
26.99000 450.017
27.00000 454.763
27.01000 457.026
27.02000 451.245
27.03000 444.850
27.04000 439.843
27.05000 437.862
27.06000 435.986
27.07000 434.870
27.08000 437.015
27.09000 438.553
27.10000 437.171
27.11000 433.042
27.12000 428.988
27.13000 430.294
27.14000 434.892
27.15000 439.349
27.16000 435.008
27.17000 427.457
27.18000 420.654
27.19000 422.135
27.20000 425.913
27.21000 429.410
27.22000 431.068
27.23000 432.395
27.24000 433.486
27.25000 435.233
27.26000 436.729
27.27000 437.505
27.28000 436.273
27.29000 434.921
27.30000 432.805
27.31000 429.252
27.32000 425.665
27.33000 423.672
27.34000 423.872
27.35000 424.006
27.36000 421.636
27.37000 417.267
27.38000 413.087
27.39000 416.873
27.40000 424.871
27.41000 432.531
27.42000 431.110
27.43000 426.767
27.44000 423.117
27.45000 425.692
27.46000 429.746
27.47000 432.689
27.48000 429.539
27.49000 425.461
27.50000 422.214
27.51000 427.916
27.52000 433.160
27.53000 439.185
27.54000 447.094
27.55000 455.085
27.56000 458.326
27.57000 453.879
27.58000 449.325
27.59000 446.986
27.60000 455.290
27.61000 460.777
27.62000 454.834
27.63000 441.101
27.64000 427.620
27.65000 421.237
27.66000 418.092
27.67000 415.122
27.68000 418.346
27.69000 423.048
27.70000 427.253
27.71000 427.778
27.72000 427.559
27.73000 427.390
27.74000 427.459
27.75000 427.557
27.76000 427.633
27.77000 429.615
27.78000 431.288
27.79000 433.263
27.80000 435.867
27.81000 438.491
27.82000 436.120
27.83000 426.819
27.84000 417.477
27.85000 414.874
27.86000 418.274
27.87000 421.633
27.88000 422.494
27.89000 421.893
27.90000 421.254
27.91000 419.844
27.92000 418.130
27.93000 416.538
27.94000 415.099
27.95000 413.838
27.96000 412.045
27.97000 406.973
27.98000 401.338
27.99000 397.896
28.00000 403.181
28.01000 409.369
28.02000 413.931
28.03000 413.048
28.04000 412.136
28.05000 413.258
28.06000 418.027
28.07000 422.869
28.08000 426.337
28.09000 428.180
28.10000 430.015
28.11000 427.347
28.12000 421.307
28.13000 415.460
28.14000 416.720
28.15000 421.562
28.16000 425.801
28.17000 420.754
28.18000 412.552
28.19000 405.075
28.20000 406.666
28.21000 409.892
28.22000 412.352
28.23000 410.824
28.24000 408.723
28.25000 407.655
28.26000 410.119
28.27000 412.877
28.28000 414.821
28.29000 421.746
28.30000 427.149
28.31000 428.036
28.32000 421.960
28.33000 415.807
28.34000 413.502
28.35000 415.045
28.36000 416.578
28.37000 421.628
28.38000 428.847
28.39000 435.840
28.40000 437.126
28.41000 435.928
28.42000 435.147
28.43000 439.367
28.44000 445.052
28.45000 450.126
28.46000 436.558
28.47000 421.628
28.48000 409.548
28.49000 410.083
28.50000 412.118
28.51000 413.330
28.52000 412.120
28.53000 410.752
28.54000 409.835
28.55000 410.690
28.56000 411.361
28.57000 411.601
28.58000 411.273
28.59000 410.947
28.60000 413.762
28.61000 419.232
28.62000 424.632
28.63000 426.412
28.64000 426.177
28.65000 425.839
28.66000 423.592
28.67000 420.628
28.68000 418.245
28.69000 421.475
28.70000 426.117
28.71000 430.162
28.72000 428.411
28.73000 426.110
28.74000 423.086
28.75000 417.317
28.76000 411.282
28.77000 407.375
28.78000 408.870
28.79000 410.632
28.80000 411.751
28.81000 398.788
28.82000 389.205
28.83000 385.272
28.84000 387.681
28.85000 390.106
28.86000 394.250
28.87000 399.634
28.88000 404.908
28.89000 410.118
28.90000 415.097
28.91000 419.784
28.92000 420.343
28.93000 419.563
28.94000 418.062
28.95000 410.861
28.96000 402.435
28.97000 395.285
28.98000 396.725
28.99000 398.908
29.00000 401.462
29.01000 405.223
29.02000 409.078
29.03000 411.669
29.04000 411.488
29.05000 411.209
29.06000 411.043
29.07000 421.186
29.08000 428.443
29.09000 429.181
29.10000 423.746
29.11000 418.382
29.12000 418.107
29.13000 420.976
29.14000 423.759
29.15000 426.058
29.16000 428.046
29.17000 429.555
29.18000 425.716
29.19000 420.387
29.20000 414.756
29.21000 407.145
29.22000 399.174
29.23000 392.607
29.24000 397.058
29.25000 401.732
29.26000 406.903
29.27000 413.472
29.28000 420.125
29.29000 421.459
29.30000 412.727
29.31000 403.756
29.32000 398.758
29.33000 406.595
29.34000 412.026
29.35000 411.605
29.36000 406.487
29.37000 401.432
29.38000 399.111
29.39000 398.244
29.40000 397.413
29.41000 395.447
29.42000 393.233
29.43000 391.196
29.44000 390.766
29.45000 390.719
29.46000 391.034
29.47000 393.344
29.48000 395.960
29.49000 398.046
29.50000 401.897
29.51000 405.133
29.52000 406.530
29.53000 403.470
29.54000 400.211
29.55000 397.708
29.56000 396.435
29.57000 395.180
29.58000 394.533
29.59000 398.745
29.60000 401.559
29.61000 401.540
29.62000 399.580
29.63000 397.654
29.64000 396.730
29.65000 396.266
29.66000 395.828
29.67000 395.153
29.68000 394.466
29.69000 393.726
29.70000 392.591
29.71000 391.376
29.72000 391.113
29.73000 395.316
29.74000 400.089
29.75000 403.758
29.76000 395.696
29.77000 388.657
29.78000 385.793
29.79000 391.668
29.80000 397.819
29.81000 400.646
29.82000 398.834
29.83000 396.990
29.84000 399.391
29.85000 405.592
29.86000 411.775
29.87000 416.843
29.88000 421.256
29.89000 425.463
29.90000 425.432
29.91000 423.722
29.92000 422.132
29.93000 413.747
29.94000 404.548
29.95000 396.970
29.96000 399.456
29.97000 403.678
29.98000 407.418
29.99000 409.225
30.00000 410.830
30.01000 412.015
30.02000 414.859
30.03000 417.134
30.04000 415.122
30.05000 405.374
30.06000 395.468
30.07000 395.717
30.08000 408.059
30.09000 420.393
30.10000 424.319
30.11000 421.847
30.12000 419.320
30.13000 414.734
30.14000 409.104
30.15000 403.947
30.16000 406.136
30.17000 410.836
30.18000 415.124
30.19000 409.059
30.20000 401.592
30.21000 396.563
30.22000 404.312
30.23000 413.909
30.24000 419.355
30.25000 410.523
30.26000 400.492
30.27000 393.407
30.28000 399.368
30.29000 404.291
30.30000 405.273
30.31000 400.139
30.32000 394.935
30.33000 394.531
30.34000 398.962
30.35000 403.364
30.36000 406.902
30.37000 409.833
30.38000 412.499
30.39000 408.412
30.40000 401.368
30.41000 395.068
30.42000 397.791
30.43000 403.171
30.44000 407.978
30.45000 406.046
30.46000 403.227
30.47000 400.942
30.48000 401.034
30.49000 401.411
30.50000 401.416
30.51000 400.321
30.52000 399.153
30.53000 398.368
30.54000 404.114
30.55000 408.517
30.56000 408.158
30.57000 401.473
30.58000 394.765
30.59000 393.523
30.60000 396.932
30.61000 400.300
30.62000 406.779
30.63000 414.794
30.64000 422.426
30.65000 422.906
30.66000 420.683
30.67000 419.315
30.68000 426.275
30.69000 435.340
30.70000 443.250
30.71000 437.246
30.72000 430.168
30.73000 423.040
30.74000 415.716
30.75000 408.373
30.76000 403.895
30.77000 406.737
30.78000 409.943
30.79000 411.984
30.80000 423.207
30.81000 431.477
30.82000 433.112
30.83000 427.248
30.84000 421.430
30.85000 424.029
30.86000 432.732
30.87000 441.260
30.88000 439.931
30.89000 434.066
30.90000 429.098
30.91000 436.961
30.92000 449.008
30.93000 460.014
30.94000 462.726
30.95000 463.647
30.96000 464.430
30.97000 462.701
30.98000 460.962
30.99000 462.745
31.00000 476.065
31.01000 490.284
31.02000 502.967
31.03000 512.261
31.04000 521.432
31.05000 526.922
31.06000 532.964
31.07000 537.257
31.08000 546.481
31.09000 560.404
31.10000 574.418
31.11000 595.223
31.12000 620.249
31.13000 644.531
31.14000 669.575
31.15000 693.624
31.16000 718.111
31.17000 747.534
31.18000 778.341
31.19000 809.578
31.20000 843.654
31.21000 878.251
31.22000 906.793
31.23000 940.075
31.24000 967.921
31.25000 1001.457
31.26000 1051.066
31.27000 1101.647
31.28000 1149.032
31.29000 1190.333
31.30000 1231.487
31.31000 1254.484
31.32000 1293.758
31.33000 1320.974
31.34000 1342.015
31.35000 1358.066
31.36000 1374.068
31.37000 1387.917
31.38000 1400.615
31.39000 1412.788
31.40000 1423.174
31.41000 1432.269
31.42000 1438.987
31.43000 1424.028
31.44000 1403.853
31.45000 1383.981
31.46000 1365.797
31.47000 1347.872
31.48000 1333.560
31.49000 1276.113
31.50000 1226.546
31.51000 1182.767
31.52000 1153.102
31.53000 1124.075
31.54000 1090.790
31.55000 1050.526
31.56000 1010.161
31.57000 989.284
31.58000 955.209
31.59000 932.085
31.60000 891.459
31.61000 838.755
31.62000 786.557
31.63000 749.061
31.64000 718.353
31.65000 689.319
31.66000 666.262
31.67000 646.785
31.68000 627.817
31.69000 612.656
31.70000 598.277
31.71000 583.961
31.72000 569.944
31.73000 555.966
31.74000 545.202
31.75000 527.780
31.76000 513.608
31.77000 503.726
31.78000 502.877
31.79000 502.316
31.80000 497.173
31.81000 485.586
31.82000 473.959
31.83000 466.672
31.84000 463.309
31.85000 459.892
31.86000 453.069
31.87000 444.229
31.88000 435.311
31.89000 424.759
31.90000 413.556
31.91000 403.135
31.92000 413.362
31.93000 427.584
31.94000 439.070
31.95000 433.426
31.96000 424.807
31.97000 416.836
31.98000 411.484
31.99000 406.407
32.00000 402.651
32.01000 393.737
32.02000 386.600
32.03000 384.755
32.04000 392.513
32.05000 400.471
32.06000 406.353
32.07000 409.747
32.08000 413.128
32.09000 411.652
32.10000 406.478
32.11000 401.299
32.12000 395.934
32.13000 390.475
32.14000 385.272
32.15000 384.099
32.16000 384.312
32.17000 384.506
32.18000 386.735
32.19000 389.128
32.20000 391.701
32.21000 395.230
32.22000 398.899
32.23000 400.468
32.24000 394.778
32.25000 388.472
32.26000 384.010
32.27000 391.985
32.28000 398.429
32.29000 397.514
32.30000 385.111
32.31000 372.571
32.32000 372.267
32.33000 384.372
32.34000 396.400
32.35000 399.849
32.36000 397.694
32.37000 395.431
32.38000 390.390
32.39000 384.125
32.40000 378.006
32.41000 373.669
32.42000 369.861
32.43000 366.456
32.44000 367.689
32.45000 369.550
32.46000 373.317
32.47000 385.626
32.48000 398.968
32.49000 405.671
32.50000 392.598
32.51000 378.209
32.52000 368.515
32.53000 366.052
32.54000 364.372
32.55000 364.762
32.56000 367.920
32.57000 371.089
32.58000 371.965
32.59000 370.877
32.60000 369.803
32.61000 373.778
32.62000 380.434
32.63000 386.542
32.64000 382.285
32.65000 374.087
32.66000 366.807
32.67000 368.547
32.68000 372.583
32.69000 376.107
32.70000 369.033
32.71000 361.486
32.72000 356.091
32.73000 358.957
32.74000 362.637
32.75000 365.323
32.76000 365.454
32.77000 365.456
32.78000 365.457
32.79000 357.265
32.80000 351.202
32.81000 349.899
32.82000 354.011
32.83000 358.118
32.84000 360.542
32.85000 361.738
32.86000 362.910
32.87000 357.558
32.88000 349.352
32.89000 341.881
32.90000 345.027
32.91000 351.655
32.92000 357.916
32.93000 361.236
32.94000 363.917
32.95000 366.196
32.96000 359.331
32.97000 352.508
32.98000 346.740
32.99000 344.450
33.00000 342.433
33.01000 340.993
33.02000 340.831
33.03000 340.716
33.04000 340.647
33.05000 347.375
33.06000 352.201
33.07000 351.314
33.08000 344.944
33.09000 338.606
33.10000 334.670
33.11000 332.237
33.12000 329.876
33.13000 335.584
33.14000 344.216
33.15000 352.072
33.16000 351.083
33.17000 347.597
33.18000 344.062
33.19000 340.205
33.20000 336.287
33.21000 333.051
33.22000 334.148
33.23000 335.456
33.24000 337.099
33.25000 339.696
33.26000 342.350
33.27000 345.963
33.28000 351.413
33.29000 356.907
33.30000 359.986
33.31000 352.600
33.32000 347.456
33.33000 343.057
33.34000 339.263
33.35000 335.642
33.36000 339.690
33.37000 347.868
33.38000 355.712
33.39000 352.476
33.40000 345.697
33.41000 339.255
33.42000 335.904
33.43000 333.302
33.44000 331.716
33.45000 335.824
33.46000 340.817
33.47000 344.809
33.48000 340.420
33.49000 336.249
33.50000 333.494
33.51000 334.210
33.52000 335.085
33.53000 336.262
33.54000 337.940
33.55000 339.624
33.56000 340.499
33.57000 346.711
33.58000 350.867
33.59000 350.087
33.60000 345.881
33.61000 341.650
33.62000 336.698
33.63000 331.411
33.64000 326.410
33.65000 337.658
33.66000 352.671
33.67000 365.009
33.68000 357.136
33.69000 345.087
33.70000 334.696
33.71000 332.174
33.72000 330.672
33.73000 329.513
33.74000 329.564
33.75000 329.675
33.76000 328.466
33.77000 324.463
33.78000 320.369
33.79000 322.632
33.80000 333.885
33.81000 345.199
33.82000 346.027
33.83000 337.323
33.84000 328.769
33.85000 329.689
33.86000 336.256
33.87000 342.596
33.88000 344.138
33.89000 343.758
33.90000 343.404
33.91000 343.136
33.92000 342.914
33.93000 342.967
33.94000 344.760
33.95000 346.856
33.96000 348.587
33.97000 348.835
33.98000 348.926
33.99000 348.993
34.00000 348.720
34.01000 348.494
34.02000 348.061
34.03000 347.251
34.04000 346.434
34.05000 346.310
34.06000 347.021
34.07000 347.732
34.08000 350.223
34.09000 354.067
34.10000 357.696
34.11000 353.022
34.12000 344.086
34.13000 335.952
34.14000 340.544
34.15000 349.538
34.16000 357.757
34.17000 355.949
34.18000 352.291
34.19000 349.991
34.20000 354.898
34.21000 360.864
34.22000 364.757
34.23000 361.436
34.24000 357.498
34.25000 354.706
34.26000 352.877
34.27000 351.516
34.28000 349.905
34.29000 347.902
34.30000 345.895
34.31000 346.548
34.32000 349.918
34.33000 353.267
34.34000 353.331
34.35000 351.252
34.36000 349.342
34.37000 351.848
34.38000 356.311
34.39000 360.075
34.40000 355.187
34.41000 347.720
34.42000 341.038
34.43000 345.424
34.44000 351.143
34.45000 355.854
34.46000 356.018
34.47000 355.627
34.48000 355.689
34.49000 357.104
34.50000 358.610
34.51000 359.626
34.52000 348.011
34.53000 339.096
34.54000 333.737
34.55000 333.162
34.56000 332.616
34.57000 335.309
34.58000 340.795
34.59000 346.217
34.60000 344.354
34.61000 338.500
34.62000 332.935
34.63000 332.918
34.64000 335.023
34.65000 337.395
34.66000 342.424
34.67000 348.132
34.68000 353.122
34.69000 350.995
34.70000 348.162
34.71000 344.478
34.72000 337.505
34.73000 330.205
34.74000 324.688
34.75000 323.778
34.76000 323.104
34.77000 322.673
34.78000 321.242
34.79000 320.188
34.80000 317.683
34.81000 313.516
34.82000 309.367
34.83000 308.742
34.84000 310.707
34.85000 312.633
34.86000 321.010
34.87000 332.118
34.88000 342.386
34.89000 340.394
34.90000 334.355
34.91000 328.329
34.92000 322.405
34.93000 316.503
34.94000 311.477
34.95000 313.289
34.96000 315.608
34.97000 316.504
34.98000 312.679
34.99000 308.479
35.00000 307.481
35.01000 313.631
35.02000 320.046
35.03000 323.906
35.04000 319.803
35.05000 316.831
35.06000 313.553
35.07000 309.981
35.08000 306.467
35.09000 307.580
35.10000 311.607
35.11000 315.517
35.12000 315.487
35.13000 313.878
35.14000 313.005
35.15000 320.595
35.16000 330.588
35.17000 338.865
35.18000 335.607
35.19000 330.204
35.20000 325.736
35.21000 316.458
35.22000 308.352
35.23000 304.499
35.24000 312.803
35.25000 321.858
35.26000 323.509
35.27000 310.895
35.28000 297.925
35.29000 290.634
35.30000 299.289
35.31000 305.324
35.32000 306.976
35.33000 305.040
35.34000 303.195
35.35000 305.493
35.36000 310.036
35.37000 314.395
35.38000 309.676
35.39000 302.167
35.40000 295.430
35.41000 295.845
35.42000 298.004
35.43000 300.410
35.44000 304.212
35.45000 308.232
35.46000 311.451
35.47000 307.696
35.48000 304.136
35.49000 301.937
35.50000 303.096
35.51000 304.411
35.52000 304.477
35.53000 302.471
35.54000 300.433
35.55000 299.372
35.56000 304.618
35.57000 308.139
35.58000 308.263
35.59000 306.013
35.60000 303.856
35.61000 304.511
35.62000 306.478
35.63000 308.340
35.64000 306.417
35.65000 303.552
35.66000 301.128
35.67000 302.063
35.68000 303.696
35.69000 304.701
35.70000 302.697
35.71000 300.301
35.72000 298.450
35.73000 297.978
35.74000 297.684
35.75000 295.392
35.76000 288.843
35.77000 282.154
35.78000 284.601
35.79000 300.055
35.80000 315.602
35.81000 318.364
35.82000 309.425
35.83000 300.586
35.84000 298.272
35.85000 299.870
35.86000 301.303
35.87000 299.201
35.88000 295.675
35.89000 292.390
35.90000 293.882
35.91000 296.401
35.92000 298.825
35.93000 300.653
35.94000 302.376
35.95000 302.926
35.96000 298.691
35.97000 293.943
35.98000 290.418
35.99000 294.643
36.00000 298.267
36.01000 298.296
36.02000 291.719
36.03000 285.000
36.04000 284.070
36.05000 290.172
36.06000 296.277
36.07000 298.482
36.08000 297.658
36.09000 296.831
36.10000 295.889
36.11000 294.886
36.12000 293.922
36.13000 293.588
36.14000 293.472
36.15000 293.367
36.16000 292.521
36.17000 291.617
36.18000 290.752
36.19000 290.097
36.20000 289.473
36.21000 290.819
36.22000 299.063
36.23000 307.903
36.24000 314.182
36.25000 308.619
36.26000 304.007
36.27000 301.160
36.28000 301.099
36.29000 301.073
36.30000 303.330
36.31000 307.934
36.32000 312.511
36.33000 311.259
36.34000 306.199
36.35000 301.241
36.36000 298.996
36.37000 297.961
36.38000 296.919
36.39000 295.789
36.40000 294.632
36.41000 293.596
36.42000 298.944
36.43000 304.713
36.44000 309.645
36.45000 310.773
36.46000 311.435
36.47000 311.269
36.48000 308.604
36.49000 305.770
36.50000 303.853
36.51000 300.704
36.52000 298.331
36.53000 298.155
36.54000 300.956
36.55000 303.767
36.56000 302.209
36.57000 296.858
36.58000 291.569
36.59000 291.301
36.60000 293.840
36.61000 296.014
36.62000 291.120
36.63000 283.506
36.64000 277.288
36.65000 285.024
36.66000 296.353
36.67000 306.267
36.68000 303.661
36.69000 299.638
36.70000 296.851
36.71000 298.869
36.72000 301.369
36.73000 300.691
36.74000 291.747
36.75000 282.376
36.76000 276.371
36.77000 276.514
36.78000 276.700
36.79000 279.136
36.80000 284.167
36.81000 289.188
36.82000 291.948
36.83000 293.034
36.84000 294.101
36.85000 294.334
36.86000 294.164
36.87000 294.077
36.88000 295.233
36.89000 296.801
36.90000 297.478
36.91000 290.884
36.92000 282.690
36.93000 275.704
36.94000 285.334
36.95000 295.385
36.96000 302.813
36.97000 301.484
36.98000 299.452
36.99000 298.205
37.00000 298.722
37.01000 299.305
37.02000 299.656
37.03000 286.138
37.04000 276.416
37.05000 275.228
37.06000 282.346
37.07000 289.411
37.08000 292.251
37.09000 292.414
37.10000 292.573
37.11000 294.006
37.12000 295.882
37.13000 297.484
37.14000 295.917
37.15000 293.444
37.16000 292.022
37.17000 297.716
37.18000 304.742
37.19000 310.560
37.20000 313.280
37.21000 315.231
37.22000 314.539
37.23000 306.245
37.24000 297.476
37.25000 291.031
37.26000 289.090
37.27000 287.263
37.28000 286.233
37.29000 274.716
37.30000 266.717
37.31000 271.452
37.32000 286.679
37.33000 301.648
37.34000 304.607
37.35000 301.024
37.36000 297.584
37.37000 289.997
37.38000 281.476
37.39000 273.672
37.40000 272.575
37.41000 273.123
37.42000 273.742
37.43000 274.767
37.44000 275.856
37.45000 276.730
37.46000 278.373
37.47000 279.762
37.48000 281.099
37.49000 282.307
37.50000 283.508
37.51000 283.476
37.52000 281.385
37.53000 279.262
37.54000 278.153
37.55000 277.826
37.56000 277.639
37.57000 281.973
37.58000 289.487
37.59000 296.824
37.60000 298.781
37.61000 298.211
37.62000 297.672
37.63000 292.773
37.64000 286.995
37.65000 281.778
37.66000 280.876
37.67000 280.878
37.68000 281.310
37.69000 283.817
37.70000 286.597
37.71000 288.747
37.72000 287.899
37.73000 287.049
37.74000 286.305
37.75000 285.790
37.76000 285.282
37.77000 284.747
37.78000 284.173
37.79000 283.600
37.80000 280.360
37.81000 274.667
37.82000 269.013
37.83000 265.954
37.84000 264.462
37.85000 263.168
37.86000 266.165
37.87000 270.902
37.88000 275.318
37.89000 283.729
37.90000 292.327
37.91000 299.438
37.92000 297.036
37.93000 292.947
37.94000 289.244
37.95000 287.125
37.96000 285.177
37.97000 283.728
37.98000 286.939
37.99000 289.645
38.00000 291.788
38.01000 292.893
38.02000 293.975
38.03000 291.529
38.04000 284.770
38.05000 278.014
38.06000 274.392
38.07000 273.229
38.08000 272.099
38.09000 272.262
38.10000 273.099
38.11000 274.093
38.12000 277.648
38.13000 282.099
38.14000 286.172
38.15000 286.613
38.16000 286.252
38.17000 286.220
38.18000 287.958
38.19000 289.961
38.20000 291.673
38.21000 292.364
38.22000 292.965
38.23000 293.393
38.24000 291.654
38.25000 290.260
38.26000 289.693
38.27000 290.442
38.28000 291.209
38.29000 293.541
38.30000 297.494
38.31000 301.426
38.32000 305.800
38.33000 310.410
38.34000 315.077
38.35000 321.287
38.36000 328.190
38.37000 334.261
38.38000 329.855
38.39000 322.287
38.40000 315.502
38.41000 322.071
38.42000 330.127
38.43000 339.532
38.44000 355.101
38.45000 371.432
38.46000 385.997
38.47000 395.208
38.48000 404.051
38.49000 410.045
38.50000 428.447
38.51000 442.441
38.52000 459.865
38.53000 481.963
38.54000 504.088
38.55000 526.402
38.56000 548.881
38.57000 571.106
38.58000 598.296
38.59000 627.626
38.60000 656.795
38.61000 682.803
38.62000 707.589
38.63000 732.180
38.64000 754.820
38.65000 776.954
38.66000 796.342
38.67000 807.336
38.68000 815.558
38.69000 823.987
38.70000 833.220
38.71000 842.535
38.72000 850.805
38.73000 856.342
38.74000 861.737
38.75000 865.201
38.76000 844.476
38.77000 829.029
38.78000 813.374
38.79000 797.477
38.80000 781.585
38.81000 766.813
38.82000 752.873
38.83000 739.195
38.84000 711.432
38.85000 677.940
38.86000 645.514
38.87000 628.971
38.88000 617.732
38.89000 604.906
38.90000 579.022
38.91000 550.243
38.92000 525.682
38.93000 506.043
38.94000 490.091
38.95000 473.449
38.96000 454.492
38.97000 435.347
38.98000 416.742
38.99000 399.355
39.00000 382.015
39.01000 371.529
39.02000 355.884
39.03000 344.699
39.04000 336.527
39.05000 331.310
39.06000 326.110
39.07000 322.398
39.08000 319.634
39.09000 316.948
39.10000 311.255
39.11000 304.623
39.12000 297.889
39.13000 289.964
39.14000 281.698
39.15000 275.518
39.16000 283.567
39.17000 294.297
39.18000 303.194
39.19000 303.236
39.20000 302.422
39.21000 300.159
39.22000 293.706
39.23000 286.988
39.24000 282.386
39.25000 281.907
39.26000 281.535
39.27000 281.324
39.28000 285.110
39.29000 287.747
39.30000 287.598
39.31000 285.138
39.32000 282.717
39.33000 282.137
39.34000 282.567
39.35000 282.980
39.36000 278.528
39.37000 272.678
39.38000 267.533
39.39000 269.029
39.40000 272.164
39.41000 275.289
39.42000 278.364
39.43000 281.431
39.44000 283.893
39.45000 284.687
39.46000 285.202
39.47000 283.407
39.48000 275.842
39.49000 268.004
39.50000 264.177
39.51000 267.090
39.52000 270.109
39.53000 271.691
39.54000 270.318
39.55000 269.392
39.56000 269.196
39.57000 269.518
39.58000 269.826
39.59000 269.678
39.60000 269.314
39.61000 268.970
39.62000 265.331
39.63000 261.011
39.64000 257.511
39.65000 260.351
39.66000 264.526
39.67000 267.814
39.68000 266.807
39.69000 265.232
39.70000 264.011
39.71000 263.955
39.72000 263.980
39.73000 263.388
39.74000 261.466
39.75000 259.498
39.76000 258.682
39.77000 259.527
39.78000 260.384
39.79000 259.892
39.80000 258.147
39.81000 256.431
39.82000 256.600
39.83000 257.914
39.84000 259.283
39.85000 261.860
39.86000 264.930
39.87000 267.793
39.88000 260.068
39.89000 250.443
39.90000 243.133
39.91000 250.726
39.92000 260.981
39.93000 268.502
39.94000 264.721
39.95000 259.710
39.96000 255.978
39.97000 255.425
39.98000 255.138
39.99000 255.898
40.00000 258.607
40.01000 261.359
40.02000 260.268
40.03000 254.445
40.04000 248.621
40.05000 247.386
40.06000 249.755
40.07000 252.100
40.08000 253.493
40.09000 254.388
40.10000 255.140
40.11000 253.554
40.12000 251.144
40.13000 248.937
40.14000 251.883
40.15000 255.582
40.16000 258.685
40.17000 258.558
40.18000 257.947
40.19000 256.287
40.20000 250.912
40.21000 245.209
40.22000 241.144
40.23000 251.695
40.24000 260.219
40.25000 264.146
40.26000 260.720
40.27000 257.198
40.28000 256.191
40.29000 257.808
40.30000 259.417
40.31000 262.283
40.32000 265.949
40.33000 269.423
40.34000 267.654
40.35000 263.519
40.36000 259.636
40.37000 258.939
40.38000 259.210
40.39000 259.453
40.40000 253.771
40.41000 247.768
40.42000 242.767
40.43000 242.383
40.44000 242.575
40.45000 243.397
40.46000 246.143
40.47000 249.023
40.48000 250.979
40.49000 250.343
40.50000 249.810
40.51000 248.251
40.52000 245.284
40.53000 242.312
40.54000 242.954
40.55000 246.775
40.56000 250.554
40.57000 253.782
40.58000 256.624
40.59000 259.237
40.60000 257.322
40.61000 253.644
40.62000 250.639
40.63000 254.473
40.64000 260.091
40.65000 265.017
40.66000 259.928
40.67000 254.107
40.68000 248.644
40.69000 244.591
40.70000 240.683
40.71000 237.929
40.72000 238.216
40.73000 238.664
40.74000 238.952
40.75000 242.163
40.76000 244.548
40.77000 245.837
40.78000 245.846
40.79000 245.851
40.80000 245.605
40.81000 245.171
40.82000 244.744
40.83000 244.006
40.84000 243.145
40.85000 242.431
40.86000 243.944
40.87000 246.204
40.88000 247.947
40.89000 245.397
40.90000 241.889
40.91000 238.891
40.92000 243.780
40.93000 248.841
40.94000 252.423
40.95000 251.012
40.96000 249.194
40.97000 246.860
40.98000 243.353
40.99000 239.801
41.00000 237.648
41.01000 234.481
41.02000 232.214
41.03000 234.389
41.04000 240.947
41.05000 247.471
41.06000 251.121
41.07000 252.930
41.08000 254.689
41.09000 248.321
41.10000 238.940
41.11000 230.328
41.12000 230.800
41.13000 233.900
41.14000 236.607
41.15000 236.613
41.16000 236.106
41.17000 235.685
41.18000 231.864
41.19000 228.375
41.20000 227.761
41.21000 235.513
41.22000 243.798
41.23000 248.010
41.24000 244.233
41.25000 240.246
41.26000 237.985
41.27000 237.947
41.28000 237.926
41.29000 237.110
41.30000 235.631
41.31000 234.198
41.32000 234.939
41.33000 236.880
41.34000 238.746
41.35000 242.453
41.36000 246.565
41.37000 250.184
41.38000 249.116
41.39000 246.885
41.40000 245.535
41.41000 249.265
41.42000 253.807
41.43000 257.459
41.44000 254.523
41.45000 251.634
41.46000 247.534
41.47000 240.396
41.48000 233.111
41.49000 230.411
41.50000 235.458
41.51000 240.630
41.52000 243.349
41.53000 239.027
41.54000 236.109
41.55000 235.428
41.56000 236.340
41.57000 237.252
41.58000 238.174
41.59000 239.100
41.60000 239.979
41.61000 240.773
41.62000 241.480
41.63000 242.057
41.64000 241.629
41.65000 240.988
41.66000 239.475
41.67000 233.713
41.68000 227.385
41.69000 222.474
41.70000 230.409
41.71000 237.491
41.72000 241.569
41.73000 239.136
41.74000 236.479
41.75000 236.177
41.76000 239.292
41.77000 242.434
41.78000 242.704
41.79000 240.293
41.80000 237.928
41.81000 238.850
41.82000 241.780
41.83000 244.485
41.84000 242.215
41.85000 237.903
41.86000 233.879
41.87000 236.752
41.88000 241.080
41.89000 244.704
41.90000 243.763
41.91000 242.002
41.92000 239.942
41.93000 236.634
41.94000 233.190
41.95000 230.621
41.96000 226.736
41.97000 223.651
41.98000 223.667
41.99000 229.487
42.00000 235.439
42.01000 239.473
42.02000 241.132
42.03000 242.780
42.04000 245.988
42.05000 250.413
42.06000 254.743
42.07000 255.171
42.08000 253.549
42.09000 251.950
42.10000 250.759
42.11000 249.711
42.12000 248.751
42.13000 249.509
42.14000 250.546
42.15000 250.253
42.16000 242.703
42.17000 234.057
42.18000 227.895
42.19000 230.593
42.20000 234.077
42.21000 236.565
42.22000 234.413
42.23000 232.617
42.24000 233.138
42.25000 237.389
42.26000 241.691
42.27000 242.529
42.28000 239.731
42.29000 236.948
42.30000 239.860
42.31000 246.548
42.32000 252.994
42.33000 252.719
42.34000 249.394
42.35000 246.264
42.36000 245.640
42.37000 245.782
42.38000 245.909
42.39000 244.117
42.40000 242.211
42.41000 240.199
42.42000 237.696
42.43000 235.133
42.44000 234.367
42.45000 239.118
42.46000 244.256
42.47000 247.753
42.48000 247.508
42.49000 247.239
42.50000 246.615
42.51000 245.498
42.52000 244.380
42.53000 244.664
42.54000 246.190
42.55000 247.700
42.56000 243.970
42.57000 237.345
42.58000 231.089
42.59000 232.235
42.60000 236.281
42.61000 239.770
42.62000 237.558
42.63000 233.848
42.64000 230.593
42.65000 225.472
42.66000 220.800
42.67000 217.806
42.68000 221.453
42.69000 225.782
42.70000 228.787
42.71000 228.285
42.72000 227.596
42.73000 227.151
42.74000 228.946
42.75000 230.289
42.76000 230.246
42.77000 228.571
42.78000 226.909
42.79000 228.261
42.80000 231.886
42.81000 235.445
42.82000 233.363
42.83000 228.624
42.84000 224.207
42.85000 224.673
42.86000 226.789
42.87000 229.047
42.88000 232.490
42.89000 236.200
42.90000 239.373
42.91000 232.298
42.92000 225.100
42.93000 219.392
42.94000 218.748
42.95000 218.523
42.96000 219.699
42.97000 224.080
42.98000 228.587
42.99000 231.326
43.00000 222.960
43.01000 216.901
43.02000 216.581
43.03000 221.964
43.04000 227.290
43.05000 227.629
43.06000 224.750
43.07000 221.950
43.08000 220.282
43.09000 219.161
43.10000 218.241
43.11000 219.717
43.12000 221.889
43.13000 224.010
43.14000 225.779
43.15000 227.480
43.16000 228.894
43.17000 229.251
43.18000 229.443
43.19000 228.757
43.20000 225.502
43.21000 222.080
43.22000 220.160
43.23000 221.201
43.24000 222.322
43.25000 222.959
43.26000 227.394
43.27000 230.489
43.28000 229.806
43.29000 225.948
43.30000 222.163
43.31000 221.919
43.32000 223.640
43.33000 225.295
43.34000 222.820
43.35000 219.054
43.36000 215.944
43.37000 219.120
43.38000 223.867
43.39000 228.019
43.40000 228.720
43.41000 228.865
43.42000 228.982
43.43000 225.006
43.44000 221.462
43.45000 219.911
43.46000 223.400
43.47000 227.134
43.48000 228.008
43.49000 224.022
43.50000 219.956
43.51000 217.811
43.52000 217.186
43.53000 216.758
43.54000 215.580
43.55000 213.864
43.56000 212.196
43.57000 212.034
43.58000 212.592
43.59000 213.122
43.60000 216.940
43.61000 221.440
43.62000 224.881
43.63000 220.014
43.64000 213.375
43.65000 208.913
43.66000 215.146
43.67000 222.816
43.68000 228.777
43.69000 228.881
43.70000 228.607
43.71000 227.984
43.72000 226.601
43.73000 225.191
43.74000 222.034
43.75000 216.330
43.76000 210.604
43.77000 210.563
43.78000 215.870
43.79000 221.088
43.80000 219.989
43.81000 215.009
43.82000 210.345
43.83000 212.800
43.84000 218.194
43.85000 223.232
43.86000 223.431
43.87000 222.394
43.88000 221.323
43.89000 220.022
43.90000 218.680
43.91000 216.454
43.92000 210.530
43.93000 204.197
43.94000 199.464
43.95000 210.198
43.96000 219.281
43.97000 224.176
43.98000 221.192
43.99000 218.024
44.00000 217.250
44.01000 219.462
44.02000 221.678
44.03000 221.084
44.04000 218.258
44.05000 215.429
44.06000 212.422
44.07000 209.320
44.08000 206.577
44.09000 209.826
44.10000 215.210
44.11000 220.150
44.12000 221.266
44.13000 221.450
44.14000 220.834
44.15000 215.816
44.16000 210.129
44.17000 206.251
44.18000 208.865
44.19000 212.060
44.20000 214.347
44.21000 217.645
44.22000 220.197
44.23000 219.389
44.24000 213.138
44.25000 206.811
44.26000 209.832
44.27000 222.733
44.28000 235.569
44.29000 237.448
44.30000 231.923
44.31000 226.575
44.32000 226.246
44.33000 228.207
44.34000 229.789
44.35000 226.450
44.36000 221.598
44.37000 217.237
44.38000 216.493
44.39000 216.484
44.40000 217.445
44.41000 222.937
44.42000 229.002
44.43000 233.448
44.44000 232.895
44.45000 231.988
44.46000 231.370
44.47000 234.053
44.48000 236.136
44.49000 235.821
44.50000 232.178
44.51000 228.516
44.52000 227.675
44.53000 229.351
44.54000 231.009
44.55000 233.295
44.56000 235.889
44.57000 238.321
44.58000 237.456
44.59000 235.292
44.60000 233.932
44.61000 240.898
44.62000 250.062
44.63000 258.113
44.64000 249.241
44.65000 239.119
44.66000 232.618
44.67000 240.542
44.68000 249.960
44.69000 254.728
44.70000 247.108
44.71000 238.817
44.72000 233.456
44.73000 234.009
44.74000 234.501
44.75000 236.683
44.76000 240.867
44.77000 245.037
44.78000 245.653
44.79000 243.573
44.80000 241.529
44.81000 246.554
44.82000 254.849
44.83000 262.844
44.84000 266.233
44.85000 268.055
44.86000 269.486
44.87000 267.629
44.88000 265.028
44.89000 262.801
44.90000 269.269
44.91000 275.781
44.92000 280.997
44.93000 281.784
44.94000 282.203
44.95000 281.421
44.96000 277.880
44.97000 274.229
44.98000 272.005
44.99000 276.347
45.00000 279.503
45.01000 283.384
45.02000 287.991
45.03000 292.561
45.04000 293.833
45.05000 292.963
45.06000 292.117
45.07000 295.821
45.08000 301.234
45.09000 306.250
45.10000 306.470
45.11000 305.286
45.12000 303.944
45.13000 301.494
45.14000 298.831
45.15000 296.614
45.16000 290.988
45.17000 285.994
45.18000 282.854
45.19000 285.177
45.20000 287.855
45.21000 290.072
45.22000 291.370
45.23000 292.643
45.24000 293.369
45.25000 295.333
45.26000 296.697
45.27000 292.910
45.28000 284.765
45.29000 276.668
45.30000 271.037
45.31000 266.781
45.32000 262.686
45.33000 264.149
45.34000 267.482
45.35000 271.027
45.36000 276.629
45.37000 282.748
45.38000 286.938
45.39000 279.861
45.40000 270.956
45.41000 263.777
45.42000 261.856
45.43000 260.709
45.44000 257.668
45.45000 249.813
45.46000 241.721
45.47000 237.807
45.48000 241.039
45.49000 244.392
45.50000 246.166
45.51000 250.214
45.52000 252.934
45.53000 250.772
45.54000 245.090
45.55000 239.632
45.56000 241.409
45.57000 246.668
45.58000 251.660
45.59000 243.186
45.60000 231.335
45.61000 221.022
45.62000 222.887
45.63000 227.368
45.64000 231.541
45.65000 234.195
45.66000 236.644
45.67000 238.550
45.68000 228.444
45.69000 219.659
45.70000 214.879
45.71000 218.888
45.72000 223.209
45.73000 226.192
45.74000 227.211
45.75000 228.213
45.76000 225.112
45.77000 218.125
45.78000 211.210
45.79000 209.533
45.80000 211.095
45.81000 212.602
45.82000 212.862
45.83000 212.603
45.84000 212.361
45.85000 213.644
45.86000 215.194
45.87000 216.450
45.88000 215.770
45.89000 214.738
45.90000 213.461
45.91000 211.157
45.92000 208.737
45.93000 206.926
45.94000 209.273
45.95000 211.297
45.96000 211.004
45.97000 206.321
45.98000 201.534
45.99000 199.122
46.00000 199.690
46.01000 200.267
46.02000 203.158
46.03000 207.887
46.04000 212.498
46.05000 212.022
46.06000 208.840
46.07000 205.816
46.08000 205.467
46.09000 206.076
46.10000 206.636
46.11000 205.186
46.12000 203.463
46.13000 202.461
46.14000 205.443
46.15000 209.036
46.16000 211.682
46.17000 210.907
46.18000 209.823
46.19000 209.046
46.20000 204.615
46.21000 201.103
46.22000 199.122
46.23000 199.637
46.24000 200.187
46.25000 204.075
46.26000 211.516
46.27000 218.919
46.28000 218.997
46.29000 214.106
46.30000 209.301
46.31000 206.961
46.32000 205.752
46.33000 204.796
46.34000 207.147
46.35000 210.522
46.36000 213.557
46.37000 213.590
46.38000 213.083
46.39000 211.859
46.40000 207.274
46.41000 202.261
46.42000 197.712
46.43000 194.605
46.44000 191.601
46.45000 189.547
46.46000 202.207
46.47000 212.026
46.48000 214.972
46.49000 208.312
46.50000 201.590
46.51000 198.793
46.52000 199.520
46.53000 200.239
46.54000 201.437
46.55000 202.885
46.56000 204.252
46.57000 203.956
46.58000 203.001
46.59000 202.090
46.60000 201.643
46.61000 201.318
46.62000 201.033
46.63000 204.163
46.64000 207.364
46.65000 209.977
46.66000 210.232
46.67000 210.242
46.68000 208.576
46.69000 202.424
46.70000 196.027
46.71000 191.880
46.72000 193.296
46.73000 194.415
46.74000 194.651
46.75000 193.835
46.76000 193.024
46.77000 193.872
46.78000 195.987
46.79000 198.065
46.80000 200.380
46.81000 202.732
46.82000 204.892
46.83000 204.064
46.84000 202.212
46.85000 200.151
46.86000 196.302
46.87000 192.046
46.88000 188.398
46.89000 186.506
46.90000 185.122
46.91000 184.344
46.92000 185.649
46.93000 187.130
46.94000 189.368
46.95000 193.362
46.96000 197.426
46.97000 199.909
46.98000 194.794
46.99000 191.073
47.00000 189.445
47.01000 189.926
47.02000 190.416
47.03000 191.582
47.04000 193.191
47.05000 194.757
47.06000 195.199
47.07000 195.152
47.08000 195.275
47.09000 197.480
47.10000 200.299
47.11000 202.352
47.12000 199.032
47.13000 194.673
47.14000 191.040
47.15000 192.566
47.16000 194.343
47.17000 194.406
47.18000 189.395
47.19000 184.049
47.20000 181.998
47.21000 186.526
47.22000 191.237
47.23000 193.930
47.24000 188.309
47.25000 184.364
47.26000 184.910
47.27000 189.281
47.28000 193.540
47.29000 192.088
47.30000 187.430
47.31000 182.946
47.32000 184.825
47.33000 188.848
47.34000 192.252
47.35000 189.628
47.36000 185.480
47.37000 181.778
47.38000 180.699
47.39000 180.049
47.40000 179.524
47.41000 177.213
47.42000 175.193
47.43000 176.151
47.44000 184.720
47.45000 193.670
47.46000 198.544
47.47000 196.407
47.48000 194.149
47.49000 192.951
47.50000 189.835
47.51000 187.718
47.52000 186.065
47.53000 184.749
47.54000 183.560
47.55000 186.538
47.56000 191.533
47.57000 196.278
47.58000 197.254
47.59000 197.020
47.60000 196.085
47.61000 189.566
47.62000 181.838
47.63000 175.987
47.64000 179.469
47.65000 184.225
47.66000 187.931
47.67000 191.748
47.68000 194.796
47.69000 196.626
47.70000 195.767
47.71000 194.812
47.72000 193.510
47.73000 191.695
47.74000 189.876
47.75000 187.537
47.76000 184.702
47.77000 181.899
47.78000 181.436
47.79000 182.430
47.80000 183.548
47.81000 187.514
47.82000 192.672
47.83000 197.495
47.84000 195.704
47.85000 192.390
47.86000 189.290
47.87000 187.600
47.88000 186.169
47.89000 184.831
47.90000 183.892
47.91000 182.997
47.92000 182.326
47.93000 182.907
47.94000 183.421
47.95000 184.591
47.96000 187.012
47.97000 189.463
47.98000 189.823
47.99000 187.542
48.00000 185.255
48.01000 185.105
48.02000 186.675
48.03000 188.236
48.04000 189.400
48.05000 190.351
48.06000 191.025
48.07000 186.958
48.08000 181.181
48.09000 175.873
48.10000 176.976
48.11000 179.338
48.12000 181.916
48.13000 185.698
48.14000 189.667
48.15000 193.076
48.16000 194.452
48.17000 195.643
48.18000 196.499
48.19000 194.524
48.20000 192.916
48.21000 191.197
48.22000 189.297
48.23000 187.395
48.24000 185.542
48.25000 183.743
48.26000 181.952
48.27000 181.814
48.28000 182.805
48.29000 183.784
48.30000 184.436
48.31000 184.937
48.32000 185.285
48.33000 183.604
48.34000 181.293
48.35000 179.212
48.36000 179.159
48.37000 179.478
48.38000 179.896
48.39000 180.782
48.40000 181.729
48.41000 182.969
48.42000 185.126
48.43000 187.350
48.44000 188.873
48.45000 183.762
48.46000 179.775
48.47000 176.370
48.48000 173.782
48.49000 171.203
48.50000 172.910
48.51000 178.490
48.52000 184.015
48.53000 186.371
48.54000 186.839
48.55000 187.121
48.56000 183.527
48.57000 178.388
48.58000 173.781
48.59000 174.775
48.60000 177.266
48.61000 179.460
48.62000 177.596
48.63000 175.384
48.64000 174.418
48.65000 178.478
48.66000 183.068
48.67000 186.382
48.68000 186.260
48.69000 185.947
48.70000 185.744
48.71000 181.023
48.72000 177.496
48.73000 175.720
48.74000 176.045
48.75000 176.364
48.76000 174.522
48.77000 171.018
48.78000 167.574
48.79000 172.147
48.80000 180.522
48.81000 188.304
48.82000 186.777
48.83000 182.048
48.84000 177.732
48.85000 176.958
48.86000 176.994
48.87000 177.025
48.88000 177.825
48.89000 178.595
48.90000 180.274
48.91000 185.097
48.92000 190.186
48.93000 192.890
48.94000 190.041
48.95000 186.966
48.96000 185.083
48.97000 180.695
48.98000 177.532
48.99000 175.800
49.00000 175.519
49.01000 175.258
49.02000 176.962
49.03000 179.956
49.04000 182.873
49.05000 183.512
49.06000 183.165
49.07000 182.829
49.08000 182.630
49.09000 182.472
49.10000 182.081
49.11000 180.047
49.12000 177.692
49.13000 175.728
49.14000 175.354
49.15000 175.202
49.16000 175.350
49.17000 176.390
49.18000 177.489
49.19000 178.578
49.20000 179.646
49.21000 180.713
49.22000 181.325
49.23000 187.084
49.24000 191.121
49.25000 190.478
49.26000 185.825
49.27000 181.216
49.28000 178.899
49.29000 177.876
49.30000 176.890
49.31000 175.124
49.32000 173.187
49.33000 171.328
49.34000 170.244
49.35000 169.356
49.36000 168.420
49.37000 167.193
49.38000 165.919
49.39000 164.889
49.40000 168.056
49.41000 170.968
49.42000 174.531
49.43000 179.765
49.44000 185.083
49.45000 185.885
49.46000 178.869
49.47000 171.715
49.48000 167.905
49.49000 175.198
49.50000 180.141
49.51000 179.828
49.52000 175.678
49.53000 171.644
49.54000 171.471
49.55000 173.179
49.56000 174.802
49.57000 174.867
49.58000 174.454
49.59000 174.741
49.60000 180.655
49.61000 187.792
49.62000 192.145
49.63000 182.552
49.64000 171.041
49.65000 162.056
49.66000 164.912
49.67000 167.932
49.68000 170.713
49.69000 172.958
49.70000 175.185
49.71000 175.650
49.72000 173.496
49.73000 171.317
49.74000 170.928
49.75000 172.256
49.76000 173.564
49.77000 173.312
49.78000 172.084
49.79000 170.956
49.80000 172.173
49.81000 174.376
49.82000 176.437
49.83000 174.468
49.84000 171.644
49.85000 169.168
49.86000 169.014
49.87000 169.289
49.88000 169.314
49.89000 168.277
49.90000 167.118
49.91000 166.248
49.92000 175.249
49.93000 182.755
49.94000 187.285
49.95000 186.113
49.96000 184.801
49.97000 180.540
49.98000 172.532
49.99000 164.523
50.00000 162.669
50.01000 165.813
50.02000 168.971
50.03000 172.712
50.04000 176.767
50.05000 180.465
50.06000 177.989
50.07000 173.273
50.08000 168.935
50.09000 171.929
50.10000 176.189
50.11000 179.585
50.12000 178.134
50.13000 175.930
50.14000 174.016
50.15000 173.162
50.16000 172.406
50.17000 171.862
50.18000 171.582
50.19000 171.377
50.20000 171.233
50.21000 171.190
50.22000 171.148
50.23000 170.851
50.24000 170.278
50.25000 169.707
50.26000 168.045
50.27000 165.652
50.28000 163.453
50.29000 166.997
50.30000 173.209
50.31000 179.030
50.32000 179.625
50.33000 178.585
50.34000 177.648
50.35000 179.425
50.36000 181.477
50.37000 183.051
50.38000 182.356
50.39000 181.367
50.40000 179.239
50.41000 173.528
50.42000 167.556
50.43000 163.458
50.44000 170.791
50.45000 176.566
50.46000 181.082
50.47000 183.819
50.48000 186.541
50.49000 187.462
50.50000 186.744
50.51000 186.032
50.52000 188.256
50.53000 192.148
50.54000 195.968
50.55000 198.270
50.56000 199.963
50.57000 201.314
50.58000 199.034
50.59000 195.776
50.60000 192.905
50.61000 194.634
50.62000 196.817
50.63000 198.740
50.64000 199.604
50.65000 200.357
50.66000 200.992
50.67000 201.309
50.68000 201.609
50.69000 201.804
50.70000 197.744
50.71000 194.700
50.72000 195.877
50.73000 202.149
50.74000 208.408
50.75000 208.782
50.76000 204.608
50.77000 200.504
50.78000 197.923
50.79000 196.182
50.80000 194.717
50.81000 197.614
50.82000 202.021
50.83000 205.614
50.84000 202.181
50.85000 197.129
50.86000 192.790
50.87000 191.051
50.88000 189.903
50.89000 189.032
50.90000 189.125
50.91000 189.301
50.92000 188.951
50.93000 187.371
50.94000 185.741
50.95000 184.740
50.96000 184.946
50.97000 185.104
50.98000 186.313
50.99000 188.598
51.00000 190.849
51.01000 189.746
51.02000 186.425
51.03000 183.190
51.04000 179.101
51.05000 174.840
51.06000 171.108
51.07000 173.916
51.08000 178.675
51.09000 182.676
51.10000 181.278
51.11000 178.822
51.12000 176.770
51.13000 174.327
51.14000 172.261
51.15000 171.300
51.16000 173.652
51.17000 176.228
51.18000 178.135
51.19000 178.694
51.20000 179.214
51.21000 179.513
51.22000 175.945
51.23000 173.439
51.24000 173.703
51.25000 176.356
51.26000 178.950
51.27000 178.408
51.28000 176.084
51.29000 173.845
51.30000 173.728
51.31000 174.380
51.32000 174.600
51.33000 170.533
51.34000 165.367
51.35000 161.557
51.36000 165.836
51.37000 171.455
51.38000 176.003
51.39000 172.106
51.40000 168.251
51.41000 165.265
51.42000 164.528
51.43000 163.906
51.44000 164.448
51.45000 167.016
51.46000 169.621
51.47000 171.012
51.48000 163.302
51.49000 158.079
51.50000 159.842
51.51000 166.740
51.52000 173.489
51.53000 175.171
51.54000 174.372
51.55000 173.611
51.56000 169.704
51.57000 165.130
51.58000 161.263
51.59000 163.125
51.60000 166.243
51.61000 169.847
51.62000 175.911
51.63000 182.316
51.64000 187.322
51.65000 178.758
51.66000 171.061
51.67000 165.601
51.68000 165.134
51.69000 164.853
51.70000 164.011
51.71000 162.330
51.72000 160.641
51.73000 156.550
51.74000 150.136
51.75000 143.844
51.76000 147.103
51.77000 156.376
51.78000 165.388
51.79000 168.235
51.80000 168.475
51.81000 168.699
51.82000 163.690
51.83000 157.782
51.84000 153.024
51.85000 156.007
51.86000 160.429
51.87000 164.206
51.88000 165.214
51.89000 165.905
51.90000 166.424
51.91000 162.440
51.92000 159.105
51.93000 157.849
51.94000 160.598
51.95000 163.447
51.96000 166.013
51.97000 168.217
51.98000 170.417
51.99000 168.666
52.00000 163.697
52.01000 158.830
52.02000 158.607
52.03000 160.901
52.04000 162.974
52.05000 161.195
52.06000 158.009
52.07000 155.078
52.08000 153.197
52.09000 151.744
52.10000 151.042
52.11000 154.583
52.12000 158.789
52.13000 162.863
52.14000 166.450
52.15000 169.993
52.16000 172.546
52.17000 169.888
52.18000 167.666
52.19000 166.875
52.20000 168.459
52.21000 170.079
52.22000 169.418
52.23000 166.280
52.24000 163.154
52.25000 160.403
52.26000 157.941
52.27000 155.536
52.28000 154.845
52.29000 154.955
52.30000 155.121
52.31000 156.033
52.32000 157.180
52.33000 158.214
52.34000 157.846
52.35000 157.267
52.36000 156.805
52.37000 156.905
52.38000 157.078
52.39000 157.419
52.40000 158.292
52.41000 159.204
52.42000 159.831
52.43000 158.516
52.44000 157.481
52.45000 158.455
52.46000 162.289
52.47000 166.142
52.48000 166.565
52.49000 163.845
52.50000 161.151
52.51000 157.525
52.52000 153.427
52.53000 149.629
52.54000 152.237
52.55000 157.429
52.56000 161.919
52.57000 158.890
52.58000 153.826
52.59000 149.360
52.60000 149.418
52.61000 150.156
52.62000 151.742
52.63000 156.794
52.64000 162.217
52.65000 164.560
52.66000 158.504
52.67000 151.971
52.68000 147.708
52.69000 151.923
52.70000 155.150
52.71000 157.757
52.72000 159.610
52.73000 161.443
52.74000 158.456
52.75000 151.717
52.76000 145.090
52.77000 146.996
52.78000 153.106
52.79000 158.938
52.80000 160.319
52.81000 160.149
52.82000 159.866
52.83000 158.609
52.84000 157.125
52.85000 155.849
52.86000 156.489
52.87000 157.270
52.88000 157.608
52.89000 156.386
52.90000 155.031
52.91000 154.016
52.92000 153.805
52.93000 153.628
52.94000 153.519
52.95000 157.482
52.96000 160.361
52.97000 160.825
52.98000 158.805
52.99000 156.813
53.00000 157.567
53.01000 160.149
53.02000 162.666
53.03000 161.935
53.04000 159.856
53.05000 158.133
53.06000 160.872
53.07000 164.949
53.08000 168.035
53.09000 163.999
53.10000 158.557
53.11000 154.006
53.12000 151.675
53.13000 149.965
53.14000 148.667
53.15000 148.610
53.16000 148.637
53.17000 148.968
53.18000 149.917
53.19000 150.883
53.20000 151.440
53.21000 160.003
53.22000 166.028
53.23000 170.285
53.24000 173.006
53.25000 175.596
53.26000 171.035
53.27000 162.386
53.28000 154.047
53.29000 154.470
53.30000 158.038
53.31000 161.127
53.32000 159.414
53.33000 156.464
53.34000 154.128
53.35000 155.478
53.36000 157.443
53.37000 159.036
53.38000 157.576
53.39000 156.137
53.40000 156.175
53.41000 160.055
53.42000 164.134
53.43000 164.583
53.44000 158.672
53.45000 152.643
53.46000 149.412
53.47000 158.797
53.48000 165.182
53.49000 166.069
53.50000 162.889
53.51000 159.784
53.52000 159.270
53.53000 160.031
53.54000 160.757
53.55000 161.752
53.56000 162.757
53.57000 163.244
53.58000 159.503
53.59000 154.830
53.60000 151.235
53.61000 153.107
53.62000 155.743
53.63000 157.806
53.64000 155.976
53.65000 154.264
53.66000 153.904
53.67000 156.581
53.68000 159.371
53.69000 161.271
53.70000 161.830
53.71000 162.376
53.72000 160.316
53.73000 155.720
53.74000 151.220
53.75000 154.487
53.76000 162.675
53.77000 170.333
53.78000 165.279
53.79000 154.819
53.80000 145.017
53.81000 147.501
53.82000 152.960
53.83000 157.590
53.84000 156.607
53.85000 154.573
53.86000 153.375
53.87000 155.786
53.88000 158.613
53.89000 160.743
53.90000 158.336
53.91000 156.230
53.92000 156.601
53.93000 161.777
53.94000 167.075
53.95000 165.793
53.96000 156.038
53.97000 146.263
53.98000 144.194
53.99000 148.463
54.00000 152.675
54.01000 154.258
54.02000 154.407
54.03000 154.551
54.04000 154.591
54.05000 154.594
54.06000 154.596
54.07000 153.661
54.08000 152.619
54.09000 151.996
54.10000 153.759
54.11000 155.897
54.12000 157.938
54.13000 159.618
54.14000 161.265
54.15000 162.454
54.16000 157.215
54.17000 152.967
54.18000 152.381
54.19000 157.911
54.20000 163.536
54.21000 165.137
54.22000 162.339
54.23000 159.551
54.24000 156.301
54.25000 152.764
54.26000 149.332
54.27000 149.120
54.28000 150.422
54.29000 151.594
54.30000 150.984
54.31000 149.811
54.32000 148.753
54.33000 154.197
54.34000 160.179
54.35000 164.175
54.36000 158.613
54.37000 151.793
54.38000 147.233
54.39000 149.861
54.40000 153.024
54.41000 155.203
54.42000 158.540
54.43000 161.075
54.44000 161.190
54.45000 157.839
54.46000 154.462
54.47000 150.963
54.48000 147.354
54.49000 143.778
54.50000 146.511
54.51000 152.921
54.52000 159.104
54.53000 160.400
54.54000 159.712
54.55000 159.154
54.56000 159.991
54.57000 161.209
54.58000 162.285
54.59000 161.741
54.60000 161.025
54.61000 160.661
54.62000 161.746
54.63000 162.989
54.64000 162.763
54.65000 158.510
54.66000 154.025
54.67000 151.093
54.68000 154.239
54.69000 156.648
54.70000 158.131
54.71000 158.481
54.72000 158.825
54.73000 158.309
54.74000 157.119
54.75000 155.949
54.76000 155.199
54.77000 154.685
54.78000 154.185
54.79000 153.913
54.80000 153.722
54.81000 153.518
54.82000 153.204
54.83000 152.866
54.84000 152.574
54.85000 152.674
54.86000 152.807
54.87000 152.854
54.88000 152.595
54.89000 152.309
54.90000 153.221
54.91000 156.971
54.92000 160.841
54.93000 163.229
54.94000 162.629
54.95000 162.171
54.96000 159.796
54.97000 155.436
54.98000 151.120
54.99000 151.455
55.00000 154.904
55.01000 158.267
55.02000 158.404
55.03000 157.152
55.04000 155.829
55.05000 153.599
55.06000 151.095
55.07000 148.884
55.08000 148.782
55.09000 149.101
55.10000 149.367
55.11000 150.948
55.12000 152.397
55.13000 154.387
55.14000 158.018
55.15000 161.763
55.16000 163.523
55.17000 161.226
55.18000 158.808
55.19000 157.410
55.20000 156.878
55.21000 156.507
55.22000 155.387
55.23000 153.611
55.24000 151.864
55.25000 151.715
55.26000 152.487
55.27000 153.231
55.28000 159.033
55.29000 166.335
55.30000 173.331
55.31000 177.232
55.32000 180.331
55.33000 182.706
55.34000 180.699
55.35000 177.956
55.36000 175.731
55.37000 173.460
55.38000 171.605
55.39000 169.636
55.40000 167.370
55.41000 165.089
55.42000 166.288
55.43000 173.618
55.44000 181.065
55.45000 185.068
55.46000 187.639
55.47000 189.382
55.48000 188.746
55.49000 186.341
55.50000 184.123
55.51000 188.463
55.52000 196.053
55.53000 203.280
55.54000 203.304
55.55000 201.097
55.56000 199.516
55.57000 203.082
55.58000 207.790
55.59000 212.715
55.60000 218.743
55.61000 224.927
55.62000 229.775
55.63000 232.481
55.64000 234.505
55.65000 239.506
55.66000 251.235
55.67000 263.220
55.68000 271.730
55.69000 274.976
55.70000 278.168
55.71000 284.249
55.72000 293.163
55.73000 302.070
55.74000 310.425
55.75000 318.427
55.76000 326.269
55.77000 330.210
55.78000 332.481
55.79000 334.612
55.80000 353.015
55.81000 374.039
55.82000 394.090
55.83000 407.493
55.84000 419.643
55.85000 431.486
55.86000 441.995
55.87000 452.349
55.88000 460.162
55.89000 461.814
55.90000 462.803
55.91000 465.195
55.92000 470.326
55.93000 475.527
55.94000 478.780
55.95000 479.506
55.96000 480.221
55.97000 483.954
55.98000 490.171
55.99000 496.225
56.00000 494.529
56.01000 488.585
56.02000 482.580
56.03000 475.493
56.04000 468.006
56.05000 461.105
56.06000 443.939
56.07000 426.304
56.08000 410.176
56.09000 402.679
56.10000 396.553
56.11000 390.570
56.12000 385.122
56.13000 379.724
56.14000 375.819
56.15000 364.634
56.16000 355.782
56.17000 347.447
56.18000 339.978
56.19000 332.523
56.20000 323.140
56.21000 311.632
56.22000 300.172
56.23000 291.152
56.24000 283.933
56.25000 276.866
56.26000 274.538
56.27000 274.450
56.28000 273.511
56.29000 260.855
56.30000 244.467
56.31000 229.659
56.32000 224.130
56.33000 220.987
56.34000 217.636
56.35000 213.280
56.36000 208.791
56.37000 204.750
56.38000 202.143
56.39000 199.645
56.40000 197.920
56.41000 192.007
56.42000 187.456
56.43000 184.551
56.44000 184.020
56.45000 183.506
56.46000 180.846
56.47000 176.192
56.48000 171.580
56.49000 171.654
56.50000 174.516
56.51000 177.181
56.52000 175.551
56.53000 172.167
56.54000 168.783
56.55000 165.404
56.56000 162.027
56.57000 159.043
56.58000 162.531
56.59000 166.542
56.60000 169.664
56.61000 169.108
56.62000 168.151
56.63000 167.326
56.64000 166.862
56.65000 166.419
56.66000 166.129
56.67000 159.511
56.68000 154.541
56.69000 153.446
56.70000 157.121
56.71000 160.796
56.72000 160.488
56.73000 157.040
56.74000 153.648
56.75000 149.284
56.76000 144.565
56.77000 140.259
56.78000 142.701
56.79000 147.522
56.80000 151.911
56.81000 152.492
56.82000 152.178
56.83000 151.907
56.84000 147.855
56.85000 143.939
56.86000 142.135
56.87000 147.818
56.88000 154.161
56.89000 155.766
56.90000 146.083
56.91000 135.915
56.92000 129.626
56.93000 131.855
56.94000 133.538
56.95000 136.237
56.96000 139.997
56.97000 143.733
56.98000 144.903
56.99000 144.344
57.00000 143.798
57.01000 144.613
57.02000 145.977
57.03000 147.369
57.04000 149.109
57.05000 150.955
57.06000 152.086
57.07000 148.002
57.08000 142.876
57.09000 138.579
57.10000 143.183
57.11000 147.936
57.12000 150.238
57.13000 145.062
57.14000 139.366
57.15000 136.324
57.16000 138.741
57.17000 141.321
57.18000 142.818
57.19000 136.094
57.20000 131.348
57.21000 133.271
57.22000 141.064
57.23000 148.747
57.24000 150.102
57.25000 147.796
57.26000 145.571
57.27000 142.331
57.28000 138.909
57.29000 135.908
57.30000 137.200
57.31000 139.611
57.32000 142.037
57.33000 144.554
57.34000 147.086
57.35000 149.144
57.36000 149.817
57.37000 150.251
57.38000 149.908
57.39000 147.519
57.40000 145.021
57.41000 143.841
57.42000 144.998
57.43000 146.200
57.44000 146.848
57.45000 143.908
57.46000 141.904
57.47000 142.127
57.48000 144.017
57.49000 145.932
57.50000 148.694
57.51000 151.879
57.52000 154.913
57.53000 151.171
57.54000 145.593
57.55000 141.144
57.56000 146.059
57.57000 153.064
57.58000 157.626
57.59000 149.625
57.60000 139.844
57.61000 132.163
57.62000 138.630
57.63000 144.729
57.64000 147.070
57.65000 140.867
57.66000 134.334
57.67000 130.234
57.68000 129.841
57.69000 129.488
57.70000 132.510
57.71000 138.864
57.72000 145.176
57.73000 147.881
57.74000 148.271
57.75000 148.599
57.76000 147.411
57.77000 145.570
57.78000 143.843
57.79000 143.321
57.80000 143.163
57.81000 142.857
57.82000 141.534
57.83000 140.018
57.84000 139.174
57.85000 141.272
57.86000 143.714
57.87000 145.561
57.88000 146.114
57.89000 146.482
57.90000 145.581
57.91000 142.188
57.92000 138.730
57.93000 136.671
57.94000 136.438
57.95000 136.213
57.96000 137.159
57.97000 139.078
57.98000 141.009
57.99000 143.489
58.00000 146.272
58.01000 148.732
58.02000 145.345
58.03000 139.786
58.04000 134.658
58.05000 134.735
58.06000 135.961
58.07000 136.741
58.08000 134.945
58.09000 132.737
58.10000 130.725
58.11000 129.448
58.12000 128.240
58.13000 127.364
58.14000 133.859
58.15000 139.121
58.16000 140.728
58.17000 136.160
58.18000 131.492
58.19000 133.758
58.20000 143.710
58.21000 153.627
58.22000 156.871
58.23000 155.375
58.24000 153.743
58.25000 147.865
58.26000 139.968
58.27000 132.695
58.28000 134.101
58.29000 138.289
58.30000 142.077
58.31000 141.865
58.32000 140.933
58.33000 139.527
58.34000 135.808
58.35000 131.780
58.36000 128.899
58.37000 129.713
58.38000 130.806
58.39000 131.563
58.40000 133.913
58.41000 135.722
58.42000 135.669
58.43000 132.914
58.44000 130.138
58.45000 129.714
58.46000 131.490
58.47000 133.249
58.48000 134.889
58.49000 136.426
58.50000 137.873
58.51000 137.307
58.52000 135.914
58.53000 134.921
58.54000 138.321
58.55000 142.932
58.56000 147.010
58.57000 145.589
58.58000 143.505
58.59000 141.174
58.60000 137.810
58.61000 134.332
58.62000 131.713
58.63000 131.481
58.64000 131.388
58.65000 131.328
58.66000 133.141
58.67000 134.508
58.68000 134.067
58.69000 131.386
58.70000 128.717
58.71000 131.376
58.72000 138.262
58.73000 145.040
58.74000 146.930
58.75000 146.268
58.76000 145.697
58.77000 146.632
58.78000 148.100
58.79000 149.269
58.80000 147.764
58.81000 145.627
58.82000 143.784
58.83000 139.285
58.84000 135.129
58.85000 130.967
58.86000 126.785
58.87000 122.602
58.88000 120.920
58.89000 125.232
58.90000 129.804
58.91000 132.640
58.92000 135.388
58.93000 137.365
58.94000 137.459
58.95000 135.576
58.96000 133.708
58.97000 133.400
58.98000 134.150
58.99000 134.881
59.00000 135.255
59.01000 135.458
59.02000 135.617
59.03000 135.222
59.04000 134.659
59.05000 134.324
59.06000 135.669
59.07000 137.353
59.08000 138.765
59.09000 140.945
59.10000 142.839
59.11000 143.061
59.12000 138.149
59.13000 132.876
59.14000 131.000
59.15000 136.151
59.16000 141.517
59.17000 144.637
59.18000 136.328
59.19000 130.448
59.20000 130.177
59.21000 134.877
59.22000 139.501
59.23000 139.730
59.24000 137.400
59.25000 135.150
59.26000 131.119
59.27000 126.665
59.28000 122.691
59.29000 123.645
59.30000 125.892
59.31000 128.439
59.32000 132.821
59.33000 137.517
59.34000 141.337
59.35000 140.279
59.36000 139.005
59.37000 137.143
59.38000 133.725
59.39000 130.224
59.40000 127.554
59.41000 126.365
59.42000 125.206
59.43000 124.579
59.44000 128.696
59.45000 131.511
59.46000 132.557
59.47000 132.271
59.48000 132.008
59.49000 132.606
59.50000 133.636
59.51000 134.618
59.52000 132.001
59.53000 128.446
59.54000 125.644
59.55000 129.134
59.56000 134.038
59.57000 137.641
59.58000 134.511
59.59000 130.421
59.60000 127.205
59.61000 130.867
59.62000 134.255
59.63000 136.213
59.64000 134.904
59.65000 133.467
59.66000 131.348
59.67000 128.185
59.68000 125.011
59.69000 124.480
59.70000 126.576
59.71000 128.678
59.72000 131.214
59.73000 134.032
59.74000 136.700
59.75000 135.632
59.76000 132.946
59.77000 130.424
59.78000 132.194
59.79000 134.949
59.80000 137.203
59.81000 135.991
59.82000 134.117
59.83000 132.356
59.84000 131.094
59.85000 129.891
59.86000 128.980
59.87000 129.952
59.88000 130.809
59.89000 131.488
59.90000 131.817
59.91000 132.135
59.92000 133.189
59.93000 135.207
59.94000 137.228
59.95000 137.069
59.96000 135.085
59.97000 133.069
59.98000 129.533
59.99000 125.154
60.00000 121.230
60.01000 125.655
60.02000 133.200
60.03000 140.164
60.04000 142.329
60.05000 143.195
60.06000 143.183
60.07000 138.081
60.08000 132.158
60.09000 127.429
60.10000 127.198
60.11000 127.399
60.12000 127.545
60.13000 124.527
60.14000 122.087
60.15000 121.825
60.16000 125.267
60.17000 128.771
60.18000 130.516
60.19000 130.299
60.20000 130.082
60.21000 129.272
60.22000 128.049
60.23000 127.001
60.24000 131.503
60.25000 138.661
60.26000 145.077
60.27000 141.091
60.28000 133.751
60.29000 127.108
60.30000 126.426
60.31000 126.947
60.32000 127.944
60.33000 131.284
60.34000 134.940
60.35000 137.004
60.36000 133.913
60.37000 130.427
60.38000 128.010
60.39000 127.102
60.40000 126.458
60.41000 127.405
60.42000 130.673
60.43000 133.960
60.44000 134.465
60.45000 132.351
60.46000 130.255
60.47000 132.305
60.48000 136.817
60.49000 141.023
60.50000 138.365
60.51000 132.871
60.52000 127.883
60.53000 128.515
60.54000 130.706
60.55000 132.645
60.56000 130.654
60.57000 128.316
60.58000 127.446
60.59000 132.724
60.60000 138.684
60.61000 141.434
60.62000 135.223
60.63000 128.479
60.64000 124.041
60.65000 127.821
60.66000 130.746
60.67000 131.303
60.68000 128.905
60.69000 126.509
60.70000 127.696
60.71000 131.744
60.72000 135.731
60.73000 138.014
60.74000 139.353
60.75000 140.323
60.76000 135.088
60.77000 127.642
60.78000 120.784
60.79000 119.210
60.80000 118.893
60.81000 118.619
60.82000 126.048
60.83000 133.350
60.84000 138.415
60.85000 135.446
60.86000 131.756
60.87000 129.701
60.88000 131.584
60.89000 133.640
60.90000 134.919
60.91000 134.295
60.92000 133.827
60.93000 134.250
60.94000 135.615
60.95000 136.977
60.96000 138.028
60.97000 138.867
60.98000 139.685
60.99000 138.049
61.00000 135.411
61.01000 132.903
61.02000 132.081
61.03000 131.777
61.04000 131.503
61.05000 131.451
61.06000 131.444
61.07000 131.438
61.08000 132.435
61.09000 133.371
61.10000 134.063
61.11000 133.998
61.12000 133.880
61.13000 133.956
61.14000 134.438
61.15000 134.932
61.16000 135.221
61.17000 136.690
61.18000 137.729
61.19000 139.008
61.20000 140.501
61.21000 141.968
61.22000 141.908
61.23000 140.954
61.24000 140.032
61.25000 138.399
61.26000 136.595
61.27000 134.847
61.28000 133.685
61.29000 132.677
61.30000 131.686
61.31000 130.796
61.32000 129.923
61.33000 129.212
61.34000 130.844
61.35000 132.377
61.36000 134.480
61.37000 138.104
61.38000 141.811
61.39000 142.643
61.40000 138.316
61.41000 133.885
61.42000 131.481
61.43000 137.855
61.44000 142.223
61.45000 144.108
61.46000 144.111
61.47000 144.192
61.48000 147.192
61.49000 151.664
61.50000 155.928
61.51000 156.791
61.52000 156.517
61.53000 157.252
61.54000 166.490
61.55000 177.650
61.56000 188.867
61.57000 200.379
61.58000 211.934
61.59000 221.034
61.60000 223.536
61.61000 225.101
61.62000 229.486
61.63000 240.359
61.64000 251.489
61.65000 256.442
61.66000 251.862
61.67000 247.176
61.68000 244.831
61.69000 250.377
61.70000 254.050
61.71000 255.438
61.72000 255.343
61.73000 255.183
61.74000 253.375
61.75000 250.850
61.76000 248.477
61.77000 240.025
61.78000 230.687
61.79000 221.243
61.80000 211.053
61.81000 200.719
61.82000 190.655
61.83000 181.781
61.84000 173.048
61.85000 166.426
61.86000 160.650
61.87000 156.156
61.88000 152.111
61.89000 148.958
61.90000 145.829
61.91000 144.761
61.92000 146.413
61.93000 148.077
61.94000 146.555
61.95000 142.347
61.96000 138.226
61.97000 138.470
61.98000 141.149
61.99000 143.705
62.00000 143.968
62.01000 143.369
62.02000 142.815
62.03000 142.798
62.04000 142.903
62.05000 142.729
62.06000 140.931
62.07000 138.869
62.08000 136.858
62.09000 135.039
62.10000 133.239
62.11000 131.929
62.12000 134.484
62.13000 136.597
62.14000 138.570
62.15000 140.303
62.16000 142.032
62.17000 140.173
62.18000 134.281
62.19000 128.408
62.20000 124.861
62.21000 123.008
62.22000 121.233
62.23000 121.992
62.24000 123.970
62.25000 126.159
62.26000 131.333
62.27000 137.474
62.28000 143.038
62.29000 141.525
62.30000 138.852
62.31000 136.588
62.32000 136.347
62.33000 136.380
62.34000 136.320
62.35000 135.957
62.36000 135.570
62.37000 135.302
62.38000 137.529
62.39000 139.274
62.40000 140.335
62.41000 140.393
62.42000 140.443
62.43000 143.317
62.44000 148.869
62.45000 154.375
62.46000 156.305
62.47000 156.030
62.48000 155.526
62.49000 149.831
62.50000 141.979
62.51000 134.863
62.52000 136.002
62.53000 139.444
62.54000 142.494
62.55000 140.002
62.56000 136.970
62.57000 134.607
62.58000 135.064
62.59000 135.837
62.60000 137.452
62.61000 141.436
62.62000 145.563
62.63000 148.285
62.64000 149.532
62.65000 150.425
62.66000 148.735
62.67000 143.803
62.68000 138.872
62.69000 138.000
62.70000 140.389
62.71000 142.742
62.72000 143.125
62.73000 142.479
62.74000 142.006
62.75000 144.449
62.76000 147.939
62.77000 150.669
62.78000 146.515
62.79000 140.713
62.80000 135.697
62.81000 134.325
62.82000 133.635
62.83000 134.091
62.84000 138.693
62.85000 143.668
62.86000 146.136
62.87000 142.520
62.88000 138.633
62.89000 136.211
62.90000 139.106
62.91000 141.247
62.92000 143.275
62.93000 145.180
62.94000 147.085
62.95000 148.845
62.96000 150.505
62.97000 152.127
62.98000 147.811
62.99000 141.071
63.00000 135.019
63.01000 137.992
63.02000 143.756
63.03000 149.038
63.04000 150.725
63.05000 151.679
63.06000 152.481
63.07000 149.434
63.08000 146.485
63.09000 143.305
63.10000 139.409
63.11000 135.462
63.12000 134.188
63.13000 138.511
63.14000 143.010
63.15000 145.641
63.16000 146.283
63.17000 146.725
63.18000 145.270
63.19000 142.113
63.20000 138.995
63.21000 138.229
63.22000 138.848
63.23000 139.447
63.24000 141.460
63.25000 143.889
63.26000 146.274
63.27000 148.209
63.28000 150.025
63.29000 151.261
63.30000 148.884
63.31000 145.884
63.32000 143.436
63.33000 144.803
63.34000 146.247
63.35000 147.152
63.36000 146.614
63.37000 145.996
63.38000 145.963
63.39000 146.988
63.40000 148.035
63.41000 148.605
63.42000 144.799
63.43000 142.195
63.44000 142.475
63.45000 144.958
63.46000 147.436
63.47000 149.745
63.48000 151.967
63.49000 154.088
63.50000 153.931
63.51000 153.061
63.52000 152.300
63.53000 152.464
63.54000 152.838
63.55000 152.575
63.56000 148.969
63.57000 144.879
63.58000 141.653
63.59000 143.880
63.60000 146.034
63.61000 147.351
63.62000 146.732
63.63000 146.034
63.64000 145.704
63.65000 145.943
63.66000 146.188
63.67000 146.311
63.68000 149.672
63.69000 151.905
63.70000 153.180
63.71000 153.829
63.72000 154.485
63.73000 155.294
63.74000 156.170
63.75000 156.994
63.76000 156.322
63.77000 155.306
63.78000 154.411
63.79000 154.367
63.80000 154.488
63.81000 154.380
63.82000 153.251
63.83000 152.000
63.84000 151.050
63.85000 148.839
63.86000 147.036
63.87000 146.618
63.88000 148.966
63.89000 151.390
63.90000 152.149
63.91000 150.694
63.92000 149.230
63.93000 149.547
63.94000 151.379
63.95000 153.188
63.96000 153.838
63.97000 153.839
63.98000 153.854
63.99000 154.152
64.00000 154.558
64.01000 154.933
64.02000 153.530
64.03000 151.868
64.04000 151.256
64.05000 156.832
64.06000 163.418
64.07000 166.980
64.08000 159.000
64.09000 149.892
64.10000 143.256
64.11000 150.415
64.12000 156.460
64.13000 160.415
64.14000 160.773
64.15000 161.068
64.16000 160.527
64.17000 159.040
64.18000 157.557
64.19000 156.458
64.20000 155.644
64.21000 154.878
64.22000 155.659
64.23000 157.188
64.24000 158.512
64.25000 156.882
64.26000 154.288
64.27000 151.936
64.28000 150.444
64.29000 149.292
64.30000 149.505
64.31000 156.509
64.32000 164.440
64.33000 169.416
64.34000 164.702
64.35000 159.231
64.36000 155.425
64.37000 156.274
64.38000 157.040
64.39000 158.716
64.40000 161.736
64.41000 164.768
64.42000 164.135
64.43000 160.003
64.44000 155.905
64.45000 157.076
64.46000 161.446
64.47000 165.619
64.48000 165.239
64.49000 162.957
64.50000 160.881
64.51000 161.135
64.52000 162.043
64.53000 162.848
64.54000 166.542
64.55000 170.201
64.56000 172.161
64.57000 166.917
64.58000 160.862
64.59000 156.646
64.60000 157.630
64.61000 158.930
64.62000 159.788
64.63000 157.484
64.64000 155.727
64.65000 155.607
64.66000 157.555
64.67000 159.511
64.68000 161.975
64.69000 164.851
64.70000 167.685
64.71000 173.065
64.72000 179.610
64.73000 185.561
64.74000 181.331
64.75000 173.427
64.76000 166.977
64.77000 173.802
64.78000 183.823
64.79000 192.496
64.80000 186.352
64.81000 179.183
64.82000 175.374
64.83000 183.783
64.84000 193.306
64.85000 196.595
64.86000 184.676
64.87000 172.069
64.88000 164.194
64.89000 164.208
64.90000 164.301
64.91000 165.246
64.92000 167.107
64.93000 168.975
64.94000 171.755
64.95000 175.166
64.96000 178.498
64.97000 178.523
64.98000 177.084
64.99000 175.867
65.00000 177.589
65.01000 180.226
65.02000 182.582
65.03000 182.827
65.04000 182.640
65.05000 182.481
65.06000 191.094
65.07000 199.222
65.08000 204.385
65.09000 200.277
65.10000 195.501
65.11000 192.134
65.12000 191.738
65.13000 191.436
65.14000 191.259
65.15000 199.726
65.16000 205.732
65.17000 208.994
65.18000 209.776
65.19000 210.523
65.20000 209.089
65.21000 206.361
65.22000 203.724
65.23000 202.283
65.24000 201.373
65.25000 200.632
65.26000 201.658
65.27000 203.157
65.28000 205.188
65.29000 210.555
65.30000 216.502
65.31000 221.360
65.32000 221.442
65.33000 221.098
65.34000 220.983
65.35000 221.488
65.36000 222.027
65.37000 222.196
65.38000 221.691
65.39000 221.171
65.40000 220.888
65.41000 239.318
65.42000 251.967
65.43000 256.057
65.44000 253.568
65.45000 251.215
65.46000 254.007
65.47000 259.428
65.48000 264.603
65.49000 264.882
65.50000 263.576
65.51000 263.197
65.52000 270.750
65.53000 280.120
65.54000 287.519
65.55000 284.510
65.56000 279.983
65.57000 276.407
65.58000 285.241
65.59000 293.176
65.60000 300.381
65.61000 305.886
65.62000 311.321
65.63000 315.366
65.64000 317.240
65.65000 319.087
65.66000 320.018
65.67000 349.283
65.68000 368.863
65.69000 390.357
65.70000 413.108
65.71000 436.348
65.72000 472.259
65.73000 513.755
65.74000 552.796
65.75000 599.416
65.76000 644.075
65.77000 688.281
65.78000 729.283
65.79000 769.661
65.80000 806.367
65.81000 826.588
65.82000 844.816
65.83000 858.684
65.84000 878.837
65.85000 895.021
65.86000 908.262
65.87000 915.587
65.88000 922.746
65.89000 926.221
65.90000 924.769
65.91000 923.292
65.92000 909.555
65.93000 885.354
65.94000 861.060
65.95000 831.855
65.96000 799.875
65.97000 767.075
65.98000 718.743
65.99000 664.501
66.00000 614.325
66.01000 552.993
66.02000 495.345
66.03000 441.667
66.04000 411.519
66.05000 385.244
66.06000 363.573
66.07000 359.587
66.08000 357.344
66.09000 355.708
66.10000 330.305
66.11000 309.799
66.12000 292.668
66.13000 281.381
66.14000 270.198
66.15000 268.244
66.16000 276.800
66.17000 285.338
66.18000 288.878
66.19000 288.768
66.20000 288.719
66.21000 290.701
66.22000 293.673
66.23000 296.171
66.24000 291.821
66.25000 285.222
66.26000 279.235
66.27000 290.529
66.28000 303.816
66.29000 316.603
66.30000 326.877
66.31000 336.807
66.32000 346.417
66.33000 354.977
66.34000 363.453
66.35000 369.363
66.36000 378.787
66.37000 385.997
66.38000 390.475
66.39000 390.891
66.40000 391.268
66.41000 392.410
66.42000 394.287
66.43000 396.149
66.44000 396.692
66.45000 396.415
66.46000 396.052
66.47000 393.671
66.48000 390.441
66.49000 387.329
66.50000 385.553
66.51000 384.155
66.52000 382.914
66.53000 373.186
66.54000 363.394
66.55000 353.709
66.56000 344.480
66.57000 335.304
66.58000 327.406
66.59000 323.147
66.60000 319.111
66.61000 316.437
66.62000 315.880
66.63000 315.507
66.64000 312.144
66.65000 304.978
66.66000 297.806
66.67000 293.694
66.68000 292.073
66.69000 290.475
66.70000 290.016
66.71000 290.164
66.72000 290.564
66.73000 295.316
66.74000 301.648
66.75000 307.420
66.76000 308.038
66.77000 307.408
66.78000 306.862
66.79000 307.007
66.80000 307.223
66.81000 307.939
66.82000 310.484
66.83000 313.199
66.84000 314.857
66.85000 313.925
66.86000 312.874
66.87000 312.216
66.88000 316.547
66.89000 319.727
66.90000 322.822
66.91000 325.826
66.92000 328.822
66.93000 330.937
66.94000 332.440
66.95000 333.908
66.96000 333.505
66.97000 332.285
66.98000 330.945
66.99000 327.999
67.00000 324.551
67.01000 321.383
67.02000 320.339
67.03000 319.734
67.04000 319.224
67.05000 321.279
67.06000 323.273
67.07000 325.701
67.08000 329.496
67.09000 333.391
67.10000 338.819
67.11000 347.495
67.12000 356.277
67.13000 361.439
67.14000 344.428
67.15000 332.325
67.16000 330.872
67.17000 339.114
67.18000 347.281
67.19000 350.755
67.20000 351.429
67.21000 352.081
67.22000 355.948
67.23000 360.819
67.24000 365.505
67.25000 368.224
67.26000 370.414
67.27000 372.323
67.28000 372.454
67.29000 372.275
67.30000 372.129
67.31000 377.352
67.32000 382.099
67.33000 386.251
67.34000 388.794
67.35000 391.246
67.36000 393.158
67.37000 394.081
67.38000 394.984
67.39000 395.478
67.40000 394.775
67.41000 394.274
67.42000 389.584
67.43000 381.654
67.44000 373.914
67.45000 373.502
67.46000 376.856
67.47000 380.060
67.48000 383.283
67.49000 386.285
67.50000 389.621
67.51000 395.835
67.52000 402.713
67.53000 408.684
67.54000 409.834
67.55000 410.275
67.56000 410.624
67.57000 415.055
67.58000 418.895
67.59000 421.054
67.60000 419.275
67.61000 417.333
67.62000 417.207
67.63000 419.936
67.64000 422.699
67.65000 424.096
67.66000 429.459
67.67000 433.021
67.68000 433.980
67.69000 433.216
67.70000 432.715
67.71000 439.129
67.72000 448.609
67.73000 457.533
67.74000 455.275
67.75000 450.159
67.76000 446.561
67.77000 453.790
67.78000 463.142
67.79000 471.629
67.80000 476.202
67.81000 480.299
67.82000 483.421
67.83000 476.876
67.84000 471.209
67.85000 469.881
67.86000 477.321
67.87000 485.014
67.88000 488.461
67.89000 486.192
67.90000 483.895
67.91000 482.965
67.92000 483.216
67.93000 483.462
67.94000 483.456
67.95000 483.308
67.96000 483.593
67.97000 492.180
67.98000 503.944
67.99000 514.835
68.00000 516.955
68.01000 516.839
68.02000 516.591
68.03000 515.550
68.04000 514.378
68.05000 515.109
68.06000 523.197
68.07000 532.016
68.08000 538.465
68.09000 534.652
68.10000 531.307
68.11000 531.163
68.12000 536.599
68.13000 542.135
68.14000 545.535
68.15000 546.485
68.16000 547.430
68.17000 551.352
68.18000 557.413
68.19000 563.463
68.20000 569.117
68.21000 574.578
68.22000 579.618
68.23000 578.519
68.24000 575.393
68.25000 572.555
68.26000 590.744
68.27000 610.879
68.28000 626.754
68.29000 621.144
68.30000 612.556
68.31000 606.697
68.32000 609.899
68.33000 613.821
68.34000 616.561
68.35000 628.228
68.36000 637.291
68.37000 641.792
68.38000 639.465
68.39000 637.072
68.40000 637.813
68.41000 641.584
68.42000 645.327
68.43000 665.998
68.44000 696.797
68.45000 726.359
68.46000 726.652
68.47000 714.563
68.48000 704.911
68.49000 723.286
68.50000 749.628
68.51000 773.037
68.52000 769.575
68.53000 762.235
68.54000 760.660
68.55000 783.851
68.56000 809.874
68.57000 830.370
68.58000 835.053
68.59000 838.757
68.60000 841.216
68.61000 903.470
68.62000 950.597
68.63000 1001.442
68.64000 1057.047
68.65000 1112.618
68.66000 1147.377
68.67000 1165.081
68.68000 1182.538
68.69000 1229.171
68.70000 1289.844
68.71000 1350.097
68.72000 1403.009
68.73000 1453.239
68.74000 1502.624
68.75000 1544.161
68.76000 1583.786
68.77000 1618.151
68.78000 1676.266
68.79000 1728.923
68.80000 1779.559
68.81000 1822.755
68.82000 1865.261
68.83000 1912.056
68.84000 1969.441
68.85000 2027.319
68.86000 2063.645
68.87000 2271.158
68.88000 2423.011
68.89000 2627.352
68.90000 2888.735
68.91000 3152.924
68.92000 3779.655
68.93000 4659.929
68.94000 5520.660
68.95000 7352.973
68.96000 9545.286
68.97000 11831.130
68.98000 15379.249
68.99000 19324.850
69.00000 23326.117
69.01000 27751.828
69.02000 32265.855
69.03000 36075.938
69.04000 40079.988
69.05000 43447.152
69.06000 46402.395
69.07000 48054.145
69.08000 49609.863
69.09000 50745.098
69.10000 50983.961
69.11000 51193.227
69.12000 51316.559
69.13000 51722.895
69.14000 52011.277
69.15000 52472.516
69.16000 53092.180
69.17000 53707.379
69.18000 54032.398
69.19000 54183.277
69.20000 54329.289
69.21000 53158.633
69.22000 51550.297
69.23000 49839.801
69.24000 47034.605
69.25000 43932.961
69.26000 40890.801
69.27000 38226.613
69.28000 35629.066
69.29000 33501.770
69.30000 31536.289
69.31000 29939.279
69.32000 28548.518
69.33000 27720.529
69.34000 26924.469
69.35000 26189.215
69.36000 25565.756
69.37000 24944.723
69.38000 24603.619
69.39000 22981.227
69.40000 21860.648
69.41000 20260.186
69.42000 18286.201
69.43000 16308.086
69.44000 14167.018
69.45000 11941.729
69.46000 9814.735
69.47000 8084.520
69.48000 6603.522
69.49000 5185.550
69.50000 4315.886
69.51000 3573.394
69.52000 2889.352
69.53000 2518.192
69.54000 2193.347
69.55000 1936.068
69.56000 1773.362
69.57000 1649.137
69.58000 1537.171
69.59000 1454.083
69.60000 1372.206
69.61000 1304.149
69.62000 1257.954
69.63000 1212.031
69.64000 1188.737
69.65000 1132.018
69.66000 1094.142
69.67000 1068.524
69.68000 1051.065
69.69000 1032.917
69.70000 996.331
69.71000 951.523
69.72000 909.312
69.73000 899.285
69.74000 898.950
69.75000 896.266
69.76000 876.716
69.77000 853.835
69.78000 833.371
69.79000 823.899
69.80000 815.777
69.81000 809.579
69.82000 796.733
69.83000 786.254
69.84000 774.231
69.85000 759.068
69.86000 743.813
69.87000 734.266
69.88000 732.456
69.89000 730.690
69.90000 727.258
69.91000 722.385
69.92000 717.410
69.93000 706.868
69.94000 693.142
69.95000 679.818
69.96000 674.299
69.97000 671.787
69.98000 669.459
69.99000 665.453
70.00000 661.459
