20.00000 588.601
20.01000 580.694
20.02000 571.657
20.03000 563.757
20.04000 560.270
20.05000 557.225
20.06000 554.996
20.07000 559.709
20.08000 563.624
20.09000 565.301
20.10000 563.059
20.11000 560.746
20.12000 557.417
20.13000 552.917
20.14000 548.431
20.15000 548.791
20.16000 552.701
20.17000 556.570
20.18000 559.043
20.19000 560.827
20.20000 562.036
20.21000 554.760
20.22000 544.668
20.23000 535.497
20.24000 539.672
20.25000 545.958
20.26000 551.843
20.27000 555.693
20.28000 559.260
20.29000 563.246
20.30000 568.632
20.31000 574.130
20.32000 577.977
20.33000 571.763
20.34000 566.780
20.35000 561.689
20.36000 556.432
20.37000 551.174
20.38000 554.077
20.39000 564.919
20.40000 575.679
20.41000 575.450
20.42000 568.386
20.43000 561.459
20.44000 557.782
20.45000 555.486
20.46000 552.729
20.47000 544.621
20.48000 534.984
20.49000 526.414
20.50000 530.706
20.51000 536.520
20.52000 541.771
20.53000 544.589
20.54000 547.128
20.55000 548.384
20.56000 545.954
20.57000 543.293
20.58000 541.524
20.59000 544.192
20.60000 546.249
20.61000 550.489
20.62000 557.536
20.63000 564.578
20.64000 565.023
20.65000 560.035
20.66000 555.115
20.67000 549.376
20.68000 543.364
20.69000 537.717
20.70000 538.534
20.71000 541.723
20.72000 544.972
20.73000 548.790
20.74000 552.747
20.75000 556.182
20.76000 559.511
20.77000 562.334
20.78000 563.058
20.79000 556.019
20.80000 548.255
20.81000 543.553
20.82000 546.449
20.83000 549.702
20.84000 551.747
20.85000 541.831
20.86000 534.526
20.87000 532.304
20.88000 535.636
20.89000 538.973
20.90000 542.667
20.91000 546.612
20.92000 550.470
20.93000 549.349
20.94000 546.031
20.95000 542.849
20.96000 541.511
20.97000 540.758
20.98000 540.842
20.99000 547.360
21.00000 555.222
21.01000 561.865
21.02000 569.360
21.03000 575.722
21.04000 579.147
21.05000 573.239
21.06000 566.638
21.07000 558.480
21.08000 546.987
21.09000 535.382
21.10000 528.528
21.11000 538.693
21.12000 545.965
21.13000 553.379
21.14000 560.922
21.15000 568.374
21.16000 569.739
21.17000 567.434
21.18000 565.203
21.19000 559.488
21.20000 552.750
21.21000 546.466
21.22000 545.078
21.23000 545.022
21.24000 544.724
21.25000 542.878
21.26000 540.757
21.27000 539.019
21.28000 544.092
21.29000 548.857
21.30000 551.589
21.31000 548.751
21.32000 545.593
21.33000 543.251
21.34000 542.416
21.35000 541.613
21.36000 541.172
21.37000 522.924
21.38000 510.382
21.39000 514.040
21.40000 530.372
21.41000 546.467
21.42000 553.088
21.43000 554.791
21.44000 556.418
21.45000 556.527
21.46000 556.133
21.47000 555.425
21.48000 551.971
21.49000 547.875
21.50000 545.841
21.51000 554.900
21.52000 565.610
21.53000 574.102
21.54000 571.616
21.55000 568.846
21.56000 565.603
21.57000 561.236
21.58000 556.821
21.59000 553.613
21.60000 552.323
21.61000 551.058
21.62000 550.414
21.63000 553.209
21.64000 555.122
21.65000 561.005
21.66000 569.545
21.67000 578.084
21.68000 586.624
21.69000 595.165
21.70000 603.214
21.71000 595.075
21.72000 583.153
21.73000 573.808
21.74000 583.090
21.75000 596.071
21.76000 610.727
21.77000 633.040
21.78000 656.299
21.79000 674.072
21.80000 675.866
21.81000 676.416
21.82000 681.094
21.83000 694.204
21.84000 707.563
21.85000 722.113
21.86000 738.284
21.87000 754.454
21.88000 769.972
21.89000 784.896
21.90000 799.855
21.91000 816.760
21.92000 834.783
21.93000 852.702
21.94000 868.582
21.95000 883.673
21.96000 897.661
21.97000 904.760
21.98000 909.542
21.99000 914.253
22.00000 918.537
22.01000 922.750
22.02000 925.605
22.03000 923.152
22.04000 920.163
22.05000 917.971
22.06000 896.271
22.07000 878.717
22.08000 863.807
22.09000 853.549
22.10000 843.380
22.11000 836.442
22.12000 833.255
22.13000 830.082
22.14000 810.656
22.15000 779.380
22.16000 748.452
22.17000 729.693
22.18000 716.962
22.19000 704.332
22.20000 693.204
22.21000 682.578
22.22000 672.914
22.23000 661.109
22.24000 650.248
22.25000 638.640
22.26000 623.216
22.27000 607.255
22.28000 591.552
22.29000 576.714
22.30000 561.946
22.31000 551.594
22.32000 550.766
22.33000 550.414
22.34000 548.066
22.35000 542.698
22.36000 537.298
22.37000 535.226
22.38000 536.414
22.39000 537.593
22.40000 541.080
22.41000 545.955
22.42000 550.902
22.43000 557.573
22.44000 564.983
22.45000 571.034
22.46000 561.206
22.47000 546.814
22.48000 534.004
22.49000 525.045
22.50000 517.894
22.51000 514.000
22.52000 524.258
22.53000 536.158
22.54000 541.951
22.55000 530.085
22.56000 517.105
22.57000 508.453
22.58000 501.012
22.59000 495.526
22.60000 493.714
22.61000 496.659
22.62000 499.626
22.63000 503.695
22.64000 508.677
22.65000 513.592
22.66000 518.902
22.67000 524.275
22.68000 529.533
22.69000 532.724
22.70000 535.152
22.71000 537.113
22.72000 534.673
22.73000 531.148
22.74000 528.085
22.75000 523.112
22.76000 518.613
22.77000 515.697
22.78000 518.670
22.79000 522.198
22.80000 522.792
22.81000 516.061
22.82000 508.983
22.83000 504.521
22.84000 513.263
22.85000 519.742
22.86000 521.649
22.87000 518.524
22.88000 515.415
22.89000 514.784
22.90000 515.906
22.91000 517.004
22.92000 519.594
22.93000 522.757
22.94000 525.433
22.95000 521.418
22.96000 515.272
22.97000 509.160
22.98000 503.300
22.99000 497.494
23.00000 492.583
23.01000 491.350
23.02000 490.725
23.03000 490.232
23.04000 490.161
23.05000 490.120
23.06000 490.387
23.07000 491.314
23.08000 492.264
23.09000 492.826
23.10000 491.518
23.11000 490.584
23.12000 491.515
23.13000 494.178
23.14000 496.824
23.15000 498.344
23.16000 499.181
23.17000 499.991
23.18000 497.659
23.19000 494.241
23.20000 491.403
23.21000 494.877
23.22000 500.080
23.23000 505.472
23.24000 512.085
23.25000 518.916
23.26000 524.523
23.27000 515.977
23.28000 507.697
23.29000 504.626
23.30000 515.922
23.31000 528.048
23.32000 532.098
23.33000 521.137
23.34000 509.839
23.35000 503.600
23.36000 499.737
23.37000 497.098
23.38000 500.206
23.39000 507.840
23.40000 515.495
23.41000 524.028
23.42000 533.020
23.43000 541.623
23.44000 529.091
23.45000 510.488
23.46000 494.458
23.47000 501.142
23.48000 513.155
23.49000 522.718
23.50000 519.009
23.51000 513.309
23.52000 508.784
23.53000 500.478
23.54000 493.524
23.55000 489.496
23.56000 492.434
23.57000 495.671
23.58000 501.489
23.59000 511.434
23.60000 521.434
23.61000 526.537
23.62000 508.002
23.63000 495.651
23.64000 493.175
23.65000 497.343
23.66000 501.246
23.67000 497.845
23.68000 491.151
23.69000 484.838
23.70000 495.149
23.71000 509.218
23.72000 521.796
23.73000 523.521
23.74000 523.076
23.75000 521.779
23.76000 516.561
23.77000 510.855
23.78000 506.488
23.79000 506.199
23.80000 506.193
23.81000 505.126
23.82000 501.875
23.83000 498.559
23.84000 498.417
23.85000 502.625
23.86000 506.856
23.87000 506.291
23.88000 501.514
23.89000 496.849
23.90000 498.591
23.91000 504.036
23.92000 509.066
23.93000 505.871
23.94000 499.474
23.95000 493.540
23.96000 497.401
23.97000 503.179
23.98000 507.620
23.99000 503.931
24.00000 498.867
24.01000 494.815
24.02000 494.741
24.03000 495.073
24.04000 495.316
24.05000 496.448
24.06000 497.360
24.07000 499.414
24.08000 503.491
24.09000 507.606
24.10000 508.453
24.11000 505.483
24.12000 502.516
24.13000 500.695
24.14000 499.739
24.15000 498.785
24.16000 497.918
24.17000 497.094
24.18000 495.861
24.19000 488.482
24.20000 479.039
24.21000 470.444
24.22000 479.676
24.23000 491.365
24.24000 500.499
24.25000 496.503
24.26000 490.650
24.27000 486.726
24.28000 489.316
24.29000 492.437
24.30000 494.630
24.31000 499.615
24.32000 503.471
24.33000 503.700
24.34000 498.404
24.35000 493.049
24.36000 492.007
24.37000 495.220
24.38000 498.409
24.39000 496.525
24.40000 491.471
24.41000 486.577
24.42000 485.607
24.43000 486.324
24.44000 486.479
24.45000 479.989
24.46000 471.577
24.47000 464.083
24.48000 465.668
24.49000 468.541
24.50000 471.742
24.51000 476.375
24.52000 481.177
24.53000 485.271
24.54000 487.306
24.55000 489.211
24.56000 490.483
24.57000 485.645
24.58000 481.941
24.59000 477.878
24.60000 473.349
24.61000 468.842
24.62000 475.957
24.63000 492.773
24.64000 509.366
24.65000 508.031
24.66000 497.118
24.67000 486.613
24.68000 483.472
24.69000 483.065
24.70000 482.275
24.71000 477.843
24.72000 472.507
24.73000 467.866
24.74000 477.598
24.75000 487.863
24.76000 495.016
24.77000 490.519
24.78000 484.914
24.79000 478.359
24.80000 469.418
24.81000 460.362
24.82000 454.641
24.83000 472.039
24.84000 484.917
24.85000 490.543
24.86000 488.139
24.87000 485.746
24.88000 485.849
24.89000 487.726
24.90000 489.563
24.91000 483.569
24.92000 474.239
24.93000 465.760
24.94000 469.087
24.95000 476.195
24.96000 482.738
24.97000 484.879
24.98000 486.087
24.99000 487.110
25.00000 485.004
25.01000 482.891
25.02000 481.251
25.03000 481.131
25.04000 481.125
25.05000 480.002
25.06000 476.456
25.07000 472.826
25.08000 470.671
25.09000 465.274
25.10000 461.437
25.11000 465.678
25.12000 477.462
25.13000 489.018
25.14000 484.742
25.15000 470.801
25.16000 457.292
25.17000 458.582
25.18000 465.551
25.19000 472.070
25.20000 473.654
25.21000 473.878
25.22000 474.423
25.23000 477.049
25.24000 480.050
25.25000 482.516
25.26000 475.663
25.27000 469.193
25.28000 463.884
25.29000 461.799
25.30000 459.902
25.31000 459.537
25.32000 462.035
25.33000 464.598
25.34000 466.017
25.35000 478.810
25.36000 487.626
25.37000 484.955
25.38000 473.180
25.39000 461.656
25.40000 460.515
25.41000 464.831
25.42000 468.962
25.43000 463.022
25.44000 454.161
25.45000 446.929
25.46000 454.196
25.47000 464.885
25.48000 474.174
25.49000 475.824
25.50000 476.321
25.51000 476.715
25.52000 472.216
25.53000 468.242
25.54000 464.636
25.55000 461.910
25.56000 459.224
25.57000 458.225
25.58000 459.943
25.59000 461.698
25.60000 462.596
25.61000 471.484
25.62000 477.409
25.63000 478.031
25.64000 475.062
25.65000 472.411
25.66000 478.618
25.67000 488.841
25.68000 498.488
25.69000 493.351
25.70000 484.502
25.71000 476.314
25.72000 472.967
25.73000 470.595
25.74000 468.953
25.75000 470.692
25.76000 472.856
25.77000 474.514
25.78000 481.527
25.79000 487.361
25.80000 490.740
25.81000 489.042
25.82000 487.189
25.83000 481.960
25.84000 472.074
25.85000 462.164
25.86000 452.059
25.87000 441.796
25.88000 431.780
25.89000 436.066
25.90000 448.672
25.91000 460.793
25.92000 463.179
25.93000 461.754
25.94000 460.431
25.95000 462.119
25.96000 464.353
25.97000 465.811
25.98000 462.511
25.99000 458.400
26.00000 455.372
26.01000 456.627
26.02000 458.320
26.03000 459.567
26.04000 469.652
26.05000 477.822
26.06000 479.624
26.07000 470.071
26.08000 460.296
26.09000 453.864
26.10000 451.363
26.11000 448.874
26.12000 449.865
26.13000 453.451
26.14000 456.962
26.15000 457.768
26.16000 457.219
26.17000 456.978
26.18000 461.430
26.19000 467.469
26.20000 472.969
26.21000 466.798
26.22000 459.013
26.23000 452.678
26.24000 453.844
26.25000 456.079
26.26000 459.425
26.27000 466.545
26.28000 473.975
26.29000 479.204
26.30000 464.970
26.31000 453.606
26.32000 447.497
26.33000 449.439
26.34000 451.469
26.35000 454.863
26.36000 459.613
26.37000 464.329
26.38000 462.815
26.39000 457.368
26.40000 452.330
26.41000 457.450
26.42000 466.966
26.43000 475.493
26.44000 472.242
26.45000 465.565
26.46000 459.610
26.47000 457.487
26.48000 456.277
26.49000 454.631
26.50000 451.065
26.51000 447.274
26.52000 446.213
26.53000 453.142
26.54000 460.585
26.55000 465.569
26.56000 455.084
26.57000 447.001
26.58000 444.256
26.59000 448.513
26.60000 452.798
26.61000 454.961
26.62000 455.341
26.63000 455.718
26.64000 453.793
26.65000 450.678
26.66000 447.849
26.67000 450.245
26.68000 454.593
26.69000 458.423
26.70000 457.297
26.71000 454.933
26.72000 452.874
26.73000 457.415
26.74000 462.201
26.75000 466.063
26.76000 466.449
26.77000 466.502
26.78000 465.345
26.79000 461.134
26.80000 456.773
26.81000 454.012
26.82000 463.893
26.83000 471.211
26.84000 468.486
26.85000 454.563
26.86000 440.728
26.87000 441.222
26.88000 451.978
26.89000 462.510
26.90000 465.735
26.91000 465.477
26.92000 464.848
26.93000 459.006
26.94000 451.486
26.95000 444.919
26.96000 445.846
26.97000 448.370
26.98000 450.509
26.99000 451.544
27.00000 452.286
27.01000 451.921
27.02000 447.971
27.03000 443.747
27.04000 440.354
27.05000 438.775
27.06000 437.258
27.07000 436.356
27.08000 446.097
27.09000 453.062
27.10000 457.535
27.11000 459.664
27.12000 461.712
27.13000 457.976
27.14000 450.687
27.15000 443.622
27.16000 446.878
27.17000 453.997
27.18000 460.658
27.19000 462.253
27.20000 462.443
27.21000 461.042
27.22000 449.254
27.23000 435.587
27.24000 424.340
27.25000 431.255
27.26000 438.592
27.27000 446.420
27.28000 455.614
27.29000 464.889
27.30000 467.444
27.31000 457.360
27.32000 446.982
27.33000 441.217
27.34000 451.519
27.35000 458.657
27.36000 461.280
27.37000 460.302
27.38000 459.379
27.39000 460.799
27.40000 463.458
27.41000 466.005
27.42000 462.885
27.43000 458.092
27.44000 453.199
27.45000 447.408
27.46000 441.403
27.47000 437.147
27.48000 442.493
27.49000 449.301
27.50000 454.722
27.51000 454.157
27.52000 453.269
27.53000 450.276
27.54000 442.211
27.55000 433.922
27.56000 428.904
27.57000 429.184
27.58000 429.536
27.59000 429.717
27.60000 423.778
27.61000 419.868
27.62000 425.681
27.63000 438.123
27.64000 449.988
27.65000 445.585
27.66000 433.762
27.67000 422.598
27.68000 426.705
27.69000 434.775
27.70000 441.896
27.71000 441.993
27.72000 440.668
27.73000 439.566
27.74000 439.504
27.75000 439.573
27.76000 439.627
27.77000 437.259
27.78000 435.253
27.79000 432.630
27.80000 428.724
27.81000 424.779
27.82000 424.409
27.83000 429.003
27.84000 433.627
27.85000 439.839
27.86000 447.456
27.87000 454.897
27.88000 451.887
27.89000 442.760
27.90000 434.191
27.91000 436.979
27.92000 444.240
27.93000 450.984
27.94000 442.935
27.95000 432.153
27.96000 423.244
27.97000 425.893
27.98000 430.523
27.99000 434.741
28.00000 437.316
28.01000 439.721
28.02000 441.495
28.03000 444.425
28.04000 446.743
28.05000 446.521
28.06000 441.742
28.07000 436.872
28.08000 435.639
28.09000 438.711
28.10000 441.782
28.11000 443.793
28.12000 444.993
28.13000 446.145
28.14000 445.560
28.15000 444.099
28.16000 442.719
28.17000 442.569
28.18000 442.837
28.19000 443.081
28.20000 441.394
28.21000 439.512
28.22000 437.552
28.23000 435.183
28.24000 432.756
28.25000 431.116
28.26000 432.170
28.27000 433.447
28.28000 434.348
28.29000 434.075
28.30000 433.833
28.31000 435.323
28.32000 439.486
28.33000 443.678
28.34000 445.253
28.35000 444.210
28.36000 443.175
28.37000 441.274
28.38000 438.850
28.39000 436.505
28.40000 436.150
28.41000 436.661
28.42000 437.406
28.43000 440.966
28.44000 445.349
28.45000 449.262
28.46000 446.292
28.47000 442.556
28.48000 438.948
28.49000 435.910
28.50000 432.940
28.51000 430.307
28.52000 428.668
28.53000 427.093
28.54000 426.037
28.55000 419.716
28.56000 414.918
28.57000 414.286
28.58000 419.153
28.59000 424.045
28.60000 428.687
28.61000 433.115
28.62000 437.488
28.63000 434.882
28.64000 428.553
28.65000 422.544
28.66000 422.460
28.67000 424.600
28.68000 426.000
28.69000 420.235
28.70000 412.670
28.71000 406.077
28.72000 416.775
28.73000 428.313
28.74000 436.250
28.75000 430.540
28.76000 423.509
28.77000 419.154
28.78000 421.599
28.79000 424.379
28.80000 426.144
28.81000 415.401
28.82000 407.449
28.83000 406.617
28.84000 413.777
28.85000 420.934
28.86000 426.644
28.87000 431.312
28.88000 435.884
28.89000 432.247
28.90000 424.955
28.91000 417.874
28.92000 413.775
28.93000 410.642
28.94000 408.922
28.95000 418.382
28.96000 430.241
28.97000 440.306
28.98000 436.415
28.99000 431.566
29.00000 427.482
29.01000 425.894
29.02000 424.497
29.03000 424.437
29.04000 427.308
29.05000 430.283
29.06000 432.059
29.07000 419.903
29.08000 411.196
29.09000 407.549
29.10000 408.695
29.11000 409.889
29.12000 414.661
29.13000 421.644
29.14000 428.416
29.15000 427.124
29.16000 422.726
29.17000 418.620
29.18000 417.778
29.19000 417.845
29.20000 418.729
29.21000 424.977
29.22000 432.202
29.23000 438.155
29.24000 427.685
29.25000 417.562
29.26000 410.074
29.27000 409.983
29.28000 410.335
29.29000 412.356
29.30000 417.539
29.31000 422.796
29.32000 425.726
29.33000 423.066
29.34000 421.208
29.35000 417.136
29.36000 411.286
29.37000 405.622
29.38000 407.936
29.39000 414.493
29.40000 420.776
29.41000 419.425
29.42000 415.611
29.43000 411.954
29.44000 409.718
29.45000 407.821
29.46000 406.679
29.47000 409.711
29.48000 413.383
29.49000 416.310
29.50000 420.357
29.51000 423.704
29.52000 426.424
29.53000 427.628
29.54000 428.763
29.55000 427.843
29.56000 423.574
29.57000 419.258
29.58000 417.033
29.59000 414.387
29.60000 412.616
29.61000 412.114
29.62000 412.484
29.63000 412.845
29.64000 412.979
29.65000 413.007
29.66000 413.034
29.67000 420.024
29.68000 428.417
29.69000 435.305
29.70000 430.991
29.71000 424.394
29.72000 419.572
29.73000 423.075
29.74000 427.640
29.75000 431.149
29.76000 435.699
29.77000 439.358
29.78000 439.926
29.79000 434.027
29.80000 427.926
29.81000 425.380
29.82000 427.801
29.83000 430.254
29.84000 433.633
29.85000 437.836
29.86000 442.030
29.87000 445.600
29.88000 448.804
29.89000 452.000
29.90000 455.055
29.91000 458.054
29.92000 460.842
29.93000 466.659
29.94000 472.635
29.95000 477.502
29.96000 475.477
29.97000 472.263
29.98000 468.239
29.99000 460.974
30.00000 453.371
30.01000 447.755
30.02000 452.174
30.03000 456.025
30.04000 458.797
30.05000 459.626
30.06000 460.414
30.07000 462.208
30.08000 465.199
30.09000 468.185
30.10000 465.490
30.11000 458.505
30.12000 451.666
30.13000 450.256
30.14000 451.599
30.15000 453.055
30.16000 456.257
30.17000 460.056
30.18000 463.522
30.19000 450.906
30.20000 436.473
30.21000 424.434
30.22000 424.942
30.23000 427.265
30.24000 429.434
30.25000 431.070
30.26000 432.662
30.27000 433.786
30.28000 432.215
30.29000 430.939
30.30000 431.990
30.31000 436.650
30.32000 441.352
30.33000 444.429
30.34000 445.870
30.35000 447.301
30.36000 444.076
30.37000 437.903
30.38000 431.913
30.39000 430.564
30.40000 431.248
30.41000 431.977
30.42000 433.253
30.43000 434.692
30.44000 435.976
30.45000 432.334
30.46000 428.331
30.47000 425.591
30.48000 428.481
30.49000 432.046
30.50000 435.481
30.51000 438.529
30.52000 441.553
30.53000 443.586
30.54000 449.485
30.55000 453.948
30.56000 452.006
30.57000 441.558
30.58000 431.089
30.59000 433.666
30.60000 447.347
30.61000 460.858
30.62000 460.486
30.63000 452.531
30.64000 444.836
30.65000 442.004
30.66000 441.010
30.67000 440.587
30.68000 445.717
30.69000 452.251
30.70000 457.951
30.71000 467.543
30.72000 476.289
30.73000 482.010
30.74000 476.194
30.75000 469.251
30.76000 465.591
30.77000 470.320
30.78000 475.467
30.79000 478.742
30.80000 481.650
30.81000 483.759
30.82000 483.369
30.83000 480.155
30.84000 477.002
30.85000 484.156
30.86000 498.785
30.87000 513.120
30.88000 516.109
30.89000 513.705
30.90000 511.533
30.91000 512.693
30.92000 514.939
30.93000 518.697
30.94000 534.510
30.95000 552.928
30.96000 568.577
30.97000 588.670
30.98000 606.045
30.99000 624.201
31.00000 644.918
31.01000 665.835
31.02000 691.596
31.03000 728.044
31.04000 764.877
31.05000 786.920
31.06000 847.944
31.07000 891.512
31.08000 945.579
31.09000 1009.655
31.10000 1074.023
31.11000 1160.286
31.12000 1260.161
31.13000 1357.066
31.14000 1458.045
31.15000 1555.412
31.16000 1654.973
31.17000 1779.293
31.18000 1910.559
31.19000 2044.570
31.20000 2196.755
31.21000 2352.274
31.22000 2480.576
31.23000 2682.716
31.24000 2856.011
31.25000 3026.461
31.26000 3188.876
31.27000 3350.806
31.28000 3490.472
31.29000 3587.760
31.30000 3684.023
31.31000 3737.815
31.32000 3837.155
31.33000 3905.918
31.34000 3927.984
31.35000 3912.313
31.36000 3896.101
31.37000 3856.224
31.38000 3803.685
31.39000 3753.311
31.40000 3678.154
31.41000 3599.630
31.42000 3513.842
31.43000 3361.819
31.44000 3193.859
31.45000 3027.785
31.46000 2872.214
31.47000 2718.263
31.48000 2595.337
31.49000 2387.756
31.50000 2213.887
31.51000 2049.383
31.52000 1907.708
31.53000 1767.065
31.54000 1632.248
31.55000 1506.980
31.56000 1381.849
31.57000 1317.127
31.58000 1181.171
31.59000 1089.551
31.60000 1006.085
31.61000 928.246
31.62000 851.329
31.63000 801.185
31.64000 763.400
31.65000 727.677
31.66000 697.323
31.67000 670.970
31.68000 645.089
31.69000 622.744
31.70000 601.125
31.71000 582.399
31.72000 577.339
31.73000 574.033
31.74000 571.487
31.75000 546.379
31.76000 525.212
31.77000 508.341
31.78000 500.509
31.79000 492.966
31.80000 488.706
31.81000 489.062
31.82000 489.450
31.83000 487.194
31.84000 482.553
31.85000 477.919
31.86000 473.653
31.87000 469.606
31.88000 465.544
31.89000 461.197
31.90000 456.735
31.91000 452.585
31.92000 449.520
31.93000 447.013
31.94000 444.406
31.95000 441.171
31.96000 437.827
31.97000 435.091
31.98000 434.806
31.99000 434.780
32.00000 434.761
32.01000 436.943
32.02000 438.730
32.03000 438.985
32.04000 436.458
32.05000 433.874
32.06000 429.328
32.07000 422.431
32.08000 415.546
32.09000 416.193
32.10000 422.583
32.11000 428.791
32.12000 428.043
32.13000 423.746
32.14000 419.635
32.15000 418.449
32.16000 418.269
32.17000 418.104
32.18000 421.461
32.19000 425.155
32.20000 427.156
32.21000 420.228
32.22000 411.998
32.23000 406.404
32.24000 409.932
32.25000 414.232
32.26000 417.276
32.27000 401.743
32.28000 389.367
32.29000 384.079
32.30000 389.855
32.31000 395.762
32.32000 398.160
32.33000 397.000
32.34000 395.848
32.35000 398.248
32.36000 402.915
32.37000 407.263
32.38000 403.343
32.39000 395.783
32.40000 388.668
32.41000 386.997
32.42000 386.940
32.43000 386.890
32.44000 386.832
32.45000 386.781
32.46000 387.894
32.47000 394.232
32.48000 401.199
32.49000 405.882
32.50000 403.759
32.51000 401.183
32.52000 399.447
32.53000 397.964
32.54000 396.866
32.55000 394.600
32.56000 390.773
32.57000 386.941
32.58000 384.982
32.59000 384.628
32.60000 384.279
32.61000 386.103
32.62000 389.079
32.63000 391.803
32.64000 389.766
32.65000 385.920
32.66000 382.228
32.67000 380.046
32.68000 378.248
32.69000 376.678
32.70000 371.826
32.71000 367.211
32.72000 364.554
32.73000 369.407
32.74000 375.001
32.75000 379.630
32.76000 381.780
32.77000 383.806
32.78000 385.097
32.79000 375.683
32.80000 368.699
32.81000 363.531
32.82000 360.428
32.83000 357.366
32.84000 360.779
32.85000 368.917
32.86000 376.894
32.87000 375.766
32.88000 370.416
32.89000 365.360
32.90000 364.558
32.91000 365.151
32.92000 365.359
32.93000 362.473
32.94000 358.914
32.95000 355.888
32.96000 364.854
32.97000 373.770
32.98000 377.706
32.99000 365.223
33.00000 351.448
33.01000 343.611
33.02000 348.953
33.03000 354.776
33.04000 358.270
33.05000 354.110
33.06000 351.103
33.07000 351.503
33.08000 355.173
33.09000 358.850
33.10000 363.042
33.11000 367.555
33.12000 371.937
33.13000 367.623
33.14000 360.064
33.15000 352.909
33.16000 350.356
33.17000 349.102
33.18000 348.030
33.19000 348.174
33.20000 348.542
33.21000 348.847
33.22000 344.532
33.23000 340.545
33.24000 337.484
33.25000 337.054
33.26000 336.784
33.27000 336.912
33.28000 337.799
33.29000 338.705
33.30000 339.212
33.31000 335.782
33.32000 333.399
33.33000 332.678
33.34000 333.309
33.35000 333.995
33.36000 337.092
33.37000 341.489
33.38000 345.706
33.39000 344.569
33.40000 341.691
33.41000 339.723
33.42000 346.121
33.43000 354.544
33.44000 361.878
33.45000 363.104
33.46000 363.381
33.47000 363.602
33.48000 360.701
33.49000 358.124
33.50000 354.556
33.51000 348.560
33.52000 342.453
33.53000 339.130
33.54000 340.398
33.55000 341.733
33.56000 342.426
33.57000 339.985
33.58000 338.364
33.59000 340.205
33.60000 344.449
33.61000 348.570
33.62000 349.082
33.63000 347.918
33.64000 346.817
33.65000 348.345
33.66000 350.506
33.67000 352.195
33.68000 350.318
33.69000 347.705
33.70000 345.009
33.71000 341.918
33.72000 338.776
33.73000 336.353
33.74000 336.673
33.75000 337.084
33.76000 337.722
33.77000 338.836
33.78000 339.966
33.79000 342.045
33.80000 345.467
33.81000 348.897
33.82000 347.921
33.83000 342.943
33.84000 338.022
33.85000 336.770
33.86000 337.704
33.87000 338.640
33.88000 339.591
33.89000 340.548
33.90000 341.439
33.91000 340.997
33.92000 340.273
33.93000 340.110
33.94000 343.483
33.95000 347.474
33.96000 350.263
33.97000 348.179
33.98000 345.577
33.99000 343.649
34.00000 337.692
34.01000 332.891
34.02000 333.252
34.03000 343.037
34.04000 353.022
34.05000 353.036
34.06000 341.018
34.07000 329.002
34.08000 327.645
34.09000 334.486
34.10000 341.283
34.11000 346.393
34.12000 350.635
34.13000 354.123
34.14000 345.649
34.15000 333.035
34.16000 321.508
34.17000 325.241
34.18000 331.678
34.19000 335.596
34.20000 326.136
34.21000 314.712
34.22000 307.829
34.23000 316.751
34.24000 327.026
34.25000 334.310
34.26000 328.255
34.27000 323.230
34.28000 322.038
34.29000 326.865
34.30000 331.765
34.31000 335.392
34.32000 337.719
34.33000 340.032
34.34000 341.078
34.35000 341.284
34.36000 341.286
34.37000 335.901
34.38000 328.130
34.39000 321.197
34.40000 324.618
34.41000 331.125
34.42000 336.949
34.43000 332.355
34.44000 326.565
34.45000 321.407
34.46000 319.103
34.47000 317.146
34.48000 316.583
34.49000 320.194
34.50000 324.085
34.51000 326.712
34.52000 319.661
34.53000 314.207
34.54000 312.112
34.55000 314.539
34.56000 316.989
34.57000 318.815
34.58000 320.102
34.59000 321.374
34.60000 323.122
34.61000 325.089
34.62000 326.863
34.63000 324.922
34.64000 321.560
34.65000 318.817
34.66000 322.209
34.67000 327.171
34.68000 331.509
34.69000 326.837
34.70000 321.557
34.71000 317.600
34.72000 318.753
34.73000 320.413
34.74000 320.474
34.75000 316.401
34.76000 312.116
34.77000 309.376
34.78000 316.555
34.79000 321.911
34.80000 323.887
34.81000 321.993
34.82000 320.107
34.83000 320.343
34.84000 322.138
34.85000 323.898
34.86000 321.852
34.87000 318.089
34.88000 314.546
34.89000 314.234
34.90000 314.987
34.91000 315.848
34.92000 317.574
34.93000 319.489
34.94000 321.121
34.95000 316.682
34.96000 312.244
34.97000 309.308
34.98000 311.355
34.99000 313.798
35.00000 315.119
35.01000 313.934
35.02000 312.656
35.03000 311.887
35.04000 316.582
35.05000 319.958
35.06000 321.251
35.07000 320.530
35.08000 319.831
35.09000 320.928
35.10000 323.155
35.11000 325.318
35.12000 325.248
35.13000 324.285
35.14000 322.919
35.15000 316.911
35.16000 309.585
35.17000 303.670
35.18000 307.240
35.19000 312.573
35.20000 316.984
35.21000 314.019
35.22000 310.878
35.23000 310.158
35.24000 316.355
35.25000 322.981
35.26000 324.326
35.27000 315.501
35.28000 306.421
35.29000 301.317
35.30000 305.974
35.31000 309.223
35.32000 309.123
35.33000 306.283
35.34000 303.456
35.35000 301.211
35.36000 299.281
35.37000 297.429
35.38000 303.831
35.39000 312.632
35.40000 320.539
35.41000 320.163
35.42000 317.769
35.43000 315.407
35.44000 313.232
35.45000 311.085
35.46000 309.366
35.47000 318.230
35.48000 326.192
35.49000 328.443
35.50000 316.601
35.51000 304.106
35.52000 296.090
35.53000 295.508
35.54000 295.037
35.55000 294.792
35.56000 300.351
35.57000 304.082
35.58000 304.372
35.59000 302.256
35.60000 300.216
35.61000 300.462
35.62000 301.777
35.63000 303.021
35.64000 304.968
35.65000 306.963
35.66000 308.819
35.67000 309.617
35.68000 310.195
35.69000 310.302
35.70000 308.160
35.71000 305.725
35.72000 303.843
35.73000 302.189
35.74000 300.890
35.75000 302.194
35.76000 309.040
35.77000 316.069
35.78000 317.486
35.79000 310.915
35.80000 304.286
35.81000 303.542
35.82000 308.183
35.83000 312.717
35.84000 310.273
35.85000 303.644
35.86000 297.262
35.87000 296.175
35.88000 297.224
35.89000 298.200
35.90000 303.634
35.91000 309.640
35.92000 314.040
35.93000 308.244
35.94000 300.651
35.95000 295.371
35.96000 299.534
35.97000 304.709
35.98000 308.550
35.99000 304.848
36.00000 301.638
36.01000 299.300
36.02000 298.561
36.03000 297.857
36.04000 298.537
36.05000 300.898
36.06000 303.258
36.07000 305.717
36.08000 308.238
36.09000 310.622
36.10000 307.582
36.11000 301.742
36.12000 296.364
36.13000 298.410
36.14000 303.040
36.15000 307.274
36.16000 307.319
36.17000 306.496
36.18000 305.545
36.19000 303.909
36.20000 302.171
36.21000 300.636
36.22000 299.806
36.23000 299.038
36.24000 298.492
36.25000 297.110
36.26000 296.030
36.27000 295.566
36.28000 296.074
36.29000 296.593
36.30000 295.876
36.31000 293.888
36.32000 291.911
36.33000 293.477
36.34000 297.346
36.35000 301.185
36.36000 304.222
36.37000 306.903
36.38000 309.432
36.39000 310.067
36.40000 310.133
36.41000 310.193
36.42000 307.200
36.43000 304.062
36.44000 300.068
36.45000 292.187
36.46000 283.829
36.47000 279.845
36.48000 289.043
36.49000 299.137
36.50000 305.965
36.51000 295.107
36.52000 286.634
36.53000 284.769
36.54000 291.850
36.55000 298.976
36.56000 302.244
36.57000 302.164
36.58000 302.085
36.59000 305.322
36.60000 310.331
36.61000 315.036
36.62000 313.840
36.63000 310.374
36.64000 307.085
36.65000 305.554
36.66000 304.477
36.67000 303.534
36.68000 301.829
36.69000 300.259
36.70000 299.622
36.71000 302.610
36.72000 305.962
36.73000 309.565
36.74000 313.824
36.75000 318.116
36.76000 320.867
36.77000 316.599
36.78000 313.396
36.79000 308.910
36.80000 302.945
36.81000 296.999
36.82000 294.675
36.83000 295.030
36.84000 295.378
36.85000 297.003
36.86000 299.173
36.87000 300.986
36.88000 297.523
36.89000 292.308
36.90000 288.154
36.91000 292.650
36.92000 299.052
36.93000 304.510
36.94000 305.492
36.95000 305.793
36.96000 306.703
36.97000 309.641
36.98000 312.742
36.99000 314.451
37.00000 313.034
37.01000 311.500
37.02000 310.575
37.03000 312.517
37.04000 313.920
37.05000 312.585
37.06000 308.587
37.07000 304.609
37.08000 302.307
37.09000 301.068
37.10000 299.863
37.11000 298.237
37.12000 296.521
37.13000 295.033
37.14000 296.187
37.15000 298.096
37.16000 299.410
37.17000 296.694
37.18000 293.225
37.19000 290.351
37.20000 291.050
37.21000 291.966
37.22000 292.778
37.23000 293.291
37.24000 293.786
37.25000 295.753
37.26000 300.574
37.27000 305.468
37.28000 308.227
37.29000 305.930
37.30000 304.317
37.31000 300.740
37.32000 295.543
37.33000 290.370
37.34000 286.278
37.35000 282.775
37.36000 279.411
37.37000 287.774
37.38000 299.624
37.39000 309.669
37.40000 302.837
37.41000 291.867
37.42000 282.386
37.43000 281.363
37.44000 281.674
37.45000 281.923
37.46000 290.642
37.47000 298.342
37.48000 301.679
37.49000 294.188
37.50000 286.188
37.51000 282.942
37.52000 287.629
37.53000 292.439
37.54000 294.952
37.55000 297.745
37.56000 299.612
37.57000 298.429
37.58000 295.101
37.59000 291.803
37.60000 289.419
37.61000 287.464
37.62000 285.613
37.63000 291.730
37.64000 299.684
37.65000 306.085
37.66000 300.572
37.67000 292.566
37.68000 286.210
37.69000 287.800
37.70000 290.434
37.71000 292.472
37.72000 295.630
37.73000 298.203
37.74000 298.046
37.75000 292.041
37.76000 285.840
37.77000 282.890
37.78000 284.596
37.79000 286.338
37.80000 287.208
37.81000 287.273
37.82000 287.334
37.83000 287.136
37.84000 286.781
37.85000 286.431
37.86000 286.190
37.87000 285.992
37.88000 285.808
37.89000 286.376
37.90000 287.075
37.91000 287.850
37.92000 289.109
37.93000 290.453
37.94000 292.494
37.95000 297.396
37.96000 302.606
37.97000 306.480
37.98000 303.755
37.99000 301.343
38.00000 298.306
38.01000 294.118
38.02000 289.905
38.03000 287.991
38.04000 288.888
38.05000 289.790
38.06000 291.012
38.07000 292.475
38.08000 294.006
38.09000 298.221
38.10000 303.830
38.11000 308.994
38.12000 306.925
38.13000 302.325
38.14000 298.115
38.15000 293.719
38.16000 289.771
38.17000 288.102
38.18000 298.699
38.19000 311.124
38.20000 319.118
38.21000 311.500
38.22000 302.522
38.23000 296.132
38.24000 307.644
38.25000 316.992
38.26000 323.528
38.27000 325.595
38.28000 327.605
38.29000 329.902
38.30000 332.497
38.31000 335.077
38.32000 339.636
38.33000 345.440
38.34000 351.218
38.35000 356.291
38.36000 361.049
38.37000 365.840
38.38000 371.045
38.39000 376.376
38.40000 381.156
38.41000 381.608
38.42000 381.253
38.43000 382.310
38.44000 389.826
38.45000 398.142
38.46000 409.430
38.47000 429.733
38.48000 450.654
38.49000 464.836
38.50000 478.519
38.51000 488.710
38.52000 499.218
38.53000 510.158
38.54000 521.102
38.55000 533.832
38.56000 548.123
38.57000 562.252
38.58000 570.389
38.59000 574.971
38.60000 579.903
38.61000 591.710
38.62000 606.177
38.63000 619.570
38.64000 622.140
38.65000 621.904
38.66000 621.698
38.67000 612.830
38.68000 603.976
38.69000 597.659
38.70000 601.259
38.71000 605.861
38.72000 607.287
38.73000 600.402
38.74000 593.081
38.75000 588.380
38.76000 564.358
38.77000 546.574
38.78000 535.627
38.79000 532.615
38.80000 529.552
38.81000 514.841
38.82000 491.465
38.83000 468.527
38.84000 458.354
38.85000 454.644
38.86000 450.362
38.87000 437.563
38.88000 421.918
38.89000 406.208
38.90000 389.961
38.91000 373.594
38.92000 359.626
38.93000 361.116
38.94000 364.200
38.95000 363.937
38.96000 352.442
38.97000 340.037
38.98000 331.385
38.99000 331.210
39.00000 331.359
39.01000 331.449
39.02000 313.388
39.03000 300.387
39.04000 296.988
39.05000 303.002
39.06000 308.940
39.07000 308.610
39.08000 304.286
39.09000 300.084
39.10000 298.719
39.11000 298.574
39.12000 297.866
39.13000 290.553
39.14000 281.341
39.15000 273.558
39.16000 275.520
39.17000 279.318
39.18000 282.467
39.19000 282.633
39.20000 282.484
39.21000 282.191
39.22000 281.483
39.23000 280.749
39.24000 281.434
39.25000 284.889
39.26000 288.415
39.27000 290.408
39.28000 280.529
39.29000 273.644
39.30000 274.764
39.31000 282.524
39.32000 290.088
39.33000 288.384
39.34000 281.600
39.35000 275.082
39.36000 272.845
39.37000 272.230
39.38000 271.059
39.39000 264.647
39.40000 256.941
39.41000 251.367
39.42000 257.991
39.43000 266.552
39.44000 273.426
39.45000 277.815
39.46000 281.180
39.47000 283.790
39.48000 284.515
39.49000 285.150
39.50000 282.522
39.51000 274.413
39.52000 266.217
39.53000 261.923
39.54000 268.986
39.55000 273.738
39.56000 273.373
39.57000 269.388
39.58000 265.510
39.59000 264.947
39.60000 265.950
39.61000 266.900
39.62000 268.326
39.63000 269.779
39.64000 270.418
39.65000 264.755
39.66000 257.765
39.67000 252.705
39.68000 257.004
39.69000 262.541
39.70000 266.832
39.71000 266.407
39.72000 265.789
39.73000 262.747
39.74000 254.478
39.75000 246.032
39.76000 244.671
39.77000 253.522
39.78000 262.453
39.79000 264.663
39.80000 260.637
39.81000 256.694
39.82000 258.424
39.83000 263.597
39.84000 268.622
39.85000 270.434
39.86000 270.933
39.87000 271.400
39.88000 273.630
39.89000 276.089
39.90000 277.323
39.91000 270.668
39.92000 262.606
39.93000 256.357
39.94000 257.605
39.95000 259.670
39.96000 261.208
39.97000 264.602
39.98000 267.327
39.99000 268.310
40.00000 266.052
40.01000 263.721
40.02000 265.089
40.03000 271.007
40.04000 276.926
40.05000 276.540
40.06000 271.213
40.07000 266.011
40.08000 265.912
40.09000 268.479
40.10000 271.008
40.11000 272.912
40.12000 274.596
40.13000 276.139
40.14000 263.362
40.15000 248.997
40.16000 237.419
40.17000 240.948
40.18000 246.743
40.19000 252.118
40.20000 256.005
40.21000 259.762
40.22000 262.440
40.23000 257.311
40.24000 253.144
40.25000 249.938
40.26000 248.267
40.27000 246.616
40.28000 247.131
40.29000 249.905
40.30000 252.664
40.31000 257.111
40.32000 262.623
40.33000 267.922
40.34000 267.371
40.35000 264.184
40.36000 261.064
40.37000 258.812
40.38000 256.824
40.39000 255.040
40.40000 252.907
40.41000 250.980
40.42000 248.806
40.43000 245.491
40.44000 242.033
40.45000 239.326
40.46000 238.906
40.47000 238.644
40.48000 238.467
40.49000 242.035
40.50000 244.782
40.51000 246.954
40.52000 248.338
40.53000 249.716
40.54000 250.873
40.55000 251.834
40.56000 252.784
40.57000 254.142
40.58000 255.698
40.59000 257.158
40.60000 256.726
40.61000 255.558
40.62000 254.402
40.63000 253.371
40.64000 252.373
40.65000 251.499
40.66000 251.367
40.67000 251.363
40.68000 251.112
40.69000 249.895
40.70000 248.578
40.71000 248.707
40.72000 252.639
40.73000 256.772
40.74000 259.432
40.75000 250.750
40.76000 244.253
40.77000 242.709
40.78000 246.951
40.79000 251.197
40.80000 254.541
40.81000 257.210
40.82000 259.830
40.83000 261.005
40.84000 261.445
40.85000 261.686
40.86000 258.936
40.87000 255.181
40.88000 251.724
40.89000 250.739
40.90000 250.306
40.91000 249.936
40.92000 251.791
40.93000 253.619
40.94000 254.108
40.95000 250.076
40.96000 245.674
40.97000 241.983
40.98000 239.909
40.99000 237.897
41.00000 236.677
41.01000 234.942
41.02000 233.700
41.03000 238.948
41.04000 250.598
41.05000 262.140
41.06000 264.468
41.07000 260.888
41.08000 257.408
41.09000 251.513
41.10000 244.919
41.11000 239.221
41.12000 244.114
41.13000 252.072
41.14000 258.230
41.15000 252.030
41.16000 243.486
41.17000 236.393
41.18000 238.734
41.19000 241.581
41.20000 245.159
41.21000 250.862
41.22000 256.700
41.23000 259.339
41.24000 255.703
41.25000 251.902
41.26000 249.747
41.27000 253.549
41.28000 256.203
41.29000 254.075
41.30000 247.953
41.31000 241.891
41.32000 238.703
41.33000 237.099
41.34000 235.558
41.35000 237.063
41.36000 239.533
41.37000 241.468
41.38000 238.329
41.39000 233.929
41.40000 231.886
41.41000 243.423
41.42000 257.132
41.43000 268.153
41.44000 257.147
41.45000 246.524
41.46000 239.370
41.47000 240.929
41.48000 242.908
41.49000 244.908
41.50000 246.944
41.51000 248.981
41.52000 250.052
41.53000 249.874
41.54000 249.732
41.55000 246.653
41.56000 241.481
41.57000 236.580
41.58000 240.167
41.59000 247.790
41.60000 255.018
41.61000 252.966
41.62000 248.333
41.63000 244.098
41.64000 242.961
41.65000 242.481
41.66000 241.609
41.67000 238.823
41.68000 235.780
41.69000 233.420
41.70000 233.149
41.71000 233.060
41.72000 233.825
41.73000 236.440
41.74000 239.119
41.75000 239.486
41.76000 236.499
41.77000 233.484
41.78000 231.991
41.79000 231.918
41.80000 231.862
41.81000 232.932
41.82000 234.689
41.83000 236.375
41.84000 236.454
41.85000 235.873
41.86000 235.331
41.87000 235.987
41.88000 236.881
41.89000 237.710
41.90000 238.116
41.91000 238.445
41.92000 238.310
41.93000 236.241
41.94000 233.960
41.95000 232.257
41.96000 238.074
41.97000 242.948
41.98000 244.810
41.99000 241.036
42.00000 237.134
42.01000 235.725
42.02000 237.404
42.03000 239.088
42.04000 240.821
42.05000 242.583
42.06000 244.264
42.07000 242.535
42.08000 239.014
42.09000 235.793
42.10000 237.540
42.11000 241.049
42.12000 244.265
42.13000 245.357
42.14000 245.884
42.15000 246.008
42.16000 243.933
42.17000 241.526
42.18000 238.763
42.19000 234.735
42.20000 230.594
42.21000 227.636
42.22000 224.821
42.23000 222.677
42.24000 222.623
42.25000 225.930
42.26000 229.283
42.27000 230.337
42.28000 228.977
42.29000 227.625
42.30000 228.128
42.31000 229.867
42.32000 231.625
42.33000 233.909
42.34000 236.432
42.35000 238.919
42.36000 240.945
42.37000 242.829
42.38000 244.521
42.39000 241.126
42.40000 237.260
42.41000 234.074
42.42000 234.040
42.43000 234.402
42.44000 233.595
42.45000 229.199
42.46000 224.552
42.47000 221.389
42.48000 227.072
42.49000 231.519
42.50000 233.406
42.51000 231.761
42.52000 230.096
42.53000 231.067
42.54000 234.373
42.55000 237.644
42.56000 238.731
42.57000 238.551
42.58000 238.038
42.59000 230.821
42.60000 220.979
42.61000 212.177
42.62000 214.034
42.63000 218.688
42.64000 222.773
42.65000 223.844
42.66000 224.323
42.67000 225.296
42.68000 228.224
42.69000 231.353
42.70000 234.347
42.71000 236.979
42.72000 239.593
42.73000 241.279
42.74000 241.226
42.75000 241.163
42.76000 240.504
42.77000 239.145
42.78000 237.782
42.79000 235.865
42.80000 233.530
42.81000 231.238
42.82000 228.024
42.83000 224.477
42.84000 221.620
42.85000 229.260
42.86000 240.449
42.87000 249.974
42.88000 245.589
42.89000 238.081
42.90000 231.660
42.91000 232.152
42.92000 233.399
42.93000 236.101
42.94000 243.746
42.95000 251.799
42.96000 255.846
42.97000 250.736
42.98000 245.268
42.99000 241.944
43.00000 232.281
43.01000 225.333
43.02000 223.963
43.03000 228.136
43.04000 232.289
43.05000 234.581
43.06000 235.674
43.07000 236.737
43.08000 236.292
43.09000 235.247
43.10000 234.113
43.11000 231.916
43.12000 229.410
43.13000 227.357
43.14000 228.433
43.15000 230.106
43.16000 231.497
43.17000 236.150
43.18000 240.317
43.19000 241.892
43.20000 235.878
43.21000 229.375
43.22000 224.868
43.23000 224.300
43.24000 223.838
43.25000 223.575
43.26000 222.701
43.27000 222.089
43.28000 220.673
43.29000 218.580
43.30000 216.615
43.31000 220.976
43.32000 228.845
43.33000 236.413
43.34000 234.551
43.35000 229.504
43.36000 225.047
43.37000 226.244
43.38000 228.853
43.39000 231.059
43.40000 230.922
43.41000 230.408
43.42000 229.994
43.43000 229.027
43.44000 228.199
43.45000 227.458
43.46000 226.934
43.47000 226.420
43.48000 225.136
43.49000 222.542
43.50000 219.926
43.51000 218.546
43.52000 223.462
43.53000 226.807
43.54000 231.025
43.55000 235.868
43.56000 240.481
43.57000 237.763
43.58000 231.540
43.59000 225.635
43.60000 219.191
43.61000 213.087
43.62000 208.393
43.63000 214.774
43.64000 223.518
43.65000 231.221
43.66000 233.812
43.67000 235.715
43.68000 237.194
43.69000 231.498
43.70000 226.529
43.71000 223.541
43.72000 224.874
43.73000 226.357
43.74000 226.449
43.75000 224.508
43.76000 222.549
43.77000 222.730
43.78000 224.923
43.79000 227.054
43.80000 224.828
43.81000 219.925
43.82000 215.335
43.83000 217.777
43.84000 223.122
43.85000 228.116
43.86000 227.820
43.87000 226.222
43.88000 224.996
43.89000 226.195
43.90000 227.833
43.91000 229.355
43.92000 230.390
43.93000 231.372
43.94000 232.105
43.95000 233.137
43.96000 233.955
43.97000 232.400
43.98000 226.377
43.99000 220.249
44.00000 219.261
44.01000 224.680
44.02000 230.108
44.03000 231.554
44.04000 229.830
44.05000 228.129
44.06000 227.368
44.07000 227.106
44.08000 226.838
44.09000 226.492
44.10000 226.118
44.11000 225.775
44.12000 226.337
44.13000 227.029
44.14000 227.473
44.15000 226.552
44.16000 225.424
44.17000 225.423
44.18000 229.470
44.19000 233.880
44.20000 237.036
44.21000 231.223
44.22000 226.481
44.23000 224.170
44.24000 225.793
44.25000 227.471
44.26000 227.673
44.27000 226.314
44.28000 224.962
44.29000 225.790
44.30000 228.075
44.31000 230.264
44.32000 229.731
44.33000 227.956
44.34000 226.556
44.35000 230.020
44.36000 234.980
44.37000 239.438
44.38000 238.237
44.39000 236.181
44.40000 233.848
44.41000 230.228
44.42000 226.444
44.43000 225.029
44.44000 230.930
44.45000 237.348
44.46000 241.726
44.47000 238.863
44.48000 236.555
44.49000 235.833
44.50000 237.313
44.51000 238.809
44.52000 241.496
44.53000 245.247
44.54000 248.957
44.55000 250.078
44.56000 249.690
44.57000 249.201
44.58000 246.638
44.59000 243.257
44.60000 240.667
44.61000 246.244
44.62000 253.978
44.63000 260.773
44.64000 263.531
44.65000 265.306
44.66000 267.191
44.67000 269.509
44.68000 271.873
44.69000 275.203
44.70000 281.109
44.71000 287.155
44.72000 291.065
44.73000 310.859
44.74000 325.567
44.75000 335.438
44.76000 339.585
44.77000 343.744
44.78000 352.698
44.79000 365.288
44.80000 377.654
44.81000 389.810
44.82000 401.445
44.83000 413.254
44.84000 427.742
44.85000 443.140
44.86000 457.977
44.87000 468.087
44.88000 477.128
44.89000 484.871
44.90000 494.022
44.91000 501.915
44.92000 510.165
44.93000 519.631
44.94000 529.200
44.95000 539.341
44.96000 550.802
44.97000 562.314
44.98000 569.329
44.99000 568.629
45.00000 568.067
45.01000 571.649
45.02000 579.379
45.03000 586.970
45.04000 581.962
45.05000 568.778
45.06000 555.947
45.07000 544.406
45.08000 533.950
45.09000 523.538
45.10000 513.646
45.11000 503.907
45.12000 494.066
45.13000 483.514
45.14000 472.827
45.15000 463.933
45.16000 441.457
45.17000 421.510
45.18000 405.477
45.19000 400.967
45.20000 397.209
45.21000 391.060
45.22000 380.163
45.23000 369.137
45.24000 362.850
45.25000 345.906
45.26000 334.063
45.27000 328.111
45.28000 327.142
45.29000 325.990
45.30000 315.710
45.31000 300.335
45.32000 285.542
45.33000 283.125
45.34000 285.220
45.35000 286.857
45.36000 284.055
45.37000 280.138
45.38000 276.457
45.39000 274.156
45.40000 272.078
45.41000 270.403
45.42000 269.651
45.43000 269.112
45.44000 267.998
45.45000 265.421
45.46000 262.773
45.47000 258.400
45.48000 251.080
45.49000 243.710
45.50000 239.810
45.51000 247.314
45.52000 252.364
45.53000 248.766
45.54000 238.934
45.55000 229.275
45.56000 225.271
45.57000 223.987
45.58000 222.767
45.59000 224.118
45.60000 226.134
45.61000 228.429
45.62000 232.937
45.63000 237.919
45.64000 240.734
45.65000 232.835
45.66000 223.485
45.67000 216.207
45.68000 220.105
45.69000 223.896
45.70000 226.690
45.71000 227.293
45.72000 227.820
45.73000 226.714
45.74000 223.212
45.75000 219.690
45.76000 217.016
45.77000 215.146
45.78000 213.302
45.79000 213.335
45.80000 214.529
45.81000 215.686
45.82000 216.010
45.83000 215.988
45.84000 215.968
45.85000 221.457
45.86000 227.835
45.87000 232.363
45.88000 224.717
45.89000 214.852
45.90000 206.405
45.91000 203.930
45.92000 202.122
45.93000 200.768
45.94000 210.796
45.95000 219.152
45.96000 223.944
45.97000 221.990
45.98000 219.875
45.99000 219.804
46.00000 222.297
46.01000 224.793
46.02000 223.558
46.03000 219.343
46.04000 215.222
46.05000 215.129
46.06000 217.180
46.07000 218.957
46.08000 216.097
46.09000 211.574
46.10000 207.422
46.11000 206.159
46.12000 205.648
46.13000 205.306
46.14000 205.894
46.15000 206.624
46.16000 207.928
46.17000 211.303
46.18000 214.866
46.19000 217.419
46.20000 216.948
46.21000 216.485
46.22000 214.507
46.23000 210.062
46.24000 205.582
46.25000 203.582
46.26000 204.221
46.27000 204.859
46.28000 208.520
46.29000 214.189
46.30000 219.549
46.31000 216.059
46.32000 208.505
46.33000 201.601
46.34000 203.205
46.35000 207.438
46.36000 211.246
46.37000 211.882
46.38000 211.871
46.39000 211.517
46.40000 209.548
46.41000 207.374
46.42000 204.524
46.43000 199.576
46.44000 194.478
46.45000 190.993
46.46000 192.381
46.47000 193.534
46.48000 198.176
46.49000 207.692
46.50000 217.237
46.51000 219.358
46.52000 214.815
46.53000 210.320
46.54000 208.612
46.55000 208.549
46.56000 208.266
46.57000 203.472
46.58000 196.890
46.59000 191.048
46.60000 192.923
46.61000 196.848
46.62000 200.300
46.63000 196.607
46.64000 192.368
46.65000 190.508
46.66000 198.184
46.67000 206.857
46.68000 211.370
46.69000 204.734
46.70000 197.488
46.71000 192.791
46.72000 190.559
46.73000 188.962
46.74000 190.981
46.75000 197.308
46.76000 203.624
46.77000 205.826
46.78000 204.888
46.79000 203.966
46.80000 202.071
46.81000 199.763
46.82000 197.471
46.83000 195.431
46.84000 193.477
46.85000 191.796
46.86000 192.428
46.87000 193.585
46.88000 194.577
46.89000 192.557
46.90000 190.484
46.91000 188.641
46.92000 187.591
46.93000 186.608
46.94000 186.750
46.95000 189.494
46.96000 192.343
46.97000 194.084
46.98000 187.498
46.99000 182.720
47.00000 184.333
47.01000 192.388
47.02000 200.341
47.03000 198.953
47.04000 191.463
47.05000 184.172
47.06000 186.142
47.07000 191.885
47.08000 197.195
47.09000 197.246
47.10000 195.748
47.11000 194.752
47.12000 197.281
47.13000 200.492
47.14000 203.167
47.15000 197.142
47.16000 191.286
47.17000 187.994
47.18000 192.302
47.19000 197.110
47.20000 200.028
47.21000 199.173
47.22000 198.213
47.23000 197.665
47.24000 196.417
47.25000 195.550
47.26000 198.106
47.27000 203.579
47.28000 208.887
47.29000 205.786
47.30000 197.962
47.31000 190.431
47.32000 189.315
47.33000 190.543
47.34000 191.531
47.35000 190.180
47.36000 188.236
47.37000 186.345
47.38000 184.768
47.39000 183.242
47.40000 182.011
47.41000 185.647
47.42000 188.989
47.43000 190.219
47.44000 186.055
47.45000 181.621
47.46000 180.413
47.47000 184.756
47.48000 189.195
47.49000 191.551
47.50000 189.679
47.51000 188.402
47.52000 186.946
47.53000 185.361
47.54000 183.876
47.55000 185.680
47.56000 189.075
47.57000 192.301
47.58000 190.987
47.59000 188.405
47.60000 186.020
47.61000 185.209
47.62000 184.739
47.63000 184.589
47.64000 186.030
47.65000 187.689
47.66000 188.982
47.67000 188.012
47.68000 187.098
47.69000 187.880
47.70000 192.405
47.71000 197.065
47.72000 199.365
47.73000 198.177
47.74000 196.958
47.75000 195.610
47.76000 194.140
47.77000 192.672
47.78000 191.357
47.79000 190.136
47.80000 188.865
47.81000 186.434
47.82000 183.518
47.83000 180.791
47.84000 182.768
47.85000 185.763
47.86000 188.478
47.87000 189.343
47.88000 189.868
47.89000 190.193
47.90000 189.669
47.91000 189.048
47.92000 188.583
47.93000 191.193
47.94000 193.377
47.95000 194.210
47.96000 192.472
47.97000 190.671
47.98000 191.658
47.99000 196.164
48.00000 200.674
48.01000 199.740
48.02000 194.426
48.03000 189.218
48.04000 188.652
48.05000 190.571
48.06000 192.236
48.07000 189.545
48.08000 185.283
48.09000 181.367
48.10000 184.177
48.11000 188.131
48.12000 191.112
48.13000 188.678
48.14000 185.407
48.15000 182.728
48.16000 182.196
48.17000 181.860
48.18000 181.619
48.19000 180.781
48.20000 180.119
48.21000 181.417
48.22000 185.926
48.23000 190.481
48.24000 191.026
48.25000 187.272
48.26000 183.535
48.27000 185.706
48.28000 191.885
48.29000 197.803
48.30000 196.129
48.31000 190.949
48.32000 186.094
48.33000 185.523
48.34000 186.285
48.35000 186.971
48.36000 186.782
48.37000 186.459
48.38000 185.654
48.39000 182.572
48.40000 179.198
48.41000 177.969
48.42000 183.449
48.43000 189.412
48.44000 193.496
48.45000 191.051
48.46000 189.063
48.47000 187.485
48.48000 186.483
48.49000 185.486
48.50000 186.446
48.51000 189.174
48.52000 191.875
48.53000 190.277
48.54000 186.220
48.55000 182.143
48.56000 177.630
48.57000 172.944
48.58000 169.236
48.59000 175.825
48.60000 185.167
48.61000 193.390
48.62000 188.396
48.63000 182.119
48.64000 177.190
48.65000 177.700
48.66000 178.783
48.67000 178.895
48.68000 176.387
48.69000 173.734
48.70000 172.011
48.71000 178.998
48.72000 184.250
48.73000 186.309
48.74000 184.540
48.75000 182.759
48.76000 180.073
48.77000 176.691
48.78000 173.367
48.79000 175.845
48.80000 181.103
48.81000 186.108
48.82000 187.135
48.83000 186.793
48.84000 186.619
48.85000 187.878
48.86000 189.464
48.87000 190.825
48.88000 186.507
48.89000 182.157
48.90000 180.196
48.91000 186.501
48.92000 193.507
48.93000 196.566
48.94000 190.443
48.95000 183.945
48.96000 179.966
48.97000 176.950
48.98000 174.800
48.99000 175.819
49.00000 180.053
49.01000 184.244
49.02000 184.306
49.03000 181.656
49.04000 179.075
49.05000 174.898
49.06000 170.245
49.07000 165.959
49.08000 166.160
49.09000 167.692
49.10000 169.389
49.11000 172.263
49.12000 175.366
49.13000 177.955
49.14000 178.228
49.15000 178.222
49.16000 179.005
49.17000 182.138
49.18000 185.428
49.19000 186.389
49.20000 182.675
49.21000 178.830
49.22000 176.624
49.23000 174.152
49.24000 172.428
49.25000 173.186
49.26000 176.072
49.27000 178.909
49.28000 179.170
49.29000 177.975
49.30000 176.824
49.31000 177.860
49.32000 179.615
49.33000 180.862
49.34000 177.123
49.35000 172.115
49.36000 168.024
49.37000 169.367
49.38000 171.604
49.39000 173.413
49.40000 171.203
49.41000 169.083
49.42000 167.965
49.43000 169.423
49.44000 171.012
49.45000 172.132
49.46000 172.440
49.47000 172.735
49.48000 172.891
49.49000 180.255
49.50000 185.237
49.51000 183.745
49.52000 177.526
49.53000 171.518
49.54000 172.563
49.55000 177.041
49.56000 181.298
49.57000 183.598
49.58000 185.130
49.59000 186.057
49.60000 182.118
49.61000 177.120
49.62000 173.217
49.63000 174.801
49.64000 177.139
49.65000 178.964
49.66000 178.173
49.67000 177.378
49.68000 177.253
49.69000 178.614
49.70000 180.029
49.71000 182.297
49.72000 185.831
49.73000 189.378
49.74000 188.250
49.75000 182.633
49.76000 177.072
49.77000 175.824
49.78000 177.275
49.79000 178.705
49.80000 179.630
49.81000 180.344
49.82000 181.012
49.83000 178.867
49.84000 176.195
49.85000 173.926
49.86000 174.347
49.87000 175.264
49.88000 176.370
49.89000 178.280
49.90000 180.281
49.91000 181.783
49.92000 181.954
49.93000 182.023
49.94000 183.027
49.95000 185.821
49.96000 188.658
49.97000 187.691
49.98000 181.887
49.99000 176.074
50.00000 173.851
50.01000 174.547
50.02000 175.210
50.03000 174.417
50.04000 172.841
50.05000 171.609
50.06000 176.343
50.07000 183.243
50.08000 189.587
50.09000 185.242
50.10000 179.047
50.11000 175.024
50.12000 183.179
50.13000 193.228
50.14000 201.238
50.15000 201.796
50.16000 201.667
50.17000 201.575
50.18000 190.990
50.19000 182.518
50.20000 178.210
50.21000 180.772
50.22000 183.435
50.23000 185.550
50.24000 187.071
50.25000 188.586
50.26000 192.228
50.27000 197.293
50.28000 202.209
50.29000 202.742
50.30000 201.238
50.31000 199.964
50.32000 201.745
50.33000 204.481
50.34000 206.948
50.35000 210.024
50.36000 212.834
50.37000 215.308
50.38000 216.186
50.39000 216.857
50.40000 218.721
50.41000 224.334
50.42000 230.220
50.43000 234.259
50.44000 236.257
50.45000 237.705
50.46000 240.812
50.47000 246.268
50.48000 251.740
50.49000 257.373
50.50000 263.152
50.51000 268.875
50.52000 273.257
50.53000 276.765
50.54000 280.225
50.55000 282.693
50.56000 284.761
50.57000 286.983
50.58000 290.829
50.59000 295.112
50.60000 298.886
50.61000 301.046
50.62000 302.663
50.63000 304.341
50.64000 306.267
50.65000 308.220
50.66000 308.445
50.67000 303.988
50.68000 299.268
50.69000 296.195
50.70000 298.259
50.71000 299.852
50.72000 295.140
50.73000 282.817
50.74000 270.511
50.75000 266.485
50.76000 268.860
50.77000 271.195
50.78000 267.546
50.79000 261.044
50.80000 254.807
50.81000 252.768
50.82000 252.183
50.83000 251.505
50.84000 250.028
50.85000 248.366
50.86000 246.939
50.87000 239.470
50.88000 232.403
50.89000 224.824
50.90000 215.466
50.91000 205.956
50.92000 198.008
50.93000 193.716
50.94000 189.575
50.95000 187.032
50.96000 194.565
50.97000 200.051
50.98000 205.968
50.99000 212.326
51.00000 218.580
51.01000 214.777
51.02000 204.322
51.03000 194.135
51.04000 188.749
51.05000 185.642
51.06000 182.906
51.07000 184.757
51.08000 187.976
51.09000 190.014
51.10000 183.634
51.11000 175.603
51.12000 168.895
51.13000 174.113
51.14000 179.649
51.15000 182.887
51.16000 179.237
51.17000 175.124
51.18000 172.897
51.19000 174.482
51.20000 176.175
51.21000 177.149
51.22000 177.404
51.23000 177.577
51.24000 176.353
51.25000 173.924
51.26000 171.523
51.27000 170.577
51.28000 170.459
51.29000 170.345
51.30000 170.150
51.31000 169.938
51.32000 169.643
51.33000 168.519
51.34000 167.182
51.35000 165.983
51.36000 165.602
51.37000 165.356
51.38000 165.157
51.39000 168.010
51.40000 170.579
51.41000 171.991
51.42000 170.408
51.43000 168.672
51.44000 166.678
51.45000 164.235
51.46000 161.784
51.47000 160.474
51.48000 168.646
51.49000 174.197
51.50000 174.912
51.51000 172.072
51.52000 169.312
51.53000 169.239
51.54000 170.481
51.55000 171.662
51.56000 174.967
51.57000 178.672
51.58000 180.963
51.59000 171.795
51.60000 160.118
51.61000 150.545
51.62000 151.573
51.63000 154.070
51.64000 156.022
51.65000 162.175
51.66000 167.352
51.67000 170.826
51.68000 170.496
51.69000 170.025
51.70000 167.938
51.71000 163.434
51.72000 158.906
51.73000 159.071
51.74000 163.773
51.75000 168.432
51.76000 169.668
51.77000 168.748
51.78000 167.949
51.79000 170.012
51.80000 173.286
51.81000 176.353
51.82000 176.316
51.83000 175.481
51.84000 174.578
51.85000 173.211
51.86000 171.759
51.87000 170.331
51.88000 169.013
51.89000 167.707
51.90000 166.725
51.91000 166.745
51.92000 166.810
51.93000 167.029
51.94000 167.547
51.95000 168.073
51.96000 168.707
51.97000 169.479
51.98000 170.250
51.99000 169.689
52.00000 168.043
52.01000 166.420
52.02000 165.864
52.03000 165.886
52.04000 165.855
52.05000 164.906
52.06000 163.623
52.07000 162.441
52.08000 160.439
52.09000 158.470
52.10000 156.180
52.11000 152.081
52.12000 147.699
52.13000 145.174
52.14000 149.481
52.15000 154.421
52.16000 157.982
52.17000 158.296
52.18000 158.421
52.19000 157.733
52.20000 155.693
52.21000 153.634
52.22000 154.804
52.23000 159.481
52.24000 164.139
52.25000 166.217
52.26000 166.488
52.27000 166.637
52.28000 163.141
52.29000 157.940
52.30000 153.068
52.31000 152.626
52.32000 153.578
52.33000 154.437
52.34000 155.706
52.35000 156.894
52.36000 157.893
52.37000 157.984
52.38000 157.956
52.39000 157.288
52.40000 154.592
52.41000 151.748
52.42000 149.792
52.43000 164.981
52.44000 176.800
52.45000 179.891
52.46000 170.553
52.47000 161.123
52.48000 155.364
52.49000 152.967
52.50000 150.593
52.51000 154.812
52.52000 162.819
52.53000 170.404
52.54000 168.983
52.55000 163.930
52.56000 158.951
52.57000 154.756
52.58000 150.774
52.59000 147.262
52.60000 153.573
52.61000 160.507
52.62000 165.507
52.63000 162.604
52.64000 158.855
52.65000 155.909
52.66000 155.156
52.67000 154.527
52.68000 154.117
52.69000 149.560
52.70000 146.151
52.71000 147.676
52.72000 155.198
52.73000 162.721
52.74000 167.001
52.75000 168.758
52.76000 170.486
52.77000 166.296
52.78000 159.283
52.79000 152.797
52.80000 154.767
52.81000 159.681
52.82000 164.314
52.83000 166.495
52.84000 168.108
52.85000 169.495
52.86000 164.923
52.87000 160.307
52.88000 156.425
52.89000 155.113
52.90000 154.024
52.91000 153.511
52.92000 154.358
52.93000 155.261
52.94000 155.818
52.95000 159.568
52.96000 162.287
52.97000 161.932
52.98000 158.416
52.99000 154.969
53.00000 158.558
53.01000 166.828
53.02000 174.890
53.03000 176.745
53.04000 175.874
53.05000 174.658
53.06000 169.129
53.07000 162.307
53.08000 156.357
53.09000 156.671
53.10000 158.220
53.11000 159.516
53.12000 156.450
53.13000 153.459
53.14000 151.750
53.15000 153.908
53.16000 156.329
53.17000 158.966
53.18000 162.040
53.19000 165.127
53.20000 166.907
53.21000 163.680
53.22000 161.402
53.23000 160.482
53.24000 160.741
53.25000 160.929
53.26000 157.268
53.27000 151.406
53.28000 145.754
53.29000 149.658
53.30000 156.787
53.31000 163.290
53.32000 163.541
53.33000 162.180
53.34000 161.236
53.35000 162.794
53.36000 164.770
53.37000 166.371
53.38000 160.649
53.39000 155.390
53.40000 153.023
53.41000 158.184
53.42000 163.734
53.43000 165.624
53.44000 161.100
53.45000 156.458
53.46000 153.971
53.47000 156.693
53.48000 158.552
53.49000 159.815
53.50000 160.637
53.51000 161.397
53.52000 160.023
53.53000 157.598
53.54000 155.291
53.55000 155.780
53.56000 157.093
53.57000 158.531
53.58000 160.996
53.59000 163.687
53.60000 165.411
53.61000 162.228
53.62000 158.360
53.63000 155.332
53.64000 156.481
53.65000 157.667
53.66000 158.366
53.67000 157.971
53.68000 157.534
53.69000 157.338
53.70000 157.505
53.71000 157.676
53.72000 157.165
53.73000 155.989
53.74000 154.804
53.75000 152.858
53.76000 150.428
53.77000 148.035
53.78000 146.508
53.79000 145.350
53.80000 144.265
53.81000 146.479
53.82000 149.352
53.83000 152.286
53.84000 155.629
53.85000 159.048
53.86000 162.003
53.87000 162.948
53.88000 163.662
53.89000 164.199
53.90000 158.160
53.91000 153.110
53.92000 149.908
53.93000 150.290
53.94000 150.764
53.95000 151.821
53.96000 153.628
53.97000 155.436
53.98000 156.241
53.99000 156.220
54.00000 156.196
54.01000 155.998
54.02000 155.705
54.03000 155.549
54.04000 157.804
54.05000 160.945
54.06000 163.837
54.07000 164.102
54.08000 163.762
54.09000 162.909
54.10000 159.137
54.11000 154.905
54.12000 151.274
54.13000 149.870
54.14000 148.674
54.15000 147.810
54.16000 158.174
54.17000 166.527
54.18000 170.237
54.19000 166.194
54.20000 162.031
54.21000 159.778
54.22000 159.614
54.23000 159.452
54.24000 158.458
54.25000 156.896
54.26000 155.416
54.27000 156.472
54.28000 158.718
54.29000 160.899
54.30000 162.180
54.31000 163.177
54.32000 164.078
54.33000 161.194
54.34000 157.965
54.35000 155.157
54.36000 154.379
54.37000 153.869
54.38000 154.173
54.39000 157.064
54.40000 160.147
54.41000 162.272
54.42000 166.281
54.43000 169.339
54.44000 171.701
54.45000 173.068
54.46000 174.425
54.47000 172.804
54.48000 168.438
54.49000 164.113
54.50000 165.214
54.51000 169.502
54.52000 173.364
54.53000 168.006
54.54000 158.907
54.55000 150.661
54.56000 151.636
54.57000 155.121
54.58000 158.198
54.59000 158.860
54.60000 159.062
54.61000 158.708
54.62000 156.072
54.63000 153.188
54.64000 150.846
54.65000 149.987
54.66000 149.214
54.67000 148.708
54.68000 149.032
54.69000 149.284
54.70000 151.427
54.71000 155.885
54.72000 160.335
54.73000 160.893
54.74000 158.404
54.75000 155.955
54.76000 154.874
54.77000 154.514
54.78000 154.253
54.79000 155.589
54.80000 157.483
54.81000 159.308
54.82000 160.528
54.83000 161.606
54.84000 162.534
54.85000 161.583
54.86000 160.539
54.87000 159.991
54.88000 161.192
54.89000 162.544
54.90000 162.873
54.91000 160.777
54.92000 158.578
54.93000 157.222
54.94000 153.237
54.95000 150.352
54.96000 151.543
54.97000 156.955
54.98000 162.335
54.99000 164.208
55.00000 163.734
55.01000 163.272
55.02000 162.202
55.03000 160.919
55.04000 159.808
55.05000 160.859
55.06000 162.563
55.07000 164.384
55.08000 167.047
55.09000 169.878
55.10000 172.247
55.11000 169.557
55.12000 166.801
55.13000 164.893
55.14000 165.563
55.15000 166.409
55.16000 166.326
55.17000 164.344
55.18000 162.306
55.19000 161.127
55.20000 169.086
55.21000 174.697
55.22000 175.693
55.23000 172.656
55.24000 169.680
55.25000 170.188
55.26000 172.698
55.27000 175.119
55.28000 175.366
55.29000 174.807
55.30000 174.088
55.31000 171.759
55.32000 169.014
55.33000 167.073
55.34000 170.002
55.35000 173.749
55.36000 176.790
55.37000 181.012
55.38000 184.552
55.39000 186.932
55.40000 186.277
55.41000 185.463
55.42000 185.967
55.43000 188.797
55.44000 191.669
55.45000 193.214
55.46000 194.781
55.47000 195.885
55.48000 203.465
55.49000 215.865
55.50000 227.998
55.51000 230.796
55.52000 228.968
55.53000 227.227
55.54000 236.852
55.55000 249.282
55.56000 260.883
55.57000 265.667
55.58000 268.939
55.59000 274.319
55.60000 290.472
55.61000 308.140
55.62000 321.992
55.63000 345.693
55.64000 365.278
55.65000 381.060
55.66000 388.248
55.67000 395.108
55.68000 407.789
55.69000 429.289
55.70000 450.879
55.71000 471.583
55.72000 491.419
55.73000 511.170
55.74000 523.834
55.75000 531.980
55.76000 540.387
55.77000 555.115
55.78000 572.548
55.79000 588.897
55.80000 594.277
55.81000 596.302
55.82000 598.906
55.83000 605.454
55.84000 612.746
55.85000 620.513
55.86000 630.351
55.87000 640.429
55.88000 648.034
55.89000 646.397
55.90000 644.656
55.91000 642.367
55.92000 639.009
55.93000 635.624
55.94000 622.883
55.95000 598.020
55.96000 573.137
55.97000 563.734
55.98000 567.167
55.99000 570.196
56.00000 554.144
56.01000 527.628
56.02000 501.622
56.03000 484.743
56.04000 471.236
56.05000 458.787
56.06000 438.233
56.07000 418.042
56.08000 398.952
56.09000 386.168
56.10000 374.385
56.11000 361.670
56.12000 345.483
56.13000 328.967
56.14000 317.019
56.15000 303.486
56.16000 293.041
56.17000 284.803
56.18000 280.274
56.19000 275.803
56.20000 267.801
56.21000 255.911
56.22000 244.069
56.23000 231.508
56.24000 218.570
56.25000 205.954
56.26000 203.340
56.27000 205.455
56.28000 207.109
56.29000 202.425
56.30000 195.721
56.31000 189.663
56.32000 185.436
56.33000 182.058
56.34000 179.430
56.35000 180.439
56.36000 181.930
56.37000 182.479
56.38000 180.014
56.39000 177.323
56.40000 175.466
56.41000 171.320
56.42000 168.145
56.43000 166.631
56.44000 167.510
56.45000 168.408
56.46000 170.510
56.47000 173.728
56.48000 176.918
56.49000 177.481
56.50000 176.471
56.51000 175.410
56.52000 173.244
56.53000 170.627
56.54000 167.815
56.55000 162.888
56.56000 157.380
56.57000 152.513
56.58000 153.014
56.59000 154.274
56.60000 155.133
56.61000 154.334
56.62000 153.354
56.63000 152.572
56.64000 152.339
56.65000 152.138
56.66000 152.006
56.67000 152.604
56.68000 153.056
56.69000 152.104
56.70000 149.422
56.71000 146.751
56.72000 148.472
56.73000 153.655
56.74000 158.755
56.75000 158.374
56.76000 155.229
56.77000 152.194
56.78000 150.951
56.79000 150.340
56.80000 149.766
56.81000 149.506
56.82000 149.321
56.83000 149.162
56.84000 148.752
56.85000 148.373
56.86000 148.463
56.87000 150.214
56.88000 152.112
56.89000 155.506
56.90000 162.466
56.91000 169.579
56.92000 173.979
56.93000 165.502
56.94000 159.289
56.95000 154.078
56.96000 149.914
56.97000 145.794
56.98000 146.362
56.99000 150.087
57.00000 153.722
57.01000 150.736
57.02000 145.028
57.03000 139.700
57.04000 139.199
57.05000 140.164
57.06000 141.251
57.07000 143.227
57.08000 145.382
57.09000 147.188
57.10000 148.743
57.11000 150.010
57.12000 151.431
57.13000 153.320
57.14000 155.241
57.15000 157.766
57.16000 161.531
57.17000 165.333
57.18000 167.537
57.19000 165.190
57.20000 163.522
57.21000 160.934
57.22000 157.534
57.23000 154.167
57.24000 152.707
57.25000 152.350
57.26000 152.005
57.27000 151.903
57.28000 151.896
57.29000 152.027
57.30000 153.568
57.31000 155.476
57.32000 156.787
57.33000 154.464
57.34000 151.526
57.35000 149.139
57.36000 149.132
57.37000 149.325
57.38000 149.364
57.39000 148.999
57.40000 148.612
57.41000 146.961
57.42000 143.067
57.43000 139.129
57.44000 137.006
57.45000 143.496
57.46000 147.925
57.47000 148.648
57.48000 146.595
57.49000 144.533
57.50000 142.160
57.51000 139.632
57.52000 137.223
57.53000 135.057
57.54000 133.125
57.55000 131.805
57.56000 135.562
57.57000 140.453
57.58000 144.398
57.59000 143.476
57.60000 141.866
57.61000 140.601
57.62000 141.517
57.63000 142.393
57.64000 142.217
57.65000 139.646
57.66000 136.983
57.67000 136.138
57.68000 138.062
57.69000 140.016
57.70000 141.218
57.71000 141.677
57.72000 142.138
57.73000 142.718
57.74000 143.374
57.75000 143.954
57.76000 142.650
57.77000 140.536
57.78000 138.551
57.79000 144.079
57.80000 151.099
57.81000 157.098
57.82000 156.083
57.83000 153.737
57.84000 151.300
57.85000 148.467
57.86000 145.588
57.87000 143.412
57.88000 149.042
57.89000 153.849
57.90000 155.118
57.91000 149.446
57.92000 143.591
57.93000 139.829
57.94000 138.798
57.95000 137.780
57.96000 136.827
57.97000 135.930
57.98000 135.063
57.99000 135.566
58.00000 136.825
58.01000 138.230
58.02000 142.257
58.03000 147.260
58.04000 151.874
58.05000 149.236
58.06000 145.259
58.07000 142.278
58.08000 145.036
58.09000 148.713
58.10000 150.523
58.11000 145.335
58.12000 139.480
58.13000 135.237
58.14000 137.846
58.15000 140.104
58.16000 142.749
58.17000 146.048
58.18000 149.357
58.19000 148.149
58.20000 141.933
58.21000 135.738
58.22000 133.518
58.23000 134.124
58.24000 134.865
58.25000 139.858
58.26000 146.872
58.27000 153.105
58.28000 148.474
58.29000 140.362
58.30000 133.025
58.31000 133.637
58.32000 135.659
58.33000 137.571
58.34000 138.947
58.35000 140.252
58.36000 141.601
58.37000 143.094
58.38000 144.598
58.39000 145.638
58.40000 146.927
58.41000 147.903
58.42000 145.703
58.43000 138.892
58.44000 132.044
58.45000 130.322
58.46000 133.391
58.47000 136.433
58.48000 136.072
58.49000 133.677
58.50000 131.600
58.51000 136.566
58.52000 144.425
58.53000 151.651
58.54000 151.921
58.55000 150.273
58.56000 148.816
58.57000 147.126
58.58000 145.630
58.59000 143.876
58.60000 141.050
58.61000 138.106
58.62000 136.613
58.63000 139.151
58.64000 141.924
58.65000 143.746
58.66000 141.084
58.67000 139.049
58.68000 138.935
58.69000 141.200
58.70000 143.472
58.71000 145.968
58.72000 148.641
58.73000 151.272
58.74000 148.452
58.75000 142.941
58.76000 137.791
58.77000 138.627
58.78000 141.586
58.79000 143.902
58.80000 140.497
58.81000 135.740
58.82000 131.636
58.83000 130.791
58.84000 130.492
58.85000 130.382
58.86000 130.949
58.87000 131.575
58.88000 132.505
58.89000 134.162
58.90000 135.850
58.91000 136.897
58.92000 136.462
58.93000 136.135
58.94000 134.937
58.95000 132.826
58.96000 130.734
58.97000 130.759
58.98000 132.217
58.99000 133.641
59.00000 135.899
59.01000 138.420
59.02000 140.678
59.03000 139.561
59.04000 137.413
59.05000 135.580
59.06000 136.064
59.07000 137.014
59.08000 137.812
59.09000 139.878
59.10000 141.731
59.11000 142.486
59.12000 139.871
59.13000 137.019
59.14000 135.053
59.15000 134.920
59.16000 134.843
59.17000 134.798
59.18000 137.282
59.19000 139.036
59.20000 138.462
59.21000 135.825
59.22000 133.223
59.23000 132.666
59.24000 133.299
59.25000 133.911
59.26000 133.790
59.27000 133.406
59.28000 133.067
59.29000 133.201
59.30000 133.459
59.31000 133.465
59.32000 131.927
59.33000 130.125
59.34000 128.659
59.35000 134.169
59.36000 139.254
59.37000 142.061
59.38000 138.834
59.39000 135.285
59.40000 133.341
59.41000 134.261
59.42000 135.238
59.43000 135.767
59.44000 134.240
59.45000 133.203
59.46000 134.415
59.47000 137.323
59.48000 140.104
59.49000 138.328
59.50000 134.266
59.51000 130.393
59.52000 132.990
59.53000 137.427
59.54000 141.753
59.55000 145.164
59.56000 148.369
59.57000 150.251
59.58000 145.292
59.59000 139.355
59.60000 134.687
59.61000 126.900
59.62000 120.460
59.63000 117.432
59.64000 122.212
59.65000 127.297
59.66000 130.514
59.67000 130.866
59.68000 131.187
59.69000 131.997
59.70000 133.294
59.71000 134.556
59.72000 132.760
59.73000 128.990
59.74000 125.439
59.75000 127.336
59.76000 131.593
59.77000 135.590
59.78000 136.304
59.79000 136.084
59.80000 136.052
59.81000 137.323
59.82000 138.844
59.83000 139.991
59.84000 139.490
59.85000 138.795
59.86000 138.269
59.87000 138.301
59.88000 138.354
59.89000 137.784
59.90000 135.981
59.91000 134.146
59.92000 131.566
59.93000 128.008
59.94000 124.450
59.95000 124.383
59.96000 127.244
59.97000 130.125
59.98000 133.981
59.99000 138.378
60.00000 142.408
60.01000 139.713
60.02000 134.505
60.03000 129.697
60.04000 130.982
60.05000 133.499
60.06000 136.057
60.07000 138.855
60.08000 141.692
60.09000 143.136
60.10000 139.334
60.11000 135.028
60.12000 131.901
60.13000 133.145
60.14000 134.266
60.15000 134.431
60.16000 132.970
60.17000 131.482
60.18000 130.653
60.19000 130.560
60.20000 130.468
60.21000 132.392
60.22000 135.729
60.23000 138.920
60.24000 137.449
60.25000 133.748
60.26000 130.182
60.27000 128.520
60.28000 127.473
60.29000 126.524
60.30000 128.742
60.31000 131.290
60.32000 133.093
60.33000 131.236
60.34000 128.887
60.35000 127.430
60.36000 128.863
60.37000 130.519
60.38000 131.666
60.39000 135.651
60.40000 138.726
60.41000 141.390
60.42000 143.454
60.43000 145.512
60.44000 144.937
60.45000 141.884
60.46000 138.858
60.47000 138.365
60.48000 139.408
60.49000 140.378
60.50000 139.674
60.51000 138.279
60.52000 136.885
60.53000 135.510
60.54000 134.140
60.55000 132.927
60.56000 129.100
60.57000 125.380
60.58000 122.217
60.59000 121.384
60.60000 120.810
60.61000 121.701
60.62000 126.688
60.63000 131.917
60.64000 135.359
60.65000 137.481
60.66000 139.021
60.67000 139.901
60.68000 139.958
60.69000 140.009
60.70000 139.165
60.71000 137.607
60.72000 136.073
60.73000 134.145
60.74000 132.073
60.75000 130.156
60.76000 130.829
60.77000 132.425
60.78000 134.072
60.79000 136.178
60.80000 138.393
60.81000 140.306
60.82000 134.482
60.83000 128.538
60.84000 124.920
60.85000 129.650
60.86000 135.129
60.87000 137.946
60.88000 134.347
60.89000 130.465
60.90000 128.051
60.91000 127.793
60.92000 127.628
60.93000 129.693
60.94000 134.115
60.95000 138.504
60.96000 139.065
60.97000 137.016
60.98000 135.015
60.99000 133.313
61.00000 131.815
61.01000 130.475
61.02000 131.186
61.03000 132.526
61.04000 134.175
61.05000 138.103
61.06000 142.493
61.07000 146.181
61.08000 143.419
61.09000 140.438
61.10000 138.313
61.11000 138.835
61.12000 139.544
61.13000 139.442
61.14000 137.651
61.15000 135.808
61.16000 134.734
61.17000 144.102
61.18000 150.730
61.19000 149.993
61.20000 142.684
61.21000 135.498
61.22000 135.592
61.23000 139.949
61.24000 144.158
61.25000 140.884
61.26000 135.018
61.27000 129.912
61.28000 132.673
61.29000 137.512
61.30000 141.561
61.31000 140.727
61.32000 139.055
61.33000 137.693
61.34000 135.505
61.35000 133.647
61.36000 132.864
61.37000 134.949
61.38000 137.190
61.39000 139.607
61.40000 142.340
61.41000 145.080
61.42000 146.567
61.43000 142.335
61.44000 139.449
61.45000 141.213
61.46000 146.503
61.47000 151.755
61.48000 155.619
61.49000 158.783
61.50000 161.799
61.51000 173.906
61.52000 188.008
61.53000 201.912
61.54000 214.151
61.55000 226.013
61.56000 238.510
61.57000 254.310
61.58000 270.584
61.59000 283.400
61.60000 296.627
61.61000 307.253
61.62000 316.476
61.63000 322.470
61.64000 328.335
61.65000 333.370
61.66000 337.120
61.67000 340.857
61.68000 342.726
61.69000 336.082
61.70000 331.669
61.71000 328.898
61.72000 327.194
61.73000 325.388
61.74000 321.014
61.75000 315.521
61.76000 310.360
61.77000 295.520
61.78000 279.390
61.79000 262.766
61.80000 242.705
61.81000 221.983
61.82000 204.126
61.83000 198.963
61.84000 195.311
61.85000 192.542
61.86000 178.712
61.87000 167.284
61.88000 159.417
61.89000 158.624
61.90000 158.024
61.91000 157.364
61.92000 156.623
61.93000 155.883
61.94000 154.003
61.95000 151.166
61.96000 148.349
61.97000 146.575
61.98000 145.384
61.99000 144.146
62.00000 142.068
62.01000 139.673
62.02000 137.461
62.03000 143.061
62.04000 149.847
62.05000 155.231
62.06000 152.425
62.07000 148.291
62.08000 144.312
62.09000 140.927
62.10000 137.599
62.11000 135.178
62.12000 134.720
62.13000 134.442
62.14000 135.303
62.15000 138.112
62.16000 140.954
62.17000 143.207
62.18000 144.799
62.19000 146.384
62.20000 147.585
62.21000 148.499
62.22000 149.324
62.23000 147.235
62.24000 143.742
62.25000 140.533
62.26000 141.341
62.27000 143.453
62.28000 145.365
62.29000 145.407
62.30000 145.089
62.31000 144.539
62.32000 142.836
62.33000 140.977
62.34000 139.215
62.35000 137.767
62.36000 136.344
62.37000 135.355
62.38000 129.872
62.39000 125.621
62.40000 125.694
62.41000 132.120
62.42000 138.602
62.43000 142.040
62.44000 142.591
62.45000 143.138
62.46000 144.033
62.47000 145.122
62.48000 146.074
62.49000 143.908
62.50000 140.447
62.51000 137.303
62.52000 137.707
62.53000 139.102
62.54000 140.338
62.55000 142.784
62.56000 145.091
62.57000 146.744
62.58000 145.638
62.59000 144.225
62.60000 143.971
62.61000 146.978
62.62000 150.181
62.63000 152.293
62.64000 145.983
62.65000 141.183
62.66000 141.157
62.67000 147.124
62.68000 153.094
62.69000 153.594
62.70000 149.699
62.71000 145.861
62.72000 147.051
62.73000 150.802
62.74000 154.445
62.75000 156.258
62.76000 157.416
62.77000 158.045
62.78000 153.889
62.79000 148.588
62.80000 144.005
62.81000 143.098
62.82000 142.806
62.83000 142.379
62.84000 141.462
62.85000 140.501
62.86000 141.336
62.87000 146.529
62.88000 151.916
62.89000 155.273
62.90000 151.609
62.91000 148.897
62.92000 146.193
62.93000 143.498
62.94000 140.829
62.95000 141.280
62.96000 143.871
62.97000 146.402
62.98000 150.336
62.99000 154.716
63.00000 158.295
63.01000 151.353
63.02000 141.158
63.03000 132.817
63.04000 138.302
63.05000 146.608
63.06000 153.594
63.07000 152.819
63.08000 151.346
63.09000 150.015
63.10000 149.122
63.11000 148.260
63.12000 147.367
63.13000 146.412
63.14000 145.455
63.15000 144.895
63.16000 141.816
63.17000 139.638
63.18000 138.461
63.19000 138.183
63.20000 137.909
63.21000 137.842
63.22000 137.899
63.23000 137.953
63.24000 140.634
63.25000 144.143
63.26000 147.365
63.27000 147.583
63.28000 147.002
63.29000 146.726
63.30000 148.343
63.31000 150.287
63.32000 151.873
63.33000 153.734
63.34000 155.279
63.35000 156.209
63.36000 155.493
63.37000 154.686
63.38000 154.397
63.39000 155.043
63.40000 155.707
63.41000 156.069
63.42000 156.371
63.43000 156.566
63.44000 154.019
63.45000 149.377
63.46000 144.924
63.47000 147.509
63.48000 153.666
63.49000 159.542
63.50000 159.576
63.51000 157.751
63.52000 155.859
63.53000 153.400
63.54000 150.812
63.55000 149.215
63.56000 152.816
63.57000 157.170
63.58000 160.604
63.59000 161.288
63.60000 161.652
63.61000 161.364
63.62000 159.569
63.63000 157.714
63.64000 156.529
63.65000 156.384
63.66000 156.252
63.67000 156.185
63.68000 156.017
63.69000 155.910
63.70000 156.291
63.71000 156.991
63.72000 157.605
63.73000 156.037
63.74000 153.512
63.75000 151.138
63.76000 151.827
63.77000 153.281
63.78000 154.578
63.79000 154.776
63.80000 154.762
63.81000 153.290
63.82000 145.318
63.83000 136.566
63.84000 129.919
63.85000 139.066
63.86000 147.074
63.87000 153.848
63.88000 158.156
63.89000 162.394
63.90000 163.047
63.91000 158.933
63.92000 154.798
63.93000 155.407
63.94000 160.047
63.95000 164.573
63.96000 163.216
63.97000 158.557
63.98000 154.002
63.99000 151.427
64.00000 149.601
64.01000 147.912
64.02000 149.520
64.03000 151.712
64.04000 153.281
64.05000 151.180
64.06000 148.480
64.07000 147.022
64.08000 150.301
64.09000 154.044
64.10000 156.771
64.11000 160.296
64.12000 163.041
64.13000 163.600
64.14000 160.395
64.15000 157.124
64.16000 155.985
64.17000 157.255
64.18000 158.523
64.19000 160.785
64.20000 163.741
64.21000 166.534
64.22000 163.945
64.23000 158.750
64.24000 154.019
64.25000 155.949
64.26000 160.053
64.27000 163.773
64.28000 162.876
64.29000 161.205
64.30000 160.393
64.31000 163.857
64.32000 167.904
64.33000 170.300
64.34000 167.279
64.35000 163.835
64.36000 161.439
64.37000 160.723
64.38000 160.229
64.39000 162.659
64.40000 169.414
64.41000 176.208
64.42000 179.419
64.43000 179.210
64.44000 179.003
64.45000 175.918
64.46000 171.129
64.47000 166.403
64.48000 163.141
64.49000 160.491
64.50000 158.357
64.51000 162.058
64.52000 167.399
64.53000 172.136
64.54000 173.885
64.55000 174.925
64.56000 176.189
64.57000 178.403
64.58000 180.724
64.59000 181.787
64.60000 179.296
64.61000 176.589
64.62000 174.799
64.63000 170.783
64.64000 167.779
64.65000 166.412
64.66000 167.112
64.67000 167.827
64.68000 171.398
64.69000 177.280
64.70000 183.075
64.71000 184.748
64.72000 184.229
64.73000 183.857
64.74000 186.019
64.75000 189.095
64.76000 191.446
64.77000 187.181
64.78000 181.324
64.79000 176.255
64.80000 176.446
64.81000 177.300
64.82000 179.056
64.83000 184.093
64.84000 189.428
64.85000 193.173
64.86000 193.039
64.87000 192.729
64.88000 192.535
64.89000 193.953
64.90000 194.993
64.91000 195.106
64.92000 194.224
64.93000 193.360
64.94000 194.739
64.95000 197.668
64.96000 200.529
64.97000 202.466
64.98000 203.911
64.99000 205.084
65.00000 202.651
65.01000 199.095
65.02000 196.339
65.03000 199.587
65.04000 204.069
65.05000 207.843
65.06000 214.151
65.07000 219.686
65.08000 222.639
65.09000 217.518
65.10000 211.812
65.11000 211.734
65.12000 223.510
65.13000 235.665
65.14000 242.790
65.15000 244.732
65.16000 246.074
65.17000 248.653
65.18000 252.348
65.19000 256.098
65.20000 263.237
65.21000 272.385
65.22000 281.231
65.23000 291.942
65.24000 302.754
65.25000 312.737
65.26000 313.992
65.27000 312.911
65.28000 313.466
65.29000 324.263
65.30000 336.842
65.31000 347.116
65.32000 354.991
65.33000 361.229
65.34000 367.151
65.35000 372.218
65.36000 377.238
65.37000 385.748
65.38000 400.598
65.39000 415.581
65.40000 423.760
65.41000 419.767
65.42000 417.021
65.43000 417.703
65.44000 421.019
65.45000 424.431
65.46000 431.513
65.47000 440.468
65.48000 449.018
65.49000 447.531
65.50000 442.939
65.51000 439.197
65.52000 442.728
65.53000 447.925
65.54000 452.365
65.55000 452.804
65.56000 452.660
65.57000 452.546
65.58000 471.052
65.59000 487.173
65.60000 497.190
65.61000 492.997
65.62000 488.223
65.63000 491.806
65.64000 508.445
65.65000 525.239
65.66000 533.699
65.67000 566.769
65.68000 589.027
65.69000 626.201
65.70000 673.179
65.71000 720.563
65.72000 778.503
65.73000 841.094
65.74000 899.983
65.75000 976.784
65.76000 1051.824
65.77000 1124.130
65.78000 1177.078
65.79000 1226.254
65.80000 1271.042
65.81000 1296.134
65.82000 1318.846
65.83000 1336.124
65.84000 1361.022
65.85000 1381.009
65.86000 1392.313
65.87000 1386.169
65.88000 1379.532
65.89000 1365.235
65.90000 1340.689
65.91000 1316.109
65.92000 1280.018
65.93000 1234.153
65.94000 1188.003
65.95000 1126.921
65.96000 1057.402
65.97000 987.074
65.98000 901.419
65.99000 809.930
66.00000 725.300
66.01000 654.846
66.02000 594.796
66.03000 538.082
66.04000 501.130
66.05000 467.431
66.06000 436.351
66.07000 415.326
66.08000 395.293
66.09000 380.671
66.10000 359.369
66.11000 342.690
66.12000 333.971
66.13000 339.038
66.14000 344.348
66.15000 345.097
66.16000 340.653
66.17000 336.219
66.18000 332.966
66.19000 330.595
66.20000 328.270
66.21000 327.433
66.22000 327.321
66.23000 328.057
66.24000 341.042
66.25000 358.049
66.26000 373.481
66.27000 387.838
66.28000 400.305
66.29000 412.531
66.30000 423.553
66.31000 434.410
66.32000 445.030
66.33000 454.871
66.34000 464.650
66.35000 471.469
66.36000 487.885
66.37000 500.539
66.38000 511.646
66.39000 520.450
66.40000 529.231
66.41000 529.784
66.42000 522.432
66.43000 515.138
66.44000 510.466
66.45000 507.490
66.46000 504.527
66.47000 501.883
66.48000 499.373
66.49000 495.953
66.50000 482.159
66.51000 465.433
66.52000 450.585
66.53000 436.813
66.54000 425.048
66.55000 412.340
66.56000 395.603
66.57000 378.408
66.58000 365.712
66.59000 365.809
66.60000 366.689
66.61000 367.273
66.62000 349.622
66.63000 336.255
66.64000 331.273
66.65000 336.953
66.66000 342.663
66.67000 345.341
66.68000 345.552
66.69000 345.759
66.70000 342.961
66.71000 338.672
66.72000 334.814
66.73000 338.422
66.74000 344.739
66.75000 350.578
66.76000 352.004
66.77000 352.362
66.78000 352.672
66.79000 346.515
66.80000 340.419
66.81000 335.769
66.82000 336.404
66.83000 337.525
66.84000 340.339
66.85000 347.308
66.86000 354.466
66.87000 358.949
66.88000 355.326
66.89000 352.624
66.90000 354.294
66.91000 360.686
66.92000 367.045
66.93000 369.189
66.94000 368.405
66.95000 367.638
66.96000 367.791
66.97000 368.347
66.98000 369.153
66.99000 373.299
67.00000 378.491
67.01000 383.247
67.02000 384.698
67.03000 385.467
67.04000 386.115
67.05000 391.070
67.06000 395.673
67.07000 397.766
67.08000 391.961
67.09000 385.581
67.10000 382.261
67.11000 385.428
67.12000 388.805
67.13000 390.791
67.14000 395.045
67.15000 398.057
67.16000 402.192
67.17000 407.349
67.18000 412.382
67.19000 409.560
67.20000 402.051
67.21000 394.788
67.22000 401.667
67.23000 413.521
67.24000 424.885
67.25000 431.052
67.26000 435.820
67.27000 439.665
67.28000 437.686
67.29000 434.688
67.30000 432.235
67.31000 428.598
67.32000 425.515
67.33000 425.258
67.34000 432.663
67.35000 440.498
67.36000 441.966
67.37000 431.801
67.38000 421.389
67.39000 415.687
67.40000 434.417
67.41000 447.288
67.42000 449.160
67.43000 442.527
67.44000 436.281
67.45000 445.057
67.46000 461.549
67.47000 477.304
67.48000 475.381
67.49000 467.902
67.50000 460.891
67.51000 457.918
67.52000 455.876
67.53000 455.340
67.54000 462.811
67.55000 471.459
67.56000 478.299
67.57000 480.480
67.58000 481.912
67.59000 484.057
67.60000 487.871
67.61000 491.754
67.62000 494.442
67.63000 495.251
67.64000 496.037
67.65000 496.435
67.66000 475.230
67.67000 461.249
67.68000 467.720
67.69000 487.720
67.70000 507.292
67.71000 515.599
67.72000 518.912
67.73000 522.031
67.74000 518.783
67.75000 514.075
67.76000 510.602
67.77000 515.936
67.78000 522.999
67.79000 529.651
67.80000 534.451
67.81000 539.026
67.82000 542.512
67.83000 541.710
67.84000 540.851
67.85000 542.440
67.86000 548.975
67.87000 555.653
67.88000 559.405
67.89000 559.219
67.90000 559.011
67.91000 562.034
67.92000 567.834
67.93000 573.571
67.94000 575.967
67.95000 576.463
67.96000 576.784
67.97000 573.733
67.98000 569.392
67.99000 565.374
68.00000 580.519
68.01000 598.549
68.02000 614.689
68.03000 619.552
68.04000 622.546
68.05000 623.208
68.06000 614.857
68.07000 605.611
68.08000 598.849
68.09000 607.450
68.10000 614.690
68.11000 620.505
68.12000 623.834
68.13000 627.118
68.14000 629.237
68.15000 630.020
68.16000 630.798
68.17000 633.693
68.18000 638.108
68.19000 642.732
68.20000 654.502
68.21000 669.773
68.22000 684.189
68.23000 686.114
68.24000 683.914
68.25000 681.916
68.26000 684.419
68.27000 687.501
68.28000 691.576
68.29000 700.661
68.30000 710.440
68.31000 718.081
68.32000 718.620
68.33000 718.594
68.34000 718.576
68.35000 729.027
68.36000 737.216
68.37000 748.299
68.38000 763.714
68.39000 779.171
68.40000 794.002
68.41000 808.228
68.42000 822.344
68.43000 829.198
68.44000 831.439
68.45000 834.057
68.46000 845.601
68.47000 860.920
68.48000 875.614
68.49000 883.116
68.50000 888.573
68.51000 893.422
68.52000 918.089
68.53000 942.684
68.54000 968.356
68.55000 998.653
68.56000 1029.479
68.57000 1062.222
68.58000 1100.448
68.59000 1139.014
68.60000 1164.622
68.61000 1232.893
68.62000 1284.150
68.63000 1348.398
68.64000 1429.273
68.65000 1510.210
68.66000 1591.253
68.67000 1672.384
68.68000 1752.378
68.69000 1807.260
68.70000 1847.359
68.71000 1889.039
68.72000 1958.381
68.73000 2037.824
68.74000 2116.982
68.75000 2193.484
68.76000 2269.339
68.77000 2335.125
68.78000 2405.045
68.79000 2465.136
68.80000 2534.832
68.81000 2639.865
68.82000 2748.179
68.83000 2895.085
68.84000 3137.273
68.85000 3383.886
68.86000 3538.670
68.87000 4109.327
68.88000 4526.315
68.89000 5185.369
68.90000 6107.484
68.91000 7036.137
68.92000 8802.212
68.93000 11153.934
68.94000 13453.442
68.95000 17471.248
68.96000 22093.719
68.97000 26823.172
68.98000 32996.438
68.99000 39624.355
69.00000 46232.211
69.01000 52687.098
69.02000 59110.152
69.03000 64531.563
69.04000 69507.531
69.05000 73617.125
69.06000 77175.641
69.07000 78990.281
69.08000 80676.461
69.09000 81946.313
69.10000 82328.656
69.11000 82681.688
69.12000 82889.758
69.13000 83669.633
69.14000 84223.125
69.15000 84791.078
69.16000 85372.289
69.17000 85936.758
69.18000 85413.570
69.19000 84237.672
69.20000 83099.688
69.21000 80137.813
69.22000 76643.461
69.23000 73115.039
69.24000 69221.523
69.25000 65229.129
69.26000 61287.277
69.27000 57666.563
69.28000 54102.469
69.29000 51183.602
69.30000 48456.098
69.31000 46237.008
69.32000 44278.574
69.33000 43031.395
69.34000 41824.566
69.35000 40532.691
69.36000 39084.461
69.37000 37632.836
69.38000 36835.535
69.39000 33149.852
69.40000 30606.844
69.41000 27667.172
69.42000 24418.754
69.43000 21178.805
69.44000 18272.982
69.45000 15539.845
69.46000 12927.434
69.47000 10674.592
69.48000 8695.348
69.49000 6799.872
69.50000 5633.160
69.51000 4635.475
69.52000 3721.329
69.53000 3254.371
69.54000 2853.608
69.55000 2536.201
69.56000 2326.976
69.57000 2166.302
69.58000 2019.296
69.59000 1904.491
69.60000 1791.036
69.61000 1697.928
69.62000 1637.005
69.63000 1576.484
69.64000 1545.785
69.65000 1463.654
69.66000 1408.778
69.67000 1368.358
69.68000 1337.561
69.69000 1306.708
69.70000 1274.353
69.71000 1241.328
69.72000 1210.216
69.73000 1169.154
69.74000 1128.843
69.75000 1090.366
69.76000 1065.063
69.77000 1042.361
69.78000 1021.025
69.79000 1005.899
69.80000 991.535
69.81000 980.573
69.82000 967.661
69.83000 957.381
69.84000 942.713
69.85000 919.119
69.86000 895.266
69.87000 879.112
69.88000 873.393
69.89000 867.735
69.90000 862.321
69.91000 857.128
69.92000 851.893
69.93000 844.396
69.94000 835.605
69.95000 826.719
69.96000 815.969
69.97000 804.501
69.98000 793.878
69.99000 784.462
70.00000 776.271
