20.00000 549.682
20.01000 545.795
20.02000 541.352
20.03000 538.619
20.04000 542.524
20.05000 547.094
20.06000 550.440
20.07000 545.259
20.08000 540.919
20.09000 542.438
20.10000 554.212
20.11000 566.175
20.12000 572.240
20.13000 571.508
20.14000 570.770
20.15000 563.413
20.16000 551.262
20.17000 539.460
20.18000 539.647
20.19000 545.736
20.20000 551.221
20.21000 547.813
20.22000 541.453
20.23000 535.674
20.24000 543.715
20.25000 553.511
20.26000 561.248
20.27000 558.552
20.28000 554.401
20.29000 551.500
20.30000 552.773
20.31000 554.380
20.32000 555.504
20.33000 546.354
20.34000 539.147
20.35000 534.088
20.36000 532.260
20.37000 530.465
20.38000 531.171
20.39000 534.310
20.40000 537.425
20.41000 537.235
20.42000 534.991
20.43000 533.078
20.44000 539.083
20.45000 548.454
20.46000 557.078
20.47000 557.045
20.48000 554.538
20.49000 552.308
20.50000 544.893
20.51000 537.615
20.52000 531.138
20.53000 528.120
20.54000 525.500
20.55000 526.123
20.56000 536.069
20.57000 546.597
20.58000 553.600
20.59000 561.093
20.60000 566.645
20.61000 565.331
20.62000 555.185
20.63000 545.026
20.64000 544.194
20.65000 551.046
20.66000 557.802
20.67000 553.605
20.68000 543.727
20.69000 534.313
20.70000 533.096
20.71000 534.887
20.72000 536.845
20.73000 540.361
20.74000 544.259
20.75000 547.643
20.76000 546.664
20.77000 545.244
20.78000 543.752
20.79000 541.991
20.80000 540.206
20.81000 538.412
20.82000 536.598
20.83000 534.783
20.84000 533.642
20.85000 545.188
20.86000 553.680
20.87000 556.132
20.88000 551.983
20.89000 547.842
20.90000 545.248
20.91000 543.740
20.92000 542.266
20.93000 544.897
20.94000 549.271
20.95000 552.963
20.96000 547.382
20.97000 538.867
20.98000 531.819
20.99000 536.028
21.00000 542.592
21.01000 548.137
21.02000 542.419
21.03000 536.401
21.04000 532.432
21.05000 534.974
21.06000 538.000
21.07000 541.052
21.08000 544.160
21.09000 547.270
21.10000 549.107
21.11000 540.579
21.12000 534.502
21.13000 535.778
21.14000 543.831
21.15000 551.735
21.16000 549.788
21.17000 541.900
21.18000 534.263
21.19000 531.619
21.20000 531.032
21.21000 531.053
21.22000 537.627
21.23000 545.983
21.24000 552.242
21.25000 545.093
21.26000 535.567
21.27000 527.758
21.28000 529.376
21.29000 531.538
21.30000 533.508
21.31000 534.951
21.32000 536.365
21.33000 538.927
21.34000 543.614
21.35000 548.347
21.36000 550.953
21.37000 549.107
21.38000 547.843
21.39000 550.904
21.40000 557.349
21.41000 563.491
21.42000 557.555
21.43000 545.345
21.44000 533.671
21.45000 536.523
21.46000 543.911
21.47000 550.439
21.48000 549.435
21.49000 546.676
21.50000 544.363
21.51000 544.451
21.52000 544.897
21.53000 545.250
21.54000 544.714
21.55000 544.220
21.56000 545.597
21.57000 551.399
21.58000 557.389
21.59000 558.733
21.60000 552.693
21.61000 546.559
21.62000 543.439
21.63000 542.904
21.64000 542.589
21.65000 546.709
21.66000 553.796
21.67000 560.587
21.68000 559.382
21.69000 554.593
21.70000 550.079
21.71000 549.304
21.72000 549.627
21.73000 549.958
21.74000 550.346
21.75000 550.745
21.76000 551.239
21.77000 552.167
21.78000 553.147
21.79000 553.897
21.80000 558.822
21.81000 562.932
21.82000 566.170
21.83000 567.626
21.84000 569.030
21.85000 573.301
21.86000 581.478
21.87000 589.673
21.88000 594.867
21.89000 597.434
21.90000 600.008
21.91000 602.879
21.92000 605.921
21.93000 608.890
21.94000 610.436
21.95000 611.430
21.96000 612.352
21.97000 615.288
21.98000 618.400
21.99000 623.129
22.00000 637.628
22.01000 653.767
22.02000 664.021
22.03000 651.282
22.04000 636.220
22.05000 625.173
22.06000 645.044
22.07000 661.644
22.08000 671.380
22.09000 669.025
22.10000 666.444
22.11000 662.140
22.12000 655.838
22.13000 649.553
22.14000 642.872
22.15000 635.947
22.16000 629.152
22.17000 626.898
22.18000 626.893
22.19000 626.756
22.20000 624.638
22.21000 621.858
22.22000 619.330
22.23000 611.214
22.24000 602.942
22.25000 595.422
22.26000 591.751
22.27000 588.621
22.28000 587.098
22.29000 590.973
22.30000 595.284
22.31000 598.305
22.32000 579.449
22.33000 564.553
22.34000 556.823
22.35000 559.940
22.36000 563.168
22.37000 565.364
22.38000 566.548
22.39000 567.724
22.40000 560.005
22.41000 546.841
22.42000 534.159
22.43000 533.180
22.44000 537.206
22.45000 540.837
22.46000 539.859
22.47000 537.556
22.48000 535.506
22.49000 523.572
22.50000 511.589
22.51000 502.506
22.52000 506.021
22.53000 510.998
22.54000 515.960
22.55000 520.880
22.56000 525.798
22.57000 529.076
22.58000 530.785
22.59000 532.020
22.60000 532.577
22.61000 532.256
22.62000 531.921
22.63000 526.800
22.64000 517.710
22.65000 508.744
22.66000 510.519
22.67000 517.968
22.68000 524.995
22.69000 524.469
22.70000 521.154
22.71000 517.897
22.72000 515.174
22.73000 512.584
22.74000 510.333
22.75000 512.678
22.76000 515.300
22.77000 517.318
22.78000 517.085
22.79000 516.640
22.80000 514.970
22.81000 510.243
22.82000 505.371
22.83000 502.300
22.84000 500.102
22.85000 498.520
22.86000 499.848
22.87000 504.375
22.88000 508.880
22.89000 510.092
22.90000 508.973
22.91000 507.879
22.92000 505.402
22.93000 502.397
22.94000 499.726
22.95000 501.655
22.96000 505.048
22.97000 508.372
22.98000 511.164
22.99000 513.844
23.00000 516.111
23.01000 510.590
23.02000 505.108
23.03000 501.542
23.04000 504.101
23.05000 507.119
23.06000 510.050
23.07000 512.791
23.08000 515.526
23.09000 517.145
23.10000 512.647
23.11000 509.431
23.12000 503.573
23.13000 495.263
23.14000 487.069
23.15000 486.738
23.16000 491.178
23.17000 495.478
23.18000 501.761
23.19000 508.470
23.20000 514.980
23.21000 519.322
23.22000 523.070
23.23000 525.605
23.24000 520.335
23.25000 513.672
23.26000 508.202
23.27000 508.218
23.28000 508.721
23.29000 508.895
23.30000 508.162
23.31000 507.375
23.32000 505.860
23.33000 502.992
23.34000 500.093
23.35000 498.492
23.36000 509.202
23.37000 516.577
23.38000 514.626
23.39000 505.331
23.40000 496.231
23.41000 495.052
23.42000 498.012
23.43000 500.845
23.44000 495.999
23.45000 488.968
23.46000 483.005
23.47000 486.469
23.48000 492.145
23.49000 497.049
23.50000 497.767
23.51000 497.857
23.52000 497.929
23.53000 497.934
23.54000 497.934
23.55000 496.783
23.56000 492.895
23.57000 488.890
23.58000 486.000
23.59000 484.893
23.60000 483.811
23.61000 483.258
23.62000 498.968
23.63000 509.392
23.64000 506.751
23.65000 495.316
23.66000 484.551
23.67000 492.137
23.68000 507.995
23.69000 522.950
23.70000 526.344
23.71000 526.239
23.72000 524.814
23.73000 513.778
23.74000 500.821
23.75000 491.709
23.76000 500.280
23.77000 511.055
23.78000 519.300
23.79000 524.895
23.80000 529.165
23.81000 529.878
23.82000 523.281
23.83000 516.465
23.84000 514.209
23.85000 518.204
23.86000 522.234
23.87000 523.002
23.88000 520.904
23.89000 518.876
23.90000 520.801
23.91000 525.013
23.92000 529.299
23.93000 535.068
23.94000 541.415
23.95000 547.302
23.96000 539.438
23.97000 529.126
23.98000 520.139
23.99000 519.212
24.00000 519.647
24.01000 518.941
24.02000 513.746
24.03000 508.093
24.04000 503.939
24.05000 512.562
24.06000 519.751
24.07000 523.395
24.08000 520.756
24.09000 517.997
24.10000 518.339
24.11000 522.300
24.12000 526.256
24.13000 523.278
24.14000 515.171
24.15000 507.347
24.16000 509.599
24.17000 516.872
24.18000 522.982
24.19000 511.605
24.20000 494.354
24.21000 478.653
24.22000 485.910
24.23000 496.864
24.24000 506.069
24.25000 506.290
24.26000 505.239
24.27000 502.073
24.28000 491.768
24.29000 480.880
24.30000 473.233
24.31000 485.229
24.32000 494.885
24.33000 499.370
24.34000 495.977
24.35000 492.501
24.36000 485.684
24.37000 475.572
24.38000 465.532
24.39000 470.326
24.40000 484.398
24.41000 497.918
24.42000 497.901
24.43000 492.063
24.44000 486.306
24.45000 481.523
24.46000 477.020
24.47000 473.009
24.48000 479.218
24.49000 486.299
24.50000 491.910
24.51000 491.095
24.52000 489.528
24.53000 487.534
24.54000 484.297
24.55000 480.980
24.56000 478.764
24.57000 469.374
24.58000 462.276
24.59000 465.230
24.60000 481.285
24.61000 497.363
24.62000 497.079
24.63000 483.140
24.64000 469.386
24.65000 466.605
24.66000 469.784
24.67000 473.004
24.68000 476.953
24.69000 481.173
24.70000 484.700
24.71000 481.640
24.72000 476.946
24.73000 472.863
24.74000 481.579
24.75000 490.762
24.76000 496.537
24.77000 489.551
24.78000 481.351
24.79000 476.000
24.80000 477.805
24.81000 479.953
24.82000 481.310
24.83000 475.280
24.84000 470.823
24.85000 468.642
24.86000 468.979
24.87000 469.320
24.88000 469.814
24.89000 470.418
24.90000 471.009
24.91000 471.788
24.92000 472.623
24.93000 473.205
24.94000 470.296
24.95000 466.268
24.96000 462.832
24.97000 464.005
24.98000 466.155
24.99000 467.976
25.00000 468.301
25.01000 468.407
25.02000 467.668
25.03000 464.211
25.04000 460.548
25.05000 457.244
25.06000 454.717
25.07000 452.217
25.08000 450.732
25.09000 451.997
25.10000 452.910
25.11000 457.632
25.12000 465.912
25.13000 474.102
25.14000 476.064
25.15000 474.224
25.16000 472.440
25.17000 470.698
25.18000 469.065
25.19000 467.363
25.20000 464.905
25.21000 462.239
25.22000 460.173
25.23000 461.995
25.24000 464.517
25.25000 466.589
25.26000 459.852
25.27000 453.523
25.28000 449.733
25.29000 452.987
25.30000 456.653
25.31000 460.023
25.32000 462.837
25.33000 465.639
25.34000 467.191
25.35000 462.513
25.36000 459.288
25.37000 460.748
25.38000 465.922
25.39000 471.012
25.40000 472.646
25.41000 472.463
25.42000 472.289
25.43000 467.998
25.44000 462.640
25.45000 458.037
25.46000 460.147
25.47000 463.843
25.48000 466.552
25.49000 463.882
25.50000 460.399
25.51000 457.630
25.52000 459.853
25.53000 462.001
25.54000 464.754
25.55000 468.960
25.56000 473.228
25.57000 472.984
25.58000 465.478
25.59000 457.875
25.60000 453.981
25.61000 444.166
25.62000 437.669
25.63000 442.065
25.64000 453.839
25.65000 465.168
25.66000 464.125
25.67000 457.472
25.68000 451.194
25.69000 449.333
25.70000 448.864
25.71000 448.341
25.72000 447.427
25.73000 446.435
25.74000 446.494
25.75000 451.420
25.76000 456.956
25.77000 461.200
25.78000 453.305
25.79000 446.398
25.80000 443.693
25.81000 449.674
25.82000 455.921
25.83000 461.918
25.84000 467.572
25.85000 473.220
25.86000 470.661
25.87000 460.848
25.88000 451.160
25.89000 448.766
25.90000 450.613
25.91000 452.271
25.92000 450.113
25.93000 446.461
25.94000 443.071
25.95000 440.671
25.96000 438.741
25.97000 437.924
25.98000 443.929
25.99000 451.094
26.00000 457.415
26.01000 460.391
26.02000 463.023
26.03000 464.961
26.04000 459.876
26.05000 455.651
26.06000 452.107
26.07000 449.779
26.08000 447.476
26.09000 448.752
26.10000 454.238
26.11000 459.714
26.12000 462.380
26.13000 462.926
26.14000 463.337
26.15000 458.865
26.16000 451.947
26.17000 445.254
26.18000 441.993
26.19000 439.891
26.20000 437.977
26.21000 444.491
26.22000 451.936
26.23000 457.705
26.24000 454.805
26.25000 450.668
26.26000 449.267
26.27000 457.157
26.28000 465.813
26.29000 471.905
26.30000 461.527
26.31000 453.174
26.32000 448.644
26.33000 449.974
26.34000 451.366
26.35000 452.382
26.36000 453.024
26.37000 453.662
26.38000 450.464
26.39000 444.881
26.40000 439.510
26.41000 439.406
26.42000 441.580
26.43000 443.820
26.44000 446.845
26.45000 450.099
26.46000 453.001
26.47000 455.096
26.48000 456.784
26.49000 456.505
26.50000 447.566
26.51000 437.607
26.52000 429.818
26.53000 428.380
26.54000 427.352
26.55000 426.663
26.56000 429.974
26.57000 432.510
26.58000 436.871
26.59000 443.628
26.60000 450.380
26.61000 449.455
26.62000 442.081
26.63000 434.802
26.64000 431.495
26.65000 430.418
26.66000 429.599
26.67000 433.480
26.68000 439.117
26.69000 444.146
26.70000 443.355
26.71000 441.110
26.72000 439.155
26.73000 439.319
26.74000 439.750
26.75000 441.108
26.76000 445.958
26.77000 451.143
26.78000 454.157
26.79000 451.686
26.80000 448.949
26.81000 447.216
26.82000 448.806
26.83000 449.999
26.84000 449.732
26.85000 447.837
26.86000 445.959
26.87000 446.798
26.88000 449.583
26.89000 452.309
26.90000 449.344
26.91000 443.881
26.92000 438.382
26.93000 432.389
26.94000 426.237
26.95000 421.124
26.96000 424.173
26.97000 428.963
26.98000 433.024
26.99000 437.887
27.00000 442.053
27.01000 444.908
27.02000 443.516
27.03000 441.800
27.04000 440.293
27.05000 439.240
27.06000 438.203
27.07000 437.585
27.08000 440.715
27.09000 442.955
27.10000 444.321
27.11000 444.867
27.12000 445.366
27.13000 442.532
27.14000 437.650
27.15000 432.918
27.16000 428.191
27.17000 423.717
27.18000 419.680
27.19000 420.493
27.20000 422.650
27.21000 424.669
27.22000 425.784
27.23000 426.735
27.24000 427.518
27.25000 431.676
27.26000 435.401
27.27000 438.399
27.28000 439.366
27.29000 440.213
27.30000 439.015
27.31000 433.971
27.32000 428.836
27.33000 425.984
27.34000 436.456
27.35000 443.694
27.36000 442.549
27.37000 434.719
27.38000 427.176
27.39000 431.746
27.40000 442.722
27.41000 453.234
27.42000 449.661
27.43000 441.649
27.44000 434.855
27.45000 438.987
27.46000 445.714
27.47000 450.681
27.48000 445.981
27.49000 439.809
27.50000 434.895
27.51000 430.633
27.52000 427.244
27.53000 426.058
27.54000 430.182
27.55000 434.540
27.56000 434.958
27.57000 429.000
27.58000 422.953
27.59000 419.847
27.60000 427.331
27.61000 432.335
27.62000 433.531
27.63000 432.134
27.64000 430.769
27.65000 430.291
27.66000 430.219
27.67000 430.151
27.68000 434.380
27.69000 439.471
27.70000 443.285
27.71000 437.665
27.72000 430.134
27.73000 425.077
27.74000 431.547
27.75000 439.476
27.76000 445.563
27.77000 434.336
27.78000 424.494
27.79000 417.846
27.80000 417.842
27.81000 418.044
27.82000 415.931
27.83000 410.603
27.84000 405.257
27.85000 408.883
27.86000 420.493
27.87000 431.991
27.88000 436.883
27.89000 437.908
27.90000 438.548
27.91000 431.365
27.92000 421.100
27.93000 411.565
27.94000 408.957
27.95000 408.254
27.96000 407.623
27.97000 407.432
27.98000 407.317
27.99000 408.487
28.00000 414.778
28.01000 421.598
28.02000 426.627
28.03000 418.656
28.04000 411.938
28.05000 409.284
28.06000 413.920
28.07000 418.701
28.08000 425.639
28.09000 435.128
28.10000 444.596
28.11000 442.810
28.12000 432.563
28.13000 422.516
28.14000 419.828
28.15000 420.851
28.16000 421.534
28.17000 417.006
28.18000 410.708
28.19000 404.966
28.20000 410.728
28.21000 418.138
28.22000 424.873
28.23000 428.093
28.24000 430.807
28.25000 433.550
28.26000 436.388
28.27000 439.234
28.28000 441.240
28.29000 429.802
28.30000 420.721
28.31000 417.647
28.32000 423.835
28.33000 430.126
28.34000 430.177
28.35000 423.985
28.36000 417.836
28.37000 417.249
28.38000 420.226
28.39000 422.792
28.40000 414.969
28.41000 402.625
28.42000 391.278
28.43000 391.919
28.44000 396.068
28.45000 399.772
28.46000 400.992
28.47000 401.637
28.48000 402.793
28.49000 406.205
28.50000 409.885
28.51000 413.464
28.52000 416.744
28.53000 420.006
28.54000 422.194
28.55000 411.136
28.56000 402.660
28.57000 399.790
28.58000 404.320
28.59000 408.881
28.60000 410.660
28.61000 410.088
28.62000 409.523
28.63000 406.426
28.64000 402.035
28.65000 398.048
28.66000 401.538
28.67000 407.837
28.68000 413.798
28.69000 416.486
28.70000 418.351
28.71000 419.977
28.72000 415.213
28.73000 410.257
28.74000 407.677
28.75000 414.104
28.76000 421.404
28.77000 424.874
28.78000 418.617
28.79000 411.881
28.80000 407.605
28.81000 416.816
28.82000 423.668
28.83000 423.885
28.84000 416.653
28.85000 409.470
28.86000 410.863
28.87000 418.436
28.88000 425.854
28.89000 425.456
28.90000 421.458
28.91000 417.612
28.92000 415.895
28.93000 414.870
28.94000 413.507
28.95000 409.484
28.96000 404.889
28.97000 400.990
28.98000 402.795
28.99000 404.957
29.00000 404.918
29.01000 397.713
29.02000 389.954
29.03000 389.020
29.04000 403.056
29.05000 417.623
29.06000 426.318
29.07000 419.502
29.08000 414.571
29.09000 411.632
29.10000 410.577
29.11000 409.525
29.12000 408.617
29.13000 407.799
29.14000 407.005
29.15000 406.808
29.16000 406.855
29.17000 407.000
29.18000 408.226
29.19000 409.753
29.20000 411.378
29.21000 413.646
29.22000 416.032
29.23000 417.997
29.24000 413.434
29.25000 409.081
29.26000 405.832
29.27000 405.684
29.28000 405.721
29.29000 407.233
29.30000 411.534
29.31000 415.901
29.32000 418.334
29.33000 407.542
29.34000 400.062
29.35000 397.525
29.36000 398.956
29.37000 400.275
29.38000 396.787
29.39000 390.742
29.40000 384.949
29.41000 394.612
29.42000 408.799
29.43000 421.022
29.44000 415.474
29.45000 405.677
29.46000 397.445
29.47000 397.871
29.48000 399.623
29.49000 401.020
29.50000 400.422
29.51000 399.794
29.52000 399.587
29.53000 400.400
29.54000 401.258
29.55000 403.152
29.56000 406.736
29.57000 410.343
29.58000 412.203
29.59000 404.286
29.60000 398.994
29.61000 398.607
29.62000 401.583
29.63000 404.564
29.64000 407.667
29.65000 410.826
29.66000 413.811
29.67000 406.185
29.68000 396.174
29.69000 388.376
29.70000 397.055
29.71000 409.094
29.72000 417.382
29.73000 408.074
29.74000 396.524
29.75000 387.643
29.76000 394.808
29.77000 401.382
29.78000 402.855
29.79000 393.656
29.80000 384.120
29.81000 383.966
29.82000 396.916
29.83000 409.948
29.84000 411.453
29.85000 402.622
29.86000 393.956
29.87000 395.191
29.88000 402.255
29.89000 409.111
29.90000 411.664
29.91000 412.512
29.92000 413.301
29.93000 402.182
29.94000 389.291
29.95000 379.191
29.96000 386.443
29.97000 396.688
29.98000 405.194
29.99000 406.735
30.00000 407.549
30.01000 408.149
30.02000 413.238
30.03000 417.373
30.04000 420.254
30.05000 420.872
30.06000 421.444
30.07000 422.949
30.08000 425.564
30.09000 428.175
30.10000 428.876
30.11000 428.124
30.12000 427.235
30.13000 421.265
30.14000 412.718
30.15000 404.965
30.16000 409.543
30.17000 418.337
30.18000 426.360
30.19000 421.144
30.20000 413.847
30.21000 408.076
30.22000 410.303
30.23000 413.687
30.24000 414.903
30.25000 408.663
30.26000 401.796
30.27000 396.946
30.28000 405.257
30.29000 411.968
30.30000 412.758
30.31000 404.360
30.32000 395.857
30.33000 392.965
30.34000 395.725
30.35000 398.466
30.36000 401.692
30.37000 405.181
30.38000 408.542
30.39000 408.629
30.40000 407.283
30.41000 406.626
30.42000 414.326
30.43000 424.488
30.44000 433.566
30.45000 425.857
30.46000 416.312
30.47000 408.770
30.48000 410.149
30.49000 412.597
30.50000 415.008
30.51000 417.306
30.52000 419.597
30.53000 421.138
30.54000 418.130
30.55000 415.802
30.56000 414.332
30.57000 414.004
30.58000 413.682
30.59000 413.247
30.60000 412.716
30.61000 412.192
30.62000 413.580
30.63000 415.978
30.64000 418.134
30.65000 415.756
30.66000 411.663
30.67000 408.082
30.68000 409.475
30.69000 412.127
30.70000 414.440
30.71000 412.120
30.72000 409.488
30.73000 407.102
30.74000 405.654
30.75000 404.297
30.76000 405.617
30.77000 413.777
30.78000 422.279
30.79000 427.689
30.80000 428.943
30.81000 429.801
30.82000 431.510
30.83000 434.179
30.84000 436.858
30.85000 440.942
30.86000 446.045
30.87000 451.045
30.88000 449.070
30.89000 443.924
30.90000 439.408
30.91000 443.896
30.92000 451.321
30.93000 458.541
30.94000 464.134
30.95000 469.377
30.96000 473.831
30.97000 479.633
30.98000 484.659
30.99000 489.178
31.00000 492.042
31.01000 494.776
31.02000 500.170
31.03000 511.431
31.04000 522.903
31.05000 529.769
31.06000 559.735
31.07000 581.154
31.08000 597.049
31.09000 607.678
31.10000 618.675
31.11000 657.145
31.12000 712.697
31.13000 766.597
31.14000 798.148
31.15000 819.215
31.16000 843.131
31.17000 899.189
31.18000 964.266
31.19000 1029.598
31.20000 1096.622
31.21000 1163.957
31.22000 1219.507
31.23000 1286.784
31.24000 1343.271
31.25000 1407.844
31.26000 1495.254
31.27000 1584.046
31.28000 1668.491
31.29000 1744.663
31.30000 1820.636
31.31000 1863.089
31.32000 1958.948
31.33000 2025.419
31.34000 2081.380
31.35000 2128.846
31.36000 2175.735
31.37000 2197.299
31.38000 2205.314
31.39000 2212.999
31.40000 2190.488
31.41000 2159.301
31.42000 2130.108
31.43000 2119.091
31.44000 2112.446
31.45000 2099.048
31.46000 2048.051
31.47000 1991.251
31.48000 1945.898
31.49000 1875.482
31.50000 1816.771
31.51000 1746.746
31.52000 1649.141
31.53000 1550.289
31.54000 1463.297
31.55000 1395.739
31.56000 1328.462
31.57000 1293.665
31.58000 1195.329
31.59000 1128.983
31.60000 1059.310
31.61000 987.341
31.62000 916.036
31.63000 864.027
31.64000 820.924
31.65000 780.173
31.66000 745.146
31.67000 714.601
31.68000 684.052
31.69000 653.461
31.70000 622.863
31.71000 594.228
31.72000 574.862
31.73000 556.687
31.74000 542.691
31.75000 525.697
31.76000 512.071
31.77000 499.358
31.78000 488.568
31.79000 477.839
31.80000 468.904
31.81000 462.492
31.82000 456.099
31.83000 452.710
31.84000 452.036
31.85000 451.241
31.86000 442.924
31.87000 430.153
31.88000 418.055
31.89000 419.976
31.90000 427.484
31.91000 434.468
31.92000 429.618
31.93000 422.382
31.94000 414.715
31.95000 404.360
31.96000 393.537
31.97000 387.331
31.98000 399.733
31.99000 414.096
32.00000 424.721
32.01000 415.990
32.02000 408.385
32.03000 403.878
32.04000 404.994
32.05000 406.228
32.06000 402.654
32.07000 393.318
32.08000 383.992
32.09000 384.301
32.10000 391.961
32.11000 399.497
32.12000 402.312
32.13000 402.720
32.14000 403.128
32.15000 403.550
32.16000 403.977
32.17000 404.366
32.18000 409.320
32.19000 414.643
32.20000 418.270
32.21000 412.950
32.22000 406.326
32.23000 398.054
32.24000 384.082
32.25000 369.627
32.26000 359.398
32.27000 373.050
32.28000 384.163
32.29000 389.357
32.30000 385.311
32.31000 381.156
32.32000 379.943
32.33000 381.716
32.34000 383.477
32.35000 380.414
32.36000 374.271
32.37000 368.523
32.38000 373.023
32.39000 382.035
32.40000 390.077
32.41000 386.231
32.42000 378.863
32.43000 372.275
32.44000 367.273
32.45000 363.181
32.46000 361.779
32.47000 372.443
32.48000 384.563
32.49000 392.420
32.50000 387.578
32.51000 381.891
32.52000 378.060
32.53000 381.445
32.54000 384.113
32.55000 384.548
32.56000 381.999
32.57000 379.438
32.58000 379.033
32.59000 380.475
32.60000 381.901
32.61000 378.091
32.62000 371.496
32.63000 365.019
32.64000 360.799
32.65000 357.436
32.66000 354.623
32.67000 357.208
32.68000 361.167
32.69000 364.624
32.70000 363.627
32.71000 362.147
32.72000 360.882
32.73000 360.441
32.74000 360.082
32.75000 360.685
32.76000 363.763
32.77000 366.965
32.78000 369.008
32.79000 367.350
32.80000 366.098
32.81000 360.468
32.82000 349.860
32.83000 339.299
32.84000 337.278
32.85000 341.492
32.86000 345.622
32.87000 348.202
32.88000 349.958
32.89000 351.300
32.90000 346.651
32.91000 340.039
32.92000 334.667
32.93000 339.270
32.94000 346.042
32.95000 351.802
32.96000 340.593
32.97000 329.218
32.98000 323.617
32.99000 337.047
33.00000 351.975
33.01000 361.027
33.02000 357.039
33.03000 352.576
33.04000 349.897
33.05000 347.794
33.06000 346.304
33.07000 346.087
33.08000 347.093
33.09000 348.070
33.10000 346.870
33.11000 344.307
33.12000 341.820
33.13000 340.539
33.14000 339.805
33.15000 339.012
33.16000 337.544
33.17000 335.885
33.18000 334.504
33.19000 334.968
33.20000 335.773
33.21000 336.439
33.22000 336.460
33.23000 336.418
33.24000 337.941
33.25000 343.912
33.26000 350.155
33.27000 352.026
33.28000 345.524
33.29000 338.817
33.30000 335.058
33.31000 337.120
33.32000 338.559
33.33000 338.565
33.34000 337.405
33.35000 336.316
33.36000 338.388
33.37000 342.163
33.38000 345.783
33.39000 346.274
33.40000 345.672
33.41000 344.783
33.42000 341.264
33.43000 337.108
33.44000 333.683
33.45000 334.361
33.46000 335.677
33.47000 336.729
33.48000 336.791
33.49000 336.767
33.50000 338.611
33.51000 345.034
33.52000 351.667
33.53000 353.625
33.54000 347.875
33.55000 342.011
33.56000 338.968
33.57000 340.844
33.58000 342.090
33.59000 340.653
33.60000 337.353
33.61000 334.264
33.62000 337.390
33.63000 343.402
33.64000 349.090
33.65000 349.097
33.66000 347.469
33.67000 345.709
33.68000 342.937
33.69000 339.956
33.70000 338.209
33.71000 342.323
33.72000 347.195
33.73000 350.954
33.74000 338.010
33.75000 326.790
33.76000 321.704
33.77000 329.603
33.78000 337.925
33.79000 341.202
33.80000 337.344
33.81000 333.436
33.82000 331.558
33.83000 331.527
33.84000 331.533
33.85000 333.888
33.86000 337.643
33.87000 341.465
33.88000 346.718
33.89000 352.544
33.90000 357.968
33.91000 360.515
33.92000 362.118
33.93000 362.249
33.94000 353.104
33.95000 342.336
33.96000 333.316
33.97000 331.386
33.98000 330.209
33.99000 329.336
34.00000 335.629
34.01000 340.826
34.02000 343.774
34.03000 342.615
34.04000 341.369
34.05000 341.285
34.06000 342.604
34.07000 343.922
34.08000 341.875
34.09000 337.255
34.10000 332.728
34.11000 331.829
34.12000 332.791
34.13000 334.182
34.14000 342.358
34.15000 352.883
34.16000 362.500
34.17000 364.677
34.18000 365.090
34.19000 365.030
34.20000 362.465
34.21000 359.531
34.22000 356.395
34.23000 352.553
34.24000 348.651
34.25000 345.884
34.26000 346.807
34.27000 347.625
34.28000 349.983
34.29000 354.759
34.30000 359.564
34.31000 357.114
34.32000 347.254
34.33000 337.454
34.34000 338.863
34.35000 347.557
34.36000 355.812
34.37000 352.540
34.38000 344.163
34.39000 336.780
34.40000 341.704
34.41000 350.298
34.42000 357.988
34.43000 359.690
34.44000 360.151
34.45000 360.004
34.46000 357.116
34.47000 353.894
34.48000 351.653
34.49000 352.351
34.50000 353.247
34.51000 353.852
34.52000 347.264
34.53000 342.207
34.54000 339.398
34.55000 339.613
34.56000 339.842
34.57000 338.357
34.58000 335.393
34.59000 332.465
34.60000 332.124
34.61000 333.224
34.62000 334.348
34.63000 335.930
34.64000 337.688
34.65000 339.181
34.66000 338.052
34.67000 336.252
34.68000 334.679
34.69000 334.107
34.70000 333.760
34.71000 333.489
34.72000 333.509
34.73000 333.559
34.74000 332.412
34.75000 328.170
34.76000 323.770
34.77000 320.957
34.78000 321.415
34.79000 321.792
34.80000 317.708
34.81000 308.515
34.82000 299.389
34.83000 302.781
34.84000 315.368
34.85000 327.710
34.86000 323.507
34.87000 311.659
34.88000 300.759
34.89000 303.697
34.90000 311.201
34.91000 318.454
34.92000 323.673
34.93000 328.447
34.94000 332.511
34.95000 320.397
34.96000 308.329
34.97000 301.095
34.98000 309.891
34.99000 319.960
35.00000 325.570
35.01000 321.225
35.02000 316.512
35.03000 313.676
35.04000 310.685
35.05000 308.558
35.06000 307.338
35.07000 306.996
35.08000 306.694
35.09000 309.535
35.10000 314.355
35.11000 319.036
35.12000 319.899
35.13000 319.187
35.14000 318.943
35.15000 324.074
35.16000 330.732
35.17000 334.845
35.18000 321.855
35.19000 305.686
35.20000 292.313
35.21000 291.468
35.22000 291.953
35.23000 293.073
35.24000 296.009
35.25000 299.058
35.26000 302.371
35.27000 306.194
35.28000 310.031
35.29000 312.187
35.30000 318.380
35.31000 322.672
35.32000 320.651
35.33000 313.461
35.34000 306.405
35.35000 305.418
35.36000 307.718
35.37000 309.925
35.38000 310.680
35.39000 310.891
35.40000 310.883
35.41000 308.847
35.42000 306.318
35.43000 304.566
35.44000 307.208
35.45000 310.538
35.46000 313.205
35.47000 305.706
35.48000 298.879
35.49000 295.883
35.50000 302.340
35.51000 309.234
35.52000 312.933
35.53000 311.329
35.54000 309.646
35.55000 308.769
35.56000 308.001
35.57000 307.479
35.58000 306.452
35.59000 305.072
35.60000 303.712
35.61000 302.947
35.62000 302.460
35.63000 301.999
35.64000 299.773
35.65000 297.214
35.66000 295.327
35.67000 298.560
35.68000 302.858
35.69000 306.596
35.70000 307.655
35.71000 308.365
35.72000 308.913
35.73000 311.823
35.74000 314.269
35.75000 315.157
35.76000 312.727
35.77000 310.187
35.78000 308.575
35.79000 308.281
35.80000 307.998
35.81000 307.271
35.82000 306.139
35.83000 305.005
35.84000 303.828
35.85000 302.624
35.86000 301.494
35.87000 301.934
35.88000 303.007
35.89000 304.007
35.90000 309.124
35.91000 314.760
35.92000 318.967
35.93000 314.110
35.94000 307.655
35.95000 302.015
35.96000 299.701
35.97000 297.743
35.98000 296.290
35.99000 293.867
36.00000 291.941
36.01000 291.618
36.02000 294.241
36.03000 296.927
36.04000 297.291
36.05000 294.834
36.06000 292.375
36.07000 290.756
36.08000 289.795
36.09000 288.880
36.10000 289.757
36.11000 291.558
36.12000 293.206
36.13000 292.385
36.14000 290.706
36.15000 289.170
36.16000 291.624
36.17000 294.627
36.18000 296.229
36.19000 290.341
36.20000 283.345
36.21000 278.822
36.22000 282.958
36.23000 287.842
36.24000 291.311
36.25000 290.949
36.26000 290.551
36.27000 292.035
36.28000 296.494
36.29000 300.989
36.30000 299.681
36.31000 292.406
36.32000 285.173
36.33000 285.985
36.34000 292.064
36.35000 297.767
36.36000 293.469
36.37000 284.714
36.38000 276.855
36.39000 280.182
36.40000 286.864
36.41000 292.849
36.42000 295.413
36.43000 297.062
36.44000 297.411
36.45000 291.849
36.46000 285.563
36.47000 282.685
36.48000 290.082
36.49000 298.177
36.50000 303.653
36.51000 305.337
36.52000 306.508
36.53000 307.046
36.54000 306.725
36.55000 306.398
36.56000 304.124
36.57000 300.159
36.58000 296.241
36.59000 293.524
36.60000 291.542
36.61000 289.780
36.62000 292.275
36.63000 296.408
36.64000 299.986
36.65000 298.014
36.66000 294.612
36.67000 291.636
36.68000 287.781
36.69000 284.350
36.70000 282.734
36.71000 288.166
36.72000 294.303
36.73000 299.725
36.74000 303.283
36.75000 306.745
36.76000 308.963
36.77000 299.303
36.78000 292.106
36.79000 287.202
36.80000 284.943
36.81000 282.705
36.82000 283.767
36.83000 287.268
36.84000 290.702
36.85000 289.986
36.86000 287.327
36.87000 284.950
36.88000 286.738
36.89000 289.909
36.90000 292.797
36.91000 293.376
36.92000 293.446
36.93000 293.505
36.94000 288.983
36.95000 284.641
36.96000 283.225
36.97000 291.574
36.98000 300.707
36.99000 306.337
37.00000 304.101
37.01000 301.570
37.02000 300.044
37.03000 302.213
37.04000 303.784
37.05000 306.312
37.06000 309.771
37.07000 313.160
37.08000 310.872
37.09000 304.988
37.10000 299.272
37.11000 294.246
37.12000 289.749
37.13000 285.979
37.14000 290.622
37.15000 297.669
37.16000 303.777
37.17000 303.522
37.18000 302.077
37.19000 300.880
37.20000 292.954
37.21000 285.773
37.22000 282.951
37.23000 292.660
37.24000 303.153
37.25000 308.297
37.26000 303.073
37.27000 297.586
37.28000 294.493
37.29000 288.277
37.30000 283.961
37.31000 283.789
37.32000 287.031
37.33000 290.191
37.34000 289.540
37.35000 286.813
37.36000 284.194
37.37000 284.937
37.38000 286.787
37.39000 288.424
37.40000 288.081
37.41000 287.253
37.42000 286.669
37.43000 287.480
37.44000 288.510
37.45000 289.336
37.46000 285.497
37.47000 282.036
37.48000 279.775
37.49000 280.492
37.50000 281.350
37.51000 284.133
37.52000 290.132
37.53000 296.181
37.54000 299.340
37.55000 279.562
37.56000 266.266
37.57000 265.397
37.58000 273.266
37.59000 280.916
37.60000 281.941
37.61000 279.853
37.62000 277.875
37.63000 279.560
37.64000 282.179
37.65000 284.129
37.66000 280.946
37.67000 276.688
37.68000 274.157
37.69000 279.941
37.70000 286.817
37.71000 292.137
37.72000 291.132
37.73000 289.962
37.74000 288.274
37.75000 285.475
37.76000 282.638
37.77000 281.019
37.78000 281.142
37.79000 281.279
37.80000 279.712
37.81000 276.575
37.82000 273.543
37.83000 277.436
37.84000 285.508
37.85000 293.202
37.86000 292.747
37.87000 288.984
37.88000 285.478
37.89000 291.651
37.90000 299.623
37.91000 305.596
37.92000 298.780
37.93000 289.697
37.94000 282.529
37.95000 283.231
37.96000 284.784
37.97000 285.938
37.98000 282.572
37.99000 279.754
38.00000 281.085
38.01000 290.088
38.02000 299.260
38.03000 301.755
38.04000 296.087
38.05000 290.411
38.06000 288.279
38.07000 288.919
38.08000 289.515
38.09000 288.403
38.10000 286.401
38.11000 284.831
38.12000 290.244
38.13000 298.102
38.14000 305.294
38.15000 300.335
38.16000 293.403
38.17000 287.334
38.18000 285.915
38.19000 285.188
38.20000 284.663
38.21000 284.854
38.22000 285.106
38.23000 285.286
38.24000 291.026
38.25000 295.578
38.26000 299.315
38.27000 301.757
38.28000 304.183
38.29000 305.155
38.30000 304.624
38.31000 304.095
38.32000 305.309
38.33000 307.660
38.34000 310.151
38.35000 316.462
38.36000 324.486
38.37000 331.947
38.38000 332.317
38.39000 330.546
38.40000 328.959
38.41000 344.131
38.42000 360.294
38.43000 373.576
38.44000 373.678
38.45000 372.150
38.46000 375.534
38.47000 393.812
38.48000 413.112
38.49000 426.196
38.50000 452.010
38.51000 471.539
38.52000 491.352
38.53000 511.553
38.54000 531.762
38.55000 556.078
38.56000 583.984
38.57000 611.575
38.58000 644.452
38.59000 679.517
38.60000 714.615
38.61000 750.366
38.62000 786.370
38.63000 821.260
38.64000 844.924
38.65000 865.677
38.66000 883.856
38.67000 911.188
38.68000 935.953
38.69000 960.969
38.70000 986.971
38.71000 1013.071
38.72000 1032.795
38.73000 1035.832
38.74000 1037.997
38.75000 1039.387
38.76000 1018.439
38.77000 1002.856
38.78000 1000.671
38.79000 1014.035
38.80000 1027.292
38.81000 1016.344
38.82000 987.389
38.83000 958.977
38.84000 927.359
38.85000 895.348
38.86000 863.192
38.87000 828.861
38.88000 793.805
38.89000 758.997
38.90000 726.234
38.91000 693.925
38.92000 666.350
38.93000 636.247
38.94000 610.602
38.95000 582.736
38.96000 547.408
38.97000 511.476
38.98000 477.195
38.99000 446.644
39.00000 416.235
39.01000 397.846
39.02000 387.381
39.03000 379.982
39.04000 366.701
39.05000 347.657
39.06000 328.759
39.07000 321.963
39.08000 322.879
39.09000 323.769
39.10000 319.944
39.11000 314.393
39.12000 308.786
39.13000 302.530
39.14000 296.087
39.15000 290.462
39.16000 290.416
39.17000 291.420
39.18000 292.253
39.19000 287.531
39.20000 283.098
39.21000 281.452
39.22000 287.869
39.23000 294.796
39.24000 296.026
39.25000 286.148
39.26000 275.982
39.27000 270.235
39.28000 276.638
39.29000 281.117
39.30000 282.569
39.31000 281.510
39.32000 280.493
39.33000 281.459
39.34000 283.512
39.35000 285.484
39.36000 282.220
39.37000 277.356
39.38000 272.608
39.39000 268.954
39.40000 265.571
39.41000 263.367
39.42000 267.911
39.43000 273.526
39.44000 278.034
39.45000 266.500
39.46000 255.929
39.47000 250.557
39.48000 258.163
39.49000 266.385
39.50000 270.987
39.51000 269.508
39.52000 267.933
39.53000 267.108
39.54000 262.181
39.55000 258.883
39.56000 261.357
39.57000 267.913
39.58000 274.288
39.59000 275.063
39.60000 273.191
39.61000 271.417
39.62000 269.117
39.63000 266.845
39.64000 264.559
39.65000 262.174
39.66000 259.767
39.67000 258.606
39.68000 263.486
39.69000 269.165
39.70000 273.566
39.71000 265.856
39.72000 259.010
39.73000 255.248
39.74000 258.133
39.75000 261.244
39.76000 261.777
39.77000 258.595
39.78000 255.384
39.79000 256.521
39.80000 261.691
39.81000 266.767
39.82000 265.392
39.83000 260.102
39.84000 255.240
39.85000 259.749
39.86000 268.081
39.87000 275.854
39.88000 270.819
39.89000 263.080
39.90000 256.590
39.91000 258.142
39.92000 261.130
39.93000 263.307
39.94000 262.131
39.95000 260.591
39.96000 259.443
39.97000 258.781
39.98000 258.287
39.99000 258.303
40.00000 259.267
40.01000 260.251
40.02000 260.236
40.03000 258.991
40.04000 257.745
40.05000 259.311
40.06000 263.074
40.07000 266.822
40.08000 269.922
40.09000 272.686
40.10000 275.088
40.11000 271.574
40.12000 265.978
40.13000 260.851
40.14000 261.457
40.15000 263.194
40.16000 265.187
40.17000 268.571
40.18000 272.162
40.19000 273.839
40.20000 268.725
40.21000 263.015
40.22000 258.943
40.23000 258.546
40.24000 258.363
40.25000 259.645
40.26000 263.270
40.27000 266.926
40.28000 266.074
40.29000 260.522
40.30000 254.999
40.31000 255.462
40.32000 259.897
40.33000 264.205
40.34000 265.054
40.35000 264.343
40.36000 263.240
40.37000 257.163
40.38000 249.577
40.39000 242.769
40.40000 245.838
40.41000 250.249
40.42000 252.801
40.43000 246.799
40.44000 239.731
40.45000 235.962
40.46000 242.264
40.47000 249.264
40.48000 254.019
40.49000 260.822
40.50000 265.944
40.51000 264.727
40.52000 254.816
40.53000 244.858
40.54000 239.786
40.55000 239.013
40.56000 238.248
40.57000 243.037
40.58000 250.852
40.59000 258.487
40.60000 262.556
40.61000 265.238
40.62000 267.627
40.63000 267.045
40.64000 265.688
40.65000 264.498
40.66000 253.977
40.67000 243.590
40.68000 235.518
40.69000 236.554
40.70000 238.517
40.71000 241.806
40.72000 248.581
40.73000 255.540
40.74000 260.020
40.75000 248.225
40.76000 239.387
40.77000 234.396
40.78000 233.899
40.79000 233.420
40.80000 235.231
40.81000 238.758
40.82000 242.219
40.83000 242.574
40.84000 241.423
40.85000 240.511
40.86000 243.186
40.87000 247.066
40.88000 250.481
40.89000 250.040
40.90000 248.738
40.91000 247.626
40.92000 238.426
40.93000 229.709
40.94000 223.896
40.95000 227.895
40.96000 232.696
40.97000 236.773
40.98000 239.203
40.99000 241.569
41.00000 243.004
41.01000 247.977
41.02000 251.551
41.03000 251.263
41.04000 247.164
41.05000 243.103
41.06000 242.328
41.07000 243.660
41.08000 244.955
41.09000 244.384
41.10000 243.077
41.11000 241.935
41.12000 242.738
41.13000 244.102
41.14000 245.173
41.15000 244.220
41.16000 242.883
41.17000 241.773
41.18000 238.734
41.19000 236.035
41.20000 233.870
41.21000 233.258
41.22000 232.745
41.23000 232.548
41.24000 232.971
41.25000 233.410
41.26000 233.659
41.27000 235.242
41.28000 236.350
41.29000 238.552
41.30000 241.669
41.31000 244.685
41.32000 242.907
41.33000 238.484
41.34000 234.232
41.35000 232.165
41.36000 230.989
41.37000 229.987
41.38000 230.638
41.39000 231.699
41.40000 233.296
41.41000 237.983
41.42000 243.165
41.43000 247.331
41.44000 245.239
41.45000 243.060
41.46000 242.794
41.47000 247.332
41.48000 252.100
41.49000 253.470
41.50000 249.096
41.51000 244.630
41.52000 242.282
41.53000 245.276
41.54000 247.279
41.55000 244.999
41.56000 239.668
41.57000 234.475
41.58000 233.615
41.59000 234.815
41.60000 235.953
41.61000 235.477
41.62000 234.561
41.63000 233.833
41.64000 234.563
41.65000 235.602
41.66000 236.624
41.67000 237.564
41.68000 238.492
41.69000 239.213
41.70000 236.837
41.71000 234.762
41.72000 235.788
41.73000 243.535
41.74000 251.514
41.75000 255.542
41.76000 253.839
41.77000 252.089
41.78000 246.625
41.79000 237.694
41.80000 228.892
41.81000 229.000
41.82000 234.548
41.83000 239.778
41.84000 237.945
41.85000 233.213
41.86000 228.796
41.87000 230.329
41.88000 233.205
41.89000 235.981
41.90000 238.099
41.91000 240.098
41.92000 240.824
41.93000 236.248
41.94000 231.089
41.95000 227.241
41.96000 227.144
41.97000 227.239
41.98000 226.696
41.99000 224.958
42.00000 223.193
42.01000 223.260
42.02000 225.597
42.03000 227.936
42.04000 230.805
42.05000 234.078
42.06000 237.347
42.07000 240.410
42.08000 243.366
42.09000 245.867
42.10000 240.860
42.11000 233.192
42.12000 226.162
42.13000 227.943
42.14000 231.383
42.15000 234.623
42.16000 236.778
42.17000 238.769
42.18000 240.309
42.19000 240.239
42.20000 240.026
42.21000 239.875
42.22000 236.454
42.23000 233.736
42.24000 233.019
42.25000 235.524
42.26000 238.073
42.27000 238.548
42.28000 236.846
42.29000 235.154
42.30000 237.119
42.31000 241.508
42.32000 245.673
42.33000 243.582
42.34000 238.653
42.35000 234.034
42.36000 233.396
42.37000 233.974
42.38000 234.492
42.39000 230.192
42.40000 225.580
42.41000 222.711
42.42000 227.910
42.43000 234.122
42.44000 239.540
42.45000 242.519
42.46000 245.328
42.47000 247.240
42.48000 240.250
42.49000 234.825
42.50000 233.182
42.51000 236.759
42.52000 240.363
42.53000 238.075
42.54000 230.569
42.55000 223.143
42.56000 217.470
42.57000 212.923
42.58000 208.850
42.59000 214.316
42.60000 223.518
42.61000 232.049
42.62000 233.708
42.63000 233.564
42.64000 233.437
42.65000 232.362
42.66000 231.299
42.67000 229.950
42.68000 227.466
42.69000 224.865
42.70000 224.044
42.71000 227.937
42.72000 232.083
42.73000 234.758
42.74000 233.495
42.75000 232.517
42.76000 234.561
42.77000 240.160
42.78000 245.724
42.79000 242.775
42.80000 233.412
42.81000 224.218
42.82000 220.193
42.83000 218.809
42.84000 217.777
42.85000 222.084
42.86000 228.195
42.87000 233.384
42.88000 230.872
42.89000 226.631
42.90000 223.003
42.91000 220.710
42.92000 218.936
42.93000 218.504
42.94000 222.627
42.95000 227.126
42.96000 230.699
42.97000 232.152
42.98000 233.523
42.99000 234.356
43.00000 224.423
43.01000 217.249
43.02000 213.890
43.03000 214.322
43.04000 214.774
43.05000 216.925
43.06000 220.173
43.07000 223.332
43.08000 221.798
43.09000 218.406
43.10000 215.612
43.11000 219.939
43.12000 226.339
43.13000 231.789
43.14000 230.662
43.15000 228.280
43.16000 226.300
43.17000 226.894
43.18000 227.637
43.19000 227.838
43.20000 226.456
43.21000 224.971
43.22000 223.235
43.23000 221.000
43.24000 218.752
43.25000 217.474
43.26000 222.307
43.27000 225.687
43.28000 225.872
43.29000 223.372
43.30000 220.888
43.31000 219.239
43.32000 218.053
43.33000 216.913
43.34000 220.068
43.35000 224.531
43.36000 228.412
43.37000 226.714
43.38000 223.622
43.39000 221.644
43.40000 226.125
43.41000 231.645
43.42000 236.090
43.43000 232.960
43.44000 229.830
43.45000 227.433
43.46000 226.888
43.47000 226.434
43.48000 225.754
43.49000 224.692
43.50000 223.624
43.51000 223.060
43.52000 218.346
43.53000 215.163
43.54000 214.731
43.55000 216.272
43.56000 217.763
43.57000 217.683
43.58000 216.852
43.59000 216.063
43.60000 214.548
43.61000 212.934
43.62000 211.830
43.63000 214.722
43.64000 218.466
43.65000 221.576
43.66000 221.567
43.67000 221.139
43.68000 220.806
43.69000 219.738
43.70000 218.843
43.71000 218.220
43.72000 218.188
43.73000 218.176
43.74000 216.609
43.75000 212.772
43.76000 208.917
43.77000 208.337
43.78000 210.839
43.79000 213.345
43.80000 216.095
43.81000 218.997
43.82000 221.829
43.83000 223.097
43.84000 223.718
43.85000 224.299
43.86000 216.654
43.87000 207.651
43.88000 199.895
43.89000 200.289
43.90000 202.158
43.91000 204.599
43.92000 209.438
43.93000 214.541
43.94000 218.355
43.95000 217.667
43.96000 216.923
43.97000 216.188
43.98000 215.470
43.99000 214.753
44.00000 216.490
44.01000 221.288
44.02000 226.086
44.03000 225.327
44.04000 220.156
44.05000 215.116
44.06000 215.614
44.07000 219.040
44.08000 222.049
44.09000 218.062
44.10000 211.582
44.11000 205.637
44.12000 208.874
44.13000 213.704
44.14000 217.982
44.15000 219.222
44.16000 220.001
44.17000 219.870
44.18000 216.477
44.19000 212.791
44.20000 210.153
44.21000 217.205
44.22000 222.916
44.23000 225.623
44.24000 223.465
44.25000 221.241
44.26000 220.429
44.27000 221.111
44.28000 221.789
44.29000 219.898
44.30000 216.300
44.31000 212.940
44.32000 216.335
44.33000 222.812
44.34000 228.885
44.35000 229.709
44.36000 228.922
44.37000 228.214
44.38000 221.776
44.39000 215.122
44.40000 210.064
44.41000 212.440
44.42000 215.757
44.43000 218.525
44.44000 219.597
44.45000 220.549
44.46000 221.198
44.47000 223.747
44.48000 225.697
44.49000 228.962
44.50000 234.053
44.51000 239.151
44.52000 238.166
44.53000 231.756
44.54000 225.414
44.55000 226.193
44.56000 231.031
44.57000 235.684
44.58000 236.593
44.59000 236.026
44.60000 235.560
44.61000 236.135
44.62000 236.984
44.63000 237.729
44.64000 243.224
44.65000 248.648
44.66000 252.283
44.67000 248.793
44.68000 244.564
44.69000 240.405
44.70000 236.436
44.71000 232.477
44.72000 229.917
44.73000 228.186
44.74000 226.933
44.75000 227.935
44.76000 231.607
44.77000 235.295
44.78000 241.246
44.79000 248.915
44.80000 256.447
44.81000 258.591
44.82000 258.037
44.83000 257.401
44.84000 255.508
44.85000 253.188
44.86000 251.493
44.87000 255.066
44.88000 259.829
44.89000 263.908
44.90000 264.214
44.91000 264.014
44.92000 265.357
44.93000 271.972
44.94000 279.026
44.95000 282.678
44.96000 278.507
44.97000 274.025
44.98000 271.294
44.99000 277.297
45.00000 281.657
45.01000 283.646
45.02000 283.263
45.03000 282.955
45.04000 289.424
45.05000 300.292
45.06000 310.868
45.07000 312.009
45.08000 309.186
45.09000 306.721
45.10000 308.577
45.11000 311.698
45.12000 314.185
45.13000 312.258
45.14000 309.482
45.15000 307.172
45.16000 303.274
45.17000 299.890
45.18000 297.426
45.19000 297.666
45.20000 298.084
45.21000 297.344
45.22000 294.309
45.23000 291.211
45.24000 289.444
45.25000 291.467
45.26000 292.886
45.27000 291.393
45.28000 287.439
45.29000 283.418
45.30000 276.087
45.31000 266.909
45.32000 258.078
45.33000 260.764
45.34000 267.343
45.35000 273.009
45.36000 269.852
45.37000 264.477
45.38000 259.406
45.39000 256.103
45.40000 253.088
45.41000 250.657
45.42000 248.543
45.43000 246.852
45.44000 244.816
45.45000 241.906
45.46000 238.952
45.47000 236.948
45.48000 236.566
45.49000 236.212
45.50000 236.025
45.51000 239.556
45.52000 241.925
45.53000 239.395
45.54000 233.331
45.55000 227.409
45.56000 226.090
45.57000 226.986
45.58000 227.837
45.59000 226.078
45.60000 223.674
45.61000 221.358
45.62000 219.744
45.63000 218.280
45.64000 216.767
45.65000 215.011
45.66000 213.222
45.67000 211.829
45.68000 216.304
45.69000 220.228
45.70000 223.181
45.71000 224.002
45.72000 224.748
45.73000 224.611
45.74000 223.179
45.75000 221.735
45.76000 219.670
45.77000 217.016
45.78000 214.390
45.79000 213.790
45.80000 214.443
45.81000 215.085
45.82000 215.502
45.83000 215.824
45.84000 216.126
45.85000 214.610
45.86000 212.774
45.87000 210.741
45.88000 207.416
45.89000 203.855
45.90000 200.552
45.91000 198.334
45.92000 196.236
45.93000 194.666
45.94000 198.758
45.95000 202.215
45.96000 202.616
45.97000 197.231
45.98000 191.708
45.99000 191.160
46.00000 196.852
46.01000 202.555
46.02000 207.222
46.03000 211.040
46.04000 214.706
46.05000 211.828
46.06000 205.467
46.07000 199.562
46.08000 201.383
46.09000 205.974
46.10000 210.188
46.11000 207.208
46.12000 203.015
46.13000 199.543
46.14000 200.056
46.15000 201.181
46.16000 202.569
46.17000 204.905
46.18000 207.327
46.19000 209.064
46.20000 205.671
46.21000 202.904
46.22000 199.031
46.23000 193.360
46.24000 187.663
46.25000 185.564
46.26000 187.292
46.27000 189.012
46.28000 191.890
46.29000 195.519
46.30000 198.999
46.31000 198.212
46.32000 195.467
46.33000 192.884
46.34000 192.423
46.35000 192.619
46.36000 192.795
46.37000 195.836
46.38000 199.014
46.39000 201.057
46.40000 197.775
46.41000 193.814
46.42000 191.631
46.43000 194.971
46.44000 198.705
46.45000 201.257
46.46000 202.347
46.47000 203.129
46.48000 204.300
46.49000 206.016
46.50000 207.733
46.51000 206.000
46.52000 201.169
46.53000 196.387
46.54000 196.601
46.55000 199.688
46.56000 202.622
46.57000 202.402
46.58000 200.931
46.59000 199.279
46.60000 195.733
46.61000 191.683
46.62000 188.122
46.63000 189.983
46.64000 192.389
46.65000 194.192
46.66000 193.582
46.67000 192.720
46.68000 192.537
46.69000 194.177
46.70000 195.916
46.71000 197.044
46.72000 192.910
46.73000 189.805
46.74000 189.667
46.75000 193.064
46.76000 196.465
46.77000 199.405
46.78000 201.992
46.79000 204.534
46.80000 202.426
46.81000 198.110
46.82000 194.113
46.83000 195.058
46.84000 197.695
46.85000 199.866
46.86000 198.081
46.87000 195.395
46.88000 193.093
46.89000 196.172
46.90000 199.430
46.91000 201.390
46.92000 198.884
46.93000 196.003
46.94000 194.985
46.95000 198.278
46.96000 201.744
46.97000 203.861
46.98000 199.409
46.99000 196.171
47.00000 193.527
47.01000 191.482
47.02000 189.453
47.03000 188.852
47.04000 189.184
47.05000 189.508
47.06000 188.168
47.07000 186.198
47.08000 184.459
47.09000 185.532
47.10000 187.435
47.11000 189.100
47.12000 189.103
47.13000 188.784
47.14000 188.519
47.15000 193.129
47.16000 197.434
47.17000 199.237
47.18000 193.626
47.19000 187.526
47.20000 184.666
47.21000 188.275
47.22000 192.063
47.23000 194.229
47.24000 188.344
47.25000 184.217
47.26000 185.400
47.27000 191.105
47.28000 196.683
47.29000 195.749
47.30000 191.159
47.31000 186.740
47.32000 184.062
47.33000 182.167
47.34000 180.542
47.35000 181.560
47.36000 183.246
47.37000 185.087
47.38000 187.845
47.39000 190.751
47.40000 193.098
47.41000 191.242
47.42000 189.400
47.43000 187.002
47.44000 183.179
47.45000 179.285
47.46000 178.025
47.47000 181.299
47.48000 184.652
47.49000 186.431
47.50000 188.726
47.51000 190.272
47.52000 189.230
47.53000 186.310
47.54000 183.444
47.55000 182.315
47.56000 182.028
47.57000 181.755
47.58000 182.904
47.59000 184.394
47.60000 185.669
47.61000 185.225
47.62000 184.409
47.63000 183.880
47.64000 184.780
47.65000 185.875
47.66000 186.728
47.67000 189.321
47.68000 191.495
47.69000 192.093
47.70000 189.212
47.71000 186.206
47.72000 185.091
47.73000 186.771
47.74000 188.477
47.75000 189.446
47.76000 189.713
47.77000 190.004
47.78000 192.077
47.79000 195.260
47.80000 198.141
47.81000 194.077
47.82000 187.110
47.83000 180.593
47.84000 178.538
47.85000 177.810
47.86000 177.765
47.87000 182.249
47.88000 187.565
47.89000 191.177
47.90000 187.569
47.91000 183.147
47.92000 179.833
47.93000 173.013
47.94000 167.522
47.95000 165.542
47.96000 170.248
47.97000 175.116
47.98000 177.219
47.99000 175.831
48.00000 174.433
48.01000 173.176
48.02000 172.037
48.03000 170.950
48.04000 172.131
48.05000 174.528
48.06000 176.844
48.07000 177.793
48.08000 178.248
48.09000 178.666
48.10000 176.072
48.11000 173.109
48.12000 172.269
48.13000 183.253
48.14000 196.064
48.15000 204.191
48.16000 195.302
48.17000 184.862
48.18000 177.363
48.19000 181.361
48.20000 184.818
48.21000 186.946
48.22000 186.898
48.23000 186.818
48.24000 187.029
48.25000 187.553
48.26000 188.074
48.27000 186.567
48.28000 183.693
48.29000 180.899
48.30000 180.420
48.31000 181.010
48.32000 181.715
48.33000 183.935
48.34000 186.626
48.35000 189.050
48.36000 186.251
48.37000 182.858
48.38000 179.354
48.39000 175.331
48.40000 171.241
48.41000 168.528
48.42000 170.117
48.43000 172.017
48.44000 173.319
48.45000 173.613
48.46000 173.809
48.47000 175.097
48.48000 177.920
48.49000 180.754
48.50000 183.208
48.51000 185.320
48.52000 187.410
48.53000 184.831
48.54000 179.600
48.55000 174.678
48.56000 176.207
48.57000 180.307
48.58000 184.149
48.59000 185.276
48.60000 185.677
48.61000 186.031
48.62000 186.223
48.63000 186.365
48.64000 185.948
48.65000 183.278
48.66000 180.371
48.67000 178.921
48.68000 181.399
48.69000 184.094
48.70000 185.844
48.71000 182.433
48.72000 179.856
48.73000 177.131
48.74000 174.230
48.75000 171.332
48.76000 169.020
48.77000 167.158
48.78000 165.328
48.79000 166.264
48.80000 168.533
48.81000 170.869
48.82000 174.254
48.83000 178.000
48.84000 181.670
48.85000 184.695
48.86000 187.571
48.87000 190.040
48.88000 183.161
48.89000 176.195
48.90000 170.762
48.91000 170.630
48.92000 170.948
48.93000 170.713
48.94000 169.190
48.95000 167.615
48.96000 166.650
48.97000 174.380
48.98000 179.987
48.99000 181.288
49.00000 178.219
49.01000 175.213
49.02000 178.148
49.03000 184.987
49.04000 191.648
49.05000 192.386
49.06000 190.602
49.07000 188.875
49.08000 187.845
49.09000 187.021
49.10000 185.913
49.11000 182.794
49.12000 179.283
49.13000 176.355
49.14000 174.338
49.15000 172.756
49.16000 172.635
49.17000 176.863
49.18000 181.380
49.19000 184.003
49.20000 182.820
49.21000 181.530
49.22000 180.790
49.23000 179.870
49.24000 179.225
49.25000 177.736
49.26000 175.525
49.27000 173.369
49.28000 174.113
49.29000 176.493
49.30000 178.787
49.31000 178.360
49.32000 176.988
49.33000 175.828
49.34000 176.753
49.35000 178.209
49.36000 179.005
49.37000 175.896
49.38000 172.145
49.39000 169.113
49.40000 171.622
49.41000 174.106
49.42000 175.572
49.43000 174.419
49.44000 173.134
49.45000 172.801
49.46000 174.117
49.47000 175.463
49.48000 176.179
49.49000 175.209
49.50000 174.555
49.51000 175.187
49.52000 176.759
49.53000 178.317
49.54000 179.446
49.55000 180.365
49.56000 181.239
49.57000 179.220
49.58000 176.476
49.59000 174.139
49.60000 175.081
49.61000 176.735
49.62000 177.292
49.63000 172.354
49.64000 166.661
49.65000 162.217
49.66000 164.561
49.67000 166.858
49.68000 169.792
49.69000 174.145
49.70000 178.549
49.71000 179.871
49.72000 176.610
49.73000 173.306
49.74000 172.833
49.75000 175.080
49.76000 177.333
49.77000 180.037
49.78000 183.022
49.79000 185.767
49.80000 182.892
49.81000 177.654
49.82000 172.752
49.83000 169.544
49.84000 167.065
49.85000 165.022
49.86000 165.901
49.87000 167.319
49.88000 168.284
49.89000 167.321
49.90000 166.138
49.91000 165.250
49.92000 164.658
49.93000 164.209
49.94000 165.224
49.95000 169.042
49.96000 172.930
49.97000 174.402
49.98000 172.805
49.99000 171.200
50.00000 172.131
50.01000 175.114
50.02000 177.974
50.03000 175.298
50.04000 169.640
50.05000 164.250
50.06000 163.492
50.07000 164.413
50.08000 165.261
50.09000 167.392
50.10000 169.573
50.11000 172.287
50.12000 177.984
50.13000 184.146
50.14000 188.273
50.15000 184.957
50.16000 180.958
50.17000 178.080
50.18000 174.336
50.19000 171.439
50.20000 170.481
50.21000 172.721
50.22000 175.009
50.23000 176.331
50.24000 176.611
50.25000 176.889
50.26000 174.316
50.27000 169.812
50.28000 165.519
50.29000 167.447
50.30000 172.264
50.31000 176.907
50.32000 179.221
50.33000 180.807
50.34000 182.236
50.35000 180.079
50.36000 177.536
50.37000 176.514
50.38000 182.725
50.39000 189.873
50.40000 194.509
50.41000 191.250
50.42000 187.416
50.43000 184.785
50.44000 185.985
50.45000 186.978
50.46000 188.273
50.47000 189.995
50.48000 191.719
50.49000 189.503
50.50000 183.703
50.51000 177.960
50.52000 179.174
50.53000 184.423
50.54000 189.595
50.55000 193.140
50.56000 196.032
50.57000 198.731
50.58000 199.386
50.59000 199.490
50.60000 199.581
50.61000 209.903
50.62000 220.339
50.63000 228.004
50.64000 224.420
50.65000 219.640
50.66000 215.792
50.67000 214.471
50.68000 213.292
50.69000 212.524
50.70000 214.198
50.71000 215.464
50.72000 217.616
50.73000 220.838
50.74000 224.068
50.75000 228.820
50.76000 234.749
50.77000 240.579
50.78000 237.040
50.79000 228.966
50.80000 221.118
50.81000 216.861
50.82000 213.846
50.83000 211.172
50.84000 211.443
50.85000 212.391
50.86000 213.206
50.87000 210.433
50.88000 207.641
50.89000 204.864
50.90000 202.135
50.91000 199.411
50.92000 197.644
50.93000 198.116
50.94000 198.681
50.95000 199.028
50.96000 193.923
50.97000 190.217
50.98000 188.335
50.99000 188.317
51.00000 188.288
51.01000 187.221
51.02000 185.469
51.03000 183.761
51.04000 183.664
51.05000 184.253
51.06000 184.594
51.07000 181.861
51.08000 178.211
51.09000 174.631
51.10000 171.545
51.11000 168.555
51.12000 166.058
51.13000 168.968
51.14000 171.929
51.15000 172.698
51.16000 166.894
51.17000 160.649
51.18000 156.669
51.19000 157.266
51.20000 157.995
51.21000 158.414
51.22000 164.357
51.23000 168.530
51.24000 169.095
51.25000 166.547
51.26000 164.043
51.27000 163.875
51.28000 165.034
51.29000 166.151
51.30000 164.710
51.31000 162.436
51.32000 160.485
51.33000 161.725
51.34000 163.783
51.35000 165.686
51.36000 166.663
51.37000 167.487
51.38000 168.153
51.39000 166.295
51.40000 164.578
51.41000 164.149
51.42000 167.052
51.43000 170.126
51.44000 171.484
51.45000 169.852
51.46000 168.166
51.47000 167.266
51.48000 162.048
51.49000 158.500
51.50000 157.093
51.51000 157.258
51.52000 157.501
51.53000 160.390
51.54000 164.575
51.55000 168.555
51.56000 168.379
51.57000 166.948
51.58000 165.908
51.59000 168.037
51.60000 170.859
51.61000 172.668
51.62000 169.369
51.63000 165.361
51.64000 162.229
51.65000 166.268
51.66000 169.948
51.67000 170.898
51.68000 165.753
51.69000 160.382
51.70000 158.900
51.71000 163.235
51.72000 167.627
51.73000 165.859
51.74000 158.134
51.75000 150.539
51.76000 153.107
51.77000 162.075
51.78000 170.690
51.79000 170.948
51.80000 167.671
51.81000 164.603
51.82000 166.976
51.83000 170.541
51.84000 172.886
51.85000 167.034
51.86000 159.657
51.87000 154.354
51.88000 157.953
51.89000 162.570
51.90000 166.043
51.91000 160.369
51.92000 155.488
51.93000 154.624
51.94000 161.504
51.95000 168.578
51.96000 170.388
51.97000 165.464
51.98000 160.522
51.99000 158.463
52.00000 158.765
52.01000 159.087
52.02000 160.288
52.03000 161.967
52.04000 163.316
52.05000 158.884
52.06000 152.341
52.07000 146.321
52.08000 152.167
52.09000 159.979
52.10000 165.644
52.11000 159.189
52.12000 150.835
52.13000 145.282
52.14000 150.027
52.15000 155.727
52.16000 159.837
52.17000 166.174
52.18000 171.109
52.19000 171.095
52.20000 162.868
52.21000 154.517
52.22000 151.259
52.23000 153.535
52.24000 155.803
52.25000 154.602
52.26000 151.015
52.27000 147.519
52.28000 146.765
52.29000 147.292
52.30000 148.172
52.31000 153.801
52.32000 160.926
52.33000 167.353
52.34000 165.140
52.35000 161.618
52.36000 158.368
52.37000 156.419
52.38000 154.640
52.39000 155.059
52.40000 162.429
52.41000 170.310
52.42000 175.730
52.43000 170.874
52.44000 166.977
52.45000 162.116
52.46000 155.883
52.47000 149.640
52.48000 145.501
52.49000 143.287
52.50000 141.095
52.51000 142.482
52.52000 145.944
52.53000 149.245
52.54000 149.114
52.55000 147.598
52.56000 146.257
52.57000 146.787
52.58000 147.824
52.59000 148.739
52.60000 154.233
52.61000 159.667
52.62000 163.778
52.63000 162.485
52.64000 160.614
52.65000 159.443
52.66000 160.182
52.67000 161.030
52.68000 161.584
52.69000 154.652
52.70000 149.446
52.71000 149.201
52.72000 154.985
52.73000 160.769
52.74000 162.805
52.75000 161.926
52.76000 161.062
52.77000 161.206
52.78000 161.851
52.79000 162.315
52.80000 159.875
52.81000 156.426
52.82000 153.495
52.83000 155.083
52.84000 157.717
52.85000 159.983
52.86000 156.499
52.87000 152.831
52.88000 151.196
52.89000 156.686
52.90000 162.792
52.91000 166.976
52.92000 166.633
52.93000 166.101
52.94000 165.774
52.95000 162.368
52.96000 159.898
52.97000 157.479
52.98000 155.113
52.99000 152.765
53.00000 152.210
53.01000 152.847
53.02000 153.469
53.03000 158.914
53.04000 166.163
53.05000 172.719
53.06000 170.605
53.07000 165.889
53.08000 161.116
53.09000 155.932
53.10000 150.666
53.11000 146.263
53.12000 147.164
53.13000 148.452
53.14000 150.236
53.15000 153.516
53.16000 156.897
53.17000 158.927
53.18000 158.208
53.19000 157.409
53.20000 156.948
53.21000 155.873
53.22000 155.120
53.23000 156.526
53.24000 159.806
53.25000 163.054
53.26000 164.515
53.27000 164.955
53.28000 165.380
53.29000 165.382
53.30000 165.232
53.31000 165.090
53.32000 165.022
53.33000 164.974
53.34000 164.865
53.35000 164.394
53.36000 163.861
53.37000 163.430
53.38000 166.711
53.39000 169.687
53.40000 171.502
53.41000 170.294
53.42000 168.929
53.43000 166.008
53.44000 160.359
53.45000 154.659
53.46000 151.605
53.47000 155.862
53.48000 158.766
53.49000 160.272
53.50000 160.743
53.51000 161.205
53.52000 161.343
53.53000 161.322
53.54000 161.301
53.55000 160.215
53.56000 158.883
53.57000 157.421
53.58000 154.895
53.59000 152.136
53.60000 150.302
53.61000 153.167
53.62000 156.688
53.63000 159.444
53.64000 156.251
53.65000 153.320
53.66000 151.679
53.67000 152.935
53.68000 154.300
53.69000 155.981
53.70000 158.140
53.71000 160.303
53.72000 160.015
53.73000 157.339
53.74000 154.686
53.75000 153.901
53.76000 154.300
53.77000 154.797
53.78000 157.625
53.79000 161.445
53.80000 165.025
53.81000 160.866
53.82000 155.066
53.83000 150.196
53.84000 151.619
53.85000 154.221
53.86000 155.655
53.87000 152.046
53.88000 147.856
53.89000 144.698
53.90000 150.455
53.91000 155.399
53.92000 157.946
53.93000 155.848
53.94000 153.631
53.95000 152.314
53.96000 152.156
53.97000 152.002
53.98000 152.052
53.99000 152.268
54.00000 152.491
54.01000 152.984
54.02000 153.625
54.03000 154.315
54.04000 155.879
54.05000 157.764
54.06000 159.501
54.07000 156.564
54.08000 152.911
54.09000 149.492
54.10000 147.403
54.11000 145.524
54.12000 144.981
54.13000 149.379
54.14000 154.240
54.15000 157.750
54.16000 157.201
54.17000 156.634
54.18000 155.823
54.19000 154.607
54.20000 153.385
54.21000 153.525
54.22000 155.155
54.23000 156.778
54.24000 160.554
54.25000 165.790
54.26000 170.743
54.27000 167.098
54.28000 159.411
54.29000 152.184
54.30000 151.226
54.31000 152.254
54.32000 153.182
54.33000 158.251
54.34000 163.467
54.35000 167.264
54.36000 164.223
54.37000 160.284
54.38000 157.399
54.39000 157.868
54.40000 158.587
54.41000 159.082
54.42000 161.818
54.43000 163.928
54.44000 163.569
54.45000 159.672
54.46000 155.748
54.47000 153.446
54.48000 152.640
54.49000 151.841
54.50000 153.700
54.51000 157.092
54.52000 160.217
54.53000 157.573
54.54000 152.587
54.55000 147.925
54.56000 146.765
54.57000 146.560
54.58000 146.378
54.59000 142.525
54.60000 138.637
54.61000 136.438
54.62000 141.180
54.63000 146.672
54.64000 152.025
54.65000 157.000
54.66000 161.953
54.67000 165.192
54.68000 157.090
54.69000 150.955
54.70000 148.167
54.71000 149.471
54.72000 150.781
54.73000 150.885
54.74000 150.045
54.75000 149.218
54.76000 152.088
54.77000 156.726
54.78000 161.163
54.79000 162.313
54.80000 162.311
54.81000 162.056
54.82000 159.572
54.83000 156.568
54.84000 153.982
54.85000 153.202
54.86000 152.769
54.87000 152.454
54.88000 152.554
54.89000 152.691
54.90000 152.118
54.91000 149.867
54.92000 147.544
54.93000 146.111
54.94000 148.343
54.95000 149.978
54.96000 152.587
54.97000 156.205
54.98000 159.798
54.99000 160.900
55.00000 160.334
55.01000 159.783
55.02000 159.904
55.03000 160.308
55.04000 160.379
55.05000 156.244
55.06000 150.840
55.07000 146.300
55.08000 148.011
55.09000 150.963
55.10000 153.435
55.11000 156.319
55.12000 158.759
55.13000 160.820
55.14000 161.734
55.15000 162.568
55.16000 162.792
55.17000 161.766
55.18000 160.704
55.19000 160.089
55.20000 160.862
55.21000 161.409
55.22000 161.294
55.23000 160.600
55.24000 159.912
55.25000 159.566
55.26000 159.415
55.27000 159.269
55.28000 163.005
55.29000 167.933
55.30000 172.335
55.31000 171.424
55.32000 169.136
55.33000 166.323
55.34000 160.342
55.35000 153.829
55.36000 148.544
55.37000 158.359
55.38000 167.606
55.39000 174.127
55.40000 173.512
55.41000 172.523
55.42000 172.016
55.43000 172.355
55.44000 172.711
55.45000 172.902
55.46000 174.900
55.47000 176.271
55.48000 178.610
55.49000 181.667
55.50000 184.638
55.51000 184.599
55.52000 183.066
55.53000 181.607
55.54000 186.540
55.55000 193.087
55.56000 199.283
55.57000 202.594
55.58000 205.265
55.59000 208.137
55.60000 212.042
55.61000 216.091
55.62000 219.266
55.63000 225.993
55.64000 231.601
55.65000 238.631
55.66000 248.873
55.67000 259.238
55.68000 270.050
55.69000 281.538
55.70000 293.034
55.71000 300.888
55.72000 305.171
55.73000 309.520
55.74000 319.382
55.75000 332.758
55.76000 346.345
55.77000 365.067
55.78000 385.987
55.79000 405.606
55.80000 422.214
55.81000 436.552
55.82000 451.179
55.83000 467.780
55.84000 484.754
55.85000 499.402
55.86000 503.940
55.87000 507.302
55.88000 509.840
55.89000 524.911
55.90000 537.340
55.91000 549.662
55.92000 561.776
55.93000 573.884
55.94000 583.845
55.95000 591.021
55.96000 598.178
55.97000 604.975
55.98000 611.454
55.99000 617.555
56.00000 605.827
56.01000 584.323
56.02000 563.883
56.03000 562.500
56.04000 568.157
56.05000 573.370
56.06000 562.300
56.07000 548.792
56.08000 535.773
56.09000 525.558
56.10000 515.788
56.11000 504.497
56.12000 487.544
56.13000 470.057
56.14000 457.405
56.15000 431.554
56.16000 411.231
56.17000 394.012
56.18000 382.010
56.19000 370.091
56.20000 359.579
56.21000 350.618
56.22000 341.694
56.23000 329.298
56.24000 314.592
56.25000 300.214
56.26000 295.999
56.27000 296.588
56.28000 296.453
56.29000 286.343
56.30000 273.055
56.31000 261.049
56.32000 248.814
56.33000 238.013
56.34000 228.378
56.35000 224.405
56.36000 221.181
56.37000 216.867
56.38000 209.065
56.39000 201.001
56.40000 195.433
56.41000 191.323
56.42000 188.272
56.43000 185.114
56.44000 181.803
56.45000 178.491
56.46000 174.978
56.47000 171.279
56.48000 167.613
56.49000 166.140
56.50000 166.001
56.51000 165.848
56.52000 165.385
56.53000 164.795
56.54000 164.176
56.55000 163.238
56.56000 162.212
56.57000 161.306
56.58000 157.862
56.59000 154.495
56.60000 153.313
56.61000 161.160
56.62000 169.992
56.63000 173.915
56.64000 164.292
56.65000 153.884
56.66000 147.062
56.67000 149.423
56.68000 151.311
56.69000 151.746
56.70000 150.392
56.71000 149.031
56.72000 146.842
56.73000 143.999
56.74000 141.201
56.75000 142.095
56.76000 144.831
56.77000 147.387
56.78000 146.987
56.79000 145.544
56.80000 144.543
56.81000 147.435
56.82000 151.241
56.83000 154.522
56.84000 155.593
56.85000 156.220
56.86000 156.398
56.87000 154.982
56.88000 153.427
56.89000 150.280
56.90000 143.341
56.91000 136.240
56.92000 131.847
56.93000 144.351
56.94000 153.496
56.95000 155.169
56.96000 149.047
56.97000 142.985
56.98000 143.544
56.99000 148.563
57.00000 153.459
57.01000 150.506
57.02000 144.301
57.03000 138.614
57.04000 139.533
57.05000 142.459
57.06000 144.876
57.07000 143.593
57.08000 141.569
57.09000 139.873
57.10000 141.596
57.11000 143.384
57.12000 145.286
57.13000 147.535
57.14000 149.809
57.15000 151.017
57.16000 150.033
57.17000 148.982
57.18000 148.373
57.19000 148.109
57.20000 147.924
57.21000 145.772
57.22000 141.889
57.23000 138.098
57.24000 139.542
57.25000 144.014
57.26000 148.330
57.27000 145.498
57.28000 140.211
57.29000 135.554
57.30000 137.309
57.31000 140.737
57.32000 143.496
57.33000 142.178
57.34000 140.171
57.35000 138.540
57.36000 138.507
57.37000 138.612
57.38000 139.425
57.39000 142.099
57.40000 144.872
57.41000 146.077
57.42000 144.503
57.43000 142.876
57.44000 141.998
57.45000 140.883
57.46000 140.121
57.47000 139.458
57.48000 138.869
57.49000 138.261
57.50000 136.978
57.51000 135.358
57.52000 133.815
57.53000 136.686
57.54000 140.723
57.55000 143.915
57.56000 140.111
57.57000 134.745
57.58000 130.631
57.59000 132.953
57.60000 136.188
57.61000 138.728
57.62000 138.417
57.63000 137.982
57.64000 137.265
57.65000 135.907
57.66000 134.523
57.67000 134.171
57.68000 135.391
57.69000 136.627
57.70000 136.951
57.71000 136.373
57.72000 135.816
57.73000 137.086
57.74000 139.527
57.75000 141.814
57.76000 140.307
57.77000 137.168
57.78000 134.222
57.79000 135.761
57.80000 138.348
57.81000 140.884
57.82000 143.074
57.83000 145.199
57.84000 146.971
57.85000 147.197
57.86000 147.242
57.87000 147.276
57.88000 139.420
57.89000 132.864
57.90000 130.581
57.91000 136.681
57.92000 143.002
57.93000 145.376
57.94000 142.600
57.95000 139.806
57.96000 140.714
57.97000 144.703
57.98000 148.602
57.99000 148.137
58.00000 145.265
58.01000 142.493
58.02000 141.524
58.03000 141.224
58.04000 140.948
58.05000 139.792
58.06000 138.561
58.07000 137.700
58.08000 138.974
58.09000 140.589
58.10000 141.965
58.11000 142.443
58.12000 142.835
58.13000 143.120
58.14000 141.256
58.15000 139.744
58.16000 138.739
58.17000 138.590
58.18000 138.456
58.19000 137.902
58.20000 136.883
58.21000 135.868
58.22000 135.642
58.23000 135.975
58.24000 136.405
58.25000 139.874
58.26000 144.789
58.27000 149.051
58.28000 144.237
58.29000 136.515
58.30000 129.531
58.31000 127.806
58.32000 127.269
58.33000 127.144
58.34000 129.031
58.35000 131.185
58.36000 132.648
58.37000 131.881
58.38000 130.945
58.39000 130.298
58.40000 130.831
58.41000 131.263
58.42000 132.086
58.43000 133.477
58.44000 134.873
58.45000 135.131
58.46000 134.326
58.47000 133.528
58.48000 132.565
58.49000 131.520
58.50000 130.489
58.51000 129.766
58.52000 129.170
58.53000 128.561
58.54000 127.826
58.55000 127.056
58.56000 126.375
58.57000 129.161
58.58000 132.108
58.59000 133.954
58.60000 131.215
58.61000 127.973
58.62000 125.682
58.63000 126.033
58.64000 126.539
58.65000 126.872
58.66000 127.911
58.67000 128.688
58.68000 128.785
58.69000 128.040
58.70000 127.295
58.71000 127.198
58.72000 127.615
58.73000 128.026
58.74000 128.148
58.75000 128.118
58.76000 128.114
58.77000 128.535
58.78000 129.107
58.79000 129.788
58.80000 131.445
58.81000 133.332
58.82000 134.960
58.83000 135.529
58.84000 135.876
58.85000 135.927
58.86000 134.925
58.87000 133.828
58.88000 133.121
58.89000 133.346
58.90000 133.611
58.91000 133.775
58.92000 134.555
58.93000 135.122
58.94000 137.073
58.95000 140.478
58.96000 143.844
58.97000 142.787
58.98000 138.732
58.99000 134.774
59.00000 130.337
59.01000 125.888
59.02000 122.031
59.03000 125.791
59.04000 131.878
59.05000 137.091
59.06000 135.884
59.07000 133.384
59.08000 131.287
59.09000 131.642
59.10000 132.195
59.11000 133.073
59.12000 134.955
59.13000 136.906
59.14000 138.393
59.15000 138.920
59.16000 139.418
59.17000 139.707
59.18000 141.101
59.19000 142.083
59.20000 140.909
59.21000 137.825
59.22000 134.752
59.23000 132.342
59.24000 130.318
59.25000 128.364
59.26000 126.362
59.27000 124.458
59.28000 123.191
59.29000 128.454
59.30000 135.432
59.31000 141.406
59.32000 141.226
59.33000 139.998
59.34000 138.998
59.35000 136.910
59.36000 135.114
59.37000 133.801
59.38000 133.771
59.39000 133.809
59.40000 133.007
59.41000 130.706
59.42000 128.375
59.43000 127.114
59.44000 133.446
59.45000 137.763
59.46000 136.386
59.47000 130.717
59.48000 125.177
59.49000 124.252
59.50000 125.644
59.51000 126.970
59.52000 130.794
59.53000 135.122
59.54000 138.577
59.55000 134.727
59.56000 129.236
59.57000 125.144
59.58000 128.296
59.59000 132.480
59.60000 135.771
59.61000 133.126
59.62000 130.615
59.63000 129.759
59.64000 132.686
59.65000 135.762
59.66000 137.905
59.67000 138.619
59.68000 139.317
59.69000 140.057
59.70000 140.837
59.71000 141.602
59.72000 141.041
59.73000 139.625
59.74000 138.180
59.75000 136.008
59.76000 133.522
59.77000 131.187
59.78000 130.207
59.79000 129.674
59.80000 129.141
59.81000 128.607
59.82000 128.073
59.83000 127.442
59.84000 126.382
59.85000 125.271
59.86000 124.431
59.87000 125.188
59.88000 125.863
59.89000 126.026
59.90000 125.176
59.91000 124.299
59.92000 124.989
59.93000 127.735
59.94000 130.487
59.95000 131.019
59.96000 129.688
59.97000 128.395
59.98000 128.944
59.99000 130.515
60.00000 132.073
60.01000 133.394
60.02000 134.625
60.03000 135.762
60.04000 136.217
60.05000 136.472
60.06000 136.079
60.07000 131.920
60.08000 127.154
60.09000 124.059
60.10000 127.259
60.11000 131.064
60.12000 133.827
60.13000 138.546
60.14000 142.248
60.15000 142.542
60.16000 137.041
60.17000 131.443
60.18000 129.639
60.19000 132.069
60.20000 134.493
60.21000 133.374
60.22000 129.750
60.23000 126.255
60.24000 126.857
60.25000 129.420
60.26000 131.841
60.27000 132.261
60.28000 132.037
60.29000 131.833
60.30000 131.423
60.31000 131.022
60.32000 131.401
60.33000 135.607
60.34000 140.327
60.35000 142.746
60.36000 137.706
60.37000 132.095
60.38000 128.206
60.39000 133.393
60.40000 137.537
60.41000 139.148
60.42000 137.060
60.43000 134.940
60.44000 133.769
60.45000 133.491
60.46000 133.215
60.47000 133.426
60.48000 133.925
60.49000 134.521
60.50000 137.281
60.51000 140.936
60.52000 144.322
60.53000 144.728
60.54000 144.306
60.55000 143.933
60.56000 137.838
60.57000 131.671
60.58000 126.181
60.59000 123.530
60.60000 121.194
60.61000 121.022
60.62000 126.893
60.63000 133.123
60.64000 137.225
60.65000 135.753
60.66000 134.573
60.67000 131.436
60.68000 125.860
60.69000 120.301
60.70000 122.691
60.71000 131.429
60.72000 140.033
60.73000 140.580
60.74000 136.977
60.75000 133.644
60.76000 134.846
60.77000 137.666
60.78000 140.163
60.79000 139.752
60.80000 138.650
60.81000 137.698
60.82000 134.996
60.83000 132.476
60.84000 130.170
60.85000 128.632
60.86000 127.163
60.87000 127.513
60.88000 132.249
60.89000 137.179
60.90000 140.244
60.91000 139.859
60.92000 139.548
60.93000 140.363
60.94000 142.367
60.95000 144.348
60.96000 143.581
60.97000 140.941
60.98000 138.362
60.99000 133.401
61.00000 127.614
61.01000 122.559
61.02000 127.010
61.03000 134.383
61.04000 140.924
61.05000 141.306
61.06000 140.440
61.07000 139.712
61.08000 135.560
61.09000 131.740
61.10000 128.929
61.11000 129.237
61.12000 129.766
61.13000 129.492
61.14000 127.550
61.15000 125.555
61.16000 124.392
61.17000 122.520
61.18000 121.205
61.19000 124.836
61.20000 132.882
61.21000 140.773
61.22000 139.526
61.23000 132.926
61.24000 126.550
61.25000 125.823
61.26000 127.235
61.27000 128.837
61.28000 132.394
61.29000 136.467
61.30000 139.987
61.31000 140.087
61.32000 139.601
61.33000 139.205
61.34000 132.427
61.35000 126.347
61.36000 123.783
61.37000 130.590
61.38000 137.904
61.39000 142.866
61.40000 143.603
61.41000 144.256
61.42000 144.610
61.43000 141.269
61.44000 138.970
61.45000 135.886
61.46000 132.206
61.47000 128.728
61.48000 132.721
61.49000 140.483
61.50000 147.886
61.51000 152.919
61.52000 156.841
61.53000 160.860
61.54000 165.693
61.55000 170.711
61.56000 177.617
61.57000 194.369
61.58000 212.535
61.59000 226.841
61.60000 233.540
61.61000 238.399
61.62000 242.403
61.63000 244.436
61.64000 246.391
61.65000 245.206
61.66000 239.176
61.67000 233.092
61.68000 230.048
61.69000 241.672
61.70000 249.344
61.71000 250.007
61.72000 246.116
61.73000 242.334
61.74000 241.278
61.75000 241.410
61.76000 241.534
61.77000 231.872
61.78000 220.437
61.79000 209.964
61.80000 206.202
61.81000 203.731
61.82000 200.141
61.83000 191.596
61.84000 182.461
61.85000 175.534
61.86000 163.372
61.87000 153.551
61.88000 146.121
61.89000 143.440
61.90000 140.889
61.91000 141.945
61.92000 147.765
61.93000 153.603
61.94000 152.507
61.95000 145.559
61.96000 138.699
61.97000 136.244
61.98000 136.249
61.99000 136.413
62.00000 139.503
62.01000 143.693
62.02000 147.564
62.03000 149.460
62.04000 150.714
62.05000 150.892
62.06000 144.772
62.07000 137.631
62.08000 132.539
62.09000 135.226
62.10000 138.666
62.11000 141.168
62.12000 143.179
62.13000 144.709
62.14000 144.827
62.15000 142.533
62.16000 140.197
62.17000 138.528
62.18000 137.609
62.19000 136.694
62.20000 139.566
62.21000 145.121
62.22000 150.460
62.23000 148.851
62.24000 143.896
62.25000 139.136
62.26000 137.136
62.27000 136.030
62.28000 135.029
62.29000 132.710
62.30000 130.418
62.31000 128.649
62.32000 129.467
62.33000 130.637
62.34000 131.968
62.35000 133.828
62.36000 135.729
62.37000 137.049
62.38000 127.825
62.39000 120.592
62.40000 118.944
62.41000 125.500
62.42000 132.129
62.43000 135.743
62.44000 136.500
62.45000 137.252
62.46000 140.120
62.47000 144.220
62.48000 148.100
62.49000 146.968
62.50000 143.754
62.51000 140.756
62.52000 140.196
62.53000 140.316
62.54000 140.422
62.55000 140.705
62.56000 140.978
62.57000 141.189
62.58000 141.142
62.59000 141.067
62.60000 140.237
62.61000 137.286
62.62000 134.207
62.63000 132.177
62.64000 134.060
62.65000 135.517
62.66000 135.664
62.67000 134.168
62.68000 132.678
62.69000 135.212
62.70000 140.978
62.71000 146.659
62.72000 145.176
62.73000 140.038
62.74000 135.126
62.75000 134.040
62.76000 134.326
62.77000 134.997
62.78000 139.151
62.79000 144.138
62.80000 148.450
62.81000 146.560
62.82000 144.145
62.83000 142.770
62.84000 145.148
62.85000 147.866
62.86000 147.336
62.87000 138.929
62.88000 130.170
62.89000 124.713
62.90000 137.107
62.91000 146.222
62.92000 149.412
62.93000 146.294
62.94000 143.196
62.95000 142.747
62.96000 144.115
62.97000 145.452
62.98000 143.763
62.99000 140.818
63.00000 137.902
63.01000 135.389
63.02000 132.999
63.03000 130.996
63.04000 131.870
63.05000 133.332
63.06000 134.562
63.07000 135.851
63.08000 136.932
63.09000 138.417
63.10000 141.159
63.11000 143.990
63.12000 146.134
63.13000 146.835
63.14000 147.492
63.15000 147.876
63.16000 141.273
63.17000 136.596
63.18000 136.826
63.19000 141.463
63.20000 146.069
63.21000 148.819
63.22000 150.475
63.23000 152.074
63.24000 148.837
63.25000 143.974
63.26000 139.588
63.27000 140.171
63.28000 142.075
63.29000 143.424
63.30000 141.319
63.31000 138.618
63.32000 136.414
63.33000 140.074
63.34000 143.569
63.35000 146.296
63.36000 146.967
63.37000 147.525
63.38000 145.825
63.39000 140.049
63.40000 134.189
63.41000 131.000
63.42000 139.132
63.43000 144.713
63.44000 147.256
63.45000 147.478
63.46000 147.640
63.47000 145.494
63.48000 142.177
63.49000 139.012
63.50000 144.623
63.51000 152.622
63.52000 159.733
63.53000 159.309
63.54000 157.170
63.55000 155.060
63.56000 153.102
63.57000 151.167
63.58000 149.641
63.59000 153.855
63.60000 157.621
63.61000 158.447
63.62000 152.465
63.63000 146.210
63.64000 144.342
63.65000 149.287
63.66000 154.311
63.67000 156.833
63.68000 151.773
63.69000 148.399
63.70000 145.458
63.71000 142.799
63.72000 140.243
63.73000 140.341
63.74000 141.602
63.75000 142.788
63.76000 144.746
63.77000 146.743
63.78000 148.623
63.79000 149.680
63.80000 150.578
63.81000 151.460
63.82000 152.272
63.83000 153.077
63.84000 153.688
63.85000 153.459
63.86000 153.237
63.87000 152.585
63.88000 151.077
63.89000 149.545
63.90000 148.339
63.91000 147.565
63.92000 146.794
63.93000 145.205
63.94000 142.923
63.95000 140.728
63.96000 142.910
63.97000 147.551
63.98000 152.002
63.99000 152.877
64.00000 152.400
64.01000 151.959
64.02000 153.318
64.03000 154.948
64.04000 156.402
64.05000 156.819
64.06000 157.068
64.07000 156.927
64.08000 155.299
64.09000 153.527
64.10000 152.235
64.11000 151.975
64.12000 151.815
64.13000 153.128
64.14000 156.978
64.15000 160.872
64.16000 161.194
64.17000 157.477
64.18000 153.769
64.19000 154.531
64.20000 158.504
64.21000 162.410
64.22000 164.141
64.23000 164.819
64.24000 165.206
64.25000 161.436
64.26000 156.309
64.27000 151.661
64.28000 153.390
64.29000 156.131
64.30000 159.070
64.31000 162.996
64.32000 167.056
64.33000 169.672
64.34000 167.553
64.35000 165.065
64.36000 163.333
64.37000 158.651
64.38000 155.041
64.39000 155.189
64.40000 160.896
64.41000 166.652
64.42000 167.200
64.43000 162.777
64.44000 158.390
64.45000 156.058
64.46000 155.022
64.47000 154.128
64.48000 156.468
64.49000 160.161
64.50000 163.583
64.51000 163.945
64.52000 163.447
64.53000 163.006
64.54000 158.954
64.55000 154.871
64.56000 151.615
64.57000 151.865
64.58000 152.509
64.59000 153.436
64.60000 155.158
64.61000 156.929
64.62000 158.100
64.63000 156.994
64.64000 156.137
64.65000 156.545
64.66000 158.552
64.67000 160.565
64.68000 162.883
64.69000 165.449
64.70000 167.977
64.71000 171.993
64.72000 176.664
64.73000 180.884
64.74000 177.376
64.75000 171.079
64.76000 165.594
64.77000 167.520
64.78000 171.232
64.79000 174.443
64.80000 173.279
64.81000 171.715
64.82000 171.188
64.83000 174.432
64.84000 178.021
64.85000 179.453
64.86000 175.622
64.87000 171.554
64.88000 169.013
64.89000 175.960
64.90000 181.070
64.91000 182.392
64.92000 179.652
64.93000 176.926
64.94000 176.002
64.95000 176.324
64.96000 176.638
64.97000 178.240
64.98000 180.345
64.99000 182.438
65.00000 184.396
65.01000 186.312
65.02000 188.157
65.03000 189.470
65.04000 190.673
65.05000 191.686
65.06000 184.906
65.07000 178.413
65.08000 175.465
65.09000 183.600
65.10000 192.536
65.11000 196.023
65.12000 188.031
65.13000 179.671
65.14000 174.770
65.15000 188.117
65.16000 197.607
65.17000 204.476
65.18000 208.973
65.19000 213.453
65.20000 216.761
65.21000 219.377
65.22000 221.905
65.23000 217.385
65.24000 210.466
65.25000 204.188
65.26000 204.662
65.27000 206.943
65.28000 209.469
65.29000 213.530
65.30000 217.859
65.31000 221.395
65.32000 231.851
65.33000 241.007
65.34000 248.215
65.35000 250.173
65.36000 251.840
65.37000 252.552
65.38000 251.529
65.39000 250.470
65.40000 249.891
65.41000 258.171
65.42000 263.869
65.43000 269.144
65.44000 274.093
65.45000 279.018
65.46000 282.988
65.47000 286.471
65.48000 289.797
65.49000 294.680
65.50000 299.714
65.51000 304.474
65.52000 306.883
65.53000 308.753
65.54000 311.907
65.55000 321.842
65.56000 332.766
65.57000 341.394
65.58000 344.844
65.59000 347.259
65.60000 349.723
65.61000 352.298
65.62000 354.877
65.63000 358.185
65.64000 362.632
65.65000 367.092
65.66000 369.339
65.67000 399.567
65.68000 419.722
65.69000 435.391
65.70000 448.109
65.71000 461.685
65.72000 497.556
65.73000 543.254
65.74000 586.249
65.75000 640.885
65.76000 693.971
65.77000 743.333
65.78000 766.345
65.79000 784.221
65.80000 803.823
65.81000 831.172
65.82000 859.458
65.83000 880.976
65.84000 895.660
65.85000 906.854
65.86000 911.079
65.87000 901.299
65.88000 891.124
65.89000 884.279
65.90000 881.889
65.91000 879.524
65.92000 864.734
65.93000 839.341
65.94000 813.806
65.95000 780.841
65.96000 743.677
65.97000 705.766
65.98000 653.697
65.99000 596.242
66.00000 543.093
66.01000 499.346
66.02000 462.196
66.03000 426.035
66.04000 395.731
66.05000 366.391
66.06000 341.120
66.07000 331.475
66.08000 323.371
66.09000 317.456
66.10000 298.007
66.11000 282.489
66.12000 275.054
66.13000 281.616
66.14000 288.426
66.15000 287.960
66.16000 279.211
66.17000 270.483
66.18000 267.946
66.19000 269.915
66.20000 271.889
66.21000 274.073
66.22000 276.359
66.23000 278.946
66.24000 285.905
66.25000 294.298
66.26000 301.913
66.27000 306.440
66.28000 309.843
66.29000 313.782
66.30000 320.409
66.31000 327.406
66.32000 335.814
66.33000 348.878
66.34000 362.308
66.35000 371.672
66.36000 379.594
66.37000 385.534
66.38000 387.970
66.39000 385.197
66.40000 382.375
66.41000 384.319
66.42000 390.844
66.43000 397.318
66.44000 398.080
66.45000 395.315
66.46000 392.685
66.47000 393.209
66.48000 395.059
66.49000 395.507
66.50000 379.962
66.51000 359.898
66.52000 342.086
66.53000 342.393
66.54000 345.562
66.55000 346.584
66.56000 338.445
66.57000 329.267
66.58000 318.979
66.59000 305.538
66.60000 291.903
66.61000 282.869
66.62000 287.431
66.63000 291.048
66.64000 294.644
66.65000 298.211
66.66000 301.771
66.67000 302.499
66.68000 300.919
66.69000 299.363
66.70000 294.840
66.71000 288.895
66.72000 283.376
66.73000 285.244
66.74000 289.793
66.75000 293.895
66.76000 293.891
66.77000 292.891
66.78000 292.025
66.79000 300.729
66.80000 309.402
66.81000 314.914
66.82000 308.867
66.83000 301.756
66.84000 296.330
66.85000 295.037
66.86000 293.934
66.87000 293.243
66.88000 299.292
66.89000 303.732
66.90000 308.400
66.91000 313.314
66.92000 318.213
66.93000 321.377
66.94000 323.335
66.95000 325.248
66.96000 321.929
66.97000 316.417
66.98000 311.509
66.99000 314.657
67.00000 320.326
67.01000 325.861
67.02000 330.370
67.03000 334.669
67.04000 338.292
67.05000 330.501
67.06000 322.760
67.07000 317.639
67.08000 320.762
67.09000 324.487
67.10000 327.189
67.11000 327.725
67.12000 328.191
67.13000 328.464
67.14000 329.478
67.15000 330.198
67.16000 333.270
67.17000 338.483
67.18000 343.630
67.19000 344.609
67.20000 343.102
67.21000 341.644
67.22000 346.839
67.23000 354.266
67.24000 360.537
67.25000 354.534
67.26000 345.229
67.27000 338.507
67.28000 348.088
67.29000 360.523
67.30000 370.694
67.31000 371.791
67.32000 371.899
67.33000 371.078
67.34000 367.739
67.35000 364.258
67.36000 363.248
67.37000 366.752
67.38000 370.352
67.39000 372.324
67.40000 377.928
67.41000 381.787
67.42000 385.711
67.43000 389.684
67.44000 393.619
67.45000 396.051
67.46000 397.709
67.47000 399.293
67.48000 393.781
67.49000 386.371
67.50000 380.561
67.51000 388.565
67.52000 399.753
67.53000 410.337
67.54000 417.713
67.55000 424.617
67.56000 430.077
67.57000 416.870
67.58000 404.978
67.59000 399.472
67.60000 408.921
67.61000 418.989
67.62000 424.673
67.63000 423.465
67.64000 422.172
67.65000 421.519
67.66000 418.611
67.67000 416.707
67.68000 418.919
67.69000 423.853
67.70000 428.636
67.71000 429.445
67.72000 428.491
67.73000 427.592
67.74000 429.897
67.75000 432.878
67.76000 435.541
67.77000 435.936
67.78000 435.886
67.79000 437.269
67.80000 445.128
67.81000 453.776
67.82000 460.365
67.83000 456.050
67.84000 452.075
67.85000 450.174
67.86000 452.467
67.87000 454.879
67.88000 454.292
67.89000 449.664
67.90000 445.017
67.91000 450.541
67.92000 464.818
67.93000 478.878
67.94000 481.379
67.95000 477.310
67.96000 473.933
67.97000 483.842
67.98000 498.838
67.99000 512.720
68.00000 521.476
68.01000 528.167
68.02000 533.829
68.03000 533.351
68.04000 531.856
68.05000 528.725
68.06000 519.269
68.07000 509.183
68.08000 501.809
68.09000 523.552
68.10000 541.473
68.11000 548.492
68.12000 536.516
68.13000 524.195
68.14000 521.531
68.15000 529.934
68.16000 538.323
68.17000 546.687
68.18000 554.966
68.19000 563.068
68.20000 565.164
68.21000 564.316
68.22000 563.738
68.23000 567.095
68.24000 571.752
68.25000 575.982
68.26000 576.824
68.27000 576.914
68.28000 577.230
68.29000 578.689
68.30000 580.307
68.31000 584.122
68.32000 595.235
68.33000 606.928
68.34000 615.096
68.35000 631.433
68.36000 644.003
68.37000 651.807
68.38000 652.478
68.39000 653.079
68.40000 657.898
68.41000 666.796
68.42000 675.626
68.43000 676.133
68.44000 671.478
68.45000 667.372
68.46000 676.274
68.47000 690.679
68.48000 704.435
68.49000 710.730
68.50000 714.904
68.51000 718.613
68.52000 734.971
68.53000 751.202
68.54000 766.222
68.55000 776.046
68.56000 785.275
68.57000 800.602
68.58000 833.371
68.59000 867.221
68.60000 889.698
68.61000 926.473
68.62000 953.921
68.63000 987.683
68.64000 1029.524
68.65000 1071.390
68.66000 1111.505
68.67000 1150.185
68.68000 1188.323
68.69000 1227.790
68.70000 1266.838
68.71000 1306.701
68.72000 1360.842
68.73000 1420.199
68.74000 1478.068
68.75000 1522.135
68.76000 1562.836
68.77000 1598.136
68.78000 1637.504
68.79000 1671.571
68.80000 1709.419
68.81000 1761.175
68.82000 1814.223
68.83000 1873.088
68.84000 1946.316
68.85000 2020.211
68.86000 2066.591
68.87000 2265.738
68.88000 2411.342
68.89000 2654.016
68.90000 3002.177
68.91000 3353.678
68.92000 4134.556
68.93000 5215.716
68.94000 6272.872
68.95000 8402.977
68.96000 10926.248
68.97000 13531.620
68.98000 17244.996
68.99000 21307.277
69.00000 25385.307
69.01000 29583.412
69.02000 33806.500
69.03000 37371.016
69.04000 40739.828
69.05000 43533.645
69.06000 45926.734
69.07000 47051.773
69.08000 48083.398
69.09000 48830.758
69.10000 48972.141
69.11000 49093.508
69.12000 49165.043
69.13000 49604.043
69.14000 49915.926
69.15000 50391.422
69.16000 51016.879
69.17000 51635.004
69.18000 51777.148
69.19000 51633.648
69.20000 51494.773
69.21000 49932.469
69.22000 47913.332
69.23000 45823.637
69.24000 42977.809
69.25000 39927.219
69.26000 36982.504
69.27000 34710.539
69.28000 32557.188
69.29000 30793.670
69.30000 29155.441
69.31000 27823.492
69.32000 26673.826
69.33000 26021.547
69.34000 25397.488
69.35000 24781.125
69.36000 24178.914
69.37000 23577.012
69.38000 23246.416
69.39000 21342.305
69.40000 20027.414
69.41000 18249.988
69.42000 16112.544
69.43000 13977.426
69.44000 11934.083
69.45000 9938.172
69.46000 8030.422
69.47000 6601.947
69.48000 5428.386
69.49000 4303.590
69.50000 3603.027
69.51000 3000.859
69.52000 2452.407
69.53000 2191.495
69.54000 1973.145
69.55000 1800.211
69.56000 1639.749
69.57000 1511.622
69.58000 1406.002
69.59000 1353.403
69.60000 1303.025
69.61000 1256.963
69.62000 1217.727
69.63000 1178.575
69.64000 1158.716
69.65000 1090.532
69.66000 1045.002
69.67000 1014.262
69.68000 993.367
69.69000 972.609
69.70000 955.539
69.71000 940.113
69.72000 925.581
69.73000 898.646
69.74000 870.591
69.75000 844.744
69.76000 834.766
69.77000 827.922
69.78000 820.122
69.79000 807.978
69.80000 795.300
69.81000 785.625
69.82000 779.460
69.83000 774.789
69.84000 764.527
69.85000 742.896
69.86000 720.932
69.87000 702.879
69.88000 690.125
69.89000 677.409
69.90000 672.473
69.91000 674.294
69.92000 676.033
69.93000 673.249
69.94000 667.877
69.95000 662.503
69.96000 657.089
69.97000 651.659
69.98000 646.629
69.99000 635.147
70.00000 623.321
