20.00000 532.743
20.01000 540.875
20.02000 550.167
20.03000 557.149
20.04000 555.154
20.05000 552.261
20.06000 550.143
20.07000 560.945
20.08000 569.798
20.09000 573.596
20.10000 568.544
20.11000 563.328
20.12000 560.878
20.13000 561.615
20.14000 562.353
20.15000 560.691
20.16000 557.282
20.17000 553.813
20.18000 548.251
20.19000 541.658
20.20000 536.176
20.21000 547.064
20.22000 563.384
20.23000 578.214
20.24000 577.214
20.25000 573.249
20.26000 570.159
20.27000 571.503
20.28000 573.465
20.29000 575.012
20.30000 575.176
20.31000 575.228
20.32000 575.265
20.33000 567.862
20.34000 562.056
20.35000 558.057
20.36000 556.779
20.37000 555.528
20.38000 560.996
20.39000 573.001
20.40000 584.914
20.41000 578.741
20.42000 561.413
20.43000 544.617
20.44000 540.535
20.45000 541.857
20.46000 543.551
20.47000 549.560
20.48000 556.802
20.49000 563.242
20.50000 559.017
20.51000 553.618
20.52000 551.175
20.53000 561.489
20.54000 573.273
20.55000 578.878
20.56000 566.722
20.57000 553.456
20.58000 544.633
20.59000 549.044
20.60000 552.555
20.61000 555.883
20.62000 558.974
20.63000 562.054
20.64000 560.391
20.65000 554.823
20.66000 549.331
20.67000 550.164
20.68000 554.322
20.69000 558.219
20.70000 557.522
20.71000 555.138
20.72000 553.410
20.73000 557.812
20.74000 563.715
20.75000 568.840
20.76000 563.337
20.77000 557.222
20.78000 554.498
20.79000 564.312
20.80000 575.297
20.81000 579.377
20.82000 566.324
20.83000 552.467
20.84000 543.754
20.85000 555.882
20.86000 564.887
20.87000 564.360
20.88000 553.418
20.89000 542.521
20.90000 538.273
20.91000 538.697
20.92000 539.112
20.93000 542.148
20.94000 546.240
20.95000 550.128
20.96000 551.227
20.97000 551.443
20.98000 550.721
20.99000 542.800
21.00000 533.373
21.01000 525.408
21.02000 530.727
21.03000 536.633
21.04000 543.251
21.05000 552.135
21.06000 561.187
21.07000 567.043
21.08000 566.054
21.09000 564.835
21.10000 564.115
21.11000 570.691
21.12000 575.373
21.13000 571.727
21.14000 560.407
21.15000 549.201
21.16000 545.504
21.17000 546.334
21.18000 547.138
21.19000 550.254
21.20000 554.086
21.21000 557.585
21.22000 557.501
21.23000 556.442
21.24000 555.341
21.25000 553.970
21.26000 552.551
21.27000 551.388
21.28000 550.960
21.29000 550.674
21.30000 552.797
21.31000 561.528
21.32000 570.637
21.33000 574.109
21.34000 567.167
21.35000 559.997
21.36000 556.049
21.37000 549.083
21.38000 544.297
21.39000 544.234
21.40000 547.868
21.41000 551.460
21.42000 553.394
21.43000 554.467
21.44000 555.493
21.45000 550.608
21.46000 544.135
21.47000 539.011
21.48000 545.703
21.49000 555.149
21.50000 562.758
21.51000 560.483
21.52000 556.736
21.53000 553.765
21.54000 566.547
21.55000 577.933
21.56000 582.877
21.57000 572.576
21.58000 561.629
21.59000 558.714
21.60000 568.568
21.61000 578.584
21.62000 583.679
21.63000 580.194
21.64000 577.928
21.65000 583.046
21.66000 593.104
21.67000 603.123
21.68000 612.094
21.69000 620.595
21.70000 628.608
21.71000 639.035
21.72000 649.248
21.73000 658.000
21.74000 656.192
21.75000 652.287
21.76000 652.144
21.77000 669.200
21.78000 688.382
21.79000 703.039
21.80000 726.530
21.81000 745.531
21.82000 761.412
21.83000 770.919
21.84000 780.238
21.85000 790.366
21.86000 801.596
21.87000 812.826
21.88000 838.230
21.89000 875.956
21.90000 913.292
21.91000 929.069
21.92000 932.456
21.93000 936.190
21.94000 946.725
21.95000 959.891
21.96000 972.095
21.97000 977.104
21.98000 979.935
21.99000 983.412
22.00000 990.793
22.01000 998.830
22.02000 1003.269
22.03000 993.649
22.04000 982.609
22.05000 974.511
22.06000 950.432
22.07000 931.184
22.08000 910.377
22.09000 886.824
22.10000 863.219
22.11000 841.381
22.12000 821.593
22.13000 801.868
22.14000 785.922
22.15000 772.884
22.16000 759.809
22.17000 745.412
22.18000 730.360
22.19000 714.565
22.20000 687.689
22.21000 657.114
22.22000 629.309
22.23000 623.583
22.24000 622.846
22.25000 621.690
22.26000 618.394
22.27000 614.798
22.28000 609.190
22.29000 596.832
22.30000 583.929
22.31000 574.884
22.32000 574.916
22.33000 575.201
22.34000 575.902
22.35000 577.232
22.36000 578.567
22.37000 575.911
22.38000 569.344
22.39000 562.826
22.40000 560.803
22.41000 561.631
22.42000 562.342
22.43000 560.228
22.44000 556.906
22.45000 553.245
22.46000 545.620
22.47000 536.857
22.48000 529.057
22.49000 530.542
22.50000 533.352
22.51000 535.914
22.52000 537.405
22.53000 538.772
22.54000 540.396
22.55000 542.766
22.56000 545.183
22.57000 546.794
22.58000 537.980
22.59000 531.254
22.60000 529.263
22.61000 533.402
22.62000 537.557
22.63000 537.399
22.64000 533.665
22.65000 529.981
22.66000 527.507
22.67000 525.745
22.68000 523.996
22.69000 522.489
22.70000 521.071
22.71000 520.147
22.72000 523.879
22.73000 528.759
22.74000 532.999
22.75000 530.199
22.76000 526.857
22.77000 523.373
22.78000 519.356
22.79000 515.288
22.80000 512.628
22.81000 513.477
22.82000 514.492
22.83000 515.132
22.84000 523.249
22.85000 529.211
22.86000 531.205
22.87000 528.835
22.88000 526.433
22.89000 519.980
22.90000 510.662
22.91000 501.545
22.92000 507.263
22.93000 519.478
22.94000 530.965
22.95000 532.450
22.96000 530.751
22.97000 528.578
22.98000 522.737
22.99000 516.124
23.00000 510.531
23.01000 512.522
23.02000 515.028
23.03000 518.117
23.04000 523.072
23.05000 528.168
23.06000 531.080
23.07000 529.291
23.08000 527.341
23.09000 526.187
23.10000 518.740
23.11000 513.442
23.12000 517.618
23.13000 530.583
23.14000 543.347
23.15000 542.480
23.16000 533.344
23.17000 524.495
23.18000 521.813
23.19000 521.654
23.20000 520.923
23.21000 513.958
23.22000 505.285
23.23000 498.085
23.24000 500.357
23.25000 504.320
23.26000 507.573
23.27000 506.242
23.28000 504.740
23.29000 503.824
23.30000 504.528
23.31000 505.326
23.32000 506.952
23.33000 510.119
23.34000 513.321
23.35000 515.089
23.36000 513.322
23.37000 512.101
23.38000 512.061
23.39000 512.950
23.40000 513.835
23.41000 514.563
23.42000 515.209
23.43000 515.828
23.44000 508.253
23.45000 498.511
23.46000 490.540
23.47000 498.191
23.48000 509.507
23.49000 518.850
23.50000 517.499
23.51000 514.545
23.52000 512.200
23.53000 513.501
23.54000 514.806
23.55000 513.603
23.56000 506.427
23.57000 498.995
23.58000 498.260
23.59000 508.235
23.60000 518.350
23.61000 523.512
23.62000 517.950
23.63000 514.244
23.64000 513.450
23.65000 514.616
23.66000 515.669
23.67000 513.613
23.68000 510.155
23.69000 506.894
23.70000 499.973
23.71000 492.614
23.72000 486.193
23.73000 486.602
23.74000 488.377
23.75000 492.030
23.76000 504.332
23.77000 517.710
23.78000 527.949
23.79000 515.241
23.80000 503.958
23.81000 496.975
23.82000 498.829
23.83000 500.949
23.84000 499.193
23.85000 492.124
23.86000 485.027
23.87000 482.800
23.88000 484.853
23.89000 486.895
23.90000 488.359
23.91000 489.489
23.92000 490.734
23.93000 494.268
23.94000 498.693
23.95000 502.798
23.96000 508.777
23.97000 514.602
23.98000 519.275
23.99000 516.935
24.00000 513.410
24.01000 510.160
24.02000 507.990
24.03000 505.930
24.04000 504.417
24.05000 501.328
24.06000 498.875
24.07000 497.124
24.08000 496.617
24.09000 496.133
24.10000 500.343
24.11000 510.033
24.12000 519.703
24.13000 515.367
24.14000 500.657
24.15000 486.327
24.16000 485.531
24.17000 491.479
24.18000 496.939
24.19000 495.072
24.20000 490.744
24.21000 486.805
24.22000 489.716
24.23000 493.644
24.24000 496.531
24.25000 494.071
24.26000 490.855
24.27000 489.200
24.28000 492.822
24.29000 496.875
24.30000 499.721
24.31000 509.041
24.32000 516.287
24.33000 515.285
24.34000 501.722
24.35000 488.026
24.36000 484.098
24.37000 489.805
24.38000 495.471
24.39000 500.798
24.40000 505.827
24.41000 510.542
24.42000 507.520
24.43000 501.171
24.44000 495.210
24.45000 493.824
24.46000 493.761
24.47000 493.705
24.48000 486.043
24.49000 478.128
24.50000 472.528
24.51000 477.049
24.52000 482.753
24.53000 488.682
24.54000 495.267
24.55000 501.894
24.56000 506.320
24.57000 490.278
24.58000 477.991
24.59000 471.301
24.60000 471.906
24.61000 472.540
24.62000 471.813
24.63000 469.951
24.64000 468.113
24.65000 476.017
24.66000 488.931
24.67000 501.092
24.68000 499.658
24.69000 493.175
24.70000 487.328
24.71000 487.517
24.72000 489.203
24.73000 490.670
24.74000 487.952
24.75000 485.061
24.76000 484.013
24.77000 489.861
24.78000 496.365
24.79000 499.019
24.80000 492.008
24.81000 484.533
24.82000 479.810
24.83000 484.140
24.84000 487.384
24.85000 483.441
24.86000 471.539
24.87000 459.722
24.88000 460.723
24.89000 470.847
24.90000 480.756
24.91000 487.256
24.92000 491.940
24.93000 496.618
24.94000 501.189
24.95000 505.726
24.96000 508.450
24.97000 497.048
24.98000 482.651
24.99000 470.461
25.00000 476.513
25.01000 483.619
25.02000 488.654
25.03000 487.021
25.04000 484.883
25.05000 482.575
25.06000 479.900
25.07000 477.211
25.08000 475.615
25.09000 474.727
25.10000 474.103
25.11000 476.852
25.12000 482.750
25.13000 488.669
25.14000 496.062
25.15000 504.353
25.16000 512.388
25.17000 502.347
25.18000 485.822
25.19000 470.973
25.20000 474.530
25.21000 483.158
25.22000 489.478
25.23000 480.842
25.24000 469.517
25.25000 460.210
25.26000 466.400
25.27000 472.882
25.28000 477.233
25.29000 475.674
25.30000 473.768
25.31000 471.361
25.32000 468.015
25.33000 464.648
25.34000 462.784
25.35000 481.154
25.36000 493.844
25.37000 497.748
25.38000 494.687
25.39000 491.514
25.40000 483.711
25.41000 473.476
25.42000 463.677
25.43000 470.966
25.44000 483.400
25.45000 493.906
25.46000 487.262
25.47000 476.570
25.48000 467.635
25.49000 468.284
25.50000 470.381
25.51000 472.049
25.52000 478.736
25.53000 484.482
25.54000 487.503
25.55000 484.000
25.56000 480.213
25.57000 475.911
25.58000 470.778
25.59000 465.634
25.60000 463.000
25.61000 462.472
25.62000 462.122
25.63000 462.227
25.64000 462.640
25.65000 463.178
25.66000 467.179
25.67000 472.752
25.68000 478.010
25.69000 478.953
25.70000 478.611
25.71000 479.014
25.72000 484.886
25.73000 491.859
25.74000 496.587
25.75000 490.923
25.76000 483.954
25.77000 478.612
25.78000 471.297
25.79000 465.411
25.80000 463.277
25.81000 468.901
25.82000 474.762
25.83000 481.876
25.84000 490.718
25.85000 499.567
25.86000 495.192
25.87000 479.131
25.88000 463.323
25.89000 462.184
25.90000 469.577
25.91000 476.964
25.92000 484.217
25.93000 491.417
25.94000 498.099
25.95000 493.522
25.96000 486.734
25.97000 479.809
25.98000 472.051
25.99000 464.151
26.00000 457.822
26.01000 457.710
26.02000 458.237
26.03000 458.624
26.04000 466.622
26.05000 473.127
26.06000 476.922
26.07000 475.888
26.08000 474.760
26.09000 471.575
26.10000 465.973
26.11000 460.382
26.12000 457.624
26.13000 457.002
26.14000 456.514
26.15000 460.881
26.16000 467.682
26.17000 473.978
26.18000 472.625
26.19000 468.687
26.20000 465.100
26.21000 469.363
26.22000 474.699
26.23000 478.571
26.24000 474.869
26.25000 470.088
26.26000 465.380
26.27000 460.922
26.28000 456.486
26.29000 453.364
26.30000 457.838
26.31000 461.454
26.32000 464.329
26.33000 466.068
26.34000 467.796
26.35000 470.057
26.36000 472.848
26.37000 475.620
26.38000 471.575
26.39000 463.267
26.40000 455.279
26.41000 455.251
26.42000 458.667
26.43000 461.524
26.44000 457.704
26.45000 451.942
26.46000 446.804
26.47000 448.094
26.48000 450.284
26.49000 452.539
26.50000 455.084
26.51000 457.664
26.52000 458.501
26.53000 454.240
26.54000 449.650
26.55000 446.577
26.56000 450.904
26.57000 454.260
26.58000 457.729
26.59000 461.348
26.60000 464.955
26.61000 461.491
26.62000 452.087
26.63000 442.804
26.64000 441.690
26.65000 445.015
26.66000 448.228
26.67000 449.401
26.68000 449.812
26.69000 450.370
26.70000 452.329
26.71000 454.638
26.72000 456.649
26.73000 464.814
26.74000 472.633
26.75000 476.626
26.76000 466.211
26.77000 454.412
26.78000 446.197
26.79000 447.028
26.80000 448.300
26.81000 449.105
26.82000 459.665
26.83000 467.441
26.84000 465.187
26.85000 451.748
26.86000 438.387
26.87000 437.718
26.88000 446.140
26.89000 454.387
26.90000 455.327
26.91000 452.875
26.92000 451.097
26.93000 458.772
26.94000 469.493
26.95000 477.994
26.96000 469.071
26.97000 456.432
26.98000 445.717
26.99000 450.817
27.00000 456.871
27.01000 460.202
27.02000 454.715
27.03000 448.553
27.04000 446.540
27.05000 453.571
27.06000 460.919
27.07000 465.293
27.08000 454.440
27.09000 446.660
27.10000 444.941
27.11000 448.923
27.12000 452.827
27.13000 451.220
27.14000 446.229
27.15000 441.390
27.16000 442.779
27.17000 446.530
27.18000 449.787
27.19000 447.587
27.20000 443.873
27.21000 440.139
27.22000 436.273
27.23000 432.382
27.24000 429.181
27.25000 432.008
27.26000 434.880
27.27000 438.583
27.28000 444.601
27.29000 450.756
27.30000 451.695
27.31000 442.822
27.32000 433.721
27.33000 428.666
27.34000 448.813
27.35000 462.746
27.36000 463.467
27.37000 453.649
27.38000 443.957
27.39000 439.558
27.40000 437.958
27.41000 436.425
27.42000 439.364
27.43000 443.590
27.44000 447.341
27.45000 446.822
27.46000 445.289
27.47000 443.827
27.48000 442.763
27.49000 441.758
27.50000 440.959
27.51000 439.918
27.52000 439.061
27.53000 439.237
27.54000 441.899
27.55000 444.670
27.56000 446.938
27.57000 448.392
27.58000 449.834
27.59000 450.575
27.60000 438.764
27.61000 430.950
27.62000 438.345
27.63000 456.105
27.64000 473.035
27.65000 466.526
27.66000 449.327
27.67000 433.087
27.68000 432.719
27.69000 436.855
27.70000 440.737
27.71000 442.749
27.72000 444.381
27.73000 446.131
27.74000 448.427
27.75000 450.793
27.76000 452.609
27.77000 450.492
27.78000 448.598
27.79000 444.597
27.80000 436.210
27.81000 427.688
27.82000 421.840
27.83000 419.704
27.84000 417.592
27.85000 419.481
27.86000 424.928
27.87000 430.311
27.88000 431.931
27.89000 431.347
27.90000 431.224
27.91000 440.453
27.92000 453.366
27.93000 465.360
27.94000 453.046
27.95000 436.151
27.96000 422.284
27.97000 427.098
27.98000 435.114
27.99000 442.524
28.00000 447.519
28.01000 452.264
28.02000 455.762
28.03000 449.158
28.04000 443.619
28.05000 442.034
28.06000 447.541
28.07000 453.189
28.08000 453.662
28.09000 448.011
28.10000 442.365
28.11000 440.712
28.12000 442.077
28.13000 443.416
28.14000 443.805
28.15000 443.714
28.16000 443.171
28.17000 435.681
28.18000 425.830
28.19000 416.850
28.20000 418.677
28.21000 422.460
28.22000 426.747
28.23000 433.656
28.24000 440.941
28.25000 446.497
28.26000 446.143
28.27000 445.297
28.28000 444.700
28.29000 440.609
28.30000 437.400
28.31000 435.909
28.32000 437.065
28.33000 438.251
28.34000 443.755
28.35000 453.578
28.36000 463.334
28.37000 460.184
28.38000 448.834
28.39000 437.708
28.40000 432.211
28.41000 429.163
28.42000 426.819
28.43000 432.935
28.44000 441.527
28.45000 449.196
28.46000 448.893
28.47000 447.295
28.48000 445.361
28.49000 441.935
28.50000 438.331
28.51000 435.045
28.52000 432.689
28.53000 430.395
28.54000 428.855
28.55000 432.775
28.56000 435.795
28.57000 436.076
28.58000 432.744
28.59000 429.403
28.60000 430.675
28.61000 435.848
28.62000 440.955
28.63000 439.973
28.64000 435.708
28.65000 431.645
28.66000 431.317
28.67000 432.393
28.68000 432.871
28.69000 427.571
28.70000 420.819
28.71000 414.934
28.72000 417.958
28.73000 421.775
28.74000 424.565
28.75000 423.457
28.76000 421.972
28.77000 421.274
28.78000 422.574
28.79000 423.974
28.80000 424.862
28.81000 430.577
28.82000 434.785
28.83000 438.214
28.84000 440.768
28.85000 443.288
28.86000 440.688
28.87000 434.396
28.88000 428.233
28.89000 424.644
28.90000 422.383
28.91000 420.106
28.92000 417.610
28.93000 415.043
28.94000 413.254
28.95000 417.621
28.96000 423.310
28.97000 428.138
28.98000 428.567
28.99000 428.427
29.00000 428.294
29.01000 428.183
29.02000 428.074
29.03000 425.228
29.04000 416.380
29.05000 407.320
29.06000 401.911
29.07000 421.809
29.08000 436.075
29.09000 442.339
29.10000 441.024
29.11000 439.649
29.12000 433.874
29.13000 425.380
29.14000 417.141
29.15000 416.010
29.16000 417.734
29.17000 419.526
29.18000 422.074
29.19000 424.834
29.20000 427.568
29.21000 430.126
29.22000 432.652
29.23000 434.733
29.24000 430.141
29.25000 425.751
29.26000 423.889
29.27000 429.127
29.28000 434.790
29.29000 437.231
29.30000 433.574
29.31000 429.773
29.32000 427.655
29.33000 422.645
29.34000 419.182
29.35000 419.227
29.36000 422.087
29.37000 424.883
29.38000 424.955
29.39000 423.577
29.40000 422.257
29.41000 424.823
29.42000 428.518
29.43000 431.599
29.44000 429.142
29.45000 425.359
29.46000 421.931
29.47000 420.461
29.48000 419.290
29.49000 418.357
29.50000 427.669
29.51000 435.931
29.52000 441.903
29.53000 442.328
29.54000 442.505
29.55000 440.117
29.56000 433.549
29.57000 426.921
29.58000 423.505
29.59000 435.091
29.60000 442.837
29.61000 443.597
29.62000 439.566
29.63000 435.452
29.64000 428.938
29.65000 421.324
29.66000 414.130
29.67000 411.381
29.68000 410.119
29.69000 409.436
29.70000 413.059
29.71000 417.560
29.72000 422.493
29.73000 429.453
29.74000 436.671
29.75000 442.221
29.76000 435.227
29.77000 428.985
29.78000 428.093
29.79000 438.396
29.80000 449.051
29.81000 451.971
29.82000 444.087
29.83000 436.133
29.84000 436.786
29.85000 445.154
29.86000 453.424
29.87000 455.817
29.88000 454.751
29.89000 453.705
29.90000 453.093
29.91000 452.652
29.92000 452.243
29.93000 452.849
29.94000 453.638
29.95000 455.086
29.96000 460.627
29.97000 466.873
29.98000 470.960
29.99000 466.393
30.00000 460.922
30.01000 456.882
30.02000 459.771
30.03000 462.304
30.04000 462.973
30.05000 460.281
30.06000 457.521
30.07000 454.866
30.08000 452.339
30.09000 449.818
30.10000 452.030
30.11000 457.816
30.12000 463.327
30.13000 458.597
30.14000 448.672
30.15000 439.364
30.16000 439.638
30.17000 443.187
30.18000 446.426
30.19000 449.123
30.20000 451.406
30.21000 452.574
30.22000 447.895
30.23000 442.370
30.24000 437.838
30.25000 436.720
30.26000 435.889
30.27000 435.302
30.28000 430.638
30.29000 426.972
30.30000 425.951
30.31000 429.034
30.32000 432.163
30.33000 434.097
30.34000 434.828
30.35000 435.554
30.36000 435.594
30.37000 435.192
30.38000 435.032
30.39000 441.044
30.40000 449.758
30.41000 457.766
30.42000 457.199
30.43000 454.108
30.44000 451.346
30.45000 445.909
30.46000 440.721
30.47000 436.522
30.48000 436.732
30.49000 437.470
30.50000 438.861
30.51000 442.184
30.52000 445.635
30.53000 447.955
30.54000 441.054
30.55000 435.738
30.56000 433.617
30.57000 435.742
30.58000 437.890
30.59000 441.633
30.60000 446.734
30.61000 451.772
30.62000 460.016
30.63000 469.803
30.64000 478.696
30.65000 470.857
30.66000 456.694
30.67000 444.577
30.68000 452.388
30.69000 465.238
30.70000 476.448
30.71000 481.348
30.72000 484.658
30.73000 485.133
30.74000 474.797
30.75000 463.406
30.76000 458.349
30.77000 469.478
30.78000 481.413
30.79000 489.008
30.80000 492.815
30.81000 495.533
30.82000 495.466
30.83000 492.252
30.84000 489.081
30.85000 493.448
30.86000 503.282
30.87000 512.918
30.88000 524.328
30.89000 536.128
30.90000 547.694
30.91000 555.918
30.92000 563.053
30.93000 570.875
30.94000 584.183
30.95000 598.676
30.96000 610.990
30.97000 641.595
30.98000 669.378
30.99000 700.517
31.00000 742.653
31.01000 785.647
31.02000 829.368
31.03000 874.692
31.04000 920.074
31.05000 947.235
31.06000 1054.924
31.07000 1131.884
31.08000 1217.537
31.09000 1311.476
31.10000 1405.536
31.11000 1508.546
31.12000 1617.122
31.13000 1722.468
31.14000 1867.312
31.15000 2020.304
31.16000 2174.635
31.17000 2344.082
31.18000 2517.769
31.19000 2687.960
31.20000 2834.986
31.21000 2977.764
31.22000 3095.555
31.23000 3268.277
31.24000 3415.597
31.25000 3544.830
31.26000 3622.982
31.27000 3698.043
31.28000 3771.316
31.29000 3841.184
31.30000 3910.970
31.31000 3949.966
31.32000 3911.717
31.33000 3884.993
31.34000 3836.342
31.35000 3769.971
31.36000 3702.638
31.37000 3593.157
31.38000 3461.124
31.39000 3334.532
31.40000 3189.605
31.41000 3048.106
31.42000 2905.055
31.43000 2747.866
31.44000 2587.276
31.45000 2428.260
31.46000 2278.010
31.47000 2129.114
31.48000 2010.224
31.49000 1838.000
31.50000 1694.989
31.51000 1560.379
31.52000 1446.254
31.53000 1333.054
31.54000 1232.772
31.55000 1153.661
31.56000 1074.856
31.57000 1034.095
31.58000 936.628
31.59000 871.015
31.60000 819.925
31.61000 778.856
31.62000 737.986
31.63000 702.928
31.64000 670.551
31.65000 639.942
31.66000 612.959
31.67000 589.206
31.68000 567.043
31.69000 556.810
31.70000 549.025
31.71000 541.782
31.72000 537.100
31.73000 532.746
31.74000 529.394
31.75000 511.262
31.76000 496.062
31.77000 487.069
31.78000 491.138
31.79000 495.625
31.80000 492.368
31.81000 478.225
31.82000 464.011
31.83000 457.842
31.84000 458.939
31.85000 459.998
31.86000 458.679
31.87000 455.951
31.88000 453.184
31.89000 449.596
31.90000 445.681
31.91000 442.039
31.92000 442.115
31.93000 443.081
31.94000 443.867
31.95000 443.523
31.96000 442.982
31.97000 441.396
31.98000 435.592
31.99000 429.344
32.00000 424.722
32.01000 429.222
32.02000 433.105
32.03000 433.308
32.04000 426.834
32.05000 420.221
32.06000 417.653
32.07000 419.935
32.08000 422.222
32.09000 424.229
32.10000 426.012
32.11000 427.726
32.12000 426.814
32.13000 424.561
32.14000 422.281
32.15000 419.574
32.16000 416.719
32.17000 414.112
32.18000 412.045
32.19000 410.321
32.20000 408.631
32.21000 407.126
32.22000 405.649
32.23000 404.821
32.24000 406.241
32.25000 407.852
32.26000 408.992
32.27000 406.252
32.28000 404.050
32.29000 404.818
32.30000 410.221
32.31000 415.680
32.32000 417.770
32.33000 416.444
32.34000 415.127
32.35000 408.923
32.36000 399.646
32.37000 390.527
32.38000 385.548
32.39000 382.392
32.40000 379.719
32.41000 382.964
32.42000 387.963
32.43000 392.432
32.44000 394.363
32.45000 395.615
32.46000 396.560
32.47000 396.125
32.48000 395.523
32.49000 394.411
32.50000 391.778
32.51000 389.044
32.52000 387.202
32.53000 381.217
32.54000 376.680
32.55000 376.020
32.56000 380.545
32.57000 385.092
32.58000 386.396
32.59000 384.923
32.60000 383.467
32.61000 382.666
32.62000 382.246
32.63000 381.790
32.64000 380.652
32.65000 379.256
32.66000 378.188
32.67000 380.344
32.68000 383.320
32.69000 385.919
32.70000 383.554
32.71000 380.832
32.72000 376.825
32.73000 367.890
32.74000 358.470
32.75000 354.344
32.76000 363.825
32.77000 373.994
32.78000 380.479
32.79000 383.413
32.80000 385.501
32.81000 382.307
32.82000 373.104
32.83000 363.941
32.84000 362.546
32.85000 366.821
32.86000 371.011
32.87000 371.571
32.88000 370.409
32.89000 369.541
32.90000 372.919
32.91000 377.691
32.92000 381.807
32.93000 380.667
32.94000 378.383
32.95000 376.440
32.96000 366.443
32.97000 357.116
32.98000 351.947
32.99000 360.486
33.00000 370.104
33.01000 375.752
33.02000 372.586
33.03000 369.098
33.04000 367.005
33.05000 362.029
33.06000 358.475
33.07000 358.113
33.08000 360.818
33.09000 363.516
33.10000 365.737
33.11000 367.659
33.12000 369.526
33.13000 371.563
33.14000 373.565
33.15000 375.175
33.16000 372.327
33.17000 368.222
33.18000 364.168
33.19000 360.456
33.20000 356.808
33.21000 353.795
33.22000 354.460
33.23000 355.352
33.24000 354.446
33.25000 348.432
33.26000 342.105
33.27000 339.337
33.28000 343.383
33.29000 347.597
33.30000 349.958
33.31000 355.863
33.32000 359.961
33.33000 362.679
33.34000 364.275
33.35000 365.826
33.36000 365.375
33.37000 363.848
33.38000 362.382
33.39000 357.695
33.40000 352.222
33.41000 347.255
33.42000 346.927
33.43000 347.722
33.44000 348.151
33.45000 346.530
33.46000 344.589
33.47000 343.038
33.48000 347.906
33.49000 352.318
33.50000 356.495
33.51000 360.097
33.52000 363.672
33.53000 364.371
33.54000 360.327
33.55000 356.214
33.56000 354.079
33.57000 354.062
33.58000 354.023
33.59000 350.345
33.60000 344.140
33.61000 338.245
33.62000 341.453
33.63000 348.889
33.64000 355.923
33.65000 352.448
33.66000 346.233
33.67000 340.236
33.68000 335.899
33.69000 331.904
33.70000 329.469
33.71000 334.451
33.72000 340.392
33.73000 344.975
33.74000 346.027
33.75000 346.656
33.76000 348.663
33.77000 353.584
33.78000 358.600
33.79000 357.702
33.80000 348.440
33.81000 339.120
33.82000 332.873
33.83000 329.422
33.84000 326.063
33.85000 328.469
33.86000 334.312
33.87000 339.983
33.88000 342.053
33.89000 342.679
33.90000 343.261
33.91000 340.509
33.92000 337.210
33.93000 334.859
33.94000 338.478
33.95000 343.142
33.96000 347.655
33.97000 351.560
33.98000 355.399
33.99000 358.245
34.00000 344.938
34.01000 333.903
34.02000 325.962
34.03000 323.668
34.04000 321.494
34.05000 324.491
34.06000 333.728
34.07000 342.957
34.08000 343.216
34.09000 336.583
34.10000 330.051
34.11000 327.440
34.12000 326.843
34.13000 326.765
34.14000 334.909
34.15000 345.898
34.16000 355.940
34.17000 357.449
34.18000 357.044
34.19000 355.841
34.20000 350.396
34.21000 344.329
34.22000 339.674
34.23000 339.931
34.24000 340.609
34.25000 341.089
34.26000 343.559
34.27000 345.499
34.28000 342.857
34.29000 333.019
34.30000 323.093
34.31000 320.658
34.32000 325.874
34.33000 331.059
34.34000 328.985
34.35000 322.210
34.36000 315.668
34.37000 315.272
34.38000 317.598
34.39000 320.084
34.40000 324.557
34.41000 329.622
34.42000 334.154
34.43000 336.803
34.44000 338.791
34.45000 339.941
34.46000 337.302
34.47000 334.201
34.48000 332.140
34.49000 333.191
34.50000 334.452
34.51000 335.303
34.52000 328.833
34.53000 323.861
34.54000 321.346
34.55000 322.137
34.56000 322.949
34.57000 326.355
34.58000 331.998
34.59000 337.574
34.60000 341.199
34.61000 343.653
34.62000 345.707
34.63000 340.102
34.64000 331.568
34.65000 323.922
34.66000 325.089
34.67000 328.511
34.68000 331.503
34.69000 329.544
34.70000 327.163
34.71000 324.698
34.72000 321.906
34.73000 319.082
34.74000 316.587
34.75000 314.944
34.76000 313.345
34.77000 312.322
34.78000 313.230
34.79000 313.917
34.80000 316.116
34.81000 320.045
34.82000 323.944
34.83000 322.060
34.84000 315.929
34.85000 309.916
34.86000 312.721
34.87000 319.580
34.88000 326.020
34.89000 326.331
34.90000 324.621
34.91000 323.604
34.92000 328.202
34.93000 334.030
34.94000 338.992
34.95000 326.718
34.96000 314.394
34.97000 304.652
34.98000 303.476
34.99000 302.980
35.00000 304.329
35.01000 309.798
35.02000 315.419
35.03000 318.801
35.04000 319.355
35.05000 319.730
35.06000 316.270
35.07000 309.103
35.08000 302.047
35.09000 303.666
35.10000 310.745
35.11000 317.619
35.12000 317.978
35.13000 315.703
35.14000 313.740
35.15000 315.351
35.16000 317.978
35.17000 319.773
35.18000 315.977
35.19000 311.141
35.20000 307.141
35.21000 306.946
35.22000 307.143
35.23000 308.762
35.24000 314.441
35.25000 320.372
35.26000 323.780
35.27000 322.329
35.28000 320.755
35.29000 319.871
35.30000 315.756
35.31000 312.895
35.32000 311.036
35.33000 309.997
35.34000 309.040
35.35000 311.790
35.36000 316.547
35.37000 321.112
35.38000 326.351
35.39000 331.479
35.40000 335.756
35.41000 332.139
35.42000 326.598
35.43000 321.930
35.44000 322.185
35.45000 323.211
35.46000 324.032
35.47000 317.100
35.48000 310.912
35.49000 309.087
35.50000 318.029
35.51000 327.470
35.52000 329.907
35.53000 320.723
35.54000 311.364
35.55000 306.490
35.56000 314.173
35.57000 319.349
35.58000 321.940
35.59000 322.724
35.60000 323.498
35.61000 323.994
35.62000 324.359
35.63000 324.705
35.64000 324.657
35.65000 324.500
35.66000 324.078
35.67000 321.640
35.68000 318.782
35.69000 316.115
35.70000 314.355
35.71000 312.714
35.72000 311.446
35.73000 308.283
35.74000 305.665
35.75000 304.677
35.76000 307.164
35.77000 309.766
35.78000 311.151
35.79000 310.807
35.80000 310.450
35.81000 309.320
35.82000 307.484
35.83000 305.657
35.84000 304.446
35.85000 303.604
35.86000 302.892
35.87000 304.970
35.88000 308.173
35.89000 311.156
35.90000 314.795
35.91000 318.246
35.92000 320.383
35.93000 314.183
35.94000 306.515
35.95000 300.471
35.96000 301.059
35.97000 302.358
35.98000 303.323
35.99000 303.298
36.00000 303.236
36.01000 302.469
36.02000 300.406
36.03000 298.315
36.04000 301.373
36.05000 310.684
36.06000 319.990
36.07000 321.548
36.08000 317.105
36.09000 312.715
36.10000 310.371
36.11000 309.084
36.12000 307.895
36.13000 308.277
36.14000 309.205
36.15000 310.055
36.16000 308.993
36.17000 307.656
36.18000 306.320
36.19000 304.997
36.20000 303.674
36.21000 303.533
36.22000 307.529
36.23000 311.881
36.24000 314.973
36.25000 303.982
36.26000 295.167
36.27000 290.710
36.28000 293.140
36.29000 295.655
36.30000 293.949
36.31000 287.900
36.32000 281.887
36.33000 287.758
36.34000 301.344
36.35000 314.422
36.36000 313.917
36.37000 307.361
36.38000 301.339
36.39000 301.993
36.40000 304.650
36.41000 307.030
36.42000 300.873
36.43000 294.027
36.44000 288.431
36.45000 288.515
36.46000 289.297
36.47000 290.689
36.48000 293.925
36.49000 297.285
36.50000 299.558
36.51000 303.804
36.52000 307.009
36.53000 308.832
36.54000 308.783
36.55000 308.720
36.56000 304.892
36.57000 297.797
36.58000 290.783
36.59000 291.617
36.60000 296.806
36.61000 301.910
36.62000 305.378
36.63000 308.216
36.64000 310.833
36.65000 311.241
36.66000 311.079
36.67000 310.938
36.68000 311.714
36.69000 312.510
36.70000 313.341
36.71000 314.306
36.72000 315.285
36.73000 316.629
36.74000 318.919
36.75000 321.259
36.76000 322.758
36.77000 314.966
36.78000 309.163
36.79000 305.715
36.80000 304.983
36.81000 304.250
36.82000 302.925
36.83000 301.162
36.84000 299.432
36.85000 299.158
36.86000 299.584
36.87000 300.425
36.88000 307.383
36.89000 316.372
36.90000 323.162
36.91000 312.002
36.92000 296.889
36.93000 284.005
36.94000 295.158
36.95000 307.361
36.96000 315.977
36.97000 312.625
36.98000 308.313
36.99000 305.289
37.00000 305.158
37.01000 305.137
37.02000 305.123
37.03000 309.084
37.04000 311.932
37.05000 311.426
37.06000 307.656
37.07000 303.931
37.08000 303.808
37.09000 305.966
37.10000 308.063
37.11000 305.030
37.12000 300.078
37.13000 295.070
37.14000 289.427
37.15000 283.603
37.16000 279.657
37.17000 288.422
37.18000 299.566
37.19000 308.794
37.20000 301.879
37.21000 294.636
37.22000 289.338
37.23000 289.631
37.24000 290.273
37.25000 291.595
37.26000 294.232
37.27000 296.902
37.28000 298.408
37.29000 303.405
37.30000 306.878
37.31000 306.577
37.32000 303.166
37.33000 299.715
37.34000 294.379
37.35000 288.016
37.36000 281.906
37.37000 287.290
37.38000 296.276
37.39000 303.896
37.40000 298.762
37.41000 290.500
37.42000 284.162
37.43000 288.761
37.44000 295.085
37.45000 300.155
37.46000 288.758
37.47000 278.285
37.48000 273.303
37.49000 281.947
37.50000 291.230
37.51000 295.788
37.52000 292.457
37.53000 289.005
37.54000 287.201
37.55000 281.778
37.56000 278.138
37.57000 278.572
37.58000 281.871
37.59000 285.170
37.60000 288.452
37.61000 291.726
37.62000 294.827
37.63000 293.836
37.64000 291.732
37.65000 289.909
37.66000 290.234
37.67000 291.009
37.68000 291.500
37.69000 290.626
37.70000 289.573
37.71000 288.759
37.72000 287.421
37.73000 286.329
37.74000 286.619
37.75000 289.871
37.76000 293.222
37.77000 293.332
37.78000 288.799
37.79000 284.231
37.80000 281.870
37.81000 281.545
37.82000 281.243
37.83000 282.416
37.84000 284.479
37.85000 286.618
37.86000 290.373
37.87000 294.783
37.88000 298.895
37.89000 304.040
37.90000 308.951
37.91000 313.586
37.92000 316.453
37.93000 319.007
37.94000 320.217
37.95000 315.907
37.96000 311.002
37.97000 307.354
37.98000 310.539
37.99000 313.320
38.00000 313.810
38.01000 310.067
38.02000 306.231
38.03000 301.908
38.04000 296.990
38.05000 292.081
38.06000 289.303
38.07000 288.198
38.08000 287.230
38.09000 291.745
38.10000 299.110
38.11000 306.043
38.12000 305.985
38.13000 303.479
38.14000 301.186
38.15000 305.951
38.16000 311.655
38.17000 315.755
38.18000 311.218
38.19000 305.396
38.20000 301.989
38.21000 307.093
38.22000 312.939
38.23000 317.099
38.24000 318.713
38.25000 319.861
38.26000 321.601
38.27000 324.284
38.28000 326.978
38.29000 328.485
38.30000 328.763
38.31000 329.039
38.32000 331.654
38.33000 335.778
38.34000 340.010
38.35000 347.151
38.36000 355.595
38.37000 363.408
38.38000 363.260
38.39000 360.711
38.40000 358.426
38.41000 365.092
38.42000 372.470
38.43000 381.357
38.44000 397.142
38.45000 413.780
38.46000 427.005
38.47000 429.877
38.48000 432.040
38.49000 433.505
38.50000 448.921
38.51000 460.723
38.52000 470.434
38.53000 477.297
38.54000 484.138
38.55000 486.077
38.56000 483.730
38.57000 481.410
38.58000 487.466
38.59000 498.078
38.60000 508.132
38.61000 507.215
38.62000 502.052
38.63000 496.836
38.64000 491.096
38.65000 485.219
38.66000 480.072
38.67000 478.094
38.68000 476.853
38.69000 474.813
38.70000 469.651
38.71000 464.173
38.72000 459.904
38.73000 458.799
38.74000 457.859
38.75000 457.255
38.76000 437.801
38.77000 423.355
38.78000 411.452
38.79000 402.501
38.80000 393.555
38.81000 384.692
38.82000 375.893
38.83000 367.259
38.84000 366.545
38.85000 369.640
38.86000 372.309
38.87000 368.636
38.88000 362.844
38.89000 356.340
38.90000 343.974
38.91000 330.308
38.92000 318.645
38.93000 314.202
38.94000 311.315
38.95000 309.750
38.96000 312.624
38.97000 315.857
38.98000 316.250
38.99000 310.224
39.00000 303.953
39.01000 300.162
39.02000 301.692
39.03000 302.822
39.04000 300.516
39.05000 294.842
39.06000 289.224
39.07000 288.205
39.08000 290.115
39.09000 291.971
39.10000 290.423
39.11000 287.567
39.12000 284.947
39.13000 285.084
39.14000 286.014
39.15000 286.737
39.16000 286.051
39.17000 285.099
39.18000 284.310
39.19000 283.478
39.20000 282.787
39.21000 281.649
39.22000 279.219
39.23000 276.706
39.24000 274.919
39.25000 274.545
39.26000 274.208
39.27000 274.017
39.28000 273.245
39.29000 272.703
39.30000 270.809
39.31000 267.794
39.32000 264.865
39.33000 265.985
39.34000 269.323
39.35000 272.531
39.36000 275.209
39.37000 277.533
39.38000 279.609
39.39000 279.337
39.40000 278.487
39.41000 277.069
39.42000 272.395
39.43000 267.205
39.44000 263.038
39.45000 270.836
39.46000 278.070
39.47000 282.995
39.48000 282.158
39.49000 281.047
39.50000 278.604
39.51000 273.926
39.52000 269.212
39.53000 266.741
39.54000 270.949
39.55000 273.777
39.56000 273.186
39.57000 270.177
39.58000 267.262
39.59000 267.251
39.60000 268.613
39.61000 269.904
39.62000 272.972
39.63000 276.319
39.64000 278.549
39.65000 272.141
39.66000 263.914
39.67000 256.234
39.68000 251.212
39.69000 246.541
39.70000 242.922
39.71000 263.645
39.72000 281.554
39.73000 290.029
39.74000 278.167
39.75000 265.613
39.76000 260.411
39.77000 265.805
39.78000 271.282
39.79000 275.523
39.80000 278.616
39.81000 281.645
39.82000 280.406
39.83000 276.576
39.84000 272.756
39.85000 269.136
39.86000 265.598
39.87000 262.298
39.88000 270.726
39.89000 281.269
39.90000 289.455
39.91000 282.462
39.92000 272.758
39.93000 263.962
39.94000 258.919
39.95000 254.285
39.96000 250.833
39.97000 257.430
39.98000 263.018
39.99000 265.514
40.00000 262.264
40.01000 258.885
40.02000 256.606
40.03000 255.680
40.04000 254.760
40.05000 256.364
40.06000 259.940
40.07000 263.395
40.08000 261.919
40.09000 257.866
40.10000 253.849
40.11000 250.414
40.12000 247.185
40.13000 244.226
40.14000 250.613
40.15000 258.250
40.16000 264.724
40.17000 264.899
40.18000 264.129
40.19000 263.555
40.20000 263.677
40.21000 263.861
40.22000 263.992
40.23000 260.134
40.24000 257.062
40.25000 255.034
40.26000 254.678
40.27000 254.344
40.28000 252.072
40.29000 247.778
40.30000 243.508
40.31000 249.429
40.32000 262.046
40.33000 274.155
40.34000 272.279
40.35000 264.097
40.36000 256.269
40.37000 252.941
40.38000 250.979
40.39000 249.218
40.40000 253.736
40.41000 258.784
40.42000 262.564
40.43000 260.508
40.44000 257.724
40.45000 254.465
40.46000 249.760
40.47000 244.955
40.48000 241.691
40.49000 242.507
40.50000 243.208
40.51000 244.655
40.52000 247.126
40.53000 249.603
40.54000 252.558
40.55000 255.933
40.56000 259.271
40.57000 260.008
40.58000 259.259
40.59000 258.521
40.60000 258.003
40.61000 257.572
40.62000 257.063
40.63000 255.768
40.64000 254.268
40.65000 252.953
40.66000 252.221
40.67000 251.678
40.68000 250.737
40.69000 248.234
40.70000 245.571
40.71000 244.043
40.72000 245.504
40.73000 247.123
40.74000 248.165
40.75000 254.113
40.76000 258.523
40.77000 262.339
40.78000 265.461
40.79000 268.559
40.80000 267.053
40.81000 262.100
40.82000 257.239
40.83000 252.612
40.84000 248.262
40.85000 243.973
40.86000 240.591
40.87000 237.514
40.88000 234.877
40.89000 235.878
40.90000 237.690
40.91000 239.239
40.92000 245.182
40.93000 250.714
40.94000 255.598
40.95000 258.289
40.96000 260.802
40.97000 263.046
40.98000 264.678
40.99000 266.287
41.00000 267.263
41.01000 259.059
41.02000 253.139
41.03000 251.952
41.04000 255.438
41.05000 258.898
41.06000 260.228
41.07000 260.192
41.08000 260.157
41.09000 257.082
41.10000 252.913
41.11000 248.694
41.12000 243.887
41.13000 238.910
41.14000 235.110
41.15000 239.397
41.16000 245.218
41.17000 250.050
41.18000 248.949
41.19000 247.464
41.20000 247.394
41.21000 251.443
41.22000 255.755
41.23000 257.555
41.24000 254.433
41.25000 251.180
41.26000 249.336
41.27000 242.310
41.28000 237.411
41.29000 235.832
41.30000 237.024
41.31000 238.211
41.32000 239.119
41.33000 239.874
41.34000 240.600
41.35000 243.083
41.36000 246.021
41.37000 248.329
41.38000 244.658
41.39000 239.501
41.40000 235.125
41.41000 235.241
41.42000 236.076
41.43000 236.747
41.44000 243.085
41.45000 248.660
41.46000 250.346
41.47000 242.262
41.48000 233.708
41.49000 230.339
41.50000 235.728
41.51000 241.258
41.52000 244.166
41.53000 241.746
41.54000 240.097
41.55000 237.598
41.56000 234.493
41.57000 231.685
41.58000 238.191
41.59000 249.125
41.60000 259.494
41.61000 259.976
41.62000 257.501
41.63000 255.217
41.64000 254.424
41.65000 253.948
41.66000 253.096
41.67000 250.411
41.68000 247.481
41.69000 245.208
41.70000 245.743
41.71000 246.337
41.72000 245.344
41.73000 240.909
41.74000 236.356
41.75000 233.746
41.76000 233.955
41.77000 234.187
41.78000 236.801
41.79000 241.638
41.80000 246.401
41.81000 246.002
41.82000 242.451
41.83000 238.865
41.84000 234.495
41.85000 229.802
41.86000 225.421
41.87000 229.166
41.88000 234.589
41.89000 239.164
41.90000 238.237
41.91000 236.320
41.92000 233.771
41.93000 228.593
41.94000 223.128
41.95000 219.050
41.96000 228.046
41.97000 235.650
41.98000 240.714
41.99000 241.027
42.00000 241.231
42.01000 242.887
42.02000 246.341
42.03000 249.794
42.04000 251.705
42.05000 252.391
42.06000 252.978
42.07000 249.474
42.08000 243.820
42.09000 238.359
42.10000 236.103
42.11000 234.984
42.12000 233.958
42.13000 235.958
42.14000 238.377
42.15000 240.652
42.16000 242.141
42.17000 243.512
42.18000 244.398
42.19000 243.552
42.20000 242.552
42.21000 241.838
42.22000 238.951
42.23000 236.677
42.24000 234.148
42.25000 231.209
42.26000 228.265
42.27000 227.445
42.28000 228.855
42.29000 230.257
42.30000 233.413
42.31000 237.702
42.32000 241.821
42.33000 241.184
42.34000 238.389
42.35000 235.343
42.36000 229.067
42.37000 221.805
42.38000 215.282
42.39000 222.417
42.40000 231.066
42.41000 238.544
42.42000 240.605
42.43000 241.986
42.44000 242.064
42.45000 238.141
42.46000 233.939
42.47000 231.078
42.48000 226.836
42.49000 223.636
42.50000 223.507
42.51000 227.615
42.52000 231.748
42.53000 233.991
42.54000 234.561
42.55000 235.124
42.56000 235.329
42.57000 235.325
42.58000 235.174
42.59000 232.082
42.60000 227.837
42.61000 224.260
42.62000 227.526
42.63000 232.588
42.64000 237.030
42.65000 231.551
42.66000 225.392
42.67000 222.147
42.68000 230.432
42.69000 239.903
42.70000 243.932
42.71000 233.553
42.72000 222.403
42.73000 215.209
42.74000 225.234
42.75000 232.805
42.76000 235.193
42.77000 231.487
42.78000 227.778
42.79000 225.534
42.80000 224.393
42.81000 223.273
42.82000 225.829
42.83000 230.074
42.84000 234.094
42.85000 234.672
42.86000 234.088
42.87000 233.489
42.88000 232.764
42.89000 232.011
42.90000 231.367
42.91000 229.319
42.92000 227.424
42.93000 225.673
42.94000 224.413
42.95000 223.193
42.96000 222.935
42.97000 224.874
42.98000 226.899
42.99000 228.130
43.00000 235.535
43.01000 240.869
43.02000 244.852
43.03000 247.493
43.04000 250.060
43.05000 246.277
43.06000 238.398
43.07000 230.733
43.08000 229.112
43.09000 230.060
43.10000 231.067
43.11000 232.793
43.12000 234.727
43.13000 236.380
43.14000 236.085
43.15000 235.418
43.16000 234.863
43.17000 223.286
43.18000 212.631
43.19000 206.782
43.20000 214.997
43.21000 224.119
43.22000 229.506
43.23000 227.524
43.24000 225.343
43.25000 224.103
43.26000 232.112
43.27000 237.713
43.28000 239.126
43.29000 237.020
43.30000 234.834
43.31000 228.671
43.32000 220.303
43.33000 212.254
43.34000 218.753
43.35000 229.940
43.36000 240.174
43.37000 241.279
43.38000 240.103
43.39000 238.491
43.40000 234.350
43.41000 229.801
43.42000 226.139
43.43000 232.186
43.44000 237.849
43.45000 242.308
43.46000 243.728
43.47000 245.000
43.48000 242.652
43.49000 234.152
43.50000 225.550
43.51000 221.013
43.52000 220.092
43.53000 219.481
43.54000 220.761
43.55000 223.398
43.56000 225.885
43.57000 223.625
43.58000 219.094
43.59000 214.795
43.60000 215.690
43.61000 218.058
43.62000 220.627
43.63000 224.763
43.64000 229.234
43.65000 233.426
43.66000 236.248
43.67000 238.885
43.68000 240.934
43.69000 235.482
43.70000 230.687
43.71000 226.445
43.72000 223.411
43.73000 220.419
43.74000 220.898
43.75000 226.440
43.76000 232.026
43.77000 233.401
43.78000 230.817
43.79000 228.225
43.80000 225.077
43.81000 221.586
43.82000 218.191
43.83000 216.934
43.84000 216.559
43.85000 216.209
43.86000 214.835
43.87000 213.332
43.88000 212.690
43.89000 217.678
43.90000 223.685
43.91000 228.941
43.92000 231.051
43.93000 232.814
43.94000 234.131
43.95000 230.066
43.96000 226.648
43.97000 225.722
43.98000 229.484
43.99000 233.356
44.00000 233.155
44.01000 227.876
44.02000 222.592
44.03000 222.982
44.04000 227.877
44.05000 232.649
44.06000 232.201
44.07000 228.991
44.08000 226.092
44.09000 228.388
44.10000 232.537
44.11000 236.343
44.12000 236.399
44.13000 235.654
44.14000 235.051
44.15000 235.226
44.16000 235.520
44.17000 235.905
44.18000 236.620
44.19000 237.364
44.20000 237.897
44.21000 232.834
44.22000 228.779
44.23000 227.567
44.24000 230.961
44.25000 234.419
44.26000 235.764
44.27000 234.877
44.28000 233.993
44.29000 232.240
44.30000 229.921
44.31000 227.767
44.32000 230.243
44.33000 234.831
44.34000 239.360
44.35000 243.128
44.36000 246.660
44.37000 249.836
44.38000 250.119
44.39000 249.854
44.40000 248.834
44.41000 244.295
44.42000 239.310
44.43000 237.480
44.44000 245.393
44.45000 253.995
44.46000 259.863
44.47000 257.370
44.48000 255.312
44.49000 256.566
44.50000 262.420
44.51000 268.297
44.52000 267.464
44.53000 260.645
44.54000 253.899
44.55000 257.691
44.56000 267.431
44.57000 277.178
44.58000 287.079
44.59000 297.041
44.60000 306.086
44.61000 305.661
44.62000 302.735
44.63000 300.164
44.64000 311.223
44.65000 322.740
44.66000 334.650
44.67000 348.126
44.68000 361.765
44.69000 373.143
44.70000 378.504
44.71000 383.538
44.72000 386.793
44.73000 410.782
44.74000 428.628
44.75000 440.769
44.76000 446.157
44.77000 451.567
44.78000 464.075
44.79000 481.966
44.80000 499.540
44.81000 520.690
44.82000 542.854
44.83000 564.338
44.84000 575.371
44.85000 582.851
44.86000 590.686
44.87000 601.512
44.88000 613.014
44.89000 622.863
44.90000 616.534
44.91000 609.232
44.92000 605.537
44.93000 614.176
44.94000 623.842
44.95000 632.584
44.96000 639.199
44.97000 645.730
44.98000 649.710
44.99000 644.366
45.00000 640.472
45.01000 631.021
45.02000 616.008
45.03000 600.982
45.04000 584.793
45.05000 567.850
45.06000 551.361
45.07000 537.674
45.08000 525.803
45.09000 514.197
45.10000 505.772
45.11000 498.280
45.12000 490.719
45.13000 482.684
45.14000 474.558
45.15000 467.796
45.16000 451.026
45.17000 436.155
45.18000 422.724
45.19000 413.529
45.20000 404.610
45.21000 394.162
45.22000 380.678
45.23000 367.111
45.24000 359.375
45.25000 350.139
45.26000 343.689
45.27000 334.959
45.28000 324.300
45.29000 313.762
45.30000 309.237
45.31000 308.068
45.32000 306.943
45.33000 297.173
45.34000 284.961
45.35000 273.574
45.36000 270.154
45.37000 268.738
45.38000 266.908
45.39000 262.664
45.40000 258.028
45.41000 254.291
45.42000 259.103
45.43000 263.683
45.44000 264.940
45.45000 257.753
45.46000 250.149
45.47000 245.460
45.48000 245.756
45.49000 246.136
45.50000 246.337
45.51000 248.014
45.52000 249.129
45.53000 246.316
45.54000 240.669
45.55000 235.155
45.56000 233.947
45.57000 234.811
45.58000 235.631
45.59000 234.172
45.60000 232.143
45.61000 230.380
45.62000 230.718
45.63000 231.508
45.64000 231.563
45.65000 227.986
45.66000 223.916
45.67000 220.748
45.68000 221.814
45.69000 222.922
45.70000 224.074
45.71000 225.320
45.72000 226.570
45.73000 223.700
45.74000 214.782
45.75000 205.810
45.76000 204.871
45.77000 211.540
45.78000 218.172
45.79000 222.137
45.80000 224.453
45.81000 226.599
45.82000 224.881
45.83000 221.557
45.84000 218.450
45.85000 219.604
45.86000 221.731
45.87000 223.131
45.88000 219.743
45.89000 215.484
45.90000 212.444
45.91000 214.544
45.92000 217.218
45.93000 219.219
45.94000 226.115
45.95000 231.725
45.96000 231.891
45.97000 221.754
45.98000 211.372
45.99000 206.337
46.00000 208.010
46.01000 209.701
46.02000 208.420
46.03000 204.767
46.04000 201.226
46.05000 202.510
46.06000 206.360
46.07000 210.045
46.08000 210.926
46.09000 210.801
46.10000 210.686
46.11000 208.979
46.12000 207.116
46.13000 206.252
46.14000 210.917
46.15000 216.430
46.16000 219.065
46.17000 211.308
46.18000 202.612
46.19000 196.378
46.20000 201.936
46.21000 206.587
46.22000 210.583
46.23000 213.512
46.24000 216.427
46.25000 214.892
46.26000 208.622
46.27000 202.382
46.28000 200.654
46.29000 202.004
46.30000 203.397
46.31000 206.037
46.32000 209.250
46.33000 212.122
46.34000 210.519
46.35000 207.534
46.36000 204.848
46.37000 203.050
46.38000 201.633
46.39000 200.354
46.40000 199.720
46.41000 199.168
46.42000 199.326
46.43000 201.691
46.44000 204.213
46.45000 205.937
46.46000 215.789
46.47000 223.352
46.48000 223.052
46.49000 211.764
46.50000 200.407
46.51000 197.265
46.52000 201.498
46.53000 205.686
46.54000 206.155
46.55000 204.470
46.56000 202.684
46.57000 198.817
46.58000 194.127
46.59000 190.024
46.60000 192.048
46.61000 195.701
46.62000 198.913
46.63000 202.813
46.64000 206.270
46.65000 209.299
46.66000 210.613
46.67000 211.749
46.68000 211.604
46.69000 208.030
46.70000 204.268
46.71000 201.829
46.72000 202.577
46.73000 203.171
46.74000 201.718
46.75000 197.825
46.76000 193.937
46.77000 192.318
46.78000 192.430
46.79000 192.541
46.80000 194.139
46.81000 196.412
46.82000 198.525
46.83000 198.149
46.84000 196.923
46.85000 196.229
46.86000 200.060
46.87000 204.919
46.88000 209.085
46.89000 204.553
46.90000 199.663
46.91000 196.094
46.92000 197.068
46.93000 198.423
46.94000 200.215
46.95000 203.018
46.96000 205.862
46.97000 207.600
46.98000 206.009
46.99000 204.844
47.00000 201.074
47.01000 194.680
47.02000 188.357
47.03000 188.591
47.04000 193.106
47.05000 197.501
47.06000 200.631
47.07000 203.085
47.08000 204.827
47.09000 197.911
47.10000 188.446
47.11000 180.769
47.12000 185.652
47.13000 192.965
47.14000 199.059
47.15000 198.409
47.16000 197.200
47.17000 194.685
47.18000 188.299
47.19000 181.658
47.20000 178.198
47.21000 181.088
47.22000 184.155
47.23000 185.908
47.24000 192.374
47.25000 196.898
47.26000 197.086
47.27000 193.583
47.28000 190.122
47.29000 188.840
47.30000 188.782
47.31000 188.727
47.32000 189.439
47.33000 190.381
47.34000 191.156
47.35000 190.317
47.36000 189.069
47.37000 188.183
47.38000 189.423
47.39000 191.010
47.40000 192.292
47.41000 194.616
47.42000 196.588
47.43000 197.818
47.44000 197.150
47.45000 196.388
47.46000 196.412
47.47000 197.790
47.48000 199.191
47.49000 199.935
47.50000 193.592
47.51000 189.284
47.52000 186.678
47.53000 185.309
47.54000 184.002
47.55000 184.753
47.56000 186.501
47.57000 188.161
47.58000 189.538
47.59000 190.724
47.60000 191.736
47.61000 191.361
47.62000 190.687
47.63000 189.770
47.64000 187.643
47.65000 185.351
47.66000 183.564
47.67000 182.281
47.68000 181.290
47.69000 181.455
47.70000 184.172
47.71000 186.982
47.72000 187.718
47.73000 185.390
47.74000 183.035
47.75000 181.115
47.76000 179.612
47.77000 178.145
47.78000 179.383
47.79000 182.304
47.80000 185.104
47.81000 185.120
47.82000 183.974
47.83000 182.901
47.84000 181.230
47.85000 179.560
47.86000 178.232
47.87000 179.168
47.88000 180.519
47.89000 182.075
47.90000 184.498
47.91000 187.018
47.92000 188.908
47.93000 197.470
47.94000 204.472
47.95000 205.908
47.96000 196.742
47.97000 187.320
47.98000 184.089
47.99000 188.677
48.00000 193.283
48.01000 193.792
48.02000 190.999
48.03000 188.260
48.04000 187.889
48.05000 188.784
48.06000 189.411
48.07000 185.462
48.08000 179.861
48.09000 174.715
48.10000 174.327
48.11000 175.002
48.12000 175.210
48.13000 172.812
48.14000 170.012
48.15000 169.041
48.16000 174.716
48.17000 180.997
48.18000 185.508
48.19000 184.182
48.20000 182.966
48.21000 180.863
48.22000 177.307
48.23000 173.729
48.24000 171.755
48.25000 171.500
48.26000 171.247
48.27000 174.099
48.28000 179.040
48.29000 183.880
48.30000 185.800
48.31000 186.372
48.32000 186.795
48.33000 185.251
48.34000 183.095
48.35000 181.153
48.36000 177.878
48.37000 174.765
48.38000 173.273
48.39000 179.435
48.40000 186.580
48.41000 189.978
48.42000 181.664
48.43000 172.505
48.44000 166.233
48.45000 175.905
48.46000 183.531
48.47000 186.513
48.48000 182.965
48.49000 179.375
48.50000 182.387
48.51000 191.363
48.52000 200.250
48.53000 199.388
48.54000 192.891
48.55000 186.558
48.56000 183.644
48.57000 182.092
48.58000 180.509
48.59000 178.587
48.60000 176.574
48.61000 174.803
48.62000 179.943
48.63000 185.403
48.64000 190.201
48.65000 192.328
48.66000 194.173
48.67000 194.439
48.68000 190.450
48.69000 186.225
48.70000 183.480
48.71000 189.691
48.72000 194.378
48.73000 195.073
48.74000 190.981
48.75000 186.894
48.76000 186.504
48.77000 188.953
48.78000 191.361
48.79000 194.613
48.80000 198.173
48.81000 201.383
48.82000 199.095
48.83000 194.914
48.84000 191.014
48.85000 189.508
48.86000 188.550
48.87000 187.728
48.88000 186.285
48.89000 184.988
48.90000 183.934
48.91000 183.716
48.92000 183.570
48.93000 182.102
48.94000 177.559
48.95000 172.891
48.96000 170.031
48.97000 176.044
48.98000 180.424
48.99000 184.667
49.00000 188.771
49.01000 192.830
49.02000 192.568
49.03000 189.465
49.04000 186.444
49.05000 185.759
49.06000 186.087
49.07000 186.155
49.08000 183.039
49.09000 178.979
49.10000 176.102
49.11000 181.596
49.12000 188.721
49.13000 194.664
49.14000 191.489
49.15000 187.943
49.16000 185.549
49.17000 186.588
49.18000 187.855
49.19000 188.371
49.20000 187.380
49.21000 186.347
49.22000 185.755
49.23000 179.258
49.24000 174.705
49.25000 175.675
49.26000 181.379
49.27000 186.985
49.28000 187.489
49.29000 185.111
49.30000 182.821
49.31000 180.094
49.32000 177.376
49.33000 175.295
49.34000 179.466
49.35000 185.230
49.36000 190.873
49.37000 195.800
49.38000 200.608
49.39000 204.495
49.40000 189.197
49.41000 175.216
49.42000 166.609
49.43000 171.820
49.44000 177.730
49.45000 180.380
49.46000 177.391
49.47000 174.301
49.48000 172.655
49.49000 172.485
49.50000 172.374
49.51000 173.027
49.52000 174.238
49.53000 175.478
49.54000 177.703
49.55000 180.407
49.56000 182.977
49.57000 186.350
49.58000 189.710
49.59000 192.478
49.60000 190.480
49.61000 187.446
49.62000 184.685
49.63000 183.292
49.64000 182.088
49.65000 181.147
49.66000 183.895
49.67000 186.318
49.68000 188.838
49.69000 191.574
49.70000 194.318
49.71000 192.522
49.72000 183.976
49.73000 175.367
49.74000 173.913
49.75000 179.331
49.76000 184.683
49.77000 184.980
49.78000 182.112
49.79000 179.319
49.80000 178.264
49.81000 177.941
49.82000 177.638
49.83000 176.182
49.84000 174.564
49.85000 173.353
49.86000 174.863
49.87000 176.876
49.88000 177.803
49.89000 174.096
49.90000 169.864
49.91000 166.685
49.92000 163.530
49.93000 161.064
49.94000 163.816
49.95000 176.562
49.96000 189.554
49.97000 194.513
49.98000 189.261
49.99000 183.981
50.00000 182.088
50.01000 182.949
50.02000 183.814
50.03000 184.927
50.04000 186.173
50.05000 187.348
50.06000 187.283
50.07000 186.769
50.08000 186.296
50.09000 187.049
50.10000 187.988
50.11000 188.452
50.12000 186.260
50.13000 183.655
50.14000 182.255
50.15000 185.262
50.16000 188.675
50.17000 191.130
50.18000 197.186
50.19000 201.949
50.20000 205.393
50.21000 206.662
50.22000 207.899
50.23000 207.332
50.24000 204.818
50.25000 202.315
50.26000 201.647
50.27000 202.246
50.28000 202.979
50.29000 207.643
50.30000 214.133
50.31000 220.229
50.32000 221.077
50.33000 220.282
50.34000 219.566
50.35000 226.784
50.36000 234.556
50.37000 241.149
50.38000 242.137
50.39000 242.398
50.40000 241.546
50.41000 237.195
50.42000 232.588
50.43000 229.426
50.44000 238.366
50.45000 245.361
50.46000 252.798
50.47000 260.859
50.48000 268.924
50.49000 275.114
50.50000 279.599
50.51000 284.039
50.52000 286.861
50.53000 288.678
50.54000 290.607
50.55000 294.912
50.56000 300.170
50.57000 304.714
50.58000 301.672
50.59000 296.590
50.60000 292.112
50.61000 291.195
50.62000 290.942
50.63000 289.593
50.64000 283.800
50.65000 277.535
50.66000 275.247
50.67000 283.743
50.68000 292.844
50.69000 298.769
50.70000 291.258
50.71000 285.542
50.72000 280.946
50.73000 277.703
50.74000 274.458
50.75000 269.885
50.76000 264.285
50.77000 258.779
50.78000 253.163
50.79000 247.677
50.80000 242.717
50.81000 246.117
50.82000 252.410
50.83000 257.043
50.84000 247.356
50.85000 234.371
50.86000 223.216
50.87000 221.529
50.88000 221.280
50.89000 220.535
50.90000 218.066
50.91000 215.451
50.92000 212.119
50.93000 207.112
50.94000 202.036
50.95000 198.919
50.96000 193.057
50.97000 188.832
50.98000 187.115
50.99000 187.960
51.00000 188.797
51.01000 188.765
51.02000 188.159
51.03000 187.569
51.04000 190.469
51.05000 194.711
51.06000 198.446
51.07000 195.907
51.08000 191.497
51.09000 187.344
51.10000 185.024
51.11000 183.064
51.12000 181.427
51.13000 184.264
51.14000 187.069
51.15000 187.428
51.16000 180.450
51.17000 172.979
51.18000 167.911
51.19000 167.699
51.20000 167.627
51.21000 167.586
51.22000 168.392
51.23000 168.960
51.24000 170.074
51.25000 171.660
51.26000 173.254
51.27000 175.301
51.28000 177.605
51.29000 179.826
51.30000 180.678
51.31000 180.986
51.32000 181.106
51.33000 179.350
51.34000 177.114
51.35000 175.077
51.36000 174.223
51.37000 173.565
51.38000 173.032
51.39000 169.832
51.40000 167.011
51.41000 165.199
51.42000 165.993
51.43000 166.921
51.44000 166.679
51.45000 164.400
51.46000 162.084
51.47000 160.846
51.48000 158.579
51.49000 157.055
51.50000 159.452
51.51000 164.731
51.52000 169.925
51.53000 172.241
51.54000 173.147
51.55000 174.008
51.56000 174.432
51.57000 174.690
51.58000 174.939
51.59000 175.120
51.60000 175.285
51.61000 175.099
51.62000 173.148
51.63000 170.952
51.64000 169.236
51.65000 167.684
51.66000 166.457
51.67000 166.124
51.68000 167.790
51.69000 169.530
51.70000 171.006
51.71000 172.088
51.72000 173.167
51.73000 173.599
51.74000 173.408
51.75000 173.224
51.76000 173.675
51.77000 174.525
51.78000 175.239
51.79000 172.715
51.80000 168.822
51.81000 165.176
51.82000 163.433
51.83000 162.340
51.84000 161.434
51.85000 161.790
51.86000 162.380
51.87000 162.451
51.88000 160.288
51.89000 157.870
51.90000 156.051
51.91000 159.096
51.92000 161.714
51.93000 165.474
51.94000 171.435
51.95000 177.452
51.96000 176.986
51.97000 168.229
51.98000 159.452
51.99000 156.631
52.00000 158.682
52.01000 160.699
52.02000 161.206
52.03000 160.896
52.04000 160.717
52.05000 162.825
52.06000 165.768
52.07000 168.476
52.08000 168.168
52.09000 167.236
52.10000 166.543
52.11000 167.208
52.12000 168.086
52.13000 168.646
52.14000 168.038
52.15000 167.322
52.16000 166.806
52.17000 164.931
52.18000 163.446
52.19000 162.257
52.20000 161.560
52.21000 160.870
52.22000 159.877
52.23000 158.554
52.24000 157.238
52.25000 156.902
52.26000 157.247
52.27000 157.648
52.28000 159.678
52.29000 162.470
52.30000 165.028
52.31000 164.434
52.32000 162.849
52.33000 161.419
52.34000 162.241
52.35000 163.373
52.36000 164.488
52.37000 165.516
52.38000 166.534
52.39000 166.779
52.40000 164.581
52.41000 162.204
52.42000 160.569
52.43000 161.878
52.44000 162.932
52.45000 163.250
52.46000 162.518
52.47000 161.777
52.48000 159.483
52.49000 155.764
52.50000 152.082
52.51000 153.644
52.52000 158.256
52.53000 162.694
52.54000 163.408
52.55000 162.620
52.56000 161.957
52.57000 162.641
52.58000 163.689
52.59000 164.614
52.60000 165.670
52.61000 166.602
52.62000 166.037
52.63000 159.359
52.64000 152.026
52.65000 148.712
52.66000 156.357
52.67000 164.623
52.68000 170.016
52.69000 162.262
52.70000 156.361
52.71000 154.954
52.72000 159.007
52.73000 163.058
52.74000 163.553
52.75000 161.281
52.76000 159.046
52.77000 157.922
52.78000 157.389
52.79000 156.923
52.80000 157.535
52.81000 158.523
52.82000 159.802
52.83000 163.617
52.84000 168.021
52.85000 171.808
52.86000 164.082
52.87000 156.101
52.88000 149.915
52.89000 150.019
52.90000 150.666
52.91000 152.621
52.92000 157.655
52.93000 162.817
52.94000 165.995
52.95000 162.198
52.96000 159.412
52.97000 160.415
52.98000 165.315
52.99000 170.169
53.00000 170.417
53.01000 167.600
53.02000 164.854
53.03000 162.455
53.04000 160.313
53.05000 158.532
53.06000 161.254
53.07000 165.327
53.08000 168.939
53.09000 169.245
53.10000 168.899
53.11000 168.609
53.12000 163.523
53.13000 158.810
53.14000 155.795
53.15000 157.901
53.16000 160.356
53.17000 160.865
53.18000 157.420
53.19000 153.860
53.20000 151.807
53.21000 153.421
53.22000 154.565
53.23000 155.302
53.24000 155.686
53.25000 156.030
53.26000 154.197
53.27000 151.121
53.28000 148.155
53.29000 152.867
53.30000 160.076
53.31000 166.599
53.32000 166.258
53.33000 164.147
53.34000 162.610
53.35000 164.515
53.36000 166.995
53.37000 169.004
53.38000 169.628
53.39000 170.022
53.40000 170.168
53.41000 169.664
53.42000 169.126
53.43000 169.222
53.44000 170.426
53.45000 171.651
53.46000 172.307
53.47000 169.226
53.48000 167.127
53.49000 166.188
53.50000 166.106
53.51000 165.976
53.52000 164.164
53.53000 161.523
53.54000 159.010
53.55000 159.194
53.56000 160.193
53.57000 161.295
53.58000 163.231
53.59000 165.352
53.60000 166.441
53.61000 162.298
53.62000 157.425
53.63000 153.610
53.64000 146.494
53.65000 140.598
53.66000 139.012
53.67000 147.109
53.68000 155.570
53.69000 160.642
53.70000 160.610
53.71000 160.527
53.72000 159.765
53.73000 158.343
53.74000 156.908
53.75000 154.463
53.76000 151.379
53.77000 148.418
53.78000 148.400
53.79000 149.635
53.80000 150.791
53.81000 153.592
53.82000 156.570
53.83000 159.162
53.84000 159.148
53.85000 158.647
53.86000 157.203
53.87000 151.686
53.88000 145.699
53.89000 141.189
53.90000 150.255
53.91000 158.018
53.92000 162.927
53.93000 162.302
53.94000 161.536
53.95000 160.018
53.96000 157.530
53.97000 155.041
53.98000 154.520
53.99000 155.618
54.00000 156.698
54.01000 156.986
54.02000 156.841
54.03000 156.754
54.04000 157.688
54.05000 158.996
54.06000 160.201
54.07000 155.250
54.08000 149.471
54.09000 145.055
54.10000 148.388
54.11000 152.944
54.12000 156.356
54.13000 155.537
54.14000 154.321
54.15000 153.444
54.16000 154.921
54.17000 156.140
54.18000 155.823
54.19000 152.942
54.20000 150.023
54.21000 149.373
54.22000 151.207
54.23000 153.034
54.24000 154.132
54.25000 154.711
54.26000 155.311
54.27000 156.537
54.28000 158.057
54.29000 159.339
54.30000 157.371
54.31000 154.373
54.32000 151.666
54.33000 155.270
54.34000 159.599
54.35000 162.013
54.36000 155.208
54.37000 147.191
54.38000 142.110
54.39000 146.373
54.40000 151.331
54.41000 154.746
54.42000 157.871
54.43000 160.210
54.44000 161.450
54.45000 161.115
54.46000 160.768
54.47000 158.157
54.48000 153.457
54.49000 148.802
54.50000 148.686
54.51000 151.257
54.52000 154.091
54.53000 162.612
54.54000 173.440
54.55000 182.756
54.56000 175.725
54.57000 164.241
54.58000 154.104
54.59000 156.217
54.60000 159.916
54.61000 162.826
54.62000 162.488
54.63000 161.800
54.64000 160.839
54.65000 159.131
54.66000 157.381
54.67000 156.236
54.68000 156.576
54.69000 156.849
54.70000 156.910
54.71000 156.711
54.72000 156.502
54.73000 153.533
54.74000 148.403
54.75000 143.356
54.76000 146.650
54.77000 154.036
54.78000 161.090
54.79000 162.752
54.80000 162.527
54.81000 161.890
54.82000 157.645
54.83000 152.559
54.84000 148.179
54.85000 149.945
54.86000 152.216
54.87000 154.989
54.88000 159.534
54.89000 164.233
54.90000 166.460
54.91000 162.831
54.92000 158.953
54.93000 156.560
54.94000 160.316
54.95000 163.069
54.96000 163.995
54.97000 163.030
54.98000 162.074
54.99000 162.000
55.00000 162.517
55.01000 163.021
55.02000 163.952
55.03000 165.023
55.04000 166.009
55.05000 165.916
55.06000 165.497
55.07000 164.989
55.08000 163.844
55.09000 162.573
55.10000 161.508
55.11000 165.958
55.12000 170.224
55.13000 172.561
55.14000 169.049
55.15000 165.136
55.16000 164.244
55.17000 169.532
55.18000 175.003
55.19000 178.167
55.20000 179.322
55.21000 180.123
55.22000 180.258
55.23000 179.809
55.24000 179.377
55.25000 179.892
55.26000 180.951
55.27000 181.972
55.28000 183.118
55.29000 184.242
55.30000 185.500
55.31000 188.106
55.32000 191.063
55.33000 192.605
55.34000 185.597
55.35000 177.153
55.36000 170.300
55.37000 178.002
55.38000 185.482
55.39000 193.081
55.40000 200.992
55.41000 208.919
55.42000 217.561
55.43000 227.463
55.44000 237.388
55.45000 242.724
55.46000 247.947
55.47000 251.540
55.48000 259.809
55.49000 271.559
55.50000 283.203
55.51000 291.129
55.52000 297.212
55.53000 303.004
55.54000 315.681
55.55000 329.550
55.56000 343.320
55.57000 356.277
55.58000 369.054
55.59000 382.414
55.60000 398.753
55.61000 415.512
55.62000 428.651
55.63000 441.597
55.64000 451.933
55.65000 464.399
55.66000 481.680
55.67000 499.144
55.68000 513.254
55.69000 522.282
55.70000 531.258
55.71000 541.884
55.72000 554.127
55.73000 566.324
55.74000 574.640
55.75000 580.483
55.76000 586.166
55.77000 587.948
55.78000 588.060
55.79000 588.166
55.80000 587.891
55.81000 587.540
55.82000 588.028
55.83000 594.241
55.84000 601.534
55.85000 606.022
55.86000 598.319
55.87000 589.199
55.88000 582.316
55.89000 555.703
55.90000 533.875
55.91000 517.511
55.92000 511.806
55.93000 506.378
55.94000 502.208
55.95000 499.669
55.96000 497.141
55.97000 487.133
55.98000 470.970
55.99000 454.702
56.00000 433.495
56.01000 409.579
56.02000 386.119
56.03000 370.803
56.04000 358.497
56.05000 347.156
56.06000 334.670
56.07000 323.239
56.08000 312.499
56.09000 305.705
56.10000 299.539
56.11000 292.359
56.12000 281.404
56.13000 270.093
56.14000 261.910
56.15000 244.233
56.16000 230.318
56.17000 222.677
56.18000 225.578
56.19000 228.646
56.20000 229.579
56.21000 228.161
56.22000 226.748
56.23000 219.339
56.24000 207.802
56.25000 196.474
56.26000 191.633
56.27000 189.858
56.28000 188.147
56.29000 187.312
56.30000 186.755
56.31000 186.252
56.32000 187.680
56.33000 189.295
56.34000 189.482
56.35000 182.753
56.36000 175.108
56.37000 169.946
56.38000 172.733
56.39000 176.117
56.40000 178.453
56.41000 168.720
56.42000 161.098
56.43000 156.221
56.44000 155.301
56.45000 154.416
56.46000 160.207
56.47000 172.199
56.48000 184.082
56.49000 185.438
56.50000 180.501
56.51000 175.480
56.52000 168.623
56.53000 161.016
56.54000 154.304
56.55000 157.357
56.56000 163.085
56.57000 168.146
56.58000 166.862
56.59000 164.773
56.60000 163.092
56.61000 163.095
56.62000 163.281
56.63000 162.177
56.64000 157.510
56.65000 152.636
56.66000 149.441
56.67000 156.076
56.68000 161.117
56.69000 160.851
56.70000 154.051
56.71000 147.254
56.72000 146.316
56.73000 149.993
56.74000 153.613
56.75000 155.775
56.76000 157.132
56.77000 158.452
56.78000 159.165
56.79000 159.665
56.80000 160.162
56.81000 160.643
56.82000 161.120
56.83000 161.531
56.84000 157.447
56.85000 153.413
56.86000 150.325
56.87000 150.593
56.88000 151.155
56.89000 150.667
56.90000 147.675
56.91000 144.576
56.92000 142.658
56.93000 145.332
56.94000 147.297
56.95000 148.326
56.96000 148.378
56.97000 148.447
56.98000 150.280
56.99000 153.302
57.00000 156.249
57.01000 153.812
57.02000 149.163
57.03000 144.712
57.04000 142.793
57.05000 141.643
57.06000 140.907
57.07000 143.196
57.08000 146.090
57.09000 148.515
57.10000 147.687
57.11000 146.661
57.12000 147.012
57.13000 151.563
57.14000 156.405
57.15000 159.134
57.16000 157.514
57.17000 155.764
57.18000 154.749
57.19000 150.187
57.20000 146.977
57.21000 148.544
57.22000 154.319
57.23000 159.961
57.24000 158.068
57.25000 151.814
57.26000 145.779
57.27000 143.364
57.28000 142.419
57.29000 142.014
57.30000 147.099
57.31000 153.618
57.32000 159.093
57.33000 158.211
57.34000 156.255
57.35000 154.665
57.36000 146.920
57.37000 140.089
57.38000 137.257
57.39000 144.952
57.40000 153.205
57.41000 157.610
57.42000 155.192
57.43000 152.642
57.44000 151.268
57.45000 146.982
57.46000 144.075
57.47000 146.649
57.48000 153.328
57.49000 159.763
57.50000 157.484
57.51000 150.861
57.52000 144.552
57.53000 141.980
57.54000 140.762
57.55000 139.474
57.56000 137.616
57.57000 135.631
57.58000 134.530
57.59000 137.971
57.60000 142.056
57.61000 145.264
57.62000 149.974
57.63000 153.842
57.64000 154.642
57.65000 148.467
57.66000 142.023
57.67000 138.967
57.68000 141.073
57.69000 143.234
57.70000 145.646
57.71000 148.307
57.72000 150.928
57.73000 150.229
57.74000 147.401
57.75000 144.770
57.76000 147.016
57.77000 151.361
57.78000 155.437
57.79000 153.519
57.80000 150.188
57.81000 147.434
57.82000 148.642
57.83000 150.601
57.84000 151.204
57.85000 145.870
57.86000 139.840
57.87000 135.283
57.88000 137.058
57.89000 138.767
57.90000 139.175
57.91000 137.028
57.92000 134.813
57.93000 136.376
57.94000 142.866
57.95000 149.369
57.96000 151.412
57.97000 149.734
57.98000 148.071
57.99000 147.129
58.00000 146.585
58.01000 146.048
58.02000 145.630
58.03000 145.257
58.04000 144.912
58.05000 144.825
58.06000 144.804
58.07000 144.990
58.08000 146.362
58.09000 147.924
58.10000 149.407
58.11000 150.590
58.12000 151.746
58.13000 152.583
58.14000 146.126
58.15000 140.896
58.16000 137.632
58.17000 137.689
58.18000 137.801
58.19000 137.706
58.20000 137.384
58.21000 137.063
58.22000 137.467
58.23000 138.378
58.24000 139.343
58.25000 141.965
58.26000 145.376
58.27000 148.468
58.28000 147.123
58.29000 144.356
58.30000 141.854
58.31000 142.342
58.32000 143.330
58.33000 143.768
58.34000 141.519
58.35000 138.912
58.36000 136.352
58.37000 133.942
58.38000 131.544
58.39000 129.885
58.40000 133.560
58.41000 136.462
58.42000 138.424
58.43000 139.022
58.44000 139.608
58.45000 138.123
58.46000 134.703
58.47000 131.312
58.48000 131.317
58.49000 133.355
58.50000 135.393
58.51000 137.426
58.52000 139.458
58.53000 141.283
58.54000 140.847
58.55000 139.787
58.56000 138.849
58.57000 144.994
58.58000 151.405
58.59000 155.944
58.60000 152.690
58.61000 148.580
58.62000 145.169
58.63000 143.699
58.64000 142.342
58.65000 141.450
58.66000 137.357
58.67000 134.291
58.68000 135.879
58.69000 143.233
58.70000 150.576
58.71000 149.802
58.72000 142.589
58.73000 135.488
58.74000 133.898
58.75000 135.166
58.76000 136.325
58.77000 135.676
58.78000 134.386
58.79000 133.400
58.80000 135.125
58.81000 137.491
58.82000 139.532
58.83000 139.055
58.84000 138.326
58.85000 138.039
58.86000 139.326
58.87000 140.753
58.88000 140.249
58.89000 135.116
58.90000 129.782
58.91000 126.475
58.92000 127.925
58.93000 129.014
58.94000 132.691
58.95000 139.086
58.96000 145.433
58.97000 146.386
58.98000 143.683
58.99000 141.045
59.00000 139.535
59.01000 138.581
59.02000 137.821
59.03000 139.572
59.04000 142.089
59.05000 144.233
59.06000 143.641
59.07000 142.497
59.08000 141.538
59.09000 138.093
59.10000 134.966
59.11000 132.862
59.12000 133.901
59.13000 135.160
59.14000 135.748
59.15000 134.948
59.16000 134.106
59.17000 133.616
59.18000 136.662
59.19000 138.814
59.20000 139.421
59.21000 138.656
59.22000 137.850
59.23000 134.650
59.24000 130.057
59.25000 125.622
59.26000 128.146
59.27000 133.091
59.28000 137.528
59.29000 136.743
59.30000 134.586
59.31000 132.500
59.32000 130.845
59.33000 129.264
59.34000 127.977
59.35000 131.477
59.36000 134.736
59.37000 136.658
59.38000 135.038
59.39000 133.228
59.40000 132.693
59.41000 134.434
59.42000 136.219
59.43000 137.185
59.44000 133.800
59.45000 131.489
59.46000 131.541
59.47000 133.375
59.48000 135.183
59.49000 136.056
59.50000 136.460
59.51000 136.845
59.52000 135.161
59.53000 132.952
59.54000 130.995
59.55000 131.151
59.56000 131.781
59.57000 132.818
59.58000 135.959
59.59000 139.401
59.60000 142.107
59.61000 142.507
59.62000 142.675
59.63000 141.005
59.64000 135.131
59.65000 129.092
59.66000 126.920
59.67000 130.676
59.68000 134.497
59.69000 136.990
59.70000 138.163
59.71000 139.330
59.72000 140.014
59.73000 140.386
59.74000 140.679
59.75000 139.012
59.76000 136.496
59.77000 134.133
59.78000 133.293
59.79000 132.931
59.80000 132.562
59.81000 132.146
59.82000 131.721
59.83000 131.388
59.84000 131.458
59.85000 131.576
59.86000 131.665
59.87000 134.849
59.88000 137.505
59.89000 138.968
59.90000 138.077
59.91000 137.123
59.92000 135.156
59.93000 131.861
59.94000 128.563
59.95000 129.208
59.96000 133.159
59.97000 137.019
59.98000 136.424
59.99000 133.355
60.00000 130.482
60.01000 131.171
60.02000 133.193
60.03000 135.059
60.04000 132.960
60.05000 130.190
60.06000 128.509
60.07000 133.155
60.08000 138.820
60.09000 142.871
60.10000 140.838
60.11000 138.221
60.12000 136.321
60.13000 135.641
60.14000 135.165
60.15000 133.993
60.16000 131.641
60.17000 129.270
60.18000 130.844
60.19000 136.823
60.20000 142.783
60.21000 143.279
60.22000 139.891
60.23000 136.461
60.24000 131.719
60.25000 126.348
60.26000 121.486
60.27000 123.769
60.28000 128.355
60.29000 132.505
60.30000 133.982
60.31000 134.780
60.32000 135.052
60.33000 132.744
60.34000 130.090
60.35000 128.787
60.36000 131.863
60.37000 135.275
60.38000 137.639
60.39000 137.262
60.40000 136.906
60.41000 136.040
60.42000 134.430
60.43000 132.813
60.44000 134.255
60.45000 138.574
60.46000 142.856
60.47000 140.931
60.48000 135.297
60.49000 129.761
60.50000 126.414
60.51000 123.973
60.52000 122.155
60.53000 127.259
60.54000 134.284
60.55000 140.503
60.56000 140.011
60.57000 138.534
60.58000 136.823
60.59000 134.134
60.60000 131.336
60.61000 129.334
60.62000 129.555
60.63000 129.908
60.64000 130.141
60.65000 137.740
60.66000 143.464
60.67000 145.340
60.68000 142.419
60.69000 139.490
60.70000 138.445
60.71000 138.903
60.72000 139.355
60.73000 138.429
60.74000 136.824
60.75000 135.376
60.76000 136.556
60.77000 138.673
60.78000 140.487
60.79000 139.576
60.80000 138.017
60.81000 136.670
60.82000 131.939
60.83000 127.485
60.84000 124.572
60.85000 127.195
60.86000 130.314
60.87000 133.061
60.88000 134.911
60.89000 136.721
60.90000 137.846
60.91000 131.464
60.92000 126.795
60.93000 126.338
60.94000 130.334
60.95000 134.312
60.96000 136.121
60.97000 136.449
60.98000 136.770
60.99000 138.566
61.00000 140.928
61.01000 142.821
61.02000 138.627
61.03000 132.562
61.04000 127.639
61.05000 131.175
61.06000 136.424
61.07000 140.835
61.08000 141.069
61.09000 140.824
61.10000 140.280
61.11000 138.812
61.12000 137.278
61.13000 135.295
61.14000 132.377
61.15000 129.429
61.16000 127.711
61.17000 132.234
61.18000 135.443
61.19000 137.918
61.20000 139.738
61.21000 141.526
61.22000 141.404
61.23000 140.163
61.24000 138.964
61.25000 140.639
61.26000 143.286
61.27000 145.501
61.28000 143.253
61.29000 139.825
61.30000 136.689
61.31000 135.350
61.32000 134.320
61.33000 133.480
61.34000 135.175
61.35000 136.775
61.36000 138.275
61.37000 139.506
61.38000 140.723
61.39000 141.595
61.40000 141.849
61.41000 142.089
61.42000 142.220
61.43000 147.005
61.44000 150.289
61.45000 153.226
61.46000 155.900
61.47000 158.534
61.48000 159.692
61.49000 160.106
61.50000 160.500
61.51000 169.709
61.52000 181.035
61.53000 192.990
61.54000 210.246
61.55000 228.701
61.56000 246.030
61.57000 257.497
61.58000 268.121
61.59000 276.487
61.60000 284.645
61.61000 291.169
61.62000 299.596
61.63000 312.402
61.64000 325.381
61.65000 335.276
61.66000 340.411
61.67000 345.492
61.68000 348.034
61.69000 358.257
61.70000 365.008
61.71000 365.735
61.72000 362.551
61.73000 359.018
61.74000 346.683
61.75000 330.513
61.76000 315.319
61.77000 304.337
61.78000 295.440
61.79000 285.739
61.80000 270.426
61.81000 254.033
61.82000 237.325
61.83000 219.217
61.84000 200.943
61.85000 187.084
61.86000 183.565
61.87000 181.331
61.88000 178.128
61.89000 173.002
61.90000 167.824
61.91000 163.202
61.92000 159.315
61.93000 155.435
61.94000 155.472
61.95000 158.816
61.96000 162.081
61.97000 161.387
61.98000 158.482
61.99000 155.574
62.00000 152.626
62.01000 149.663
62.02000 146.926
62.03000 149.284
62.04000 152.548
62.05000 155.383
62.06000 155.707
62.07000 155.623
62.08000 155.063
62.09000 152.693
62.10000 150.147
62.11000 148.296
62.12000 151.430
62.13000 154.031
62.14000 154.956
62.15000 153.016
62.16000 151.026
62.17000 148.923
62.18000 146.693
62.19000 144.472
62.20000 144.682
62.21000 146.631
62.22000 148.574
62.23000 150.370
62.24000 152.094
62.25000 153.657
62.26000 152.936
62.27000 151.473
62.28000 150.148
62.29000 147.597
62.30000 145.116
62.31000 143.523
62.32000 146.322
62.33000 149.717
62.34000 151.713
62.35000 149.147
62.36000 146.228
62.37000 144.201
62.38000 143.903
62.39000 143.724
62.40000 142.901
62.41000 141.130
62.42000 139.350
62.43000 140.040
62.44000 143.068
62.45000 146.071
62.46000 147.865
62.47000 148.891
62.48000 149.907
62.49000 150.687
62.50000 151.367
62.51000 152.034
62.52000 152.542
62.53000 153.005
62.54000 153.416
62.55000 152.807
62.56000 152.119
62.57000 151.659
62.58000 152.160
62.59000 152.768
62.60000 152.748
62.61000 150.964
62.62000 149.074
62.63000 147.827
62.64000 144.682
62.65000 142.330
62.66000 141.405
62.67000 142.272
62.68000 143.151
62.69000 146.574
62.70000 152.040
62.71000 157.424
62.72000 152.983
62.73000 143.600
62.74000 134.792
62.75000 135.720
62.76000 140.139
62.77000 144.322
62.78000 146.361
62.79000 147.886
62.80000 149.205
62.81000 145.090
62.82000 140.886
62.83000 137.857
62.84000 139.074
62.85000 140.675
62.86000 142.237
62.87000 143.706
62.88000 145.170
62.89000 146.082
62.90000 147.835
62.91000 149.107
62.92000 152.102
62.93000 156.932
62.94000 161.695
62.95000 158.604
62.96000 150.122
62.97000 141.838
62.98000 140.229
62.99000 141.624
63.00000 143.060
63.01000 145.017
63.02000 147.137
63.03000 149.068
63.04000 149.593
63.05000 149.832
63.06000 150.033
63.07000 150.508
63.08000 150.934
63.09000 150.657
63.10000 148.193
63.11000 145.573
63.12000 143.808
63.13000 143.837
63.14000 143.921
63.15000 143.971
63.16000 146.202
63.17000 147.783
63.18000 149.270
63.19000 150.674
63.20000 152.011
63.21000 149.274
63.22000 144.136
63.23000 139.171
63.24000 140.593
63.25000 144.323
63.26000 147.695
63.27000 147.336
63.28000 145.985
63.29000 145.169
63.30000 147.684
63.31000 150.774
63.32000 153.294
63.33000 155.390
63.34000 157.067
63.35000 157.281
63.36000 153.574
63.37000 149.652
63.38000 148.097
63.39000 150.816
63.40000 153.622
63.41000 155.149
63.42000 158.678
63.43000 161.085
63.44000 159.633
63.45000 155.235
63.46000 150.962
63.47000 151.399
63.48000 154.228
63.49000 156.927
63.50000 154.944
63.51000 151.615
63.52000 148.519
63.53000 147.405
63.54000 146.742
63.55000 146.026
63.56000 145.031
63.57000 143.995
63.58000 143.178
63.59000 144.616
63.60000 145.922
63.61000 147.242
63.62000 148.599
63.63000 149.956
63.64000 150.820
63.65000 150.916
63.66000 151.003
63.67000 151.047
63.68000 157.495
63.69000 161.756
63.70000 162.022
63.71000 159.677
63.72000 157.373
63.73000 156.146
63.74000 155.389
63.75000 154.678
63.76000 153.779
63.77000 152.909
63.78000 151.981
63.79000 150.658
63.80000 149.258
63.81000 148.163
63.82000 148.424
63.83000 148.848
63.84000 149.170
63.85000 152.146
63.86000 154.623
63.87000 156.510
63.88000 157.220
63.89000 157.897
63.90000 156.746
63.91000 153.165
63.92000 149.574
63.93000 149.717
63.94000 153.032
63.95000 156.323
63.96000 158.392
63.97000 159.773
63.98000 161.147
63.99000 162.362
64.00000 163.518
64.01000 164.587
64.02000 161.224
64.03000 157.199
64.04000 153.997
64.05000 155.639
64.06000 158.071
64.07000 159.658
64.08000 158.013
64.09000 156.053
64.10000 154.625
64.11000 155.165
64.12000 155.656
64.13000 156.066
64.14000 156.334
64.15000 156.600
64.16000 157.257
64.17000 158.356
64.18000 159.452
64.19000 159.839
64.20000 159.712
64.21000 159.570
64.22000 158.910
64.23000 157.999
64.24000 157.325
64.25000 160.053
64.26000 163.892
64.27000 167.372
64.28000 170.313
64.29000 172.804
64.30000 174.370
64.31000 171.335
64.32000 167.672
64.33000 165.178
64.34000 166.519
64.35000 168.158
64.36000 169.299
64.37000 166.802
64.38000 164.821
64.39000 164.353
64.40000 166.123
64.41000 167.913
64.42000 166.402
64.43000 161.739
64.44000 157.115
64.45000 158.726
64.46000 164.118
64.47000 169.306
64.48000 169.795
64.49000 168.321
64.50000 167.251
64.51000 170.755
64.52000 175.543
64.53000 179.791
64.54000 182.475
64.55000 184.553
64.56000 185.088
64.57000 179.081
64.58000 172.339
64.59000 168.966
64.60000 175.115
64.61000 181.842
64.62000 186.289
64.63000 181.864
64.64000 178.440
64.65000 174.882
64.66000 171.153
64.67000 167.443
64.68000 170.980
64.69000 180.378
64.70000 189.638
64.71000 187.864
64.72000 180.407
64.73000 173.453
64.74000 175.111
64.75000 179.877
64.76000 184.543
64.77000 188.293
64.78000 191.823
64.79000 194.878
64.80000 192.742
64.81000 190.244
64.82000 187.285
64.83000 182.651
64.84000 177.864
64.85000 175.726
64.86000 180.054
64.87000 184.674
64.88000 187.560
64.89000 194.494
64.90000 199.538
64.91000 202.099
64.92000 201.998
64.93000 201.900
64.94000 202.308
64.95000 203.067
64.96000 203.808
64.97000 206.083
64.98000 208.939
64.99000 211.647
65.00000 212.401
65.01000 212.547
65.02000 213.441
65.03000 219.957
65.04000 227.629
65.05000 234.089
65.06000 239.104
65.07000 243.133
65.08000 248.172
65.09000 256.372
65.10000 264.801
65.11000 272.086
65.12000 276.964
65.13000 281.764
65.14000 284.578
65.15000 285.904
65.16000 286.834
65.17000 292.860
65.18000 303.493
65.19000 314.155
65.20000 326.575
65.21000 340.039
65.22000 353.057
65.23000 362.027
65.24000 368.969
65.25000 375.578
65.26000 378.678
65.27000 380.839
65.28000 383.550
65.29000 389.704
65.30000 396.456
65.31000 401.971
65.32000 407.389
65.33000 411.814
65.34000 415.003
65.35000 414.855
65.36000 414.523
65.37000 417.627
65.38000 426.973
65.39000 436.449
65.40000 441.622
65.41000 436.755
65.42000 433.420
65.43000 435.471
65.44000 441.661
65.45000 447.692
65.46000 447.684
65.47000 444.591
65.48000 441.638
65.49000 437.671
65.50000 433.661
65.51000 429.956
65.52000 428.870
65.53000 428.384
65.54000 427.318
65.55000 423.193
65.56000 418.622
65.57000 415.011
65.58000 419.188
65.59000 423.071
65.60000 426.834
65.61000 430.315
65.62000 433.785
65.63000 438.822
65.64000 446.305
65.65000 453.817
65.66000 457.601
65.67000 511.099
65.68000 546.967
65.69000 593.675
65.70000 647.509
65.71000 701.475
65.72000 758.883
65.73000 817.808
65.74000 873.247
65.75000 954.688
65.76000 1036.162
65.77000 1114.358
65.78000 1169.352
65.79000 1219.825
65.80000 1268.075
65.81000 1306.348
65.82000 1343.416
65.83000 1371.615
65.84000 1389.278
65.85000 1402.621
65.86000 1411.936
65.87000 1413.158
65.88000 1414.151
65.89000 1411.003
65.90000 1402.313
65.91000 1393.602
65.92000 1363.223
65.93000 1314.366
65.94000 1265.276
65.95000 1204.028
65.96000 1135.910
65.97000 1067.519
65.98000 993.947
65.99000 918.405
66.00000 848.525
66.01000 770.488
66.02000 698.516
66.03000 629.514
66.04000 578.112
66.05000 529.606
66.06000 483.574
66.07000 447.047
66.08000 411.457
66.09000 385.479
66.10000 367.983
66.11000 354.828
66.12000 346.362
66.13000 346.016
66.14000 345.814
66.15000 344.539
66.16000 342.042
66.17000 339.553
66.18000 339.575
66.19000 341.417
66.20000 343.152
66.21000 341.297
66.22000 337.694
66.23000 334.780
66.24000 341.832
66.25000 352.156
66.26000 361.523
66.27000 374.550
66.28000 386.752
66.29000 400.185
66.30000 419.791
66.31000 440.246
66.32000 457.761
66.33000 465.574
66.34000 472.623
66.35000 477.537
66.36000 492.189
66.37000 503.516
66.38000 514.791
66.39000 525.991
66.40000 537.189
66.41000 538.222
66.42000 529.488
66.43000 520.823
66.44000 518.573
66.45000 520.309
66.46000 521.798
66.47000 517.539
66.48000 510.863
66.49000 504.061
66.50000 495.819
66.51000 487.170
66.52000 479.492
66.53000 461.204
66.54000 443.652
66.55000 426.640
66.56000 411.931
66.57000 397.484
66.58000 384.849
66.59000 377.370
66.60000 370.206
66.61000 365.460
66.62000 367.468
66.63000 369.074
66.64000 367.659
66.65000 362.404
66.66000 357.135
66.67000 351.536
66.68000 345.670
66.69000 339.887
66.70000 340.146
66.71000 343.558
66.72000 347.241
66.73000 355.618
66.74000 365.699
66.75000 374.507
66.76000 371.597
66.77000 365.847
66.78000 360.866
66.79000 356.974
66.80000 353.805
66.81000 351.370
66.82000 351.612
66.83000 352.101
66.84000 352.493
66.85000 352.647
66.86000 352.790
66.87000 352.879
66.88000 356.678
66.89000 359.461
66.90000 362.305
66.91000 365.215
66.92000 368.126
66.93000 371.031
66.94000 373.932
66.95000 376.767
66.96000 379.845
66.97000 382.903
66.98000 385.785
66.99000 386.318
67.00000 386.116
67.01000 385.560
67.02000 382.328
67.03000 378.544
67.04000 375.354
67.05000 373.937
67.06000 372.945
67.07000 373.875
67.08000 380.848
67.09000 388.262
67.10000 395.807
67.11000 403.629
67.12000 411.460
67.13000 416.063
67.14000 405.736
67.15000 398.384
67.16000 402.448
67.17000 416.905
67.18000 431.181
67.19000 434.046
67.20000 430.104
67.21000 426.290
67.22000 421.582
67.23000 416.797
67.24000 412.883
67.25000 418.216
67.26000 426.037
67.27000 432.424
67.28000 429.757
67.29000 425.505
67.30000 422.027
67.31000 427.827
67.32000 433.386
67.33000 438.458
67.34000 442.207
67.35000 445.881
67.36000 451.652
67.37000 461.255
67.38000 470.939
67.39000 476.242
67.40000 472.860
67.41000 470.526
67.42000 469.400
67.43000 469.208
67.44000 469.049
67.45000 470.169
67.46000 471.946
67.47000 473.644
67.48000 472.402
67.49000 470.300
67.50000 468.422
67.51000 468.481
67.52000 468.987
67.53000 469.823
67.54000 472.412
67.55000 475.258
67.56000 477.509
67.57000 480.031
67.58000 482.076
67.59000 486.191
67.60000 495.153
67.61000 504.315
67.62000 507.465
67.63000 501.165
67.64000 494.750
67.65000 491.507
67.66000 503.365
67.67000 511.281
67.68000 517.431
67.69000 522.411
67.70000 527.217
67.71000 527.453
67.72000 525.661
67.73000 523.975
67.74000 530.594
67.75000 538.914
67.76000 546.489
67.77000 548.763
67.78000 549.997
67.79000 551.862
67.80000 556.585
67.81000 561.655
67.82000 565.519
67.83000 571.321
67.84000 575.993
67.85000 577.023
67.86000 570.694
67.87000 564.154
67.88000 565.640
67.89000 577.936
67.90000 590.280
67.91000 599.122
67.92000 604.929
67.93000 610.633
67.94000 610.824
67.95000 607.881
67.96000 604.996
67.97000 603.203
67.98000 601.829
67.99000 600.557
68.00000 598.484
68.01000 596.436
68.02000 595.498
68.03000 601.184
68.04000 607.967
68.05000 614.220
68.06000 618.428
68.07000 622.432
68.08000 625.359
68.09000 643.276
68.10000 657.690
68.11000 664.834
68.12000 659.314
68.13000 653.565
68.14000 653.974
68.15000 661.440
68.16000 668.890
68.17000 675.744
68.18000 682.107
68.19000 688.376
68.20000 691.451
68.21000 692.961
68.22000 694.403
68.23000 694.849
68.24000 694.965
68.25000 695.071
68.26000 705.183
68.27000 716.051
68.28000 725.695
68.29000 729.165
68.30000 731.779
68.31000 735.059
68.32000 740.551
68.33000 746.219
68.34000 750.178
68.35000 773.524
68.36000 791.703
68.37000 799.732
68.38000 792.567
68.39000 785.255
68.40000 787.716
68.41000 799.634
68.42000 811.459
68.43000 825.332
68.44000 840.234
68.45000 854.938
68.46000 864.921
68.47000 872.908
68.48000 881.941
68.49000 903.014
68.50000 927.510
68.51000 949.277
68.52000 961.149
68.53000 969.851
68.54000 983.440
68.55000 1018.025
68.56000 1055.011
68.57000 1092.070
68.58000 1129.335
68.59000 1166.612
68.60000 1191.366
68.61000 1253.147
68.62000 1299.502
68.63000 1360.331
68.64000 1439.685
68.65000 1519.108
68.66000 1598.659
68.67000 1678.317
68.68000 1756.857
68.69000 1841.641
68.70000 1927.307
68.71000 2012.196
68.72000 2083.506
68.73000 2149.857
68.74000 2216.200
68.75000 2282.475
68.76000 2348.732
68.77000 2406.196
68.78000 2519.432
68.79000 2623.302
68.80000 2725.297
68.81000 2820.396
68.82000 2914.854
68.83000 3057.260
68.84000 3318.044
68.85000 3584.325
68.86000 3751.453
68.87000 4324.214
68.88000 4742.610
68.89000 5442.022
68.90000 6446.825
68.91000 7457.809
68.92000 9257.585
68.93000 11608.999
68.94000 13908.206
68.95000 17924.166
68.96000 22544.172
68.97000 27287.773
68.98000 33699.379
68.99000 40636.230
69.00000 47569.863
69.01000 54478.949
69.02000 61382.934
69.03000 67210.266
69.04000 72883.859
69.05000 77608.250
69.06000 81723.648
69.07000 83911.953
69.08000 85958.289
69.09000 87560.953
69.10000 88217.844
69.11000 88843.492
69.12000 89212.234
69.13000 90117.703
69.14000 90759.609
69.15000 91328.125
69.16000 91829.383
69.17000 92314.508
69.18000 91752.000
69.19000 90560.789
69.20000 89407.992
69.21000 86767.008
69.22000 83703.914
69.23000 80557.289
69.24000 76515.633
69.25000 72231.602
69.26000 67968.375
69.27000 63837.348
69.28000 59729.633
69.29000 56365.563
69.30000 53278.277
69.31000 50771.758
69.32000 48507.012
69.33000 46901.965
69.34000 45334.348
69.35000 43809.305
69.36000 42362.547
69.37000 40917.484
69.38000 40123.785
69.39000 36306.379
69.40000 33672.801
69.41000 30723.352
69.42000 27528.045
69.43000 24333.822
69.44000 21182.416
69.45000 18053.137
69.46000 15062.080
69.47000 12474.425
69.48000 10197.914
69.49000 8016.820
69.50000 6665.821
69.51000 5507.351
69.52000 4440.718
69.53000 3865.691
69.54000 3363.433
69.55000 2965.643
69.56000 2666.563
69.57000 2432.998
69.58000 2229.244
69.59000 2095.716
69.60000 1965.132
69.61000 1851.739
69.62000 1765.538
69.63000 1679.677
69.64000 1636.123
69.65000 1554.862
69.66000 1500.605
69.67000 1464.597
69.68000 1440.735
69.69000 1416.401
69.70000 1379.453
69.71000 1336.878
69.72000 1296.771
69.73000 1257.496
69.74000 1221.783
69.75000 1186.631
69.76000 1155.502
69.77000 1125.167
69.78000 1098.064
69.79000 1085.655
69.80000 1075.050
69.81000 1066.956
69.82000 1035.261
69.83000 1009.021
69.84000 988.988
69.85000 981.579
69.86000 974.538
69.87000 959.793
69.88000 934.608
69.89000 909.382
69.90000 898.066
69.91000 898.838
69.92000 899.496
69.93000 893.976
69.94000 884.923
69.95000 875.316
69.96000 854.966
69.97000 830.480
69.98000 807.797
69.99000 795.420
70.00000 786.677
