20.00000 580.640
20.01000 573.931
20.02000 566.263
20.03000 560.668
20.04000 563.120
20.05000 566.378
20.06000 568.763
20.07000 560.991
20.08000 554.585
20.09000 553.488
20.10000 561.681
20.11000 570.045
20.12000 574.185
20.13000 573.457
20.14000 572.725
20.15000 565.758
20.16000 554.274
20.17000 543.096
20.18000 542.482
20.19000 547.069
20.20000 551.782
20.21000 558.366
20.22000 565.570
20.23000 572.116
20.24000 564.731
20.25000 555.494
20.26000 548.793
20.27000 554.950
20.28000 562.900
20.29000 569.562
20.30000 571.927
20.31000 573.948
20.32000 575.361
20.33000 570.767
20.34000 567.124
20.35000 561.721
20.36000 553.669
20.37000 545.591
20.38000 539.821
20.39000 536.296
20.40000 532.798
20.41000 536.830
20.42000 545.481
20.43000 553.799
20.44000 554.142
20.45000 551.097
20.46000 548.231
20.47000 547.434
20.48000 547.228
20.49000 547.045
20.50000 549.509
20.51000 552.077
20.52000 555.002
20.53000 559.466
20.54000 564.108
20.55000 568.200
20.56000 570.712
20.57000 573.126
20.58000 574.732
20.59000 558.397
20.60000 545.977
20.61000 544.870
20.62000 558.316
20.63000 571.798
20.64000 576.902
20.65000 575.103
20.66000 573.329
20.67000 568.317
20.68000 561.730
20.69000 555.278
20.70000 551.187
20.71000 547.963
20.72000 545.965
20.73000 555.415
20.74000 567.670
20.75000 578.308
20.76000 574.523
20.77000 569.362
20.78000 565.375
20.79000 565.728
20.80000 566.486
20.81000 568.543
20.82000 573.821
20.83000 579.249
20.84000 582.663
20.85000 560.320
20.86000 543.871
20.87000 543.965
20.88000 562.132
20.89000 580.189
20.90000 582.363
20.91000 573.372
20.92000 564.578
20.93000 566.012
20.94000 571.994
20.95000 576.933
20.96000 567.677
20.97000 553.930
20.98000 543.267
20.99000 556.259
21.00000 574.199
21.01000 589.355
21.02000 583.169
21.03000 575.653
21.04000 567.671
21.05000 558.206
21.06000 548.632
21.07000 544.438
21.08000 551.770
21.09000 559.488
21.10000 564.046
21.11000 565.024
21.12000 565.695
21.13000 565.924
21.14000 565.744
21.15000 565.499
21.16000 560.989
21.17000 553.906
21.18000 547.049
21.19000 546.291
21.20000 547.913
21.21000 549.453
21.22000 550.116
21.23000 550.539
21.24000 550.713
21.25000 549.294
21.26000 547.592
21.27000 546.198
21.28000 552.077
21.29000 557.543
21.30000 562.342
21.31000 565.309
21.32000 568.172
21.33000 567.919
21.34000 561.912
21.35000 555.779
21.36000 552.402
21.37000 546.891
21.38000 543.110
21.39000 544.527
21.40000 550.011
21.41000 555.426
21.42000 558.074
21.43000 559.286
21.44000 560.445
21.45000 571.188
21.46000 584.310
21.47000 596.388
21.48000 599.334
21.49000 600.151
21.50000 600.528
21.51000 598.537
21.52000 596.193
21.53000 594.334
21.54000 585.833
21.55000 578.529
21.56000 574.248
21.57000 577.123
21.58000 580.301
21.59000 587.213
21.60000 600.061
21.61000 612.985
21.62000 619.559
21.63000 629.856
21.64000 636.738
21.65000 641.359
21.66000 644.466
21.67000 647.645
21.68000 652.750
21.69000 658.719
21.70000 664.344
21.71000 674.122
21.72000 684.222
21.73000 694.797
21.74000 708.801
21.75000 723.486
21.76000 739.606
21.77000 762.281
21.78000 785.767
21.79000 803.713
21.80000 828.757
21.81000 848.888
21.82000 870.087
21.83000 893.470
21.84000 916.916
21.85000 935.431
21.86000 947.229
21.87000 958.981
21.88000 974.416
21.89000 993.039
21.90000 1011.503
21.91000 1021.205
21.92000 1025.872
21.93000 1030.567
21.94000 1035.828
21.95000 1041.309
21.96000 1046.388
21.97000 1062.739
21.98000 1080.085
21.99000 1092.123
22.00000 1072.089
22.01000 1046.672
22.02000 1025.279
22.03000 1019.609
22.04000 1015.527
22.05000 1012.533
22.06000 982.876
22.07000 958.887
22.08000 934.729
22.09000 910.271
22.10000 885.808
22.11000 862.141
22.12000 839.396
22.13000 816.722
22.14000 793.795
22.15000 770.853
22.16000 748.208
22.17000 735.938
22.18000 728.807
22.19000 721.224
22.20000 706.909
22.21000 690.347
22.22000 675.285
22.23000 659.354
22.24000 645.094
22.25000 631.211
22.26000 619.248
22.27000 607.556
22.28000 596.363
22.29000 586.846
22.30000 577.464
22.31000 570.887
22.32000 583.444
22.33000 593.494
22.34000 598.018
22.35000 594.174
22.36000 590.245
22.37000 583.586
22.38000 574.253
22.39000 564.987
22.40000 561.837
22.41000 562.569
22.42000 563.154
22.43000 560.192
22.44000 555.714
22.45000 551.328
22.46000 548.016
22.47000 545.013
22.48000 542.341
22.49000 548.068
22.50000 554.417
22.51000 558.810
22.52000 554.706
22.53000 549.616
22.54000 547.103
22.55000 552.039
22.56000 557.446
22.57000 561.050
22.58000 553.616
22.59000 547.901
22.60000 541.826
22.61000 535.282
22.62000 528.753
22.63000 529.369
22.64000 535.910
22.65000 542.362
22.66000 548.285
22.67000 553.763
22.68000 558.651
22.69000 553.000
22.70000 543.458
22.71000 534.483
22.72000 530.846
22.73000 528.526
22.74000 526.511
22.75000 524.933
22.76000 523.646
22.77000 521.665
22.78000 517.095
22.79000 512.282
22.80000 511.791
22.81000 522.088
22.82000 532.898
22.83000 539.711
22.84000 528.789
22.85000 520.679
22.86000 517.951
22.87000 521.142
22.88000 524.313
22.89000 524.168
22.90000 521.678
22.91000 519.242
22.92000 519.167
22.93000 520.166
22.94000 521.243
22.95000 523.400
22.96000 525.900
22.97000 527.056
22.98000 517.822
22.99000 506.401
23.00000 496.741
23.01000 512.627
23.02000 528.751
23.03000 539.295
23.04000 531.990
23.05000 523.346
23.06000 516.133
23.07000 512.005
23.08000 507.981
23.09000 505.599
23.10000 515.577
23.11000 522.700
23.12000 525.100
23.13000 523.119
23.14000 521.109
23.15000 517.139
23.16000 511.980
23.17000 506.983
23.18000 508.181
23.19000 511.704
23.20000 514.776
23.21000 512.932
23.22000 509.742
23.23000 507.647
23.24000 512.606
23.25000 518.824
23.26000 523.928
23.27000 516.388
23.28000 509.069
23.29000 506.543
23.30000 517.235
23.31000 528.693
23.32000 533.700
23.33000 526.716
23.34000 519.464
23.35000 515.459
23.36000 511.386
23.37000 508.592
23.38000 510.116
23.39000 515.040
23.40000 519.930
23.41000 523.442
23.42000 526.234
23.43000 528.905
23.44000 529.741
23.45000 529.918
23.46000 529.620
23.47000 525.137
23.48000 519.672
23.49000 514.499
23.50000 510.908
23.51000 507.553
23.52000 504.890
23.53000 502.104
23.54000 499.853
23.55000 501.497
23.56000 512.416
23.57000 523.733
23.58000 526.294
23.59000 514.851
23.60000 503.225
23.61000 497.292
23.62000 496.327
23.63000 495.717
23.64000 499.104
23.65000 505.179
23.66000 511.114
23.67000 513.172
23.68000 513.482
23.69000 513.775
23.70000 510.068
23.71000 505.558
23.72000 502.061
23.73000 505.931
23.74000 511.274
23.75000 516.472
23.76000 521.003
23.77000 525.451
23.78000 528.854
23.79000 518.760
23.80000 510.056
23.81000 504.812
23.82000 506.679
23.83000 508.759
23.84000 506.911
23.85000 499.678
23.86000 492.417
23.87000 491.063
23.88000 494.898
23.89000 498.679
23.90000 499.392
23.91000 498.332
23.92000 497.355
23.93000 498.022
23.94000 499.328
23.95000 500.540
23.96000 500.588
23.97000 500.359
23.98000 500.256
23.99000 500.923
24.00000 501.719
24.01000 502.550
24.02000 503.514
24.03000 504.492
24.04000 505.210
24.05000 515.268
24.06000 523.426
24.07000 521.996
24.08000 503.576
24.09000 484.830
24.10000 478.934
24.11000 488.039
24.12000 497.141
24.13000 501.767
24.14000 503.035
24.15000 504.213
24.16000 502.201
24.17000 498.598
24.18000 494.994
24.19000 491.364
24.20000 487.725
24.21000 484.413
24.22000 489.821
24.23000 496.329
24.24000 502.758
24.25000 508.776
24.26000 514.736
24.27000 517.866
24.28000 511.439
24.29000 504.231
24.30000 499.168
24.31000 495.949
24.32000 493.565
24.33000 494.094
24.34000 499.060
24.35000 504.073
24.36000 505.643
24.37000 503.818
24.38000 502.007
24.39000 499.699
24.40000 497.116
24.41000 494.640
24.42000 494.780
24.43000 496.044
24.44000 497.132
24.45000 496.140
24.46000 494.546
24.47000 493.126
24.48000 485.169
24.49000 477.175
24.50000 472.777
24.51000 484.098
24.52000 497.259
24.53000 507.335
24.54000 508.436
24.55000 508.965
24.56000 509.318
24.57000 497.857
24.58000 489.134
24.59000 488.818
24.60000 499.458
24.61000 510.127
24.62000 512.217
24.63000 507.146
24.64000 502.142
24.65000 497.516
24.66000 493.218
24.67000 489.056
24.68000 487.368
24.69000 486.597
24.70000 485.938
24.71000 486.337
24.72000 486.999
24.73000 487.575
24.74000 495.447
24.75000 503.159
24.76000 507.979
24.77000 501.976
24.78000 494.943
24.79000 491.713
24.80000 498.030
24.81000 504.807
24.82000 509.089
24.83000 488.449
24.84000 473.202
24.85000 473.081
24.86000 489.712
24.87000 506.245
24.88000 507.225
24.89000 497.134
24.90000 487.257
24.91000 479.736
24.92000 473.588
24.93000 467.794
24.94000 466.903
24.95000 467.584
24.96000 469.080
24.97000 476.938
24.98000 486.144
24.99000 493.939
25.00000 488.737
25.01000 482.929
25.02000 478.350
25.03000 477.722
25.04000 477.394
25.05000 479.180
25.06000 485.546
25.07000 492.069
25.08000 495.943
25.09000 494.172
25.10000 492.885
25.11000 490.705
25.12000 487.691
25.13000 484.751
25.14000 486.967
25.15000 492.331
25.16000 497.529
25.17000 495.155
25.18000 489.967
25.19000 485.069
25.20000 483.366
25.21000 482.543
25.22000 481.887
25.23000 482.314
25.24000 482.936
25.25000 483.447
25.26000 485.429
25.27000 487.190
25.28000 486.525
25.29000 479.131
25.30000 471.344
25.31000 468.208
25.32000 473.771
25.33000 479.533
25.34000 482.725
25.35000 478.593
25.36000 475.725
25.37000 471.928
25.38000 467.396
25.39000 463.062
25.40000 466.885
25.41000 474.995
25.42000 482.759
25.43000 483.264
25.44000 481.338
25.45000 479.389
25.46000 477.237
25.47000 475.036
25.48000 473.317
25.49000 474.231
25.50000 475.543
25.51000 476.586
25.52000 482.451
25.53000 487.520
25.54000 489.311
25.55000 483.248
25.56000 476.843
25.57000 474.045
25.58000 477.050
25.59000 480.132
25.60000 481.710
25.61000 476.287
25.62000 472.660
25.63000 471.104
25.64000 470.949
25.65000 470.926
25.66000 474.542
25.67000 479.810
25.68000 484.780
25.69000 487.608
25.70000 489.600
25.71000 491.188
25.72000 489.816
25.73000 487.848
25.74000 485.756
25.75000 483.087
25.76000 480.346
25.77000 478.245
25.78000 478.644
25.79000 479.097
25.80000 479.434
25.81000 479.528
25.82000 479.615
25.83000 481.927
25.84000 487.311
25.85000 492.711
25.86000 490.525
25.87000 481.635
25.88000 472.913
25.89000 473.868
25.90000 480.452
25.91000 486.708
25.92000 486.366
25.93000 483.441
25.94000 480.726
25.95000 482.095
25.96000 484.296
25.97000 486.208
25.98000 486.358
25.99000 486.207
26.00000 485.785
26.01000 484.293
26.02000 482.691
26.03000 481.511
26.04000 471.801
26.05000 463.934
26.06000 459.966
26.07000 462.949
26.08000 466.069
26.09000 464.989
26.10000 458.973
26.11000 452.966
26.12000 453.709
26.13000 459.496
26.14000 465.172
26.15000 466.847
26.16000 466.517
26.17000 466.602
26.18000 472.994
26.19000 481.518
26.20000 489.282
26.21000 487.441
26.22000 483.901
26.23000 479.778
26.24000 472.639
26.25000 465.070
26.26000 460.018
26.27000 463.515
26.28000 467.718
26.29000 470.675
26.30000 466.263
26.31000 462.701
26.32000 460.853
26.33000 461.630
26.34000 462.435
26.35000 466.191
26.36000 472.878
26.37000 479.518
26.38000 478.330
26.39000 472.191
26.40000 466.406
26.41000 469.452
26.42000 476.317
26.43000 482.653
26.44000 482.678
26.45000 480.866
26.46000 479.250
26.47000 481.834
26.48000 484.780
26.49000 485.845
26.50000 478.634
26.51000 470.448
26.52000 463.906
26.53000 462.175
26.54000 460.755
26.55000 459.804
26.56000 464.832
26.57000 468.680
26.58000 469.711
26.59000 467.046
26.60000 464.368
26.61000 463.817
26.62000 465.053
26.63000 466.272
26.64000 468.932
26.65000 472.300
26.66000 475.523
26.67000 476.121
26.68000 475.738
26.69000 475.229
26.70000 473.516
26.71000 471.502
26.72000 469.749
26.73000 464.420
26.74000 459.377
26.75000 455.201
26.76000 454.291
26.77000 453.695
26.78000 455.968
26.79000 465.485
26.80000 475.355
26.81000 481.607
26.82000 471.178
26.83000 463.414
26.84000 458.688
26.85000 457.349
26.86000 456.021
26.87000 456.023
26.88000 456.978
26.89000 457.912
26.90000 466.531
26.91000 478.342
26.92000 488.904
26.93000 481.958
26.94000 469.371
26.95000 458.405
26.96000 460.167
26.97000 464.643
26.98000 468.438
26.99000 460.190
27.00000 451.922
27.01000 447.431
27.02000 455.173
27.03000 463.849
27.04000 467.477
27.05000 460.098
27.06000 452.334
27.07000 447.712
27.08000 465.652
27.09000 478.495
27.10000 477.126
27.11000 462.392
27.12000 447.788
27.13000 442.436
27.14000 442.766
27.15000 443.086
27.16000 449.598
27.17000 458.186
27.18000 465.839
27.19000 463.135
27.20000 457.560
27.21000 452.473
27.22000 450.573
27.23000 449.250
27.24000 448.161
27.25000 445.217
27.26000 442.629
27.27000 441.546
27.28000 444.667
27.29000 448.038
27.30000 451.287
27.31000 454.310
27.32000 457.327
27.33000 459.003
27.34000 458.846
27.35000 458.738
27.36000 459.962
27.37000 462.249
27.38000 464.391
27.39000 460.374
27.40000 453.102
27.41000 446.137
27.42000 444.553
27.43000 444.863
27.44000 444.923
27.45000 442.740
27.46000 440.024
27.47000 438.873
27.48000 446.324
27.49000 455.083
27.50000 462.057
27.51000 458.747
27.52000 455.335
27.53000 453.164
27.54000 453.982
27.55000 454.930
27.56000 454.415
27.57000 451.528
27.58000 448.609
27.59000 447.110
27.60000 449.507
27.61000 451.135
27.62000 454.497
27.63000 459.039
27.64000 463.368
27.65000 461.669
27.66000 457.222
27.67000 453.022
27.68000 450.927
27.69000 449.599
27.70000 448.522
27.71000 449.301
27.72000 450.456
27.73000 452.716
27.74000 460.125
27.75000 468.187
27.76000 474.375
27.77000 452.706
27.78000 434.022
27.79000 425.296
27.80000 437.284
27.81000 449.915
27.82000 456.084
27.83000 453.284
27.84000 450.427
27.85000 452.933
27.86000 460.208
27.87000 467.370
27.88000 467.816
27.89000 464.330
27.90000 460.552
27.91000 450.839
27.92000 438.789
27.93000 427.595
27.94000 436.640
27.95000 449.617
27.96000 460.704
27.97000 460.130
27.98000 457.559
27.99000 453.727
28.00000 444.879
28.01000 435.512
28.02000 428.606
28.03000 440.092
28.04000 449.758
28.05000 455.770
28.06000 455.226
28.07000 454.552
28.08000 454.968
28.09000 456.677
28.10000 458.383
28.11000 462.080
28.12000 467.251
28.13000 472.263
28.14000 471.404
28.15000 467.585
28.16000 463.740
28.17000 459.512
28.18000 455.154
28.19000 451.180
28.20000 445.286
28.21000 439.677
28.22000 435.111
28.23000 435.980
28.24000 437.629
28.25000 439.676
28.26000 443.083
28.27000 446.604
28.28000 449.086
28.29000 453.930
28.30000 457.675
28.31000 455.753
28.32000 445.093
28.33000 434.336
28.34000 430.995
28.35000 435.072
28.36000 439.121
28.37000 442.814
28.38000 446.222
28.39000 449.333
28.40000 444.923
28.41000 437.239
28.42000 430.459
28.43000 434.540
28.44000 441.800
28.45000 448.280
28.46000 447.703
28.47000 446.020
28.48000 446.223
28.49000 454.778
28.50000 464.327
28.51000 467.248
28.52000 450.662
28.53000 432.806
28.54000 420.827
28.55000 432.239
28.56000 441.183
28.57000 447.187
28.58000 449.308
28.59000 451.417
28.60000 456.362
28.61000 463.705
28.62000 470.956
28.63000 472.572
28.64000 471.085
28.65000 469.330
28.66000 462.607
28.67000 454.019
28.68000 445.991
28.69000 443.382
28.70000 442.136
28.71000 441.050
28.72000 439.705
28.73000 438.519
28.74000 436.476
28.75000 431.184
28.76000 425.578
28.77000 423.429
28.78000 430.063
28.79000 437.129
28.80000 441.615
28.81000 437.017
28.82000 433.567
28.83000 434.331
28.84000 439.823
28.85000 445.273
28.86000 443.465
28.87000 436.426
28.88000 429.532
28.89000 426.770
28.90000 426.025
28.91000 425.610
28.92000 429.875
28.93000 435.657
28.94000 440.801
28.95000 440.907
28.96000 439.931
28.97000 439.103
28.98000 440.423
28.99000 441.774
29.00000 441.229
29.01000 434.506
29.02000 427.307
29.03000 423.476
29.04000 427.036
29.05000 430.857
29.06000 433.138
29.07000 434.960
29.08000 436.249
29.09000 437.868
29.10000 439.797
29.11000 441.658
29.12000 438.550
29.13000 432.370
29.14000 426.377
29.15000 430.854
29.16000 439.218
29.17000 446.821
29.18000 445.917
29.19000 442.639
29.20000 439.556
29.21000 437.756
29.22000 436.188
29.23000 434.897
29.24000 434.065
29.25000 433.424
29.26000 432.726
29.27000 431.870
29.28000 431.005
29.29000 430.846
29.30000 432.021
29.31000 433.227
29.32000 433.900
29.33000 429.790
29.34000 426.949
29.35000 427.917
29.36000 431.945
29.37000 435.914
29.38000 437.354
29.39000 437.450
29.40000 437.541
29.41000 440.575
29.42000 444.390
29.43000 447.019
29.44000 438.922
29.45000 428.260
29.46000 420.048
29.47000 425.380
29.48000 432.788
29.49000 438.695
29.50000 437.084
29.51000 435.237
29.52000 432.023
29.53000 425.493
29.54000 418.815
29.55000 416.973
29.56000 423.006
29.57000 429.151
29.58000 432.319
29.59000 436.891
29.60000 439.926
29.61000 437.659
29.62000 431.755
29.63000 426.128
29.64000 428.413
29.65000 434.329
29.66000 439.918
29.67000 443.884
29.68000 447.065
29.69000 450.136
29.70000 452.395
29.71000 454.489
29.72000 455.892
29.73000 454.056
29.74000 451.807
29.75000 450.078
29.76000 445.117
29.77000 441.010
29.78000 442.012
29.79000 453.705
29.80000 465.734
29.81000 472.231
29.82000 471.001
29.83000 469.719
29.84000 466.218
29.85000 460.733
29.86000 455.311
29.87000 453.754
29.88000 454.473
29.89000 455.177
29.90000 455.596
29.91000 455.900
29.92000 456.183
29.93000 460.157
29.94000 464.629
29.95000 468.277
29.96000 466.810
29.97000 464.460
29.98000 461.511
29.99000 456.162
30.00000 450.562
30.01000 446.426
30.02000 461.150
30.03000 473.363
30.04000 480.966
30.05000 480.251
30.06000 479.365
30.07000 475.118
30.08000 466.865
30.09000 458.626
30.10000 449.612
30.11000 440.067
30.12000 430.926
30.13000 436.859
30.14000 450.439
30.15000 463.279
30.16000 464.641
30.17000 462.078
30.18000 459.739
30.19000 455.364
30.20000 451.072
30.21000 447.328
30.22000 446.457
30.23000 446.002
30.24000 447.270
30.25000 454.467
30.26000 462.162
30.27000 467.597
30.28000 460.649
30.29000 454.997
30.30000 451.790
30.31000 452.377
30.32000 453.007
30.33000 453.465
30.34000 453.750
30.35000 454.033
30.36000 452.076
30.37000 448.708
30.38000 445.528
30.39000 447.170
30.40000 450.924
30.41000 454.246
30.42000 452.332
30.43000 448.876
30.44000 445.789
30.45000 450.381
30.46000 455.676
30.47000 459.307
30.48000 455.518
30.49000 450.841
30.50000 447.892
30.51000 450.060
30.52000 452.565
30.53000 454.249
30.54000 450.632
30.55000 447.836
30.56000 446.079
30.57000 445.701
30.58000 445.336
30.59000 447.988
30.60000 453.209
30.61000 458.365
30.62000 461.829
30.63000 464.280
30.64000 466.869
30.65000 472.043
30.66000 478.194
30.67000 484.197
30.68000 488.765
30.69000 492.969
30.70000 496.637
30.71000 494.315
30.72000 491.493
30.73000 490.140
30.74000 494.391
30.75000 499.190
30.76000 505.013
30.77000 513.455
30.78000 522.027
30.79000 527.482
30.80000 526.164
30.81000 525.121
30.82000 529.250
30.83000 539.224
30.84000 549.252
30.85000 567.164
30.86000 590.793
30.87000 613.947
30.88000 621.281
30.89000 620.973
30.90000 621.328
30.91000 631.170
30.92000 644.104
30.93000 658.309
30.94000 682.647
30.95000 709.173
30.96000 731.711
30.97000 784.683
30.98000 832.630
30.99000 883.727
31.00000 945.146
31.01000 1007.368
31.02000 1075.230
31.03000 1155.530
31.04000 1236.278
31.05000 1284.605
31.06000 1421.247
31.07000 1518.811
31.08000 1634.172
31.09000 1766.500
31.10000 1898.761
31.11000 2026.046
31.12000 2150.237
31.13000 2270.736
31.14000 2423.327
31.15000 2580.734
31.16000 2736.920
31.17000 2879.335
31.18000 3017.886
31.19000 3154.677
31.20000 3279.815
31.21000 3402.816
31.22000 3504.291
31.23000 3578.507
31.24000 3637.099
31.25000 3688.839
31.26000 3721.230
31.27000 3752.450
31.28000 3766.196
31.29000 3746.675
31.30000 3726.352
31.31000 3714.995
31.32000 3585.122
31.33000 3494.925
31.34000 3406.777
31.35000 3320.285
31.36000 3232.320
31.37000 3079.807
31.38000 2892.757
31.39000 2713.417
31.40000 2557.953
31.41000 2420.827
31.42000 2284.073
31.43000 2150.720
31.44000 2018.185
31.45000 1888.388
31.46000 1773.831
31.47000 1661.627
31.48000 1572.035
31.49000 1428.833
31.50000 1309.240
31.51000 1204.524
31.52000 1136.076
31.53000 1069.268
31.54000 1005.718
31.55000 947.508
31.56000 889.374
31.57000 859.306
31.58000 801.472
31.59000 762.562
31.60000 734.964
31.61000 715.171
31.62000 695.188
31.63000 669.717
31.64000 641.712
31.65000 615.235
31.66000 607.127
31.67000 604.924
31.68000 600.897
31.69000 583.182
31.70000 562.659
31.71000 544.881
31.72000 540.060
31.73000 536.903
31.74000 534.473
31.75000 531.951
31.76000 529.950
31.77000 524.745
31.78000 512.799
31.79000 500.637
31.80000 489.436
31.81000 479.587
31.82000 469.751
31.83000 467.524
31.84000 472.166
31.85000 476.760
31.86000 478.407
31.87000 478.310
31.88000 478.085
31.89000 475.213
31.90000 471.287
31.91000 467.634
31.92000 460.738
31.93000 453.727
31.94000 446.970
31.95000 441.805
31.96000 436.916
31.97000 433.933
31.98000 438.629
31.99000 444.135
32.00000 448.208
32.01000 440.387
32.02000 433.809
32.03000 428.240
32.04000 424.502
32.05000 420.802
32.06000 423.237
32.07000 433.028
32.08000 442.810
32.09000 444.596
32.10000 440.270
32.11000 435.923
32.12000 430.816
32.13000 425.320
32.14000 420.193
32.15000 420.855
32.16000 423.507
32.17000 425.929
32.18000 420.270
32.19000 413.607
32.20000 407.827
32.21000 406.710
32.22000 406.273
32.23000 406.486
32.24000 408.944
32.25000 411.593
32.26000 413.467
32.27000 415.550
32.28000 417.139
32.29000 415.323
32.30000 408.194
32.31000 401.002
32.32000 398.925
32.33000 402.036
32.34000 405.127
32.35000 405.037
32.36000 402.888
32.37000 400.788
32.38000 399.946
32.39000 399.657
32.40000 399.110
32.41000 395.389
32.42000 390.728
32.43000 386.560
32.44000 387.463
32.45000 389.111
32.46000 390.147
32.47000 388.444
32.48000 386.410
32.49000 384.777
32.50000 384.341
32.51000 383.984
32.52000 383.744
32.53000 383.126
32.54000 382.659
32.55000 384.217
32.56000 388.484
32.57000 392.762
32.58000 394.738
32.59000 394.741
32.60000 394.744
32.61000 388.705
32.62000 379.491
32.63000 371.170
32.64000 379.732
32.65000 394.714
32.66000 407.698
32.67000 401.053
32.68000 389.414
32.69000 379.250
32.70000 375.640
32.71000 373.472
32.72000 371.785
32.73000 371.941
32.74000 372.278
32.75000 372.276
32.76000 371.401
32.77000 370.481
32.78000 369.895
32.79000 366.052
32.80000 363.216
32.81000 362.222
32.82000 363.324
32.83000 364.392
32.84000 359.440
32.85000 350.094
32.86000 340.934
32.87000 347.506
32.88000 361.202
32.89000 373.985
32.90000 373.599
32.91000 368.893
32.92000 364.258
32.93000 360.195
32.94000 356.257
32.95000 352.907
32.96000 359.807
32.97000 366.787
32.98000 372.458
32.99000 373.816
33.00000 374.834
33.01000 375.216
33.02000 374.187
33.03000 373.107
33.04000 372.459
33.05000 372.583
33.06000 372.676
33.07000 369.313
33.08000 362.632
33.09000 356.075
33.10000 358.980
33.11000 367.804
33.12000 376.369
33.13000 373.391
33.14000 365.963
33.15000 358.546
33.16000 351.248
33.17000 343.983
33.18000 337.762
33.19000 338.498
33.20000 340.519
33.21000 342.188
33.22000 346.144
33.23000 349.617
33.24000 354.630
33.25000 364.014
33.26000 373.667
33.27000 378.675
33.28000 374.789
33.29000 370.685
33.30000 368.385
33.31000 368.183
33.32000 368.054
33.33000 370.028
33.34000 373.712
33.35000 377.120
33.36000 368.151
33.37000 352.521
33.38000 337.527
33.39000 341.633
33.40000 351.942
33.41000 361.759
33.42000 367.053
33.43000 371.251
33.44000 374.014
33.45000 368.726
33.46000 362.187
33.47000 356.959
33.48000 357.341
33.49000 358.066
33.50000 356.556
33.51000 349.566
33.52000 342.324
33.53000 341.205
33.54000 350.182
33.55000 359.307
33.56000 364.043
33.57000 354.813
33.58000 348.636
33.59000 349.556
33.60000 355.405
33.61000 361.035
33.62000 360.206
33.63000 356.379
33.64000 352.759
33.65000 351.745
33.66000 351.562
33.67000 351.423
33.68000 351.607
33.69000 351.859
33.70000 352.918
33.71000 357.811
33.72000 363.200
33.73000 367.357
33.74000 365.354
33.75000 363.412
33.76000 360.261
33.77000 354.551
33.78000 348.758
33.79000 343.891
33.80000 340.334
33.81000 336.786
33.82000 339.813
33.83000 348.810
33.84000 357.636
33.85000 355.640
33.86000 347.194
33.87000 339.097
33.88000 338.351
33.89000 340.553
33.90000 342.603
33.91000 339.764
33.92000 336.010
33.93000 333.095
33.94000 335.471
33.95000 338.773
33.96000 341.163
33.97000 339.848
33.98000 338.140
33.99000 336.874
34.00000 337.046
34.01000 337.242
34.02000 337.156
34.03000 336.555
34.04000 335.943
34.05000 335.949
34.06000 336.699
34.07000 337.450
34.08000 339.091
34.09000 341.408
34.10000 343.624
34.11000 341.987
34.12000 338.372
34.13000 335.143
34.14000 338.034
34.15000 343.043
34.16000 347.621
34.17000 346.386
34.18000 344.102
34.19000 341.979
34.20000 340.717
34.21000 339.582
34.22000 338.101
34.23000 335.417
34.24000 332.630
34.25000 330.654
34.26000 335.711
34.27000 339.778
34.28000 339.675
34.29000 333.025
34.30000 326.296
34.31000 325.102
34.32000 329.562
34.33000 333.994
34.34000 335.255
34.35000 334.431
34.36000 333.510
34.37000 329.995
34.38000 325.331
34.39000 321.398
34.40000 326.492
34.41000 334.278
34.42000 341.246
34.43000 341.790
34.44000 341.167
34.45000 341.305
34.46000 344.876
34.47000 348.866
34.48000 349.814
34.49000 341.645
34.50000 332.863
34.51000 326.935
34.52000 330.349
34.53000 333.089
34.54000 333.384
34.55000 330.390
34.56000 327.379
34.57000 324.222
34.58000 320.941
34.59000 317.699
34.60000 320.755
34.61000 327.223
34.62000 333.461
34.63000 335.273
34.64000 335.391
34.65000 335.739
34.66000 338.353
34.67000 341.548
34.68000 344.341
34.69000 338.038
34.70000 331.350
34.71000 325.727
34.72000 324.217
34.73000 323.115
34.74000 323.609
34.75000 328.227
34.76000 333.055
34.77000 336.142
34.78000 335.128
34.79000 334.335
34.80000 330.392
34.81000 322.839
34.82000 315.323
34.83000 314.893
34.84000 319.668
34.85000 324.351
34.86000 327.608
34.87000 330.073
34.88000 332.282
34.89000 330.766
34.90000 328.021
34.91000 325.041
34.92000 320.161
34.93000 314.865
34.94000 310.356
34.95000 317.365
34.96000 324.599
34.97000 329.525
34.98000 326.802
34.99000 323.471
35.00000 321.107
35.01000 320.904
35.02000 320.781
35.03000 320.707
35.04000 327.778
35.05000 332.856
35.06000 339.155
35.07000 346.634
35.08000 353.981
35.09000 351.019
35.10000 341.568
35.11000 332.391
35.12000 335.114
35.13000 342.475
35.14000 348.829
35.15000 343.605
35.16000 335.093
35.17000 327.190
35.18000 323.384
35.19000 320.339
35.20000 317.821
35.21000 320.897
35.22000 323.961
35.23000 325.197
35.24000 321.207
35.25000 316.894
35.26000 314.775
35.27000 316.884
35.28000 319.098
35.29000 320.343
35.30000 319.928
35.31000 319.635
35.32000 318.946
35.33000 317.933
35.34000 316.973
35.35000 318.442
35.36000 321.226
35.37000 323.898
35.38000 320.386
35.39000 314.992
35.40000 310.260
35.41000 311.658
35.42000 314.551
35.43000 317.388
35.44000 319.915
35.45000 322.394
35.46000 324.378
35.47000 320.283
35.48000 316.515
35.49000 312.381
35.50000 307.345
35.51000 302.268
35.52000 303.410
35.53000 314.870
35.54000 326.486
35.55000 332.535
35.56000 319.529
35.57000 310.756
35.58000 304.722
35.59000 300.603
35.60000 296.619
35.61000 296.697
35.62000 298.673
35.63000 300.542
35.64000 303.491
35.65000 306.515
35.66000 309.235
35.67000 309.635
35.68000 309.554
35.69000 309.772
35.70000 311.417
35.71000 313.248
35.72000 314.663
35.73000 305.214
35.74000 297.087
35.75000 292.180
35.76000 294.133
35.77000 296.311
35.78000 300.847
35.79000 308.737
35.80000 316.650
35.81000 317.715
35.82000 312.512
35.83000 307.351
35.84000 304.917
35.85000 304.118
35.86000 303.664
35.87000 310.602
35.88000 320.520
35.89000 329.759
35.90000 325.630
35.91000 318.623
35.92000 311.806
35.93000 306.197
35.94000 300.801
35.95000 297.063
35.96000 300.095
35.97000 303.852
35.98000 306.641
35.99000 310.443
36.00000 313.442
36.01000 314.108
36.02000 310.490
36.03000 306.779
36.04000 304.298
36.05000 303.311
36.06000 302.330
36.07000 302.653
36.08000 303.982
36.09000 305.327
36.10000 307.300
36.11000 309.599
36.12000 311.448
36.13000 306.105
36.14000 298.259
36.15000 291.083
36.16000 291.438
36.17000 293.306
36.18000 295.713
36.19000 301.008
36.20000 306.731
36.21000 311.208
36.22000 311.326
36.23000 311.068
36.24000 310.885
36.25000 314.547
36.26000 317.457
36.27000 316.711
36.28000 310.188
36.29000 303.592
36.30000 299.532
36.31000 298.079
36.32000 296.635
36.33000 298.109
36.34000 301.478
36.35000 304.715
36.36000 304.424
36.37000 302.561
36.38000 301.034
36.39000 303.691
36.40000 307.603
36.41000 311.107
36.42000 310.555
36.43000 309.375
36.44000 308.244
36.45000 307.338
36.46000 306.460
36.47000 305.992
36.48000 306.763
36.49000 307.619
36.50000 308.197
36.51000 308.798
36.52000 309.246
36.53000 307.633
36.54000 303.231
36.55000 298.821
36.56000 299.884
36.57000 305.701
36.58000 311.450
36.59000 311.427
36.60000 308.186
36.61000 305.246
36.62000 308.161
36.63000 313.328
36.64000 317.927
36.65000 316.849
36.66000 314.309
36.67000 312.086
36.68000 307.450
36.69000 303.132
36.70000 299.612
36.71000 299.195
36.72000 299.089
36.73000 299.694
36.74000 302.148
36.75000 304.698
36.76000 306.332
36.77000 304.084
36.78000 302.395
36.79000 304.883
36.80000 312.187
36.81000 319.455
36.82000 318.913
36.83000 312.600
36.84000 306.407
36.85000 304.684
36.86000 305.144
36.87000 305.374
36.88000 302.197
36.89000 297.891
36.90000 294.660
36.91000 300.211
36.92000 307.697
36.93000 314.079
36.94000 313.109
36.95000 311.431
36.96000 310.880
36.97000 314.091
36.98000 317.605
36.99000 318.544
37.00000 313.703
37.01000 308.645
37.02000 305.594
37.03000 295.705
37.04000 288.617
37.05000 285.242
37.06000 285.483
37.07000 285.729
37.08000 286.475
37.09000 287.538
37.10000 288.571
37.11000 292.332
37.12000 297.006
37.13000 301.511
37.14000 304.059
37.15000 306.048
37.16000 307.856
37.17000 308.442
37.18000 308.800
37.19000 309.096
37.20000 313.359
37.21000 317.255
37.22000 317.706
37.23000 308.256
37.24000 298.186
37.25000 291.781
37.26000 292.478
37.27000 293.355
37.28000 293.850
37.29000 296.598
37.30000 298.506
37.31000 297.895
37.32000 295.208
37.33000 292.585
37.34000 292.951
37.35000 294.945
37.36000 296.859
37.37000 297.392
37.38000 297.416
37.39000 297.378
37.40000 296.751
37.41000 295.981
37.42000 295.252
37.43000 294.760
37.44000 294.305
37.45000 293.940
37.46000 291.345
37.47000 289.075
37.48000 288.853
37.49000 293.716
37.50000 298.818
37.51000 301.443
37.52000 299.933
37.53000 298.359
37.54000 297.537
37.55000 294.700
37.56000 292.794
37.57000 292.774
37.58000 294.081
37.59000 295.397
37.60000 297.005
37.61000 298.752
37.62000 300.406
37.63000 299.578
37.64000 298.094
37.65000 296.547
37.66000 294.524
37.67000 292.400
37.68000 290.881
37.69000 292.272
37.70000 294.045
37.71000 295.416
37.72000 305.764
37.73000 314.505
37.74000 317.644
37.75000 308.779
37.76000 299.512
37.77000 294.009
37.78000 293.897
37.79000 293.828
37.80000 293.201
37.81000 292.062
37.82000 290.972
37.83000 293.179
37.84000 297.373
37.85000 301.308
37.86000 299.616
37.87000 295.642
37.88000 291.938
37.89000 296.929
37.90000 303.590
37.91000 308.870
37.92000 305.321
37.93000 300.206
37.94000 296.323
37.95000 297.502
37.96000 299.227
37.97000 300.510
37.98000 305.479
37.99000 309.507
38.00000 312.685
38.01000 314.290
38.02000 315.861
38.03000 314.095
38.04000 308.250
38.05000 302.406
38.06000 301.914
38.07000 305.592
38.08000 309.200
38.09000 310.055
38.10000 309.480
38.11000 308.893
38.12000 308.104
38.13000 307.244
38.14000 306.457
38.15000 314.334
38.16000 323.139
38.17000 330.467
38.18000 329.846
38.19000 328.042
38.20000 326.749
38.21000 327.259
38.22000 327.926
38.23000 328.401
38.24000 327.403
38.25000 326.595
38.26000 328.792
38.27000 335.765
38.28000 342.800
38.29000 346.978
38.30000 348.196
38.31000 349.408
38.32000 350.148
38.33000 350.567
38.34000 351.484
38.35000 365.870
38.36000 386.294
38.37000 405.535
38.38000 409.869
38.39000 409.706
38.40000 409.559
38.41000 421.593
38.42000 434.222
38.43000 444.007
38.44000 440.786
38.45000 435.958
38.46000 434.974
38.47000 445.650
38.48000 457.125
38.49000 464.904
38.50000 474.123
38.51000 481.029
38.52000 485.996
38.53000 488.322
38.54000 490.636
38.55000 495.372
38.56000 502.224
38.57000 508.998
38.58000 507.490
38.59000 501.369
38.60000 495.096
38.61000 485.853
38.62000 475.461
38.63000 466.172
38.64000 468.002
38.65000 472.714
38.66000 476.842
38.67000 468.299
38.68000 459.145
38.69000 450.256
38.70000 442.401
38.71000 434.650
38.72000 426.854
38.73000 418.940
38.74000 411.020
38.75000 405.934
38.76000 393.685
38.77000 384.655
38.78000 379.026
38.79000 377.345
38.80000 375.670
38.81000 374.014
38.82000 372.373
38.83000 370.763
38.84000 364.762
38.85000 356.880
38.86000 349.188
38.87000 344.328
38.88000 340.414
38.89000 336.848
38.90000 336.139
38.91000 336.063
38.92000 335.999
38.93000 331.759
38.94000 327.695
38.95000 323.289
38.96000 317.733
38.97000 312.084
38.98000 307.878
38.99000 306.931
39.00000 306.108
39.01000 305.611
39.02000 302.966
39.03000 301.065
39.04000 300.846
39.05000 302.275
39.06000 303.694
39.07000 304.287
39.08000 304.354
39.09000 304.419
39.10000 301.750
39.11000 298.102
39.12000 294.526
39.13000 291.792
39.14000 289.299
39.15000 287.041
39.16000 286.382
39.17000 286.024
39.18000 285.728
39.19000 287.326
39.20000 288.828
39.21000 289.486
39.22000 287.702
39.23000 285.763
39.24000 284.909
39.25000 286.170
39.26000 287.486
39.27000 288.230
39.28000 281.704
39.29000 277.153
39.30000 275.880
39.31000 277.328
39.32000 278.722
39.33000 277.599
39.34000 275.096
39.35000 272.692
39.36000 269.311
39.37000 265.809
39.38000 263.269
39.39000 269.800
39.40000 278.569
39.41000 285.903
39.42000 285.035
39.43000 282.863
39.44000 281.120
39.45000 282.690
39.46000 284.215
39.47000 282.926
39.48000 274.611
39.49000 265.962
39.50000 260.809
39.51000 261.525
39.52000 262.334
39.53000 262.758
39.54000 272.484
39.55000 279.034
39.56000 279.919
39.57000 276.796
39.58000 273.765
39.59000 273.620
39.60000 274.837
39.61000 275.991
39.62000 275.910
39.63000 275.474
39.64000 274.745
39.65000 271.754
39.66000 268.288
39.67000 266.132
39.68000 270.334
39.69000 275.378
39.70000 279.285
39.71000 278.354
39.72000 277.327
39.73000 274.810
39.74000 269.082
39.75000 263.245
39.76000 260.773
39.77000 263.151
39.78000 265.567
39.79000 266.948
39.80000 267.369
39.81000 267.755
39.82000 265.813
39.83000 262.456
39.84000 259.498
39.85000 265.250
39.86000 274.556
39.87000 283.237
39.88000 279.250
39.89000 272.496
39.90000 266.083
39.91000 261.875
39.92000 258.059
39.93000 255.018
39.94000 255.177
39.95000 255.685
39.96000 256.063
39.97000 259.145
39.98000 261.667
39.99000 262.636
40.00000 260.719
40.01000 258.737
40.02000 258.966
40.03000 261.917
40.04000 264.869
40.05000 268.717
40.06000 273.247
40.07000 277.712
40.08000 279.508
40.09000 279.909
40.10000 280.063
40.11000 276.168
40.12000 270.847
40.13000 265.973
40.14000 263.974
40.15000 262.795
40.16000 262.553
40.17000 267.384
40.18000 272.976
40.19000 275.711
40.20000 268.319
40.21000 260.036
40.22000 254.131
40.23000 253.137
40.24000 252.541
40.25000 252.500
40.26000 253.346
40.27000 254.204
40.28000 255.129
40.29000 256.124
40.30000 257.114
40.31000 263.211
40.32000 272.625
40.33000 281.495
40.34000 275.416
40.35000 262.597
40.36000 250.870
40.37000 253.040
40.38000 259.429
40.39000 265.162
40.40000 262.193
40.41000 258.076
40.42000 254.416
40.43000 252.855
40.44000 251.555
40.45000 250.489
40.46000 250.133
40.47000 249.827
40.48000 249.619
40.49000 251.086
40.50000 252.218
40.51000 254.279
40.52000 257.616
40.53000 260.956
40.54000 259.944
40.55000 255.102
40.56000 250.313
40.57000 252.642
40.58000 258.938
40.59000 265.034
40.60000 267.147
40.61000 267.709
40.62000 268.154
40.63000 267.417
40.64000 266.371
40.65000 265.453
40.66000 261.236
40.67000 257.136
40.68000 253.118
40.69000 249.419
40.70000 245.753
40.71000 244.038
40.72000 247.456
40.73000 251.147
40.74000 253.523
40.75000 263.104
40.76000 270.199
40.77000 268.749
40.78000 257.317
40.79000 245.906
40.80000 241.547
40.81000 242.466
40.82000 243.368
40.83000 247.710
40.84000 253.550
40.85000 259.058
40.86000 259.571
40.87000 258.405
40.88000 257.541
40.89000 259.180
40.90000 261.378
40.91000 263.256
40.92000 254.191
40.93000 245.248
40.94000 239.934
40.95000 246.877
40.96000 254.823
40.97000 259.959
40.98000 258.712
40.99000 257.218
41.00000 256.312
41.01000 255.668
41.02000 255.210
41.03000 256.652
41.04000 259.968
41.05000 263.226
41.06000 261.553
41.07000 256.720
41.08000 252.021
41.09000 251.088
41.10000 251.741
41.11000 252.435
41.12000 253.599
41.13000 254.899
41.14000 255.957
41.15000 255.344
41.16000 254.414
41.17000 253.642
41.18000 253.391
41.19000 253.235
41.20000 253.141
41.21000 253.229
41.22000 253.329
41.23000 253.865
41.24000 255.256
41.25000 256.671
41.26000 257.472
41.27000 254.378
41.28000 252.212
41.29000 249.476
41.30000 246.264
41.31000 243.106
41.32000 242.555
41.33000 243.442
41.34000 244.294
41.35000 250.943
41.36000 259.190
41.37000 266.051
41.38000 259.750
41.39000 250.181
41.40000 242.034
41.41000 242.082
41.42000 243.440
41.43000 244.533
41.44000 243.959
41.45000 243.365
41.46000 243.909
41.47000 247.311
41.48000 250.850
41.49000 254.073
41.50000 256.762
41.51000 259.441
41.52000 260.850
41.53000 251.016
41.54000 244.364
41.55000 240.838
41.56000 239.539
41.57000 238.284
41.58000 238.447
41.59000 239.283
41.60000 240.076
41.61000 239.596
41.62000 238.777
41.63000 237.929
41.64000 236.850
41.65000 235.721
41.66000 234.472
41.67000 232.635
41.68000 230.718
41.69000 229.232
41.70000 230.134
41.71000 230.996
41.72000 233.217
41.73000 238.383
41.74000 243.652
41.75000 248.945
41.76000 254.275
41.77000 259.604
41.78000 260.425
41.79000 257.033
41.80000 253.636
41.81000 249.908
41.82000 245.978
41.83000 242.062
41.84000 238.479
41.85000 235.032
41.86000 231.815
41.87000 231.300
41.88000 231.508
41.89000 232.199
41.90000 236.024
41.91000 240.413
41.92000 242.710
41.93000 236.311
41.94000 228.956
41.95000 223.469
41.96000 231.158
41.97000 237.750
41.98000 241.378
41.99000 239.464
42.00000 237.423
42.01000 235.723
42.02000 234.443
42.03000 233.168
42.04000 235.146
42.05000 239.682
42.06000 244.186
42.07000 247.342
42.08000 249.788
42.09000 251.790
42.10000 246.426
42.11000 238.451
42.12000 231.141
42.13000 234.957
42.14000 240.696
42.15000 245.256
42.16000 243.375
42.17000 240.521
42.18000 237.732
42.19000 235.178
42.20000 232.644
42.21000 230.834
42.22000 230.869
42.23000 230.957
42.24000 231.047
42.25000 231.139
42.26000 231.230
42.27000 232.367
42.28000 234.602
42.29000 236.824
42.30000 238.289
42.31000 239.227
42.32000 240.008
42.33000 236.397
42.34000 230.794
42.35000 225.785
42.36000 228.418
42.37000 233.385
42.38000 237.847
42.39000 238.721
42.40000 238.854
42.41000 239.386
42.42000 241.764
42.43000 244.375
42.44000 246.841
42.45000 248.865
42.46000 250.858
42.47000 252.214
42.48000 250.353
42.49000 248.889
42.50000 245.303
42.51000 238.789
42.52000 232.260
42.53000 229.870
42.54000 231.146
42.55000 232.408
42.56000 236.918
42.57000 243.171
42.58000 249.106
42.59000 248.668
42.60000 245.732
42.61000 243.150
42.62000 244.184
42.63000 246.167
42.64000 247.907
42.65000 246.923
42.66000 245.680
42.67000 245.012
42.68000 246.624
42.69000 248.470
42.70000 248.386
42.71000 243.190
42.72000 237.720
42.73000 234.192
42.74000 230.746
42.75000 228.230
42.76000 231.459
42.77000 241.444
42.78000 251.412
42.79000 255.647
42.80000 255.563
42.81000 255.480
42.82000 250.281
42.83000 242.788
42.84000 235.594
42.85000 232.958
42.86000 231.861
42.87000 231.539
42.88000 237.678
42.89000 245.269
42.90000 251.761
42.91000 245.600
42.92000 238.884
42.93000 233.451
42.94000 232.382
42.95000 231.672
42.96000 232.880
42.97000 238.470
42.98000 244.232
42.99000 247.734
43.00000 249.591
43.01000 250.905
43.02000 249.801
43.03000 246.295
43.04000 242.789
43.05000 239.304
43.06000 235.832
43.07000 232.455
43.08000 232.201
43.09000 233.246
43.10000 234.356
43.11000 236.246
43.12000 238.364
43.13000 240.252
43.14000 240.541
43.15000 240.525
43.16000 240.512
43.17000 235.859
43.18000 231.557
43.19000 228.911
43.20000 231.115
43.21000 233.631
43.22000 237.767
43.23000 245.095
43.24000 252.510
43.25000 256.725
43.26000 245.400
43.27000 237.474
43.28000 236.279
43.29000 240.741
43.30000 245.113
43.31000 245.078
43.32000 242.599
43.33000 240.214
43.34000 236.686
43.35000 232.978
43.36000 229.661
43.37000 230.096
43.38000 231.469
43.39000 232.601
43.40000 232.336
43.41000 231.846
43.42000 231.452
43.43000 233.789
43.44000 235.899
43.45000 237.011
43.46000 235.604
43.47000 234.074
43.48000 231.103
43.49000 225.682
43.50000 220.220
43.51000 217.338
43.52000 228.269
43.53000 235.667
43.54000 239.005
43.55000 239.431
43.56000 239.748
43.57000 236.560
43.58000 231.695
43.59000 227.080
43.60000 232.040
43.61000 239.463
43.62000 245.666
43.63000 242.302
43.64000 236.896
43.65000 232.732
43.66000 234.665
43.67000 237.418
43.68000 239.557
43.69000 242.821
43.70000 245.486
43.71000 247.327
43.72000 247.371
43.73000 247.352
43.74000 246.566
43.75000 244.660
43.76000 242.745
43.77000 241.631
43.78000 241.271
43.79000 240.952
43.80000 243.569
43.81000 247.990
43.82000 251.883
43.83000 243.908
43.84000 231.033
43.85000 219.007
43.86000 221.798
43.87000 228.057
43.88000 234.003
43.89000 237.905
43.90000 241.436
43.91000 242.684
43.92000 234.371
43.93000 224.999
43.94000 217.995
43.95000 219.844
43.96000 221.694
43.97000 224.988
43.98000 230.998
43.99000 237.071
44.00000 240.214
44.01000 239.705
44.02000 239.186
44.03000 241.035
44.04000 244.755
44.05000 248.359
44.06000 247.047
44.07000 243.134
44.08000 239.239
44.09000 235.628
44.10000 232.118
44.11000 228.898
44.12000 234.842
44.13000 242.082
44.14000 248.278
44.15000 248.740
44.16000 248.328
44.17000 248.095
44.18000 248.505
44.19000 248.973
44.20000 249.307
44.21000 251.087
44.22000 252.494
44.23000 251.332
44.24000 246.008
44.25000 240.627
44.26000 240.511
44.27000 245.962
44.28000 251.385
44.29000 253.342
44.30000 252.940
44.31000 252.449
44.32000 249.453
44.33000 245.314
44.34000 241.827
44.35000 246.796
44.36000 254.362
44.37000 261.163
44.38000 260.466
44.39000 258.524
44.40000 258.259
44.41000 265.808
44.42000 274.345
44.43000 281.314
44.44000 283.438
44.45000 285.220
44.46000 286.435
44.47000 290.146
44.48000 292.979
44.49000 299.409
44.50000 310.835
44.51000 322.291
44.52000 329.510
44.53000 332.952
44.54000 336.358
44.55000 339.466
44.56000 342.334
44.57000 345.402
44.58000 352.516
44.59000 361.225
44.60000 369.925
44.61000 378.525
44.62000 387.098
44.63000 394.630
44.64000 415.488
44.65000 435.385
44.66000 452.754
44.67000 460.052
44.68000 466.307
44.69000 476.196
44.70000 495.766
44.71000 515.860
44.72000 528.853
44.73000 559.622
44.74000 582.382
44.75000 597.843
44.76000 604.664
44.77000 611.483
44.78000 621.178
44.79000 633.054
44.80000 644.719
44.81000 643.998
44.82000 637.268
44.83000 631.651
44.84000 643.137
44.85000 660.438
44.86000 675.460
44.87000 671.289
44.88000 662.779
44.89000 655.493
44.90000 660.401
44.91000 666.020
44.92000 672.623
44.93000 682.588
44.94000 692.833
44.95000 694.105
44.96000 674.739
44.97000 654.553
44.98000 642.254
44.99000 631.824
45.00000 624.386
45.01000 621.750
45.02000 623.919
45.03000 625.893
45.04000 610.342
45.05000 583.418
45.06000 557.216
45.07000 540.102
45.08000 527.573
45.09000 514.871
45.10000 500.090
45.11000 484.699
45.12000 469.577
45.13000 456.331
45.14000 443.445
45.15000 432.723
45.16000 426.039
45.17000 420.904
45.18000 415.737
45.19000 410.480
45.20000 405.217
45.21000 398.246
45.22000 387.885
45.23000 377.430
45.24000 371.469
45.25000 364.135
45.26000 359.009
45.27000 350.205
45.28000 338.289
45.29000 326.456
45.30000 318.833
45.31000 313.558
45.32000 308.482
45.33000 302.233
45.34000 295.957
45.35000 289.968
45.36000 286.756
45.37000 284.242
45.38000 282.160
45.39000 282.600
45.40000 283.450
45.41000 284.135
45.42000 279.779
45.43000 275.845
45.44000 270.309
45.45000 260.701
45.46000 250.892
45.47000 247.638
45.48000 255.596
45.49000 263.743
45.50000 268.055
45.51000 258.792
45.52000 252.484
45.53000 245.257
45.54000 237.365
45.55000 229.727
45.56000 230.280
45.57000 234.773
45.58000 239.039
45.59000 243.126
45.60000 246.845
45.61000 249.887
45.62000 247.563
45.63000 244.086
45.64000 240.560
45.65000 236.786
45.66000 232.979
45.67000 230.016
45.68000 234.046
45.69000 237.684
45.70000 239.328
45.71000 236.595
45.72000 233.706
45.73000 231.417
45.74000 230.008
45.75000 228.608
45.76000 228.099
45.77000 228.434
45.78000 228.752
45.79000 227.881
45.80000 226.275
45.81000 224.548
45.82000 220.102
45.83000 214.527
45.84000 209.315
45.85000 211.539
45.86000 215.440
45.87000 218.223
45.88000 213.647
45.89000 207.730
45.90000 204.147
45.91000 210.399
45.92000 217.749
45.93000 223.250
45.94000 222.569
45.95000 221.749
45.96000 220.857
45.97000 219.829
45.98000 218.798
45.99000 217.570
46.00000 216.094
46.01000 214.620
46.02000 213.915
46.03000 213.829
46.04000 213.654
46.05000 209.644
46.06000 203.593
46.07000 198.201
46.08000 203.942
46.09000 213.677
46.10000 222.615
46.11000 220.254
46.12000 215.738
46.13000 211.968
46.14000 212.330
46.15000 213.325
46.16000 213.867
46.17000 212.771
46.18000 211.527
46.19000 210.636
46.20000 204.019
46.21000 198.765
46.22000 196.616
46.23000 199.524
46.24000 202.503
46.25000 204.451
46.26000 205.299
46.27000 206.143
46.28000 205.028
46.29000 202.598
46.30000 200.280
46.31000 201.162
46.32000 203.513
46.33000 205.773
46.34000 206.855
46.35000 207.573
46.36000 208.218
46.37000 209.564
46.38000 210.868
46.39000 211.305
46.40000 207.677
46.41000 203.530
46.42000 202.105
46.43000 209.136
46.44000 216.771
46.45000 221.989
46.46000 216.774
46.47000 212.627
46.48000 209.101
46.49000 206.444
46.50000 203.794
46.51000 203.973
46.52000 206.689
46.53000 209.377
46.54000 205.961
46.55000 199.104
46.56000 192.625
46.57000 193.966
46.58000 198.405
46.59000 202.812
46.60000 206.895
46.61000 210.891
46.62000 214.406
46.63000 214.346
46.64000 213.764
46.65000 213.043
46.66000 211.763
46.67000 210.426
46.68000 209.101
46.69000 207.813
46.70000 206.526
46.71000 205.693
46.72000 205.957
46.73000 206.167
46.74000 205.999
46.75000 205.382
46.76000 204.759
46.77000 203.174
46.78000 200.853
46.79000 198.573
46.80000 198.776
46.81000 200.190
46.82000 201.758
46.83000 205.712
46.84000 210.482
46.85000 214.349
46.86000 210.549
46.87000 205.006
46.88000 200.254
46.89000 196.329
46.90000 193.116
46.91000 191.056
46.92000 192.964
46.93000 195.205
46.94000 196.858
46.95000 197.150
46.96000 197.386
46.97000 197.531
46.98000 201.107
46.99000 203.693
47.00000 206.037
47.01000 208.136
47.02000 210.192
47.03000 208.149
47.04000 203.430
47.05000 198.836
47.06000 199.305
47.07000 201.865
47.08000 203.962
47.09000 200.436
47.10000 195.253
47.11000 190.943
47.12000 192.761
47.13000 195.764
47.14000 198.266
47.15000 201.512
47.16000 204.275
47.17000 206.608
47.18000 207.667
47.19000 208.642
47.20000 208.560
47.21000 206.367
47.22000 204.116
47.23000 202.828
47.24000 197.541
47.25000 193.843
47.26000 194.393
47.27000 198.562
47.28000 202.619
47.29000 200.963
47.30000 196.100
47.31000 191.418
47.32000 192.630
47.33000 195.860
47.34000 198.758
47.35000 198.431
47.36000 197.286
47.37000 195.806
47.38000 192.347
47.39000 188.565
47.40000 185.512
47.41000 187.063
47.42000 188.688
47.43000 191.795
47.44000 198.690
47.45000 205.774
47.46000 211.513
47.47000 214.939
47.48000 218.325
47.49000 220.122
47.50000 213.704
47.51000 209.328
47.52000 204.206
47.53000 198.543
47.54000 193.062
47.55000 193.576
47.56000 196.991
47.57000 200.236
47.58000 200.952
47.59000 200.852
47.60000 200.867
47.61000 201.799
47.62000 202.931
47.63000 203.698
47.64000 202.653
47.65000 201.361
47.66000 200.354
47.67000 193.411
47.68000 187.510
47.69000 184.612
47.70000 188.344
47.71000 192.315
47.72000 195.529
47.73000 197.626
47.74000 199.712
47.75000 198.658
47.76000 194.610
47.77000 190.575
47.78000 187.469
47.79000 184.940
47.80000 182.554
47.81000 183.459
47.82000 185.740
47.83000 187.873
47.84000 192.870
47.85000 198.139
47.86000 201.885
47.87000 195.548
47.88000 187.360
47.89000 181.275
47.90000 184.104
47.91000 187.936
47.92000 190.809
47.93000 196.672
47.94000 201.392
47.95000 202.826
47.96000 197.999
47.97000 193.021
47.98000 189.953
47.99000 189.295
48.00000 188.647
48.01000 190.708
48.02000 194.942
48.03000 199.024
48.04000 196.418
48.05000 190.230
48.06000 184.490
48.07000 186.394
48.08000 191.057
48.09000 195.342
48.10000 190.950
48.11000 185.166
48.12000 180.520
48.13000 182.220
48.14000 184.900
48.15000 188.171
48.16000 193.592
48.17000 199.208
48.18000 203.242
48.19000 196.669
48.20000 191.273
48.21000 187.404
48.22000 186.039
48.23000 184.709
48.24000 184.116
48.25000 184.311
48.26000 184.505
48.27000 185.896
48.28000 188.088
48.29000 190.185
48.30000 189.522
48.31000 187.586
48.32000 186.060
48.33000 189.966
48.34000 195.562
48.35000 200.601
48.36000 199.090
48.37000 196.587
48.38000 194.332
48.39000 193.254
48.40000 192.327
48.41000 190.753
48.42000 187.154
48.43000 183.410
48.44000 180.846
48.45000 187.406
48.46000 192.538
48.47000 194.504
48.48000 192.020
48.49000 189.507
48.50000 190.391
48.51000 194.344
48.52000 198.258
48.53000 198.657
48.54000 197.011
48.55000 195.219
48.56000 190.407
48.57000 184.390
48.58000 179.004
48.59000 180.267
48.60000 183.308
48.61000 185.985
48.62000 191.305
48.63000 196.282
48.64000 199.484
48.65000 195.529
48.66000 190.819
48.67000 186.132
48.68000 181.507
48.69000 176.885
48.70000 173.883
48.71000 180.803
48.72000 186.023
48.73000 189.636
48.74000 191.321
48.75000 192.986
48.76000 190.963
48.77000 186.107
48.78000 181.334
48.79000 182.509
48.80000 186.580
48.81000 190.152
48.82000 185.891
48.83000 178.936
48.84000 172.864
48.85000 174.361
48.86000 177.591
48.87000 180.362
48.88000 185.140
48.89000 189.424
48.90000 193.236
48.91000 195.409
48.92000 197.443
48.93000 197.562
48.94000 193.225
48.95000 188.707
48.96000 185.940
48.97000 183.193
48.98000 181.227
48.99000 179.521
49.00000 178.081
49.01000 176.679
49.02000 179.014
49.03000 183.804
49.04000 188.470
49.05000 189.342
49.06000 188.581
49.07000 187.908
49.08000 188.316
49.09000 189.045
49.10000 189.601
49.11000 188.938
49.12000 188.037
49.13000 187.286
49.14000 182.804
49.15000 178.713
49.16000 176.349
49.17000 179.130
49.18000 182.255
49.19000 183.190
49.20000 179.730
49.21000 176.146
49.22000 174.091
49.23000 179.269
49.24000 182.911
49.25000 185.778
49.26000 187.979
49.27000 190.144
49.28000 190.412
49.29000 189.609
49.30000 188.836
49.31000 186.783
49.32000 184.398
49.33000 182.325
49.34000 183.305
49.35000 185.062
49.36000 186.286
49.37000 184.355
49.38000 181.905
49.39000 179.925
49.40000 182.620
49.41000 185.187
49.42000 186.841
49.43000 186.149
49.44000 185.338
49.45000 186.080
49.46000 189.509
49.47000 192.987
49.48000 194.838
49.49000 180.971
49.50000 171.569
49.51000 170.793
49.52000 176.317
49.53000 181.675
49.54000 181.485
49.55000 178.593
49.56000 175.844
49.57000 178.718
49.58000 183.081
49.59000 187.328
49.60000 190.651
49.61000 193.772
49.62000 196.000
49.63000 193.751
49.64000 190.887
49.65000 188.652
49.66000 191.120
49.67000 193.384
49.68000 193.501
49.69000 188.850
49.70000 184.025
49.71000 181.449
49.72000 182.217
49.73000 183.016
49.74000 183.987
49.75000 185.120
49.76000 186.193
49.77000 182.551
49.78000 175.959
49.79000 169.854
49.80000 175.109
49.81000 185.139
49.82000 194.526
49.83000 193.120
49.84000 189.071
49.85000 185.437
49.86000 184.574
49.87000 184.224
49.88000 183.126
49.89000 178.839
49.90000 174.191
49.91000 170.700
49.92000 172.956
49.93000 174.995
49.94000 177.432
49.95000 180.634
49.96000 183.854
49.97000 187.102
49.98000 190.385
49.99000 193.663
50.00000 192.894
50.01000 188.846
50.02000 184.936
50.03000 187.203
50.04000 192.795
50.05000 198.100
50.06000 198.427
50.07000 196.947
50.08000 195.587
50.09000 191.282
50.10000 186.800
50.11000 183.703
50.12000 188.378
50.13000 194.261
50.14000 199.953
50.15000 204.948
50.16000 209.879
50.17000 213.427
50.18000 210.629
50.19000 208.265
50.20000 208.033
50.21000 211.320
50.22000 214.658
50.23000 218.043
50.24000 221.479
50.25000 224.898
50.26000 226.838
50.27000 227.740
50.28000 228.559
50.29000 226.920
50.30000 224.140
50.31000 221.907
50.32000 226.962
50.33000 234.297
50.34000 240.908
50.35000 245.687
50.36000 249.548
50.37000 252.195
50.38000 249.068
50.39000 245.193
50.40000 245.000
50.41000 256.381
50.42000 268.607
50.43000 276.996
50.44000 284.844
50.45000 290.712
50.46000 294.462
50.47000 295.213
50.48000 295.939
50.49000 291.170
50.50000 281.402
50.51000 271.729
50.52000 269.360
50.53000 271.305
50.54000 273.356
50.55000 277.631
50.56000 282.798
50.57000 287.318
50.58000 284.965
50.59000 280.762
50.60000 277.059
50.61000 271.853
50.62000 267.141
50.63000 264.420
50.64000 269.775
50.65000 275.989
50.66000 278.524
50.67000 271.084
50.68000 263.085
50.69000 257.877
50.70000 249.126
50.71000 242.655
50.72000 240.218
50.73000 242.652
50.74000 245.092
50.75000 246.208
50.76000 246.302
50.77000 246.395
50.78000 239.581
50.79000 229.561
50.80000 220.117
50.81000 219.798
50.82000 222.637
50.83000 224.839
50.84000 221.532
50.85000 216.957
50.86000 213.027
50.87000 207.933
50.88000 203.480
50.89000 199.746
50.90000 198.517
50.91000 197.501
50.92000 195.068
50.93000 189.317
50.94000 183.428
50.95000 179.813
50.96000 181.311
50.97000 182.429
50.98000 184.807
50.99000 188.472
51.00000 192.139
51.01000 195.948
51.02000 199.851
51.03000 203.654
51.04000 201.790
51.05000 197.615
51.06000 193.484
51.07000 189.885
51.08000 186.444
51.09000 183.442
51.10000 183.570
51.11000 184.312
51.12000 184.932
51.13000 186.551
51.14000 187.996
51.15000 186.944
51.16000 178.405
51.17000 169.362
51.18000 166.440
51.19000 175.888
51.20000 185.691
51.21000 191.328
51.22000 188.896
51.23000 187.167
51.24000 187.142
51.25000 188.587
51.26000 189.983
51.27000 188.811
51.28000 186.179
51.29000 183.642
51.30000 181.752
51.31000 180.209
51.32000 178.463
51.33000 174.716
51.34000 170.455
51.35000 166.218
51.36000 162.121
51.37000 158.047
51.38000 154.750
51.39000 163.662
51.40000 171.904
51.41000 177.678
51.42000 177.069
51.43000 176.133
51.44000 174.419
51.45000 171.349
51.46000 168.254
51.47000 166.601
51.48000 175.045
51.49000 180.776
51.50000 180.856
51.51000 176.783
51.52000 172.757
51.53000 170.342
51.54000 168.717
51.55000 167.171
51.56000 168.474
51.57000 170.548
51.58000 172.486
51.59000 173.325
51.60000 173.923
51.61000 173.850
51.62000 170.395
51.63000 166.472
51.64000 163.405
51.65000 168.103
51.66000 172.345
51.67000 175.312
51.68000 175.433
51.69000 175.448
51.70000 173.881
51.71000 169.949
51.72000 165.993
51.73000 165.064
51.74000 167.061
51.75000 169.049
51.76000 170.334
51.77000 171.177
51.78000 172.061
51.79000 173.936
51.80000 176.229
51.81000 178.376
51.82000 178.947
51.83000 179.060
51.84000 178.793
51.85000 175.971
51.86000 172.675
51.87000 169.912
51.88000 169.436
51.89000 169.222
51.90000 169.062
51.91000 167.818
51.92000 166.792
51.93000 165.627
51.94000 164.194
51.95000 162.754
51.96000 163.437
51.97000 166.836
51.98000 170.240
51.99000 172.334
52.00000 173.350
52.01000 174.323
52.02000 173.340
52.03000 171.298
52.04000 169.173
52.05000 165.618
52.06000 161.541
52.07000 157.789
52.08000 163.805
52.09000 171.312
52.10000 177.273
52.11000 174.506
52.12000 170.372
52.13000 166.429
52.14000 163.188
52.15000 160.011
52.16000 157.721
52.17000 158.944
52.18000 160.006
52.19000 160.555
52.20000 160.253
52.21000 159.937
52.22000 162.842
52.23000 169.246
52.24000 175.622
52.25000 175.352
52.26000 170.487
52.27000 165.646
52.28000 161.499
52.29000 157.678
52.30000 154.102
52.31000 153.851
52.32000 154.647
52.33000 155.364
52.34000 159.022
52.35000 162.770
52.36000 165.764
52.37000 165.143
52.38000 164.051
52.39000 163.080
52.40000 162.492
52.41000 161.931
52.42000 161.546
52.43000 165.899
52.44000 169.282
52.45000 169.922
52.46000 166.655
52.47000 163.360
52.48000 162.623
52.49000 164.229
52.50000 165.819
52.51000 165.162
52.52000 163.199
52.53000 161.362
52.54000 162.237
52.55000 164.206
52.56000 166.156
52.57000 167.913
52.58000 169.618
52.59000 171.121
52.60000 168.570
52.61000 165.754
52.62000 163.862
52.63000 165.746
52.64000 168.034
52.65000 169.225
52.66000 167.424
52.67000 165.453
52.68000 164.167
52.69000 170.859
52.70000 175.897
52.71000 176.834
52.72000 172.790
52.73000 168.749
52.74000 168.808
52.75000 172.056
52.76000 175.250
52.77000 176.719
52.78000 177.278
52.79000 177.637
52.80000 174.793
52.81000 170.833
52.82000 167.124
52.83000 165.589
52.84000 164.559
52.85000 163.673
52.86000 165.690
52.87000 167.761
52.88000 169.819
52.89000 171.829
52.90000 173.836
52.91000 173.564
52.92000 167.926
52.93000 162.063
52.94000 158.455
52.95000 159.687
52.96000 160.614
52.97000 162.149
52.98000 164.309
52.99000 166.451
53.00000 166.671
53.01000 165.613
53.02000 164.582
53.03000 166.210
53.04000 168.896
53.05000 171.215
53.06000 168.940
53.07000 165.287
53.08000 162.121
53.09000 162.448
53.10000 163.465
53.11000 164.315
53.12000 168.290
53.13000 171.909
53.14000 174.683
53.15000 174.909
53.16000 174.962
53.17000 173.075
53.18000 167.244
53.19000 161.299
53.20000 157.870
53.21000 158.755
53.22000 159.394
53.23000 162.321
53.24000 167.235
53.25000 172.041
53.26000 170.941
53.27000 166.466
53.28000 162.151
53.29000 159.632
53.30000 157.913
53.31000 156.818
53.32000 161.966
53.33000 168.724
53.34000 174.229
53.35000 172.215
53.36000 168.947
53.37000 166.298
53.38000 163.892
53.39000 161.951
53.40000 161.335
53.41000 164.165
53.42000 167.173
53.43000 167.742
53.44000 164.037
53.45000 160.254
53.46000 158.227
53.47000 164.080
53.48000 168.055
53.49000 167.255
53.50000 162.921
53.51000 158.688
53.52000 157.886
53.53000 158.775
53.54000 159.621
53.55000 163.382
53.56000 167.760
53.57000 171.571
53.58000 170.761
53.59000 168.934
53.60000 167.086
53.61000 165.137
53.62000 163.174
53.63000 161.638
53.64000 160.087
53.65000 158.848
53.66000 160.282
53.67000 167.724
53.68000 175.392
53.69000 177.542
53.70000 171.386
53.71000 165.147
53.72000 160.234
53.73000 156.612
53.74000 153.046
53.75000 154.006
53.76000 157.832
53.77000 161.512
53.78000 161.665
53.79000 160.318
53.80000 159.055
53.81000 159.331
53.82000 159.982
53.83000 160.953
53.84000 164.088
53.85000 167.629
53.86000 169.840
53.87000 166.307
53.88000 162.111
53.89000 158.950
53.90000 161.304
53.91000 163.417
53.92000 164.116
53.93000 162.073
53.94000 159.961
53.95000 157.885
53.96000 155.858
53.97000 153.833
53.98000 153.102
53.99000 153.437
54.00000 153.847
54.01000 157.737
54.02000 163.525
54.03000 168.921
54.04000 167.392
54.05000 163.321
54.06000 159.572
54.07000 162.517
54.08000 166.620
54.09000 170.032
54.10000 169.519
54.11000 168.387
54.12000 166.746
54.13000 163.228
54.14000 159.534
54.15000 156.866
54.16000 163.825
54.17000 169.510
54.18000 172.161
54.19000 169.748
54.20000 167.257
54.21000 163.702
54.22000 158.982
54.23000 154.283
54.24000 154.476
54.25000 158.072
54.26000 161.525
54.27000 160.626
54.28000 157.681
54.29000 155.020
54.30000 156.212
54.31000 158.626
54.32000 160.805
54.33000 162.800
54.34000 164.519
54.35000 165.821
54.36000 165.115
54.37000 164.144
54.38000 163.498
54.39000 163.884
54.40000 164.346
54.41000 164.665
54.42000 166.312
54.43000 167.582
54.44000 168.399
54.45000 168.568
54.46000 168.732
54.47000 168.926
54.48000 169.149
54.49000 169.369
54.50000 168.577
54.51000 167.203
54.52000 165.790
54.53000 163.534
54.54000 160.937
54.55000 158.788
54.56000 161.492
54.57000 165.517
54.58000 169.070
54.59000 161.045
54.60000 152.348
54.61000 146.252
54.62000 150.848
54.63000 156.599
54.64000 160.616
54.65000 159.875
54.66000 158.860
54.67000 158.197
54.68000 164.322
54.69000 168.932
54.70000 170.612
54.71000 168.708
54.72000 166.792
54.73000 164.225
54.74000 161.148
54.75000 158.120
54.76000 158.845
54.77000 161.434
54.78000 163.924
54.79000 164.809
54.80000 165.132
54.81000 165.337
54.82000 164.505
54.83000 163.431
54.84000 162.507
54.85000 161.029
54.86000 159.707
54.87000 159.312
54.88000 162.187
54.89000 165.346
54.90000 168.545
54.91000 171.839
54.92000 175.136
54.93000 177.171
54.94000 171.352
54.95000 167.101
54.96000 165.428
54.97000 166.424
54.98000 167.439
54.99000 170.353
55.00000 174.538
55.01000 178.620
55.02000 182.004
55.03000 184.936
55.04000 187.386
55.05000 183.742
55.06000 178.260
55.07000 172.933
55.08000 168.732
55.09000 164.754
55.10000 161.423
55.11000 163.725
55.12000 166.217
55.13000 169.717
55.14000 176.275
55.15000 183.044
55.16000 188.266
55.17000 190.325
55.18000 192.290
55.19000 193.426
55.20000 196.626
55.21000 198.874
55.22000 197.730
55.23000 193.619
55.24000 189.629
55.25000 192.340
55.26000 198.905
55.27000 205.237
55.28000 210.551
55.29000 215.179
55.30000 219.790
55.31000 224.225
55.32000 228.615
55.33000 232.755
55.34000 235.390
55.35000 237.772
55.36000 239.705
55.37000 248.945
55.38000 257.080
55.39000 263.746
55.40000 266.567
55.41000 269.186
55.42000 271.026
55.43000 271.493
55.44000 271.933
55.45000 272.171
55.46000 296.599
55.47000 313.287
55.48000 325.477
55.49000 334.317
55.50000 343.258
55.51000 355.709
55.52000 369.898
55.53000 383.409
55.54000 388.287
55.55000 390.133
55.56000 393.327
55.57000 407.604
55.58000 424.339
55.59000 440.415
55.60000 453.118
55.61000 465.348
55.62000 474.936
55.63000 480.387
55.64000 484.476
55.65000 486.078
55.66000 482.057
55.67000 477.822
55.68000 483.113
55.69000 502.837
55.70000 522.709
55.71000 529.483
55.72000 523.415
55.73000 517.377
55.74000 513.917
55.75000 512.101
55.76000 510.566
55.77000 515.880
55.78000 524.124
55.79000 531.855
55.80000 524.438
55.81000 513.715
55.82000 503.238
55.83000 494.441
55.84000 485.960
55.85000 478.070
55.86000 472.750
55.87000 467.729
55.88000 463.939
55.89000 450.150
55.90000 438.851
55.91000 427.269
55.92000 415.135
55.93000 402.987
55.94000 391.729
55.95000 381.626
55.96000 371.539
55.97000 362.041
55.98000 353.060
55.99000 343.982
56.00000 330.371
56.01000 314.275
56.02000 298.877
56.03000 295.985
56.04000 297.714
56.05000 299.308
56.06000 294.148
56.07000 288.038
56.08000 281.259
56.09000 270.657
56.10000 259.447
56.11000 248.611
56.12000 239.166
56.13000 229.852
56.14000 223.114
56.15000 225.500
56.16000 227.664
56.17000 225.676
56.18000 216.712
56.19000 207.637
56.20000 203.737
56.21000 205.533
56.22000 207.324
56.23000 205.794
56.24000 201.952
56.25000 198.042
56.26000 192.073
56.27000 185.129
56.28000 178.856
56.29000 181.807
56.30000 187.696
56.31000 193.017
56.32000 189.481
56.33000 184.731
56.34000 181.807
56.35000 187.737
56.36000 194.840
56.37000 198.638
56.38000 191.855
56.39000 184.277
56.40000 179.046
56.41000 170.661
56.42000 164.279
56.43000 159.910
56.44000 158.443
56.45000 157.001
56.46000 157.230
56.47000 159.012
56.48000 160.777
56.49000 163.942
56.50000 167.877
56.51000 171.576
56.52000 170.117
56.53000 166.551
56.54000 163.200
56.55000 162.197
56.56000 161.837
56.57000 161.520
56.58000 163.489
56.59000 165.543
56.60000 167.453
56.61000 168.767
56.62000 170.016
56.63000 170.108
56.64000 167.007
56.65000 163.720
56.66000 161.566
56.67000 158.322
56.68000 155.918
56.69000 156.848
56.70000 161.883
56.71000 166.910
56.72000 166.877
56.73000 162.856
56.74000 158.899
56.75000 157.452
56.76000 157.321
56.77000 157.188
56.78000 157.010
56.79000 156.815
56.80000 156.698
56.81000 157.273
56.82000 158.010
56.83000 158.645
56.84000 158.481
56.85000 158.240
56.86000 157.194
56.87000 153.299
56.88000 149.152
56.89000 146.181
56.90000 146.009
56.91000 145.959
56.92000 145.927
56.93000 151.786
56.94000 156.052
56.95000 158.084
56.96000 157.786
56.97000 157.456
56.98000 153.690
56.99000 147.609
57.00000 141.678
57.01000 145.038
57.02000 152.253
57.03000 158.762
57.04000 156.261
57.05000 151.023
57.06000 146.446
57.07000 146.681
57.08000 147.878
57.09000 148.882
57.10000 151.671
57.11000 154.177
57.12000 155.770
57.13000 154.576
57.14000 153.189
57.15000 151.898
57.16000 150.806
57.17000 149.719
57.18000 149.089
57.19000 155.729
57.20000 160.413
57.21000 159.114
57.22000 152.548
57.23000 146.048
57.24000 143.327
57.25000 142.793
57.26000 142.277
57.27000 145.268
57.28000 149.370
57.29000 153.078
57.30000 152.780
57.31000 151.437
57.32000 150.153
57.33000 149.226
57.34000 148.359
57.35000 147.655
57.36000 148.481
57.37000 149.283
57.38000 148.101
57.39000 141.697
57.40000 135.017
57.41000 131.301
57.42000 132.842
57.43000 134.484
57.44000 135.369
57.45000 144.867
57.46000 151.351
57.47000 153.857
57.48000 153.383
57.49000 152.942
57.50000 153.639
57.51000 154.903
57.52000 156.108
57.53000 155.546
57.54000 154.474
57.55000 153.565
57.56000 154.009
57.57000 154.754
57.58000 155.108
57.59000 153.457
57.60000 151.521
57.61000 150.001
57.62000 149.239
57.63000 148.679
57.64000 147.204
57.65000 143.650
57.66000 140.016
57.67000 138.435
57.68000 139.984
57.69000 141.567
57.70000 142.827
57.71000 143.769
57.72000 144.699
57.73000 144.585
57.74000 143.802
57.75000 143.087
57.76000 144.018
57.77000 145.658
57.78000 147.197
57.79000 143.676
57.80000 139.132
57.81000 135.251
57.82000 135.931
57.83000 137.476
57.84000 139.225
57.85000 141.869
57.86000 144.618
57.87000 146.696
57.88000 149.588
57.89000 151.897
57.90000 152.081
57.91000 148.096
57.92000 144.000
57.93000 140.320
57.94000 137.181
57.95000 134.048
57.96000 133.296
57.97000 134.528
57.98000 135.775
57.99000 137.701
58.00000 140.003
58.01000 142.339
58.02000 145.297
58.03000 148.486
58.04000 151.427
58.05000 147.096
58.06000 141.598
58.07000 137.325
58.08000 140.113
58.09000 144.031
58.10000 146.535
58.11000 143.738
58.12000 140.437
58.13000 138.045
58.14000 138.247
58.15000 138.498
58.16000 139.819
58.17000 142.950
58.18000 146.111
58.19000 147.138
58.20000 145.802
58.21000 144.470
58.22000 143.642
58.23000 143.179
58.24000 142.731
58.25000 142.764
58.26000 143.025
58.27000 143.199
58.28000 142.162
58.29000 140.737
58.30000 139.448
58.31000 137.656
58.32000 135.985
58.33000 135.055
58.34000 137.746
58.35000 140.919
58.36000 142.427
58.37000 138.569
58.38000 134.305
58.39000 131.355
58.40000 137.479
58.41000 142.321
58.42000 145.494
58.43000 146.243
58.44000 146.972
58.45000 145.004
58.46000 140.516
58.47000 136.067
58.48000 134.917
58.49000 135.765
58.50000 136.722
58.51000 140.095
58.52000 144.459
58.53000 148.291
58.54000 146.260
58.55000 142.612
58.56000 139.386
58.57000 137.070
58.58000 135.209
58.59000 134.115
58.60000 136.216
58.61000 138.667
58.62000 139.468
58.63000 135.688
58.64000 131.640
58.65000 128.981
58.66000 135.750
58.67000 140.890
58.68000 142.087
58.69000 138.398
58.70000 134.713
58.71000 136.623
58.72000 142.970
58.73000 149.219
58.74000 147.989
58.75000 142.983
58.76000 138.210
58.77000 137.278
58.78000 137.707
58.79000 138.434
58.80000 141.806
58.81000 145.804
58.82000 149.253
58.83000 140.561
58.84000 131.629
58.85000 125.287
58.86000 128.189
58.87000 131.910
58.88000 134.680
58.89000 135.165
58.90000 135.552
58.91000 135.791
58.92000 138.356
58.93000 140.224
58.94000 141.506
58.95000 142.174
58.96000 142.815
58.97000 140.536
58.98000 136.279
58.99000 132.125
59.00000 137.450
59.01000 146.655
59.02000 155.212
59.03000 155.452
59.04000 153.151
59.05000 150.407
59.06000 144.417
59.07000 137.772
59.08000 132.196
59.09000 132.615
59.10000 133.591
59.11000 134.587
59.12000 135.645
59.13000 136.707
59.14000 138.044
59.15000 139.946
59.16000 141.866
59.17000 142.983
59.18000 142.566
59.19000 142.268
59.20000 142.176
59.21000 142.269
59.22000 142.317
59.23000 139.718
59.24000 135.578
59.25000 131.582
59.26000 132.015
59.27000 134.058
59.28000 135.950
59.29000 136.286
59.30000 136.213
59.31000 136.167
59.32000 136.291
59.33000 136.444
59.34000 136.568
59.35000 135.441
59.36000 134.415
59.37000 134.149
59.38000 135.892
59.39000 137.744
59.40000 138.520
59.41000 137.376
59.42000 136.196
59.43000 135.557
59.44000 136.489
59.45000 137.124
59.46000 136.696
59.47000 135.466
59.48000 134.230
59.49000 132.735
59.50000 131.110
59.51000 129.562
59.52000 128.177
59.53000 126.943
59.54000 125.991
59.55000 127.396
59.56000 129.330
59.57000 131.211
59.58000 132.816
59.59000 134.381
59.60000 135.612
59.61000 134.687
59.62000 133.803
59.63000 133.144
59.64000 132.999
59.65000 132.873
59.66000 134.014
59.67000 137.099
59.68000 140.206
59.69000 140.368
59.70000 137.603
59.71000 134.873
59.72000 135.147
59.73000 137.360
59.74000 139.418
59.75000 137.608
59.76000 134.124
59.77000 130.853
59.78000 131.251
59.79000 132.589
59.80000 133.931
59.81000 135.300
59.82000 136.675
59.83000 138.712
59.84000 143.670
59.85000 148.972
59.86000 152.987
59.87000 148.750
59.88000 145.006
59.89000 141.845
59.90000 139.834
59.91000 137.854
59.92000 134.254
59.93000 128.528
59.94000 122.798
59.95000 123.405
59.96000 129.322
59.97000 135.148
59.98000 136.468
59.99000 135.287
60.00000 134.199
60.01000 134.823
60.02000 136.088
60.03000 137.255
60.04000 136.700
60.05000 135.817
60.06000 134.982
60.07000 134.429
60.08000 133.922
60.09000 133.180
60.10000 131.555
60.11000 129.845
60.12000 128.603
60.13000 134.738
60.14000 139.732
60.15000 141.892
60.16000 139.233
60.17000 136.495
60.18000 135.437
60.19000 136.254
60.20000 137.069
60.21000 136.389
60.22000 134.653
60.23000 132.990
60.24000 133.655
60.25000 135.433
60.26000 137.095
60.27000 137.133
60.28000 136.648
60.29000 136.209
60.30000 140.106
60.31000 144.354
60.32000 147.322
60.33000 144.003
60.34000 139.839
60.35000 136.830
60.36000 137.568
60.37000 138.592
60.38000 139.302
60.39000 139.889
60.40000 140.327
60.41000 139.340
60.42000 136.271
60.43000 133.184
60.44000 132.010
60.45000 132.638
60.46000 133.260
60.47000 135.054
60.48000 137.522
60.49000 139.908
60.50000 140.479
60.51000 140.299
60.52000 139.742
60.53000 134.999
60.54000 129.094
60.55000 123.867
60.56000 128.382
60.57000 133.812
60.58000 137.758
60.59000 135.487
60.60000 132.527
60.61000 130.401
60.62000 130.604
60.63000 130.945
60.64000 131.170
60.65000 132.306
60.66000 133.158
60.67000 134.523
60.68000 136.526
60.69000 138.529
60.70000 139.532
60.71000 139.737
60.72000 139.939
60.73000 139.479
60.74000 138.693
60.75000 137.895
60.76000 136.900
60.77000 135.835
60.78000 135.050
60.79000 136.778
60.80000 139.104
60.81000 141.113
60.82000 141.255
60.83000 141.135
60.84000 140.847
60.85000 139.955
60.86000 139.010
60.87000 137.832
60.88000 136.095
60.89000 134.334
60.90000 133.239
60.91000 132.699
60.92000 132.315
60.93000 132.298
60.94000 132.669
60.95000 133.024
60.96000 131.638
60.97000 129.062
60.98000 126.548
60.99000 128.867
61.00000 133.195
61.01000 137.201
61.02000 137.031
61.03000 135.576
61.04000 134.254
61.05000 133.919
61.06000 133.783
61.07000 133.669
61.08000 130.604
61.09000 127.738
61.10000 127.752
61.11000 136.661
61.12000 146.199
61.13000 149.884
61.14000 141.386
61.15000 132.509
61.16000 127.334
61.17000 126.500
61.18000 125.937
61.19000 128.762
61.20000 134.610
61.21000 140.362
61.22000 140.417
61.23000 137.134
61.24000 133.964
61.25000 133.932
61.26000 135.068
61.27000 136.403
61.28000 139.792
61.29000 143.723
61.30000 146.634
61.31000 143.241
61.32000 138.767
61.33000 135.121
61.34000 138.886
61.35000 142.592
61.36000 144.270
61.37000 140.547
61.38000 136.532
61.39000 135.163
61.40000 138.544
61.41000 142.021
61.42000 143.907
61.43000 144.771
61.44000 145.379
61.45000 149.862
61.46000 157.283
61.47000 164.550
61.48000 166.127
61.49000 164.832
61.50000 163.597
61.51000 170.017
61.52000 178.389
61.53000 187.759
61.54000 205.540
61.55000 225.222
61.56000 243.790
61.57000 256.548
61.58000 268.471
61.59000 277.861
61.60000 294.230
61.61000 307.814
61.62000 320.326
61.63000 330.376
61.64000 340.327
61.65000 346.504
61.66000 346.857
61.67000 347.144
61.68000 347.288
61.69000 359.688
61.70000 367.896
61.71000 370.691
61.72000 369.970
61.73000 368.751
61.74000 354.910
61.75000 335.571
61.76000 317.399
61.77000 306.605
61.78000 298.726
61.79000 289.438
61.80000 270.326
61.81000 249.324
61.82000 230.112
61.83000 218.836
61.84000 208.505
61.85000 200.670
61.86000 185.074
61.87000 172.427
61.88000 163.830
61.89000 163.277
61.90000 162.944
61.91000 160.018
61.92000 153.667
61.93000 147.307
61.94000 144.988
61.95000 146.088
61.96000 147.132
61.97000 145.336
61.98000 141.955
61.99000 138.784
62.00000 139.488
62.01000 141.649
62.02000 143.645
62.03000 142.129
62.04000 139.977
62.05000 138.705
62.06000 142.581
62.07000 147.292
62.08000 150.973
62.09000 150.746
62.10000 150.139
62.11000 149.698
62.12000 153.462
62.13000 156.517
62.14000 155.947
62.15000 149.173
62.16000 142.294
62.17000 139.608
62.18000 141.633
62.19000 143.653
62.20000 148.108
62.21000 154.264
62.22000 160.101
62.23000 155.634
62.24000 146.207
62.25000 137.190
62.26000 133.975
62.27000 132.642
62.28000 131.435
62.29000 139.636
62.30000 148.645
62.31000 156.015
62.32000 155.283
62.33000 153.452
62.34000 151.219
62.35000 147.675
62.36000 144.030
62.37000 141.498
62.38000 141.386
62.39000 141.366
62.40000 141.407
62.41000 141.535
62.42000 141.664
62.43000 140.467
62.44000 138.013
62.45000 135.579
62.46000 140.474
62.47000 149.729
62.48000 158.538
62.49000 157.225
62.50000 151.704
62.51000 146.560
62.52000 145.633
62.53000 145.883
62.54000 146.104
62.55000 143.549
62.56000 140.900
62.57000 138.622
62.58000 137.905
62.59000 137.364
62.60000 135.777
62.61000 131.256
62.62000 126.558
62.63000 123.459
62.64000 134.124
62.65000 142.227
62.66000 147.211
62.67000 148.279
62.68000 149.336
62.69000 150.821
62.70000 152.649
62.71000 154.450
62.72000 151.493
62.73000 146.168
62.74000 141.342
62.75000 144.961
62.76000 151.611
62.77000 156.901
62.78000 149.887
62.79000 139.929
62.80000 131.319
62.81000 131.688
62.82000 133.172
62.83000 134.430
62.84000 134.872
62.85000 135.240
62.86000 136.039
62.87000 137.883
62.88000 139.773
62.89000 140.950
62.90000 151.457
62.91000 159.124
62.92000 159.023
62.93000 150.650
62.94000 142.346
62.95000 142.297
62.96000 147.915
62.97000 153.402
62.98000 151.543
62.99000 146.534
63.00000 142.034
63.01000 144.204
63.02000 148.436
63.03000 152.022
63.04000 150.797
63.05000 148.591
63.06000 146.735
63.07000 147.223
63.08000 147.879
63.09000 148.045
63.10000 146.688
63.11000 145.222
63.12000 145.536
63.13000 149.577
63.14000 153.737
63.15000 156.168
63.16000 150.253
63.17000 146.054
63.18000 145.459
63.19000 148.103
63.20000 150.687
63.21000 149.671
63.22000 146.534
63.23000 143.502
63.24000 145.629
63.25000 149.565
63.26000 153.087
63.27000 152.294
63.28000 150.354
63.29000 148.889
63.30000 150.375
63.31000 152.370
63.32000 153.998
63.33000 155.242
63.34000 156.226
63.35000 155.915
63.36000 152.130
63.37000 148.155
63.38000 145.721
63.39000 146.072
63.40000 146.479
63.41000 146.700
63.42000 150.121
63.43000 152.465
63.44000 153.073
63.45000 152.355
63.46000 151.616
63.47000 150.055
63.48000 148.077
63.49000 146.190
63.50000 147.452
63.51000 149.623
63.52000 151.203
63.53000 147.759
63.54000 143.172
63.55000 139.756
63.56000 142.486
63.57000 146.105
63.58000 148.960
63.59000 150.509
63.60000 151.662
63.61000 152.063
63.62000 150.721
63.63000 149.309
63.64000 149.466
63.65000 152.058
63.66000 154.678
63.67000 155.993
63.68000 158.839
63.69000 160.717
63.70000 160.560
63.71000 159.073
63.72000 157.690
63.73000 158.947
63.74000 161.360
63.75000 163.630
63.76000 162.318
63.77000 160.157
63.78000 157.857
63.79000 154.586
63.80000 151.128
63.81000 148.800
63.82000 151.519
63.83000 154.843
63.84000 157.368
63.85000 158.010
63.86000 158.418
63.87000 158.705
63.88000 158.752
63.89000 158.793
63.90000 158.903
63.91000 159.106
63.92000 159.309
63.93000 157.971
63.94000 155.327
63.95000 152.727
63.96000 152.459
63.97000 153.500
63.98000 154.557
63.99000 155.918
64.00000 157.394
64.01000 158.758
64.02000 158.588
64.03000 158.087
64.04000 157.850
64.05000 159.167
64.06000 160.738
64.07000 161.356
64.08000 158.334
64.09000 154.956
64.10000 152.495
64.11000 164.095
64.12000 173.569
64.13000 176.801
64.14000 169.287
64.15000 161.586
64.16000 156.635
64.17000 154.793
64.18000 152.960
64.19000 154.142
64.20000 157.482
64.21000 160.800
64.22000 163.374
64.23000 165.589
64.24000 167.642
64.25000 167.387
64.26000 166.377
64.27000 165.462
64.28000 167.981
64.29000 170.858
64.30000 173.306
64.31000 173.617
64.32000 173.637
64.33000 173.397
64.34000 172.303
64.35000 171.142
64.36000 170.335
64.37000 171.520
64.38000 172.467
64.39000 176.053
64.40000 183.538
64.41000 191.057
64.42000 190.915
64.43000 183.460
64.44000 176.067
64.45000 174.804
64.46000 177.311
64.47000 179.657
64.48000 178.289
64.49000 175.370
64.50000 172.630
64.51000 171.909
64.52000 171.756
64.53000 171.620
64.54000 174.998
64.55000 178.482
64.56000 180.869
64.57000 178.603
64.58000 175.813
64.59000 173.877
64.60000 174.355
64.61000 174.979
64.62000 175.391
64.63000 179.386
64.64000 182.398
64.65000 184.307
64.66000 184.823
64.67000 185.331
64.68000 184.676
64.69000 183.080
64.70000 181.508
64.71000 178.505
64.72000 174.845
64.73000 171.717
64.74000 177.677
64.75000 186.917
64.76000 195.372
64.77000 196.669
64.78000 196.242
64.79000 195.873
64.80000 199.394
64.81000 202.900
64.82000 206.509
64.83000 210.495
64.84000 214.516
64.85000 215.592
64.86000 209.485
64.87000 203.051
64.88000 199.033
64.89000 202.039
64.90000 204.280
64.91000 209.228
64.92000 217.077
64.93000 224.884
64.94000 227.408
64.95000 226.284
64.96000 225.185
64.97000 228.343
64.98000 233.250
64.99000 238.412
65.00000 246.937
65.01000 256.508
65.02000 265.869
65.03000 273.646
65.04000 281.097
65.05000 287.372
65.06000 299.185
65.07000 309.635
65.08000 316.577
65.09000 312.550
65.10000 307.731
65.11000 305.589
65.12000 309.086
65.13000 312.764
65.14000 314.920
65.15000 326.016
65.16000 333.880
65.17000 346.568
65.18000 363.621
65.19000 380.506
65.20000 387.041
65.21000 387.440
65.22000 387.826
65.23000 388.758
65.24000 389.843
65.25000 391.485
65.26000 398.983
65.27000 408.048
65.28000 416.137
65.29000 418.110
65.30000 419.019
65.31000 419.761
65.32000 413.977
65.33000 408.678
65.34000 404.648
65.35000 404.034
65.36000 403.609
65.37000 402.892
65.38000 401.644
65.39000 400.385
65.40000 399.698
65.41000 394.235
65.42000 390.503
65.43000 392.911
65.44000 400.039
65.45000 406.922
65.46000 404.492
65.47000 397.306
65.48000 390.444
65.49000 383.585
65.50000 377.214
65.51000 371.666
65.52000 373.173
65.53000 376.295
65.54000 378.970
65.55000 379.282
65.56000 379.250
65.57000 379.224
65.58000 378.084
65.59000 377.093
65.60000 378.151
65.61000 383.978
65.62000 389.999
65.63000 396.532
65.64000 403.864
65.65000 411.205
65.66000 414.903
65.67000 481.024
65.68000 525.275
65.69000 575.202
65.70000 628.861
65.71000 682.655
65.72000 739.961
65.73000 798.816
65.74000 854.188
65.75000 918.613
65.76000 979.943
65.77000 1041.575
65.78000 1105.351
65.79000 1169.545
65.80000 1230.575
65.81000 1277.403
65.82000 1322.514
65.83000 1356.832
65.84000 1361.390
65.85000 1363.416
65.86000 1367.605
65.87000 1376.140
65.88000 1384.799
65.89000 1384.443
65.90000 1372.026
65.91000 1359.556
65.92000 1321.076
65.93000 1260.417
65.94000 1199.892
65.95000 1146.331
65.96000 1096.705
65.97000 1045.686
65.98000 968.236
65.99000 880.729
66.00000 799.781
66.01000 718.082
66.02000 644.515
66.03000 575.122
66.04000 530.462
66.05000 489.872
66.06000 453.191
66.07000 431.517
66.08000 411.323
66.09000 396.583
66.10000 385.807
66.11000 377.657
66.12000 368.570
66.13000 357.862
66.14000 347.126
66.15000 338.267
66.16000 331.546
66.17000 324.851
66.18000 322.099
66.19000 322.227
66.20000 322.617
66.21000 331.793
66.22000 345.248
66.23000 358.165
66.24000 363.307
66.25000 365.897
66.26000 368.247
66.27000 382.208
66.28000 396.761
66.29000 411.837
66.30000 429.533
66.31000 447.590
66.32000 464.739
66.33000 478.891
66.34000 492.807
66.35000 502.509
66.36000 512.539
66.37000 520.119
66.38000 525.268
66.39000 526.801
66.40000 528.300
66.41000 527.870
66.42000 525.585
66.43000 523.319
66.44000 522.182
66.45000 521.759
66.46000 521.082
66.47000 514.469
66.48000 505.359
66.49000 496.907
66.50000 495.947
66.51000 497.103
66.52000 498.130
66.53000 473.736
66.54000 448.519
66.55000 425.704
66.56000 413.144
66.57000 401.748
66.58000 391.027
66.59000 382.225
66.60000 373.541
66.61000 367.787
66.62000 358.508
66.63000 351.591
66.64000 345.125
66.65000 339.230
66.66000 333.351
66.67000 332.700
66.68000 336.303
66.69000 339.856
66.70000 341.283
66.71000 341.558
66.72000 341.662
66.73000 338.832
66.74000 334.935
66.75000 331.763
66.76000 335.258
66.77000 340.369
66.78000 344.797
66.79000 342.056
66.80000 338.774
66.81000 337.649
66.82000 344.409
66.83000 351.895
66.84000 357.156
66.85000 356.958
66.86000 356.510
66.87000 356.230
66.88000 364.188
66.89000 370.022
66.90000 371.871
66.91000 369.418
66.92000 366.982
66.93000 366.876
66.94000 368.389
66.95000 369.868
66.96000 372.112
66.97000 374.603
66.98000 376.896
66.99000 376.546
67.00000 375.368
67.01000 374.705
67.02000 377.931
67.03000 381.962
67.04000 385.360
67.05000 386.911
67.06000 388.007
67.07000 389.468
67.08000 392.077
67.09000 394.770
67.10000 396.562
67.11000 396.444
67.12000 396.264
67.13000 396.158
67.14000 399.647
67.15000 402.123
67.16000 400.819
67.17000 396.073
67.18000 391.512
67.19000 398.710
67.20000 412.922
67.21000 426.669
67.22000 423.980
67.23000 415.213
67.24000 407.394
67.25000 409.646
67.26000 414.608
67.27000 418.798
67.28000 418.110
67.29000 416.568
67.30000 415.307
67.31000 418.193
67.32000 420.919
67.33000 425.497
67.34000 435.096
67.35000 444.978
67.36000 450.954
67.37000 449.792
67.38000 448.478
67.39000 447.758
67.40000 442.163
67.41000 438.330
67.42000 439.531
67.43000 444.627
67.44000 449.703
67.45000 454.024
67.46000 457.957
67.47000 461.714
67.48000 464.384
67.49000 466.517
67.50000 469.113
67.51000 475.701
67.52000 483.210
67.53000 488.383
67.54000 481.137
67.55000 472.067
67.56000 464.894
67.57000 472.520
67.58000 479.664
67.59000 487.119
67.60000 495.301
67.61000 503.514
67.62000 509.827
67.63000 513.156
67.64000 516.449
67.65000 518.113
67.66000 504.997
67.67000 496.309
67.68000 496.249
67.69000 501.896
67.70000 507.494
67.71000 511.782
67.72000 515.489
67.73000 518.980
67.74000 522.847
67.75000 526.487
67.76000 530.567
67.77000 537.779
67.78000 545.607
67.79000 552.005
67.80000 551.948
67.81000 551.103
67.82000 550.460
67.83000 542.314
67.84000 535.503
67.85000 534.332
67.86000 544.560
67.87000 555.116
67.88000 561.177
67.89000 561.187
67.90000 561.164
67.91000 563.074
67.92000 566.646
67.93000 570.265
67.94000 576.418
67.95000 584.012
67.96000 591.457
67.97000 596.065
67.98000 599.585
67.99000 602.844
68.00000 602.863
68.01000 602.133
68.02000 601.190
68.03000 598.977
68.04000 596.552
68.05000 596.818
68.06000 607.475
68.07000 619.167
68.08000 627.716
68.09000 614.880
68.10000 604.133
68.11000 604.798
68.12000 625.342
68.13000 646.247
68.14000 653.659
68.15000 645.607
68.16000 637.563
68.17000 639.082
68.18000 647.562
68.19000 655.976
68.20000 662.158
68.21000 667.246
68.22000 672.777
68.23000 684.776
68.24000 698.913
68.25000 711.750
68.26000 707.981
68.27000 701.438
68.28000 698.890
68.29000 716.486
68.30000 736.874
68.31000 753.951
68.32000 760.037
68.33000 765.249
68.34000 768.890
68.35000 786.977
68.36000 801.045
68.37000 810.253
68.38000 812.187
68.39000 814.050
68.40000 817.394
68.41000 822.170
68.42000 826.909
68.43000 833.639
68.44000 841.485
68.45000 849.575
68.46000 863.446
68.47000 879.762
68.48000 896.176
68.49000 913.709
68.50000 931.560
68.51000 947.423
68.52000 967.196
68.53000 984.979
68.54000 1004.188
68.55000 1029.526
68.56000 1055.564
68.57000 1085.474
68.58000 1126.457
68.59000 1168.126
68.60000 1195.796
68.61000 1257.975
68.62000 1304.577
68.63000 1357.315
68.64000 1417.908
68.65000 1478.587
68.66000 1563.169
68.67000 1667.337
68.68000 1770.044
68.69000 1846.676
68.70000 1907.401
68.71000 1968.310
68.72000 2032.447
68.73000 2097.762
68.74000 2163.462
68.75000 2232.735
68.76000 2302.879
68.77000 2363.713
68.78000 2462.031
68.79000 2550.756
68.80000 2649.447
68.81000 2784.807
68.82000 2923.571
68.83000 3093.941
68.84000 3342.349
68.85000 3594.380
68.86000 3752.564
68.87000 4351.249
68.88000 4788.761
68.89000 5522.639
68.90000 6578.586
68.91000 7640.795
68.92000 9501.325
68.93000 11920.156
68.94000 14285.284
68.95000 18427.965
68.96000 23196.723
68.97000 28068.777
68.98000 34334.895
68.99000 41039.988
69.00000 47731.195
69.01000 54316.457
69.02000 60879.680
69.03000 66419.391
69.04000 71701.305
69.05000 76087.023
69.06000 79900.656
69.07000 81903.930
69.08000 83773.836
69.09000 85226.992
69.10000 85791.742
69.11000 86327.156
69.12000 86642.719
69.13000 87549.445
69.14000 88192.531
69.15000 88754.047
69.16000 89240.813
69.17000 89710.133
69.18000 89046.344
69.19000 87702.547
69.20000 86402.094
69.21000 83766.500
69.22000 80766.859
69.23000 77678.977
69.24000 73645.539
69.25000 69356.031
69.26000 65126.926
69.27000 61281.605
69.28000 57503.949
69.29000 54410.184
69.30000 51533.883
69.31000 49195.105
69.32000 47066.367
69.33000 45510.750
69.34000 43987.648
69.35000 42456.301
69.36000 40909.793
69.37000 39362.953
69.38000 38513.355
69.39000 34762.953
69.40000 32175.838
69.41000 29311.369
69.42000 26231.020
69.43000 23152.039
69.44000 20127.127
69.45000 17130.156
69.46000 14265.564
69.47000 11813.512
69.48000 9666.111
69.49000 7610.897
69.50000 6357.683
69.51000 5290.480
69.52000 4305.644
69.53000 3761.716
69.54000 3283.053
69.55000 2903.950
69.56000 2600.164
69.57000 2361.188
69.58000 2155.411
69.59000 2027.839
69.60000 1903.545
69.61000 1799.345
69.62000 1726.930
69.63000 1654.910
69.64000 1618.379
69.65000 1524.707
69.66000 1462.115
69.67000 1415.564
69.68000 1379.690
69.69000 1343.866
69.70000 1309.347
69.71000 1275.412
69.72000 1243.443
69.73000 1208.941
69.74000 1176.670
69.75000 1145.513
69.76000 1122.350
69.77000 1100.765
69.78000 1078.498
69.79000 1053.129
69.80000 1027.378
69.81000 1007.727
69.82000 1002.158
69.83000 998.525
69.84000 987.394
69.85000 961.015
69.86000 934.192
69.87000 911.994
69.88000 896.066
69.89000 880.183
69.90000 870.099
69.91000 865.065
69.92000 859.888
69.93000 846.915
69.94000 829.482
69.95000 812.320
69.96000 800.419
69.97000 790.545
69.98000 781.398
69.99000 772.305
70.00000 764.137
