20.00000 546.103
20.01000 551.680
20.02000 558.053
20.03000 564.434
20.04000 570.843
20.05000 577.255
20.06000 581.950
20.07000 579.881
20.08000 578.014
20.09000 572.588
20.10000 560.930
20.11000 549.158
20.12000 542.489
20.13000 541.701
20.14000 540.923
20.15000 544.231
20.16000 550.508
20.17000 556.585
20.18000 555.736
20.19000 551.478
20.20000 547.441
20.21000 546.660
20.22000 546.959
20.23000 547.231
20.24000 554.631
20.25000 562.557
20.26000 568.669
20.27000 565.583
20.28000 561.215
20.29000 558.508
20.30000 561.343
20.31000 564.621
20.32000 566.915
20.33000 563.032
20.34000 559.921
20.35000 554.981
20.36000 547.288
20.37000 539.568
20.38000 536.286
20.39000 537.321
20.40000 538.348
20.41000 537.075
20.42000 534.392
20.43000 531.996
20.44000 536.478
20.45000 543.882
20.46000 550.917
20.47000 553.674
20.48000 555.207
20.49000 556.571
20.50000 551.982
20.51000 547.032
20.52000 542.930
20.53000 542.491
20.54000 542.473
20.55000 542.739
20.56000 543.816
20.57000 544.945
20.58000 545.695
20.59000 554.821
20.60000 561.728
20.61000 564.327
20.62000 561.383
20.63000 558.414
20.64000 553.871
20.65000 548.031
20.66000 542.272
20.67000 545.194
20.68000 552.628
20.69000 559.372
20.70000 553.909
20.71000 543.966
20.72000 535.077
20.73000 536.037
20.74000 539.410
20.75000 542.338
20.76000 544.559
20.77000 546.357
20.78000 548.390
20.79000 551.293
20.80000 554.278
20.81000 554.536
20.82000 548.026
20.83000 541.200
20.84000 536.907
20.85000 527.740
20.86000 521.055
20.87000 521.732
20.88000 530.453
20.89000 539.103
20.90000 537.828
20.91000 529.575
20.92000 521.504
20.93000 530.777
20.94000 547.486
20.95000 563.040
20.96000 562.890
20.97000 557.771
20.98000 553.357
20.99000 554.344
21.00000 556.461
21.01000 558.249
21.02000 557.865
21.03000 557.305
21.04000 556.938
21.05000 557.186
21.06000 557.479
21.07000 557.311
21.08000 556.152
21.09000 554.960
21.10000 554.256
21.11000 546.773
21.12000 541.452
21.13000 540.623
21.14000 543.933
21.15000 547.173
21.16000 545.701
21.17000 541.388
21.18000 537.212
21.19000 538.769
21.20000 542.438
21.21000 545.892
21.22000 547.022
21.23000 547.519
21.24000 547.775
21.25000 546.480
21.26000 544.910
21.27000 543.623
21.28000 544.342
21.29000 545.109
21.30000 544.696
21.31000 541.044
21.32000 537.208
21.33000 540.084
21.34000 555.363
21.35000 570.914
21.36000 579.476
21.37000 570.048
21.38000 563.507
21.39000 552.924
21.40000 539.179
21.41000 525.849
21.42000 529.183
21.43000 541.169
21.44000 552.631
21.45000 549.938
21.46000 542.820
21.47000 536.464
21.48000 536.782
21.49000 538.654
21.50000 539.618
21.51000 535.687
21.52000 531.028
21.53000 527.334
21.54000 528.374
21.55000 529.541
21.56000 530.441
21.57000 530.707
21.58000 530.946
21.59000 534.868
21.60000 544.645
21.61000 554.497
21.62000 559.507
21.63000 539.196
21.64000 525.667
21.65000 521.568
21.66000 523.774
21.67000 526.123
21.68000 532.287
21.69000 540.161
21.70000 547.582
21.71000 549.888
21.72000 550.588
21.73000 551.554
21.74000 554.446
21.75000 557.721
21.76000 559.554
21.77000 554.804
21.78000 549.240
21.79000 544.989
21.80000 554.524
21.81000 562.788
21.82000 569.312
21.83000 572.281
21.84000 575.146
21.85000 577.832
21.86000 580.275
21.87000 582.715
21.88000 588.421
21.89000 596.966
21.90000 605.311
21.91000 602.565
21.92000 593.443
21.93000 585.034
21.94000 590.574
21.95000 601.511
21.96000 611.649
21.97000 620.655
21.98000 628.496
21.99000 634.713
22.00000 631.115
22.01000 625.870
22.02000 623.676
22.03000 633.406
22.04000 644.340
22.05000 652.360
22.06000 653.749
22.07000 654.555
22.08000 651.763
22.09000 642.636
22.10000 633.389
22.11000 633.144
22.12000 643.339
22.13000 653.517
22.14000 646.561
22.15000 627.010
22.16000 607.939
22.17000 605.617
22.18000 611.592
22.19000 616.693
22.20000 608.793
22.21000 596.552
22.22000 585.421
22.23000 583.020
22.24000 582.608
22.25000 582.758
22.26000 585.769
22.27000 589.182
22.28000 589.753
22.29000 580.783
22.30000 571.041
22.31000 564.212
22.32000 552.469
22.33000 543.444
22.34000 537.581
22.35000 536.504
22.36000 535.476
22.37000 536.631
22.38000 539.927
22.39000 543.198
22.40000 541.826
22.41000 537.567
22.42000 533.347
22.43000 530.090
22.44000 527.243
22.45000 525.248
22.46000 533.204
22.47000 544.021
22.48000 553.649
22.49000 547.857
22.50000 540.303
22.51000 533.740
22.52000 531.486
22.53000 529.732
22.54000 527.580
22.55000 524.277
22.56000 520.900
22.57000 518.650
22.58000 511.398
22.59000 505.932
22.60000 505.623
22.61000 511.989
22.62000 518.376
22.63000 522.445
22.64000 524.591
22.65000 526.708
22.66000 524.519
22.67000 520.096
22.68000 515.930
22.69000 516.335
22.70000 518.427
22.71000 520.080
22.72000 517.598
22.73000 514.095
22.74000 511.051
22.75000 504.103
22.76000 497.649
22.77000 494.374
22.78000 502.921
22.79000 512.583
22.80000 517.449
22.81000 510.349
22.82000 502.681
22.83000 497.848
22.84000 500.427
22.85000 502.379
22.86000 506.022
22.87000 511.524
22.88000 517.005
22.89000 519.248
22.90000 519.202
22.91000 519.156
22.92000 516.173
22.93000 511.977
22.94000 508.157
22.95000 509.500
22.96000 512.487
22.97000 514.808
22.98000 511.986
22.99000 508.082
23.00000 504.780
23.01000 500.347
23.02000 496.513
23.03000 493.560
23.04000 493.422
23.05000 493.495
23.06000 494.690
23.07000 498.303
23.08000 501.999
23.09000 504.187
23.10000 496.466
23.11000 490.951
23.12000 487.281
23.13000 485.323
23.14000 483.484
23.15000 489.773
23.16000 500.993
23.17000 511.860
23.18000 513.418
23.19000 511.299
23.20000 509.089
23.21000 505.892
23.22000 502.424
23.23000 499.374
23.24000 499.010
23.25000 499.126
23.26000 499.221
23.27000 508.315
23.28000 516.584
23.29000 521.066
23.30000 515.107
23.31000 508.542
23.32000 506.812
23.33000 514.065
23.34000 521.519
23.35000 525.635
23.36000 510.003
23.37000 499.215
23.38000 496.424
23.39000 499.929
23.40000 503.373
23.41000 504.320
23.42000 503.963
23.43000 503.622
23.44000 496.442
23.45000 487.512
23.46000 480.159
23.47000 486.720
23.48000 496.545
23.49000 504.901
23.50000 505.304
23.51000 504.513
23.52000 503.885
23.53000 501.677
23.54000 499.787
23.55000 496.999
23.56000 492.073
23.57000 487.055
23.58000 484.620
23.59000 486.313
23.60000 488.060
23.61000 488.952
23.62000 503.588
23.63000 513.333
23.64000 514.570
23.65000 510.079
23.66000 505.608
23.67000 501.677
23.68000 497.990
23.69000 494.513
23.70000 503.200
23.71000 514.542
23.72000 524.758
23.73000 526.788
23.74000 527.181
23.75000 525.461
23.76000 514.017
23.77000 501.363
23.78000 491.679
23.79000 497.807
23.80000 503.507
23.81000 509.035
23.82000 514.209
23.83000 519.373
23.84000 521.723
23.85000 520.216
23.86000 518.687
23.87000 520.628
23.88000 525.612
23.89000 530.482
23.90000 528.911
23.91000 523.616
23.92000 518.530
23.93000 517.589
23.94000 518.260
23.95000 518.883
23.96000 520.435
23.97000 522.052
23.98000 523.091
23.99000 520.615
24.00000 517.545
24.01000 514.923
24.02000 514.062
24.03000 513.381
24.04000 512.880
24.05000 517.778
24.06000 521.786
24.07000 522.795
24.08000 518.493
24.09000 514.089
24.10000 512.381
24.11000 513.822
24.12000 515.262
24.13000 514.966
24.14000 513.381
24.15000 511.841
24.16000 511.888
24.17000 512.726
24.18000 513.478
24.19000 512.949
24.20000 511.989
24.21000 511.116
24.22000 511.284
24.23000 511.638
24.24000 510.618
24.25000 502.537
24.26000 493.458
24.27000 487.361
24.28000 491.331
24.29000 496.123
24.30000 499.489
24.31000 498.632
24.32000 497.861
24.33000 497.849
24.34000 498.996
24.35000 500.154
24.36000 496.720
24.37000 488.755
24.38000 480.847
24.39000 480.909
24.40000 485.996
24.41000 490.738
24.42000 487.006
24.43000 479.630
24.44000 473.327
24.45000 479.693
24.46000 489.721
24.47000 498.656
24.48000 495.512
24.49000 490.788
24.50000 488.385
24.51000 496.128
24.52000 505.057
24.53000 509.736
24.54000 502.051
24.55000 493.576
24.56000 487.916
24.57000 480.316
24.58000 474.646
24.59000 472.187
24.60000 473.912
24.61000 475.653
24.62000 477.296
24.63000 478.855
24.64000 480.393
24.65000 479.705
24.66000 477.841
24.67000 475.895
24.68000 472.472
24.69000 468.499
24.70000 465.166
24.71000 467.917
24.72000 472.177
24.73000 475.883
24.74000 473.447
24.75000 470.531
24.76000 467.476
24.77000 463.905
24.78000 460.285
24.79000 458.581
24.80000 461.690
24.81000 465.030
24.82000 467.141
24.83000 455.330
24.84000 446.608
24.85000 447.567
24.86000 459.246
24.87000 470.884
24.88000 475.595
24.89000 475.378
24.90000 475.164
24.91000 475.905
24.92000 477.052
24.93000 477.820
24.94000 473.331
24.95000 467.160
24.96000 461.987
24.97000 464.594
24.98000 468.850
24.99000 472.453
25.00000 478.128
25.01000 483.112
25.02000 484.820
25.03000 475.987
25.04000 466.356
25.05000 461.876
25.06000 468.560
25.07000 475.629
25.08000 479.826
25.09000 463.315
25.10000 451.511
25.11000 449.425
25.12000 456.417
25.13000 463.390
25.14000 469.065
25.15000 473.949
25.16000 478.682
25.17000 477.427
25.18000 473.914
25.19000 470.504
25.20000 468.228
25.21000 466.264
25.22000 464.289
25.23000 462.239
25.24000 460.176
25.25000 458.480
25.26000 469.879
25.27000 480.425
25.28000 486.767
25.29000 481.447
25.30000 475.444
25.31000 471.734
25.32000 472.308
25.33000 472.979
25.34000 473.352
25.35000 464.380
25.36000 458.194
25.37000 459.774
25.38000 467.509
25.39000 475.033
25.40000 473.837
25.41000 468.058
25.42000 462.526
25.43000 456.993
25.44000 451.837
25.45000 446.854
25.46000 443.421
25.47000 440.354
25.48000 438.282
25.49000 441.639
25.50000 445.816
25.51000 449.138
25.52000 459.314
25.53000 468.002
25.54000 474.313
25.55000 474.928
25.56000 475.296
25.57000 473.161
25.58000 466.999
25.59000 460.783
25.60000 457.599
25.61000 454.143
25.62000 451.858
25.63000 453.641
25.64000 458.179
25.65000 462.613
25.66000 464.133
25.67000 464.331
25.68000 464.519
25.69000 466.628
25.70000 469.099
25.71000 470.041
25.72000 459.763
25.73000 447.228
25.74000 436.489
25.75000 434.069
25.76000 432.694
25.77000 431.640
25.78000 448.914
25.79000 463.569
25.80000 471.742
25.81000 466.510
25.82000 460.869
25.83000 461.046
25.84000 469.247
25.85000 477.495
25.86000 474.727
25.87000 462.224
25.88000 449.860
25.89000 445.593
25.90000 446.035
25.91000 446.588
25.92000 449.380
25.93000 453.048
25.94000 456.453
25.95000 458.212
25.96000 459.407
25.97000 459.166
25.98000 450.117
25.99000 439.570
26.00000 431.642
26.01000 434.079
26.02000 437.581
26.03000 440.159
26.04000 444.615
26.05000 448.141
26.06000 448.611
26.07000 443.630
26.08000 438.543
26.09000 441.478
26.10000 453.844
26.11000 466.190
26.12000 466.116
26.13000 456.751
26.14000 447.563
26.15000 444.776
26.16000 445.199
26.17000 445.250
26.18000 439.663
26.19000 432.173
26.20000 425.349
26.21000 432.390
26.22000 441.382
26.23000 449.413
26.24000 452.471
26.25000 454.820
26.26000 456.293
26.27000 454.788
26.28000 453.038
26.29000 451.806
26.30000 443.506
26.31000 437.006
26.32000 433.296
26.33000 433.864
26.34000 434.477
26.35000 439.878
26.36000 450.034
26.37000 460.120
26.38000 461.200
26.39000 456.546
26.40000 451.884
26.41000 447.018
26.42000 442.062
26.43000 438.081
26.44000 445.717
26.45000 456.732
26.46000 466.555
26.47000 455.489
26.48000 442.396
26.49000 431.911
26.50000 432.907
26.51000 435.258
26.52000 438.275
26.53000 443.243
26.54000 448.338
26.55000 451.748
26.56000 446.037
26.57000 441.620
26.58000 439.904
26.59000 441.732
26.60000 443.576
26.61000 445.627
26.62000 447.851
26.63000 450.046
26.64000 448.974
26.65000 446.166
26.66000 443.763
26.67000 448.752
26.68000 456.502
26.69000 462.463
26.70000 451.285
26.71000 435.828
26.72000 422.369
26.73000 424.709
26.74000 428.880
26.75000 432.901
26.76000 436.355
26.77000 439.755
26.78000 441.858
26.79000 440.686
26.80000 439.355
26.81000 438.512
26.82000 439.371
26.83000 440.014
26.84000 441.937
26.85000 445.286
26.86000 448.627
26.87000 450.701
26.88000 451.867
26.89000 453.009
26.90000 453.905
26.91000 454.654
26.92000 455.322
26.93000 454.871
26.94000 454.059
26.95000 452.614
26.96000 446.194
26.97000 438.713
26.98000 432.371
26.99000 436.666
27.00000 441.464
27.01000 445.402
27.02000 446.556
27.03000 447.498
27.04000 446.419
27.05000 440.937
27.06000 435.301
27.07000 431.945
27.08000 442.503
27.09000 450.065
27.10000 448.189
27.11000 437.437
27.12000 426.814
27.13000 425.396
27.14000 429.631
27.15000 433.737
27.16000 433.080
27.17000 430.595
27.18000 428.256
27.19000 427.534
27.20000 427.261
27.21000 427.511
27.22000 431.175
27.23000 435.456
27.24000 438.980
27.25000 439.684
27.26000 440.006
27.27000 437.965
27.28000 429.325
27.29000 420.294
27.30000 418.975
27.31000 432.161
27.32000 445.685
27.33000 453.197
27.34000 445.716
27.35000 440.522
27.36000 437.373
27.37000 435.856
27.38000 434.481
27.39000 439.077
27.40000 446.829
27.41000 454.255
27.42000 451.292
27.43000 445.076
27.44000 439.054
27.45000 434.768
27.46000 430.894
27.47000 427.992
27.48000 430.429
27.49000 433.678
27.50000 436.265
27.51000 438.981
27.52000 441.180
27.53000 442.276
27.54000 440.716
27.55000 439.038
27.56000 436.773
27.57000 433.556
27.58000 430.326
27.59000 428.667
27.60000 425.758
27.61000 423.840
27.62000 426.389
27.63000 431.982
27.64000 437.320
27.65000 435.458
27.66000 430.311
27.67000 425.452
27.68000 430.263
27.69000 437.401
27.70000 442.971
27.71000 436.944
27.72000 428.569
27.73000 422.943
27.74000 430.132
27.75000 438.941
27.76000 445.704
27.77000 436.751
27.78000 428.797
27.79000 425.318
27.80000 431.150
27.81000 437.271
27.82000 440.838
27.83000 440.861
27.84000 440.861
27.85000 436.505
27.86000 428.278
27.87000 420.166
27.88000 418.840
27.89000 421.487
27.90000 423.977
27.91000 423.260
27.92000 421.281
27.93000 419.443
27.94000 417.056
27.95000 414.773
27.96000 412.833
27.97000 413.011
27.98000 413.552
27.99000 413.905
28.00000 413.506
28.01000 413.030
28.02000 412.678
28.03000 417.926
28.04000 422.225
28.05000 426.105
28.06000 429.235
28.07000 432.350
28.08000 431.372
28.09000 425.549
28.10000 419.734
28.11000 417.104
28.12000 416.888
28.13000 416.664
28.14000 416.112
28.15000 415.395
28.16000 414.775
28.17000 415.654
28.18000 417.042
28.19000 418.308
28.20000 424.606
28.21000 431.195
28.22000 435.649
28.23000 428.986
28.24000 420.728
28.25000 415.677
28.26000 421.586
28.27000 428.407
28.28000 433.216
28.29000 427.033
28.30000 422.013
28.31000 417.211
28.32000 412.747
28.33000 408.287
28.34000 407.838
28.35000 411.401
28.36000 414.941
28.37000 420.151
28.38000 426.349
28.39000 432.207
28.40000 429.469
28.41000 422.989
28.42000 417.115
28.43000 418.533
28.44000 422.085
28.45000 425.256
28.46000 415.146
28.47000 404.124
28.48000 396.606
28.49000 404.605
28.50000 414.449
28.51000 420.017
28.52000 412.994
28.53000 405.151
28.54000 399.890
28.55000 391.491
28.56000 385.192
28.57000 384.979
28.58000 392.801
28.59000 400.652
28.60000 404.073
28.61000 403.749
28.62000 403.429
28.63000 409.615
28.64000 419.174
28.65000 427.882
28.66000 420.845
28.67000 407.891
28.68000 396.239
28.69000 397.147
28.70000 401.213
28.71000 404.756
28.72000 404.465
28.73000 403.685
28.74000 403.949
28.75000 408.168
28.76000 412.770
28.77000 414.261
28.78000 407.851
28.79000 401.052
28.80000 396.736
28.81000 414.905
28.82000 428.371
28.83000 431.020
28.84000 421.526
28.85000 412.045
28.86000 406.141
28.87000 402.815
28.88000 399.558
28.89000 403.759
28.90000 411.248
28.91000 418.036
28.92000 414.919
28.93000 408.591
28.94000 403.194
28.95000 405.153
28.96000 408.692
28.97000 411.695
28.98000 416.111
28.99000 419.974
29.00000 422.231
29.01000 419.252
29.02000 415.869
29.03000 411.926
29.04000 406.756
29.05000 401.542
29.06000 398.430
29.07000 407.851
29.08000 414.609
29.09000 419.300
29.10000 422.033
29.11000 424.689
29.12000 421.687
29.13000 415.190
29.14000 408.888
29.15000 406.007
29.16000 404.622
29.17000 403.057
29.18000 399.465
29.19000 395.308
29.20000 391.325
29.21000 388.480
29.22000 385.843
29.23000 383.670
29.24000 392.549
29.25000 400.870
29.26000 407.038
29.27000 407.161
29.28000 406.923
29.29000 408.591
29.30000 413.866
29.31000 419.227
29.32000 422.214
29.33000 413.748
29.34000 407.856
29.35000 398.177
29.36000 385.459
29.37000 373.143
29.38000 378.127
29.39000 392.311
29.40000 405.903
29.41000 409.767
29.42000 410.119
29.43000 410.359
29.44000 409.589
29.45000 408.577
29.46000 407.409
29.47000 405.379
29.48000 403.218
29.49000 401.495
29.50000 399.453
29.51000 397.782
29.52000 396.523
29.53000 396.260
29.54000 396.042
29.55000 396.121
29.56000 396.685
29.57000 397.256
29.58000 397.551
29.59000 394.496
29.60000 392.437
29.61000 390.211
29.62000 387.871
29.63000 385.704
29.64000 388.527
29.65000 393.639
29.66000 398.470
29.67000 404.482
29.68000 410.338
29.69000 415.241
29.70000 413.059
29.71000 409.432
29.72000 406.806
29.73000 408.875
29.74000 411.543
29.75000 413.594
29.76000 406.765
29.77000 400.861
29.78000 397.731
29.79000 400.405
29.80000 403.262
29.81000 402.866
29.82000 397.930
29.83000 392.965
29.84000 393.244
29.85000 398.224
29.86000 403.132
29.87000 403.695
29.88000 401.700
29.89000 399.890
29.90000 401.877
29.91000 405.368
29.92000 408.613
29.93000 411.221
29.94000 413.423
29.95000 414.842
29.96000 411.403
29.97000 407.125
29.98000 404.227
29.99000 406.854
30.00000 410.059
30.01000 412.425
30.02000 418.311
30.03000 423.023
30.04000 424.845
30.05000 421.453
30.06000 417.955
30.07000 417.555
30.08000 420.844
30.09000 424.133
30.10000 424.456
30.11000 422.528
30.12000 420.608
30.13000 418.930
30.14000 417.376
30.15000 415.631
30.16000 410.929
30.17000 405.217
30.18000 400.004
30.19000 401.811
30.20000 404.829
30.21000 406.950
30.22000 404.370
30.23000 401.110
30.24000 400.471
30.25000 408.842
30.26000 417.971
30.27000 424.418
30.28000 419.282
30.29000 415.029
30.30000 410.407
30.31000 405.211
30.32000 400.009
30.33000 397.166
30.34000 396.700
30.35000 396.237
30.36000 396.484
30.37000 397.184
30.38000 397.853
30.39000 397.721
30.40000 397.237
30.41000 396.969
30.42000 399.306
30.43000 402.410
30.44000 405.182
30.45000 403.261
30.46000 400.796
30.47000 398.719
30.48000 398.370
30.49000 398.227
30.50000 398.696
30.51000 400.979
30.52000 403.381
30.53000 404.996
30.54000 397.085
30.55000 391.011
30.56000 388.576
30.57000 390.977
30.58000 393.408
30.59000 400.314
30.60000 411.029
30.61000 421.610
30.62000 418.086
30.63000 406.937
30.64000 396.470
30.65000 398.762
30.66000 405.877
30.67000 412.818
30.68000 418.065
30.69000 422.885
30.70000 427.089
30.71000 417.609
30.72000 407.590
30.73000 401.114
30.74000 408.149
30.75000 416.504
30.76000 423.728
30.77000 428.064
30.78000 432.256
30.79000 434.924
30.80000 428.105
30.81000 423.031
30.82000 425.298
30.83000 435.859
30.84000 446.384
30.85000 449.836
30.86000 448.157
30.87000 446.512
30.88000 447.949
30.89000 450.766
30.90000 453.441
30.91000 454.076
30.92000 454.045
30.93000 454.887
30.94000 462.673
30.95000 471.959
30.96000 479.850
30.97000 476.386
30.98000 472.180
30.99000 471.694
31.00000 483.402
31.01000 496.060
31.02000 511.078
31.03000 531.303
31.04000 551.715
31.05000 563.931
31.06000 574.212
31.07000 581.499
31.08000 597.076
31.09000 620.559
31.10000 643.959
31.11000 661.190
31.12000 674.586
31.13000 687.583
31.14000 734.240
31.15000 791.814
31.16000 848.643
31.17000 897.075
31.18000 943.151
31.19000 991.519
31.20000 1055.078
31.21000 1121.422
31.22000 1176.156
31.23000 1244.650
31.24000 1302.328
31.25000 1365.493
31.26000 1444.153
31.27000 1523.751
31.28000 1597.306
31.29000 1659.358
31.30000 1721.133
31.31000 1755.652
31.32000 1850.627
31.33000 1916.497
31.34000 1969.556
31.35000 2012.261
31.36000 2054.646
31.37000 2082.948
31.38000 2103.716
31.39000 2123.627
31.40000 2122.274
31.41000 2113.850
31.42000 2103.165
31.43000 2071.871
31.44000 2035.617
31.45000 1995.007
31.46000 1930.139
31.47000 1861.528
31.48000 1806.744
31.49000 1731.385
31.50000 1669.012
31.51000 1605.474
31.52000 1539.095
31.53000 1472.588
31.54000 1402.672
31.55000 1327.172
31.56000 1251.591
31.57000 1212.498
31.58000 1105.964
31.59000 1034.242
31.60000 977.879
31.61000 932.113
31.62000 886.084
31.63000 832.397
31.64000 775.174
31.65000 721.074
31.66000 691.010
31.67000 670.257
31.68000 649.043
31.69000 624.382
31.70000 599.014
31.71000 574.303
31.72000 552.694
31.73000 531.484
31.74000 515.151
31.75000 507.048
31.76000 501.102
31.77000 491.674
31.78000 474.917
31.79000 457.926
31.80000 448.915
31.81000 451.122
31.82000 453.406
31.83000 453.253
31.84000 450.901
31.85000 448.460
31.86000 440.475
31.87000 429.207
31.88000 418.518
31.89000 419.892
31.90000 426.074
31.91000 431.825
31.92000 418.504
31.93000 401.869
31.94000 388.042
31.95000 391.794
31.96000 398.600
31.97000 402.938
31.98000 397.327
31.99000 390.668
32.00000 385.741
32.01000 391.561
32.02000 396.538
32.03000 399.816
32.04000 400.010
32.05000 400.141
32.06000 403.503
32.07000 410.740
32.08000 417.968
32.09000 414.962
32.10000 404.165
32.11000 393.495
32.12000 387.690
32.13000 384.366
32.14000 381.248
32.15000 381.353
32.16000 382.565
32.17000 383.672
32.18000 387.089
32.19000 390.592
32.20000 393.034
32.21000 389.886
32.22000 385.923
32.23000 385.373
32.24000 396.628
32.25000 408.884
32.26000 417.557
32.27000 407.005
32.28000 398.393
32.29000 391.304
32.30000 386.592
32.31000 381.908
32.32000 381.565
32.33000 385.624
32.34000 389.657
32.35000 395.257
32.36000 401.789
32.37000 407.951
32.38000 404.498
32.39000 396.809
32.40000 389.690
32.41000 389.545
32.42000 391.466
32.43000 393.183
32.44000 382.857
32.45000 371.811
32.46000 363.736
32.47000 368.989
32.48000 375.853
32.49000 382.051
32.50000 386.269
32.51000 390.354
32.52000 393.107
32.53000 393.638
32.54000 393.986
32.55000 394.350
32.56000 394.735
32.57000 395.113
32.58000 389.911
32.59000 379.929
32.60000 370.068
32.61000 369.280
32.62000 373.506
32.63000 377.595
32.64000 379.088
32.65000 379.594
32.66000 379.365
32.67000 371.913
32.68000 362.624
32.69000 354.511
32.70000 353.180
32.71000 352.995
32.72000 352.381
32.73000 350.123
32.74000 347.702
32.75000 346.847
32.76000 350.017
32.77000 353.389
32.78000 355.541
32.79000 351.952
32.80000 349.269
32.81000 349.896
32.82000 354.288
32.83000 358.635
32.84000 354.964
32.85000 345.440
32.86000 336.104
32.87000 331.809
32.88000 330.035
32.89000 328.915
32.90000 337.231
32.91000 348.642
32.92000 358.773
32.93000 358.622
32.94000 356.236
32.95000 354.206
32.96000 352.360
32.97000 350.831
32.98000 350.707
32.99000 355.215
33.00000 360.088
33.01000 361.807
33.02000 356.524
33.03000 350.987
33.04000 347.664
33.05000 345.759
33.06000 344.415
33.07000 342.733
33.08000 340.728
33.09000 338.769
33.10000 340.379
33.11000 344.221
33.12000 347.950
33.13000 347.330
33.14000 345.007
33.15000 343.061
33.16000 345.397
33.17000 348.943
33.18000 351.684
33.19000 349.060
33.20000 345.444
33.21000 342.458
33.22000 339.746
33.23000 337.536
33.24000 337.017
33.25000 341.301
33.26000 345.879
33.27000 346.190
33.28000 338.329
33.29000 330.268
33.30000 325.750
33.31000 333.104
33.32000 338.219
33.33000 338.721
33.34000 335.471
33.35000 332.331
33.36000 334.118
33.37000 338.555
33.38000 342.812
33.39000 349.148
33.40000 355.772
33.41000 360.336
33.42000 345.954
33.43000 326.986
33.44000 312.449
33.45000 322.747
33.46000 336.906
33.47000 348.228
33.48000 345.136
33.49000 341.566
33.50000 339.960
33.51000 343.170
33.52000 346.601
33.53000 346.037
33.54000 338.888
33.55000 331.641
33.56000 327.880
33.57000 330.896
33.58000 332.930
33.59000 334.504
33.60000 335.760
33.61000 336.893
33.62000 334.424
33.63000 330.281
33.64000 326.362
33.65000 332.022
33.66000 339.979
33.67000 346.327
33.68000 340.510
33.69000 332.180
33.70000 325.321
33.71000 325.446
33.72000 326.475
33.73000 327.269
33.74000 329.066
33.75000 330.548
33.76000 332.537
33.77000 335.598
33.78000 338.694
33.79000 343.401
33.80000 350.387
33.81000 357.387
33.82000 359.423
33.83000 356.946
33.84000 354.441
33.85000 350.144
33.86000 344.780
33.87000 339.744
33.88000 341.635
33.89000 346.304
33.90000 350.649
33.91000 346.176
33.92000 339.991
33.93000 335.209
33.94000 339.278
33.95000 344.896
33.96000 348.904
33.97000 346.380
33.98000 343.162
33.99000 340.777
34.00000 338.556
34.01000 336.839
34.02000 336.495
34.03000 338.660
34.04000 340.877
34.05000 342.318
34.06000 342.820
34.07000 343.319
34.08000 342.175
34.09000 339.775
34.10000 337.468
34.11000 338.789
34.12000 341.971
34.13000 345.025
34.14000 346.045
34.15000 346.361
34.16000 346.650
34.17000 349.402
34.18000 352.350
34.19000 355.272
34.20000 358.060
34.21000 360.828
34.22000 362.500
34.23000 360.358
34.24000 357.890
34.25000 356.140
34.26000 356.013
34.27000 355.968
34.28000 355.800
34.29000 355.438
34.30000 355.074
34.31000 353.836
34.32000 351.705
34.33000 349.587
34.34000 354.356
34.35000 363.545
34.36000 372.327
34.37000 370.378
34.38000 363.675
34.39000 356.961
34.40000 350.113
34.41000 343.224
34.42000 337.059
34.43000 341.622
34.44000 347.437
34.45000 351.497
34.46000 347.634
34.47000 342.806
34.48000 341.372
34.49000 350.110
34.50000 359.531
34.51000 365.892
34.52000 364.087
34.53000 362.569
34.54000 359.850
34.55000 355.515
34.56000 351.169
34.57000 346.123
34.58000 340.473
34.59000 334.889
34.60000 336.595
34.61000 342.298
34.62000 347.457
34.63000 342.217
34.64000 332.998
34.65000 324.863
34.66000 327.465
34.67000 332.816
34.68000 337.493
34.69000 335.578
34.70000 333.001
34.71000 330.666
34.72000 329.260
34.73000 327.947
34.74000 326.605
34.75000 325.189
34.76000 323.769
34.77000 322.862
34.78000 326.957
34.79000 330.004
34.80000 333.960
34.81000 338.956
34.82000 343.900
34.83000 339.500
34.84000 328.236
34.85000 317.192
34.86000 316.795
34.87000 321.434
34.88000 325.618
34.89000 323.156
34.90000 318.502
34.91000 315.158
34.92000 322.428
34.93000 332.021
34.94000 340.190
34.95000 332.883
34.96000 324.940
34.97000 318.786
34.98000 318.567
34.99000 318.820
35.00000 319.851
35.01000 322.619
35.02000 325.450
35.03000 327.154
35.04000 322.209
35.05000 318.646
35.06000 315.490
35.07000 312.728
35.08000 309.996
35.09000 309.567
35.10000 310.590
35.11000 311.583
35.12000 312.366
35.13000 313.026
35.14000 313.579
35.15000 312.913
35.16000 311.901
35.17000 311.346
35.18000 313.863
35.19000 316.952
35.20000 319.506
35.21000 312.116
35.22000 305.083
35.23000 300.265
35.24000 301.776
35.25000 303.678
35.26000 306.267
35.27000 310.179
35.28000 314.125
35.29000 316.343
35.30000 319.395
35.31000 321.500
35.32000 317.488
35.33000 308.468
35.34000 299.610
35.35000 298.125
35.36000 300.633
35.37000 303.040
35.38000 306.073
35.39000 309.122
35.40000 311.681
35.41000 309.694
35.42000 306.599
35.43000 304.295
35.44000 306.453
35.45000 309.310
35.46000 311.598
35.47000 300.693
35.48000 290.882
35.49000 286.408
35.50000 295.096
35.51000 304.394
35.52000 311.941
35.53000 316.583
35.54000 321.182
35.55000 323.576
35.56000 317.438
35.57000 313.298
35.58000 310.582
35.59000 308.861
35.60000 307.179
35.61000 306.701
35.62000 306.784
35.63000 306.862
35.64000 304.967
35.65000 302.652
35.66000 300.421
35.67000 298.827
35.68000 297.365
35.69000 296.159
35.70000 296.177
35.71000 296.354
35.72000 296.492
35.73000 298.810
35.74000 300.775
35.75000 300.997
35.76000 297.505
35.77000 293.890
35.78000 295.127
35.79000 303.271
35.80000 311.465
35.81000 312.266
35.82000 306.302
35.83000 300.476
35.84000 303.635
35.85000 312.181
35.86000 320.197
35.87000 316.916
35.88000 309.079
35.89000 301.779
35.90000 294.668
35.91000 288.283
35.92000 283.744
35.93000 290.919
35.94000 300.157
35.95000 306.816
35.96000 302.941
35.97000 297.937
35.98000 294.223
35.99000 296.415
36.00000 298.377
36.01000 300.915
36.02000 304.509
36.03000 308.126
36.04000 311.038
36.05000 313.093
36.06000 315.141
36.07000 311.471
36.08000 303.398
36.09000 295.534
36.10000 295.891
36.11000 300.493
36.12000 304.705
36.13000 302.655
36.14000 298.427
36.15000 294.559
36.16000 296.518
36.17000 299.458
36.18000 301.775
36.19000 300.751
36.20000 299.234
36.21000 297.930
36.22000 297.373
36.23000 296.881
36.24000 296.532
36.25000 296.195
36.26000 295.939
36.27000 297.112
36.28000 300.543
36.29000 304.001
36.30000 302.049
36.31000 294.532
36.32000 287.060
36.33000 283.327
36.34000 282.098
36.35000 280.922
36.36000 281.129
36.37000 281.952
36.38000 282.936
36.39000 285.922
36.40000 289.508
36.41000 292.721
36.42000 297.211
36.43000 301.351
36.44000 304.129
36.45000 300.721
36.46000 296.553
36.47000 294.767
36.48000 300.161
36.49000 306.042
36.50000 310.020
36.51000 296.309
36.52000 285.712
36.53000 280.259
36.54000 281.772
36.55000 283.321
36.56000 282.727
36.57000 280.273
36.58000 277.847
36.59000 278.426
36.60000 280.668
36.61000 283.010
36.62000 287.309
36.63000 292.361
36.64000 296.897
36.65000 296.284
36.66000 294.345
36.67000 292.648
36.68000 290.878
36.69000 289.351
36.70000 286.482
36.71000 278.402
36.72000 269.800
36.73000 265.730
36.74000 273.448
36.75000 281.775
36.76000 287.111
36.77000 287.384
36.78000 287.514
36.79000 291.580
36.80000 300.181
36.81000 308.732
36.82000 307.091
36.83000 297.916
36.84000 288.916
36.85000 287.687
36.86000 290.190
36.87000 292.613
36.88000 293.843
36.89000 294.677
36.90000 295.392
36.91000 295.127
36.92000 294.646
36.93000 294.236
36.94000 296.585
36.95000 298.884
36.96000 301.602
36.97000 305.718
36.98000 309.947
36.99000 313.273
37.00000 314.572
37.01000 315.795
37.02000 316.533
37.03000 305.315
37.04000 297.245
37.05000 294.233
37.06000 296.144
37.07000 298.031
37.08000 297.997
37.09000 296.746
37.10000 295.531
37.11000 296.604
37.12000 298.549
37.13000 300.399
37.14000 301.165
37.15000 301.621
37.16000 301.973
37.17000 301.625
37.18000 301.146
37.19000 300.750
37.20000 295.071
37.21000 289.881
37.22000 287.082
37.23000 291.155
37.24000 295.657
37.25000 298.878
37.26000 299.616
37.27000 300.290
37.28000 300.670
37.29000 293.304
37.30000 288.185
37.31000 290.785
37.32000 299.747
37.33000 308.476
37.34000 306.424
37.35000 298.498
37.36000 290.888
37.37000 288.104
37.38000 287.157
37.39000 286.860
37.40000 292.640
37.41000 299.909
37.42000 305.945
37.43000 304.974
37.44000 302.898
37.45000 301.233
37.46000 298.627
37.47000 296.446
37.48000 294.235
37.49000 291.951
37.50000 289.664
37.51000 288.754
37.52000 290.144
37.53000 291.569
37.54000 292.314
37.55000 299.225
37.56000 303.857
37.57000 302.393
37.58000 296.643
37.59000 290.974
37.60000 287.785
37.61000 285.759
37.62000 283.841
37.63000 281.410
37.64000 279.024
37.65000 277.693
37.66000 284.468
37.67000 292.938
37.68000 300.139
37.69000 301.229
37.70000 301.516
37.71000 301.737
37.72000 288.617
37.73000 277.417
37.74000 270.858
37.75000 274.244
37.76000 277.962
37.77000 280.988
37.78000 283.023
37.79000 285.049
37.80000 285.790
37.81000 285.346
37.82000 284.924
37.83000 285.926
37.84000 287.788
37.85000 289.508
37.86000 288.155
37.87000 285.555
37.88000 283.132
37.89000 284.734
37.90000 287.177
37.91000 289.027
37.92000 287.091
37.93000 284.484
37.94000 283.713
37.95000 290.490
37.96000 298.083
37.97000 303.728
37.98000 292.345
37.99000 282.733
38.00000 277.135
38.01000 278.956
38.02000 280.941
38.03000 285.069
38.04000 291.820
38.05000 298.563
38.06000 300.362
38.07000 298.303
38.08000 296.252
38.09000 294.499
38.10000 292.901
38.11000 291.645
38.12000 295.914
38.13000 302.118
38.14000 307.797
38.15000 302.781
38.16000 296.101
38.17000 290.676
38.18000 292.010
38.19000 294.352
38.20000 295.610
38.21000 293.054
38.22000 290.166
38.23000 288.110
38.24000 290.174
38.25000 291.879
38.26000 293.991
38.27000 296.750
38.28000 299.518
38.29000 305.458
38.30000 314.682
38.31000 323.854
38.32000 323.801
38.33000 317.656
38.34000 311.869
38.35000 315.762
38.36000 323.995
38.37000 331.855
38.38000 335.022
38.39000 336.772
38.40000 338.342
38.41000 352.164
38.42000 366.367
38.43000 380.130
38.44000 391.884
38.45000 403.389
38.46000 415.974
38.47000 431.834
38.48000 447.918
38.49000 458.821
38.50000 474.522
38.51000 486.335
38.52000 505.473
38.53000 534.591
38.54000 563.763
38.55000 590.287
38.56000 614.498
38.57000 638.434
38.58000 673.325
38.59000 713.535
38.60000 753.990
38.61000 799.262
38.62000 846.397
38.63000 892.571
38.64000 929.070
38.65000 963.061
38.66000 992.835
38.67000 1023.781
38.68000 1050.496
38.69000 1076.892
38.70000 1102.039
38.71000 1127.061
38.72000 1148.406
38.73000 1160.134
38.74000 1171.358
38.75000 1178.567
38.76000 1161.772
38.77000 1149.194
38.78000 1138.243
38.79000 1129.178
38.80000 1120.030
38.81000 1094.803
38.82000 1057.614
38.83000 1021.122
38.84000 994.683
38.85000 973.998
38.86000 951.798
38.87000 907.045
38.88000 854.759
38.89000 804.459
38.90000 770.495
38.91000 740.152
38.92000 714.255
38.93000 671.347
38.94000 633.208
38.95000 597.100
38.96000 567.811
38.97000 539.073
38.98000 513.501
38.99000 495.077
39.00000 476.927
39.01000 465.950
39.02000 429.827
39.03000 403.904
39.04000 383.915
39.05000 369.742
39.06000 355.636
39.07000 347.033
39.08000 341.935
39.09000 336.981
39.10000 328.764
39.11000 319.627
39.12000 311.017
39.13000 308.584
39.14000 307.928
39.15000 306.169
39.16000 296.894
39.17000 286.203
39.18000 277.340
39.19000 281.898
39.20000 286.951
39.21000 290.035
39.22000 287.425
39.23000 284.456
39.24000 283.216
39.25000 285.349
39.26000 287.569
39.27000 288.824
39.28000 282.835
39.29000 278.654
39.30000 275.828
39.31000 274.128
39.32000 272.490
39.33000 273.790
39.34000 276.701
39.35000 279.498
39.36000 281.463
39.37000 283.016
39.38000 284.152
39.39000 281.368
39.40000 277.618
39.41000 274.850
39.42000 277.706
39.43000 281.456
39.44000 284.466
39.45000 276.374
39.46000 268.969
39.47000 264.421
39.48000 267.002
39.49000 269.923
39.50000 269.453
39.51000 263.289
39.52000 257.035
39.53000 253.758
39.54000 267.057
39.55000 276.010
39.56000 276.551
39.57000 271.139
39.58000 265.818
39.59000 263.283
39.60000 262.065
39.61000 260.911
39.62000 263.631
39.63000 267.273
39.64000 270.215
39.65000 267.741
39.66000 264.128
39.67000 261.477
39.68000 263.496
39.69000 266.134
39.70000 268.177
39.71000 268.847
39.72000 269.297
39.73000 268.412
39.74000 264.646
39.75000 260.783
39.76000 258.694
39.77000 259.162
39.78000 259.651
39.79000 261.599
39.80000 264.900
39.81000 268.153
39.82000 268.167
39.83000 266.217
39.84000 264.475
39.85000 267.303
39.86000 271.998
39.87000 276.376
39.88000 271.725
39.89000 265.271
39.90000 259.419
39.91000 257.449
39.92000 256.173
39.93000 254.992
39.94000 254.211
39.95000 253.473
39.96000 252.923
39.97000 250.863
39.98000 249.191
39.99000 250.550
40.00000 257.543
40.01000 264.663
40.02000 265.643
40.03000 259.068
40.04000 252.485
40.05000 250.876
40.06000 253.173
40.07000 255.490
40.08000 258.656
40.09000 262.266
40.10000 265.530
40.11000 263.148
40.12000 258.776
40.13000 254.772
40.14000 252.810
40.15000 251.490
40.16000 250.284
40.17000 249.697
40.18000 249.202
40.19000 249.987
40.20000 255.307
40.21000 261.026
40.22000 265.104
40.23000 266.512
40.24000 267.497
40.25000 265.899
40.26000 260.166
40.27000 254.380
40.28000 248.462
40.29000 242.408
40.30000 236.387
40.31000 238.355
40.32000 245.607
40.33000 252.521
40.34000 250.125
40.35000 243.530
40.36000 237.594
40.37000 240.026
40.38000 244.999
40.39000 249.462
40.40000 251.216
40.41000 252.276
40.42000 252.709
40.43000 250.258
40.44000 247.447
40.45000 246.956
40.46000 253.542
40.47000 260.619
40.48000 265.426
40.49000 254.829
40.50000 246.575
40.51000 243.713
40.52000 248.247
40.53000 252.824
40.54000 257.313
40.55000 261.725
40.56000 266.088
40.57000 266.855
40.58000 265.572
40.59000 264.245
40.60000 262.057
40.61000 259.535
40.62000 256.463
40.63000 247.815
40.64000 237.713
40.65000 228.855
40.66000 237.038
40.67000 246.537
40.68000 254.199
40.69000 254.632
40.70000 254.328
40.71000 253.205
40.72000 249.923
40.73000 246.526
40.74000 244.340
40.75000 249.428
40.76000 253.244
40.77000 255.837
40.78000 257.003
40.79000 258.165
40.80000 259.245
40.81000 260.262
40.82000 261.261
40.83000 256.036
40.84000 248.005
40.85000 240.626
40.86000 243.060
40.87000 248.790
40.88000 253.519
40.89000 249.942
40.90000 244.512
40.91000 239.873
40.92000 241.537
40.93000 243.690
40.94000 245.085
40.95000 243.920
40.96000 242.546
40.97000 241.260
40.98000 240.172
40.99000 239.093
41.00000 238.438
41.01000 247.131
41.02000 253.401
41.03000 254.460
41.04000 250.376
41.05000 246.338
41.06000 246.289
41.07000 248.798
41.08000 251.236
41.09000 249.966
41.10000 247.239
41.11000 244.499
41.12000 241.588
41.13000 238.628
41.14000 236.229
41.15000 237.678
41.16000 239.858
41.17000 241.667
41.18000 241.032
41.19000 240.271
41.20000 238.716
41.21000 234.852
41.22000 230.840
41.23000 229.712
41.24000 234.241
41.25000 238.918
41.26000 241.570
41.27000 228.988
41.28000 220.203
41.29000 220.493
41.30000 228.361
41.31000 236.089
41.32000 237.105
41.33000 234.419
41.34000 231.838
41.35000 233.033
41.36000 235.467
41.37000 237.896
41.38000 240.272
41.39000 242.635
41.40000 244.510
41.41000 243.573
41.42000 242.186
41.43000 241.071
41.44000 235.687
41.45000 230.991
41.46000 227.216
41.47000 225.751
41.48000 224.397
41.49000 225.070
41.50000 229.167
41.51000 233.320
41.52000 235.504
41.53000 235.281
41.54000 235.112
41.55000 232.502
41.56000 228.155
41.57000 224.005
41.58000 226.006
41.59000 230.933
41.60000 235.605
41.61000 238.200
41.62000 239.978
41.63000 241.806
41.64000 244.021
41.65000 246.317
41.66000 247.924
41.67000 246.170
41.68000 243.969
41.69000 242.260
41.70000 238.991
41.71000 236.298
41.72000 236.142
41.73000 241.488
41.74000 247.024
41.75000 250.729
41.76000 251.780
41.77000 252.808
41.78000 250.412
41.79000 244.820
41.80000 239.346
41.81000 242.144
41.82000 249.993
41.83000 257.432
41.84000 255.763
41.85000 250.356
41.86000 245.308
41.87000 243.122
41.88000 241.855
41.89000 241.321
41.90000 245.543
41.91000 250.619
41.92000 253.291
41.93000 245.961
41.94000 237.532
41.95000 231.244
41.96000 239.136
41.97000 245.931
41.98000 248.333
41.99000 242.517
42.00000 236.514
42.01000 234.294
42.02000 236.761
42.03000 239.236
42.04000 240.725
42.05000 241.429
42.06000 242.073
42.07000 240.233
42.08000 237.088
42.09000 234.113
42.10000 233.973
42.11000 234.837
42.12000 235.629
42.13000 233.673
42.14000 231.353
42.15000 229.473
42.16000 229.992
42.17000 230.874
42.18000 232.786
42.19000 238.373
42.20000 244.285
42.21000 248.509
42.22000 246.579
42.23000 244.902
42.24000 243.445
42.25000 242.344
42.26000 241.247
42.27000 239.461
42.28000 236.953
42.29000 234.458
42.30000 233.099
42.31000 232.516
42.32000 231.951
42.33000 231.861
42.34000 231.986
42.35000 231.963
42.36000 230.037
42.37000 227.529
42.38000 225.278
42.39000 227.428
42.40000 230.085
42.41000 231.899
42.42000 229.807
42.43000 227.224
42.44000 226.383
42.45000 230.884
42.46000 235.761
42.47000 239.080
42.48000 230.966
42.49000 224.645
42.50000 223.662
42.51000 230.043
42.52000 236.468
42.53000 240.313
42.54000 241.873
42.55000 243.415
42.56000 238.408
42.57000 229.790
42.58000 221.707
42.59000 224.379
42.60000 231.264
42.61000 237.311
42.62000 234.759
42.63000 229.951
42.64000 225.731
42.65000 224.464
42.66000 223.807
42.67000 223.050
42.68000 221.900
42.69000 220.710
42.70000 219.299
42.71000 217.301
42.72000 215.271
42.73000 213.962
42.74000 224.441
42.75000 232.267
42.76000 236.896
42.77000 237.766
42.78000 238.628
42.79000 238.884
42.80000 238.685
42.81000 238.490
42.82000 239.842
42.83000 241.895
42.84000 243.629
42.85000 240.494
42.86000 235.714
42.87000 231.426
42.88000 231.238
42.89000 231.971
42.90000 232.598
42.91000 235.073
42.92000 237.382
42.93000 237.917
42.94000 232.422
42.95000 226.429
42.96000 222.972
42.97000 225.308
42.98000 227.872
42.99000 229.430
43.00000 225.715
43.01000 223.022
43.02000 218.908
43.03000 213.382
43.04000 207.928
43.05000 208.720
43.06000 213.543
43.07000 218.234
43.08000 221.530
43.09000 224.092
43.10000 226.547
43.11000 227.724
43.12000 228.530
43.13000 229.045
43.14000 227.550
43.15000 225.672
43.16000 224.111
43.17000 224.744
43.18000 225.482
43.19000 225.256
43.20000 222.204
43.21000 218.969
43.22000 218.024
43.23000 221.593
43.24000 225.284
43.25000 227.382
43.26000 226.506
43.27000 225.885
43.28000 224.394
43.29000 222.174
43.30000 220.012
43.31000 220.750
43.32000 223.097
43.33000 225.354
43.34000 222.388
43.35000 217.778
43.36000 214.147
43.37000 219.900
43.38000 227.997
43.39000 234.265
43.40000 229.925
43.41000 223.875
43.42000 219.006
43.43000 223.826
43.44000 228.493
43.45000 230.841
43.46000 227.332
43.47000 223.538
43.48000 222.013
43.49000 224.345
43.50000 226.740
43.51000 228.004
43.52000 218.499
43.53000 212.081
43.54000 211.394
43.55000 214.815
43.56000 218.169
43.57000 219.423
43.58000 219.672
43.59000 219.908
43.60000 214.191
43.61000 207.148
43.62000 201.874
43.63000 210.500
43.64000 222.093
43.65000 231.770
43.66000 232.046
43.67000 231.058
43.68000 230.290
43.69000 224.414
43.70000 219.429
43.71000 218.213
43.72000 225.219
43.73000 232.512
43.74000 234.602
43.75000 229.099
43.76000 223.532
43.77000 221.852
43.78000 223.829
43.79000 225.730
43.80000 222.196
43.81000 215.323
43.82000 208.709
43.83000 207.916
43.84000 209.527
43.85000 211.031
43.86000 212.631
43.87000 214.107
43.88000 215.536
43.89000 216.662
43.90000 217.733
43.91000 219.679
43.92000 225.293
43.93000 231.312
43.94000 235.810
43.95000 229.482
43.96000 224.049
43.97000 219.935
43.98000 218.301
43.99000 216.726
44.00000 217.037
44.01000 219.700
44.02000 222.366
44.03000 221.222
44.04000 217.057
44.05000 212.959
44.06000 211.705
44.07000 211.956
44.08000 212.378
44.09000 215.676
44.10000 219.999
44.11000 223.965
44.12000 221.717
44.13000 218.396
44.14000 215.963
44.15000 218.406
44.16000 221.591
44.17000 223.548
44.18000 221.099
44.19000 218.256
44.20000 216.222
44.21000 212.215
44.22000 209.089
44.23000 208.364
44.24000 211.526
44.25000 214.742
44.26000 215.450
44.27000 213.506
44.28000 211.572
44.29000 211.403
44.30000 212.424
44.31000 213.547
44.32000 217.534
44.33000 222.828
44.34000 227.474
44.35000 223.707
44.36000 217.354
44.37000 211.644
44.38000 218.242
44.39000 226.202
44.40000 232.382
44.41000 230.256
44.42000 227.080
44.43000 224.038
44.44000 221.413
44.45000 218.817
44.46000 217.046
44.47000 218.450
44.48000 219.573
44.49000 221.573
44.50000 224.790
44.51000 228.014
44.52000 228.979
44.53000 227.932
44.54000 226.895
44.55000 226.205
44.56000 225.729
44.57000 225.311
44.58000 226.075
44.59000 227.305
44.60000 228.451
44.61000 228.737
44.62000 228.796
44.63000 228.848
44.64000 230.937
44.65000 233.033
44.66000 234.251
44.67000 231.972
44.68000 229.330
44.69000 228.364
44.70000 231.861
44.71000 235.600
44.72000 238.018
44.73000 243.891
44.74000 248.237
44.75000 247.714
44.76000 241.429
44.77000 235.158
44.78000 234.012
44.79000 236.754
44.80000 239.448
44.81000 241.805
44.82000 243.918
44.83000 246.173
44.84000 250.616
44.85000 255.803
44.86000 260.566
44.87000 261.762
44.88000 262.153
44.89000 262.487
44.90000 265.240
44.91000 267.856
44.92000 269.429
44.93000 267.434
44.94000 265.141
44.95000 264.440
44.96000 267.399
44.97000 270.504
44.98000 272.396
44.99000 274.718
45.00000 276.381
45.01000 282.729
45.02000 293.765
45.03000 304.693
45.04000 305.907
45.05000 300.815
45.06000 295.861
45.07000 304.760
45.08000 318.977
45.09000 331.705
45.10000 326.520
45.11000 316.090
45.12000 306.957
45.13000 306.868
45.14000 308.517
45.15000 309.889
45.16000 300.709
45.17000 292.070
45.18000 285.435
45.19000 284.706
45.20000 284.362
45.21000 284.889
45.22000 287.145
45.23000 289.449
45.24000 290.763
45.25000 292.050
45.26000 292.940
45.27000 289.806
45.28000 283.268
45.29000 276.762
45.30000 271.854
45.31000 267.839
45.32000 263.976
45.33000 259.927
45.34000 256.065
45.35000 252.506
45.36000 251.882
45.37000 251.996
45.38000 251.430
45.39000 246.895
45.40000 241.717
45.41000 237.542
45.42000 243.314
45.43000 248.785
45.44000 249.965
45.45000 240.243
45.46000 229.984
45.47000 225.223
45.48000 229.867
45.49000 234.669
45.50000 237.210
45.51000 237.005
45.52000 236.845
45.53000 233.667
45.54000 228.312
45.55000 223.200
45.56000 225.942
45.57000 232.461
45.58000 238.651
45.59000 233.159
45.60000 224.594
45.61000 217.368
45.62000 220.736
45.63000 226.380
45.64000 229.936
45.65000 223.178
45.66000 215.023
45.67000 208.676
45.68000 215.279
45.69000 221.334
45.70000 224.035
45.71000 219.380
45.72000 214.463
45.73000 213.522
45.74000 218.418
45.75000 223.364
45.76000 225.395
45.77000 224.663
45.78000 223.891
45.79000 220.196
45.80000 214.694
45.81000 209.402
45.82000 208.876
45.83000 210.330
45.84000 211.689
45.85000 209.869
45.86000 207.411
45.87000 205.404
45.88000 206.356
45.89000 207.847
45.90000 208.753
45.91000 207.189
45.92000 205.349
45.93000 203.972
45.94000 202.401
45.95000 201.166
45.96000 201.000
45.97000 202.856
45.98000 204.760
45.99000 203.522
46.00000 198.341
46.01000 193.156
46.02000 193.999
46.03000 199.659
46.04000 205.184
46.05000 204.906
46.06000 201.539
46.07000 198.396
46.08000 199.033
46.09000 201.024
46.10000 202.853
46.11000 199.721
46.12000 195.869
46.13000 192.406
46.14000 191.088
46.15000 190.100
46.16000 189.210
46.17000 188.677
46.18000 188.176
46.19000 187.816
46.20000 189.061
46.21000 190.068
46.22000 193.135
46.23000 199.560
46.24000 206.032
46.25000 208.843
46.26000 207.757
46.27000 206.676
46.28000 206.379
46.29000 206.616
46.30000 206.742
46.31000 203.649
46.32000 199.078
46.33000 194.712
46.34000 193.023
46.35000 192.160
46.36000 191.384
46.37000 195.934
46.38000 200.872
46.39000 205.175
46.40000 206.496
46.41000 207.437
46.42000 207.779
46.43000 206.258
46.44000 204.604
46.45000 203.473
46.46000 199.920
46.47000 197.203
46.48000 195.515
46.49000 195.262
46.50000 195.021
46.51000 196.584
46.52000 199.768
46.53000 202.919
46.54000 205.652
46.55000 208.084
46.56000 210.243
46.57000 206.787
46.58000 201.105
46.59000 195.638
46.60000 192.408
46.61000 189.773
46.62000 187.455
46.63000 189.339
46.64000 191.583
46.65000 194.018
46.66000 197.221
46.67000 200.503
46.68000 202.934
46.69000 203.087
46.70000 203.114
46.71000 203.132
46.72000 204.808
46.73000 206.059
46.74000 206.204
46.75000 205.030
46.76000 203.858
46.77000 203.524
46.78000 203.829
46.79000 204.129
46.80000 202.637
46.81000 200.317
46.82000 198.414
46.83000 203.002
46.84000 209.810
46.85000 215.320
46.86000 209.806
46.87000 201.784
46.88000 194.907
46.89000 195.335
46.90000 196.589
46.91000 197.094
46.92000 195.021
46.93000 192.732
46.94000 190.758
46.95000 189.512
46.96000 188.295
46.97000 187.552
46.98000 194.200
46.99000 199.015
47.00000 201.180
47.01000 200.674
47.02000 200.160
47.03000 198.972
47.04000 197.345
47.05000 195.761
47.06000 194.364
47.07000 193.112
47.08000 191.920
47.09000 191.444
47.10000 191.180
47.11000 190.703
47.12000 188.730
47.13000 186.467
47.14000 184.582
47.15000 182.063
47.16000 179.912
47.17000 179.636
47.18000 184.912
47.19000 190.553
47.20000 192.366
47.21000 186.533
47.22000 180.488
47.23000 177.031
47.24000 184.744
47.25000 190.161
47.26000 191.734
47.27000 190.033
47.28000 188.333
47.29000 186.712
47.30000 185.135
47.31000 183.616
47.32000 186.310
47.33000 190.333
47.34000 194.167
47.35000 196.152
47.36000 197.669
47.37000 198.286
47.38000 193.608
47.39000 188.064
47.40000 183.590
47.41000 179.718
47.42000 176.620
47.43000 175.437
47.44000 179.152
47.45000 183.112
47.46000 186.258
47.47000 188.004
47.48000 189.726
47.49000 190.640
47.50000 188.400
47.51000 186.889
47.52000 187.703
47.53000 190.204
47.54000 192.499
47.55000 187.998
47.56000 180.207
47.57000 172.807
47.58000 180.762
47.59000 192.735
47.60000 202.886
47.61000 198.501
47.62000 190.973
47.63000 185.148
47.64000 187.790
47.65000 191.587
47.66000 194.547
47.67000 187.895
47.68000 181.996
47.69000 177.917
47.70000 177.855
47.71000 177.936
47.72000 178.564
47.73000 179.998
47.74000 181.440
47.75000 185.539
47.76000 192.172
47.77000 198.701
47.78000 197.495
47.79000 191.477
47.80000 185.620
47.81000 183.461
47.82000 182.848
47.83000 182.274
47.84000 181.266
47.85000 180.241
47.86000 179.447
47.87000 180.187
47.88000 181.208
47.89000 181.940
47.90000 181.441
47.91000 180.803
47.92000 180.325
47.93000 182.664
47.94000 184.624
47.95000 185.451
47.96000 184.121
47.97000 182.739
47.98000 181.723
47.99000 181.170
48.00000 180.620
48.01000 179.977
48.02000 179.263
48.03000 178.538
48.04000 177.365
48.05000 175.953
48.06000 174.608
48.07000 174.437
48.08000 174.688
48.09000 174.919
48.10000 177.271
48.11000 179.825
48.12000 182.115
48.13000 182.934
48.14000 183.525
48.15000 183.448
48.16000 180.945
48.17000 178.221
48.18000 176.264
48.19000 177.561
48.20000 178.666
48.21000 178.629
48.22000 176.719
48.23000 174.783
48.24000 176.572
48.25000 182.353
48.26000 188.108
48.27000 187.988
48.28000 183.860
48.29000 179.905
48.30000 180.985
48.31000 184.390
48.32000 187.488
48.33000 186.523
48.34000 184.294
48.35000 182.287
48.36000 185.901
48.37000 190.082
48.38000 192.705
48.39000 187.975
48.40000 182.299
48.41000 179.586
48.42000 186.132
48.43000 193.347
48.44000 198.288
48.45000 186.305
48.46000 176.926
48.47000 172.656
48.48000 175.572
48.49000 178.536
48.50000 178.836
48.51000 176.727
48.52000 174.640
48.53000 174.459
48.54000 175.387
48.55000 176.417
48.56000 179.557
48.57000 183.538
48.58000 186.682
48.59000 181.011
48.60000 172.984
48.61000 165.918
48.62000 169.198
48.63000 173.570
48.64000 176.910
48.65000 176.087
48.66000 174.827
48.67000 174.294
48.68000 175.723
48.69000 177.261
48.70000 178.260
48.71000 180.117
48.72000 181.491
48.73000 182.533
48.74000 183.176
48.75000 183.804
48.76000 180.950
48.77000 175.422
48.78000 169.989
48.79000 170.785
48.80000 174.626
48.81000 178.294
48.82000 179.227
48.83000 179.219
48.84000 178.962
48.85000 176.569
48.86000 173.686
48.87000 171.213
48.88000 177.948
48.89000 184.774
48.90000 188.905
48.91000 183.708
48.92000 177.720
48.93000 172.593
48.94000 169.470
48.95000 166.429
48.96000 164.567
48.97000 169.983
48.98000 173.923
48.99000 173.213
49.00000 167.785
49.01000 162.420
49.02000 163.090
49.03000 167.724
49.04000 172.238
49.05000 178.854
49.06000 186.043
49.07000 192.377
49.08000 188.223
49.09000 180.959
49.10000 175.069
49.11000 178.893
49.12000 184.610
49.13000 189.378
49.14000 186.195
49.15000 182.759
49.16000 180.376
49.17000 181.131
49.18000 182.095
49.19000 182.036
49.20000 179.926
49.21000 177.757
49.22000 176.513
49.23000 177.151
49.24000 177.601
49.25000 176.919
49.26000 175.267
49.27000 173.709
49.28000 177.048
49.29000 183.154
49.30000 189.036
49.31000 185.621
49.32000 179.095
49.33000 173.212
49.34000 173.655
49.35000 175.709
49.36000 177.337
49.37000 176.442
49.38000 175.132
49.39000 174.073
49.40000 176.376
49.41000 178.519
49.42000 180.660
49.43000 182.793
49.44000 184.926
49.45000 184.945
49.46000 181.303
49.47000 177.597
49.48000 175.623
49.49000 177.007
49.50000 177.959
49.51000 180.019
49.52000 182.890
49.53000 185.584
49.54000 182.369
49.55000 176.277
49.56000 170.487
49.57000 166.393
49.58000 163.124
49.59000 160.404
49.60000 162.103
49.61000 164.763
49.62000 167.016
49.63000 167.230
49.64000 167.163
49.65000 167.111
49.66000 166.646
49.67000 166.249
49.68000 168.291
49.69000 175.749
49.70000 183.404
49.71000 185.968
49.72000 180.960
49.73000 175.882
49.74000 174.280
49.75000 176.015
49.76000 177.711
49.77000 176.462
49.78000 173.370
49.79000 170.361
49.80000 169.298
49.81000 169.052
49.82000 168.822
49.83000 166.791
49.84000 164.482
49.85000 162.702
49.86000 164.450
49.87000 166.849
49.88000 169.516
49.89000 173.326
49.90000 177.265
49.91000 180.224
49.92000 179.282
49.93000 178.359
49.94000 177.804
49.95000 177.953
49.96000 178.119
49.97000 177.416
49.98000 175.607
49.99000 173.796
50.00000 174.104
50.01000 176.129
50.02000 178.086
50.03000 177.075
50.04000 174.464
50.05000 171.987
50.06000 171.815
50.07000 172.480
50.08000 173.092
50.09000 172.515
50.10000 171.743
50.11000 171.256
50.12000 172.374
50.13000 173.740
50.14000 175.517
50.15000 178.792
50.16000 182.204
50.17000 184.659
50.18000 184.021
50.19000 183.425
50.20000 181.275
50.21000 176.562
50.22000 171.812
50.23000 170.148
50.24000 171.814
50.25000 173.473
50.26000 170.933
50.27000 165.536
50.28000 160.465
50.29000 165.029
50.30000 174.068
50.31000 182.580
50.32000 184.044
50.33000 183.303
50.34000 182.635
50.35000 181.134
50.36000 179.665
50.37000 178.909
50.38000 181.537
50.39000 184.604
50.40000 187.482
50.41000 189.764
50.42000 192.004
50.43000 193.540
50.44000 193.079
50.45000 192.685
50.46000 192.178
50.47000 191.513
50.48000 190.847
50.49000 193.178
50.50000 198.235
50.51000 203.243
50.52000 204.484
50.53000 203.502
50.54000 202.663
50.55000 204.859
50.56000 208.272
50.57000 211.786
50.58000 216.367
50.59000 221.234
50.60000 225.522
50.61000 223.679
50.62000 221.166
50.63000 219.246
50.64000 219.732
50.65000 220.475
50.66000 220.476
50.67000 218.465
50.68000 216.341
50.69000 214.958
50.70000 216.794
50.71000 218.190
50.72000 216.452
50.73000 210.930
50.74000 205.422
50.75000 205.391
50.76000 209.594
50.77000 213.726
50.78000 215.988
50.79000 217.246
50.80000 218.295
50.81000 216.009
50.82000 212.570
50.83000 209.797
50.84000 212.777
50.85000 217.082
50.86000 220.781
50.87000 209.651
50.88000 198.396
50.89000 189.720
50.90000 190.029
50.91000 191.108
50.92000 192.881
50.93000 196.283
50.94000 199.751
50.95000 201.881
50.96000 197.868
50.97000 194.940
50.98000 193.106
50.99000 192.393
51.00000 191.618
51.01000 184.908
51.02000 174.273
51.03000 163.911
51.04000 165.639
51.05000 172.399
51.06000 178.657
51.07000 178.704
51.08000 176.900
51.09000 175.466
51.10000 176.672
51.11000 178.396
51.12000 179.836
51.13000 177.910
51.14000 175.972
51.15000 174.266
51.16000 173.258
51.17000 172.297
51.18000 171.887
51.19000 172.591
51.20000 173.328
51.21000 173.751
51.22000 172.250
51.23000 171.190
51.24000 168.190
51.25000 163.517
51.26000 158.960
51.27000 160.646
51.28000 165.879
51.29000 170.922
51.30000 171.177
51.31000 169.694
51.32000 168.348
51.33000 168.363
51.34000 168.725
51.35000 168.956
51.36000 168.406
51.37000 167.726
51.38000 167.175
51.39000 166.115
51.40000 165.211
51.41000 164.499
51.42000 164.284
51.43000 164.093
51.44000 163.919
51.45000 163.772
51.46000 163.626
51.47000 163.547
51.48000 160.695
51.49000 158.755
51.50000 158.079
51.51000 158.330
51.52000 158.657
51.53000 161.543
51.54000 165.683
51.55000 169.620
51.56000 168.591
51.57000 166.124
51.58000 163.650
51.59000 161.125
51.60000 158.589
51.61000 156.894
51.62000 159.433
51.63000 162.560
51.64000 165.004
51.65000 163.751
51.66000 162.517
51.67000 162.485
51.68000 165.138
51.69000 167.890
51.70000 168.704
51.71000 166.617
51.72000 164.502
51.73000 163.297
51.74000 162.972
51.75000 162.633
51.76000 161.185
51.77000 159.039
51.78000 157.046
51.79000 158.686
51.80000 161.860
51.81000 164.834
51.82000 165.390
51.83000 165.271
51.84000 164.975
51.85000 163.491
51.86000 161.786
51.87000 160.229
51.88000 159.306
51.89000 158.456
51.90000 157.816
51.91000 164.355
51.92000 169.817
51.93000 171.501
51.94000 165.903
51.95000 160.124
51.96000 155.413
51.97000 152.071
51.98000 148.739
51.99000 149.683
52.00000 154.113
52.01000 158.528
52.02000 162.275
52.03000 165.660
52.04000 168.849
52.05000 168.610
52.06000 167.121
52.07000 165.750
52.08000 163.952
52.09000 162.252
52.10000 160.650
52.11000 159.602
52.12000 158.640
52.13000 157.509
52.14000 155.758
52.15000 153.949
52.16000 152.646
52.17000 156.688
52.18000 159.976
52.19000 163.762
52.20000 168.375
52.21000 173.001
52.22000 172.943
52.23000 167.799
52.24000 162.675
52.25000 161.669
52.26000 163.522
52.27000 165.257
52.28000 163.465
52.29000 160.025
52.30000 156.925
52.31000 158.423
52.32000 161.368
52.33000 164.024
52.34000 156.739
52.35000 148.526
52.36000 142.996
52.37000 150.302
52.38000 159.283
52.39000 165.343
52.40000 162.167
52.41000 158.311
52.42000 155.660
52.43000 160.372
52.44000 164.090
52.45000 165.226
52.46000 162.685
52.47000 160.118
52.48000 158.820
52.49000 158.686
52.50000 158.552
52.51000 161.273
52.52000 165.615
52.53000 169.745
52.54000 169.366
52.55000 167.168
52.56000 164.811
52.57000 160.749
52.58000 156.224
52.59000 152.234
52.60000 156.387
52.61000 161.206
52.62000 165.403
52.63000 167.061
52.64000 168.448
52.65000 168.531
52.66000 165.059
52.67000 161.385
52.68000 158.988
52.69000 159.632
52.70000 160.153
52.71000 158.908
52.72000 155.515
52.73000 152.131
52.74000 152.404
52.75000 155.520
52.76000 158.585
52.77000 159.563
52.78000 159.467
52.79000 159.450
52.80000 160.713
52.81000 162.421
52.82000 163.665
52.83000 160.873
52.84000 157.145
52.85000 153.939
52.86000 154.757
52.87000 155.953
52.88000 157.327
52.89000 159.329
52.90000 161.384
52.91000 161.513
52.92000 157.106
52.93000 152.510
52.94000 149.681
52.95000 156.748
52.96000 161.906
52.97000 161.829
52.98000 156.365
52.99000 150.957
53.00000 151.226
53.01000 155.271
53.02000 159.214
53.03000 159.433
53.04000 158.057
53.05000 156.878
53.06000 158.154
53.07000 160.166
53.08000 161.869
53.09000 161.357
53.10000 160.407
53.11000 159.612
53.12000 158.436
53.13000 157.419
53.14000 156.485
53.15000 155.796
53.16000 155.125
53.17000 155.096
53.18000 156.376
53.19000 157.694
53.20000 158.454
53.21000 152.428
53.22000 148.190
53.23000 150.221
53.24000 157.697
53.25000 165.092
53.26000 168.061
53.27000 168.501
53.28000 168.925
53.29000 165.102
53.30000 159.970
53.31000 155.315
53.32000 155.427
53.33000 156.766
53.34000 158.236
53.35000 160.485
53.36000 162.864
53.37000 164.792
53.38000 163.214
53.39000 161.643
53.40000 160.290
53.41000 159.510
53.42000 158.759
53.43000 159.702
53.44000 163.615
53.45000 167.582
53.46000 169.709
53.47000 159.871
53.48000 153.183
53.49000 153.100
53.50000 157.902
53.51000 162.632
53.52000 164.860
53.53000 165.855
53.54000 166.802
53.55000 165.354
53.56000 163.277
53.57000 161.344
53.58000 160.578
53.59000 160.069
53.60000 159.190
53.61000 156.432
53.62000 153.411
53.63000 151.046
53.64000 154.416
53.65000 157.476
53.66000 159.175
53.67000 157.814
53.68000 156.339
53.69000 155.855
53.70000 156.865
53.71000 157.889
53.72000 158.196
53.73000 157.806
53.74000 157.407
53.75000 156.295
53.76000 154.730
53.77000 153.225
53.78000 153.142
53.79000 153.663
53.80000 154.151
53.81000 153.596
53.82000 152.819
53.83000 152.395
53.84000 154.366
53.85000 156.786
53.86000 157.974
53.87000 153.840
53.88000 149.094
53.89000 145.517
53.90000 147.626
53.91000 149.556
53.92000 150.572
53.93000 149.819
53.94000 149.021
53.95000 148.644
53.96000 148.810
53.97000 148.979
53.98000 147.847
53.99000 145.651
54.00000 143.555
54.01000 146.122
54.02000 151.230
54.03000 156.209
54.04000 158.892
54.05000 160.733
54.06000 162.428
54.07000 162.772
54.08000 162.784
54.09000 162.193
54.10000 158.181
54.11000 153.629
54.12000 150.047
54.13000 150.056
54.14000 150.402
54.15000 150.652
54.16000 157.044
54.17000 162.167
54.18000 163.270
54.19000 157.661
54.20000 151.947
54.21000 150.807
54.22000 154.669
54.23000 158.517
54.24000 158.338
54.25000 155.358
54.26000 152.575
54.27000 155.803
54.28000 161.855
54.29000 167.282
54.30000 164.181
54.31000 158.380
54.32000 153.142
54.33000 149.700
54.34000 147.005
54.35000 145.082
54.36000 146.874
54.37000 149.155
54.38000 151.961
54.39000 156.435
54.40000 161.033
54.41000 164.202
54.42000 156.168
54.43000 149.854
54.44000 148.210
54.45000 153.258
54.46000 158.355
54.47000 157.031
54.48000 149.784
54.49000 142.604
54.50000 143.967
54.51000 150.355
54.52000 156.554
54.53000 158.666
54.54000 159.120
54.55000 159.260
54.56000 156.011
54.57000 151.839
54.58000 148.156
54.59000 149.519
54.60000 151.468
54.61000 153.130
54.62000 153.608
54.63000 153.959
54.64000 154.322
54.65000 154.720
54.66000 155.121
54.67000 155.383
54.68000 158.440
54.69000 160.731
54.70000 160.714
54.71000 157.874
54.72000 155.032
54.73000 153.441
54.74000 152.828
54.75000 152.225
54.76000 152.534
54.77000 153.291
54.78000 153.952
54.79000 153.056
54.80000 151.615
54.81000 150.607
54.82000 153.402
54.83000 157.085
54.84000 160.255
54.85000 163.140
54.86000 165.548
54.87000 166.397
54.88000 161.748
54.89000 156.620
54.90000 153.313
54.91000 154.319
54.92000 155.508
54.93000 156.242
54.94000 148.913
54.95000 143.577
54.96000 144.341
54.97000 151.427
54.98000 158.492
54.99000 163.290
55.00000 166.572
55.01000 169.772
55.02000 166.784
55.03000 161.279
55.04000 156.056
55.05000 154.385
55.06000 153.786
55.07000 153.248
55.08000 153.145
55.09000 153.128
55.10000 153.114
55.11000 151.508
55.12000 150.009
55.13000 149.280
55.14000 150.883
55.15000 152.647
55.16000 155.829
55.17000 161.910
55.18000 168.077
55.19000 171.643
55.20000 167.223
55.21000 164.094
55.22000 162.830
55.23000 163.196
55.24000 163.574
55.25000 164.644
55.26000 166.113
55.27000 167.529
55.28000 166.245
55.29000 164.054
55.30000 162.210
55.31000 163.875
55.32000 166.450
55.33000 168.920
55.34000 170.757
55.35000 172.487
55.36000 173.892
55.37000 174.485
55.38000 174.902
55.39000 175.547
55.40000 176.791
55.41000 178.066
55.42000 177.076
55.43000 172.093
55.44000 167.035
55.45000 164.315
55.46000 171.639
55.47000 176.641
55.48000 179.453
55.49000 180.635
55.50000 181.796
55.51000 182.212
55.52000 182.259
55.53000 182.303
55.54000 187.672
55.55000 194.292
55.56000 200.670
55.57000 205.061
55.58000 209.013
55.59000 212.418
55.60000 213.035
55.61000 213.260
55.62000 213.436
55.63000 228.052
55.64000 240.672
55.65000 251.463
55.66000 258.124
55.67000 264.628
55.68000 271.500
55.69000 278.930
55.70000 286.365
55.71000 300.365
55.72000 320.800
55.73000 341.122
55.74000 352.077
55.75000 357.061
55.76000 362.411
55.77000 376.672
55.78000 394.745
55.79000 411.694
55.80000 422.367
55.81000 430.443
55.82000 439.109
55.83000 451.793
55.84000 465.235
55.85000 479.889
55.86000 499.813
55.87000 520.349
55.88000 535.848
55.89000 546.007
55.90000 553.702
55.91000 560.968
55.92000 567.397
55.93000 573.803
55.94000 580.660
55.95000 588.101
55.96000 595.536
55.97000 594.492
55.98000 586.435
55.99000 578.433
56.00000 572.989
56.01000 568.946
56.02000 564.882
56.03000 560.433
56.04000 555.842
56.05000 551.611
56.06000 543.828
56.07000 536.076
56.08000 527.651
56.09000 515.375
56.10000 502.487
56.11000 489.214
56.12000 474.505
56.13000 459.661
56.14000 448.922
56.15000 428.479
56.16000 412.434
56.17000 397.847
56.18000 385.708
56.19000 373.608
56.20000 358.359
56.21000 339.642
56.22000 321.002
56.23000 311.794
56.24000 309.288
56.25000 306.588
56.26000 297.895
56.27000 286.368
56.28000 274.925
56.29000 264.655
56.30000 254.759
56.31000 245.817
56.32000 235.486
56.33000 226.143
56.34000 218.198
56.35000 217.037
56.36000 216.775
56.37000 215.214
56.38000 209.496
56.39000 203.467
56.40000 199.304
56.41000 200.976
56.42000 202.381
56.43000 200.189
56.44000 192.808
56.45000 185.387
56.46000 180.613
56.47000 178.297
56.48000 176.003
56.49000 174.104
56.50000 172.479
56.51000 170.889
56.52000 170.054
56.53000 169.528
56.54000 168.830
56.55000 166.256
56.56000 163.168
56.57000 160.439
56.58000 164.559
56.59000 169.174
56.60000 171.246
56.61000 162.802
56.62000 153.213
56.63000 148.260
56.64000 156.103
56.65000 164.687
56.66000 170.313
56.67000 163.180
56.68000 157.725
56.69000 153.883
56.70000 152.028
56.71000 150.187
56.72000 151.016
56.73000 153.949
56.74000 156.836
56.75000 157.359
56.76000 156.669
56.77000 155.783
56.78000 151.681
56.79000 146.446
56.80000 141.784
56.81000 142.191
56.82000 143.789
56.83000 145.166
56.84000 143.116
56.85000 140.942
56.86000 139.095
56.87000 138.404
56.88000 137.815
56.89000 138.999
56.90000 144.408
56.91000 150.000
56.92000 153.458
56.93000 149.204
56.94000 146.075
56.95000 143.710
56.96000 142.143
56.97000 140.591
56.98000 140.761
56.99000 142.089
57.00000 143.385
57.01000 141.995
57.02000 139.510
57.03000 137.355
57.04000 139.412
57.05000 142.748
57.06000 145.341
57.07000 142.524
57.08000 138.624
57.09000 135.355
57.10000 137.869
57.11000 140.560
57.12000 141.478
57.13000 136.986
57.14000 132.119
57.15000 130.026
57.16000 133.639
57.17000 137.424
57.18000 139.619
57.19000 142.917
57.20000 145.235
57.21000 146.919
57.22000 148.045
57.23000 149.130
57.24000 147.939
57.25000 145.431
57.26000 143.010
57.27000 142.069
57.28000 141.724
57.29000 141.341
57.30000 140.570
57.31000 139.696
57.32000 139.231
57.33000 141.250
57.34000 143.688
57.35000 145.670
57.36000 146.180
57.37000 146.474
57.38000 146.203
57.39000 144.444
57.40000 142.606
57.41000 140.878
57.42000 139.345
57.43000 137.816
57.44000 136.991
57.45000 139.359
57.46000 140.966
57.47000 139.297
57.48000 135.176
57.49000 131.195
57.50000 132.192
57.51000 135.672
57.52000 138.988
57.53000 138.133
57.54000 136.043
57.55000 134.407
57.56000 136.539
57.57000 139.511
57.58000 142.184
57.59000 143.311
57.60000 144.220
57.61000 144.934
57.62000 142.626
57.63000 140.582
57.64000 139.342
57.65000 139.928
57.66000 140.586
57.67000 140.470
57.68000 139.175
57.69000 137.868
57.70000 137.789
57.71000 138.921
57.72000 140.034
57.73000 139.515
57.74000 137.948
57.75000 136.457
57.76000 136.807
57.77000 137.950
57.78000 139.023
57.79000 141.097
57.80000 143.251
57.81000 145.250
57.82000 146.183
57.83000 146.914
57.84000 147.402
57.85000 146.826
57.86000 146.127
57.87000 145.597
57.88000 142.226
57.89000 139.441
57.90000 137.057
57.91000 135.461
57.92000 133.885
57.93000 133.593
57.94000 134.975
57.95000 136.362
57.96000 137.669
57.97000 138.905
57.98000 140.181
57.99000 143.376
58.00000 147.629
58.01000 151.455
58.02000 147.560
58.03000 140.796
58.04000 134.558
58.05000 130.394
58.06000 127.125
58.07000 125.016
58.08000 129.587
58.09000 135.226
58.10000 140.328
58.11000 143.414
58.12000 146.308
58.13000 148.405
58.14000 139.375
58.15000 132.027
58.16000 130.218
58.17000 137.771
58.18000 145.477
58.19000 148.963
58.20000 147.770
58.21000 146.580
58.22000 144.351
58.23000 141.412
58.24000 138.592
58.25000 139.536
58.26000 142.270
58.27000 144.650
58.28000 142.105
58.29000 137.981
58.30000 134.252
58.31000 134.826
58.32000 136.135
58.33000 137.271
58.34000 137.565
58.35000 137.747
58.36000 138.254
58.37000 139.809
58.38000 141.444
58.39000 142.575
58.40000 138.952
58.41000 136.103
58.42000 133.426
58.43000 130.996
58.44000 128.569
58.45000 126.889
58.46000 125.909
58.47000 124.937
58.48000 125.260
58.49000 126.353
58.50000 127.418
58.51000 127.870
58.52000 128.069
58.53000 128.529
58.54000 131.851
58.55000 135.962
58.56000 139.598
58.57000 140.008
58.58000 139.860
58.59000 139.445
58.60000 137.915
58.61000 136.262
58.62000 136.103
58.63000 140.089
58.64000 144.317
58.65000 147.095
58.66000 144.306
58.67000 142.160
58.68000 140.385
58.69000 139.070
58.70000 137.756
58.71000 136.171
58.72000 134.370
58.73000 132.597
58.74000 131.736
58.75000 131.365
58.76000 131.082
58.77000 132.248
58.78000 133.928
58.79000 135.846
58.80000 139.891
58.81000 144.439
58.82000 148.363
58.83000 140.977
58.84000 133.259
58.85000 128.003
58.86000 131.529
58.87000 135.835
58.88000 137.753
58.89000 133.947
58.90000 129.893
58.91000 127.378
58.92000 126.940
58.93000 126.645
58.94000 128.305
58.95000 132.019
58.96000 135.730
58.97000 139.019
58.98000 142.021
58.99000 144.952
59.00000 144.490
59.01000 142.576
59.02000 140.698
59.03000 139.280
59.04000 138.003
59.05000 137.051
59.06000 138.488
59.07000 140.406
59.08000 142.015
59.09000 138.596
59.10000 135.223
59.11000 132.680
59.12000 132.686
59.13000 132.869
59.14000 131.758
59.15000 127.967
59.16000 124.094
59.17000 121.842
59.18000 122.284
59.19000 122.608
59.20000 123.413
59.21000 124.647
59.22000 125.861
59.23000 125.946
59.24000 125.373
59.25000 124.820
59.26000 126.443
59.27000 128.774
59.28000 131.189
59.29000 134.467
59.30000 137.971
59.31000 140.492
59.32000 136.976
59.33000 132.431
59.34000 128.734
59.35000 129.703
59.36000 130.886
59.37000 131.334
59.38000 129.831
59.39000 128.224
59.40000 128.540
59.41000 132.287
59.42000 136.102
59.43000 138.166
59.44000 130.462
59.45000 125.201
59.46000 124.788
59.47000 128.029
59.48000 131.243
59.49000 133.448
59.50000 135.148
59.51000 136.768
59.52000 131.333
59.53000 124.080
59.54000 117.472
59.55000 116.255
59.56000 116.249
59.57000 117.798
59.58000 127.396
59.59000 138.142
59.60000 146.592
59.61000 143.165
59.62000 139.635
59.63000 137.812
59.64000 139.893
59.65000 142.127
59.66000 142.540
59.67000 140.162
59.68000 137.752
59.69000 136.842
59.70000 137.423
59.71000 137.971
59.72000 135.706
59.73000 131.626
59.74000 127.757
59.75000 129.156
59.76000 132.836
59.77000 136.292
59.78000 137.065
59.79000 137.058
59.80000 136.518
59.81000 132.290
59.82000 127.357
59.83000 123.117
59.84000 121.931
59.85000 121.106
59.86000 120.481
59.87000 125.580
59.88000 129.872
59.89000 133.681
59.90000 136.537
59.91000 139.367
59.92000 140.206
59.93000 138.430
59.94000 136.644
59.95000 135.382
59.96000 134.561
59.97000 133.629
59.98000 127.178
59.99000 117.665
60.00000 108.711
60.01000 110.001
60.02000 115.120
60.03000 119.845
60.04000 124.775
60.05000 129.240
60.06000 133.411
60.07000 135.869
60.08000 138.051
60.09000 139.830
60.10000 140.091
60.11000 140.206
60.12000 140.290
60.13000 140.233
60.14000 140.184
60.15000 139.375
60.16000 137.272
60.17000 135.147
60.18000 133.559
60.19000 132.568
60.20000 131.582
60.21000 132.219
60.22000 134.003
60.23000 135.653
60.24000 133.070
60.25000 128.460
60.26000 124.211
60.27000 125.035
60.28000 127.494
60.29000 129.719
60.30000 123.564
60.31000 116.568
60.32000 111.846
60.33000 118.297
60.34000 126.252
60.35000 132.146
60.36000 131.364
60.37000 130.071
60.38000 129.175
60.39000 126.372
60.40000 124.212
60.41000 123.303
60.42000 124.220
60.43000 125.153
60.44000 127.896
60.45000 132.341
60.46000 136.749
60.47000 136.517
60.48000 133.491
60.49000 130.649
60.50000 131.937
60.51000 134.930
60.52000 137.533
60.53000 135.805
60.54000 132.876
60.55000 130.283
60.56000 130.267
60.57000 130.656
60.58000 130.295
60.59000 126.789
60.60000 122.935
60.61000 120.851
60.62000 123.714
60.63000 126.870
60.64000 128.948
60.65000 133.781
60.66000 137.388
60.67000 136.944
60.68000 131.447
60.69000 125.953
60.70000 125.914
60.71000 130.230
60.72000 134.481
60.73000 133.645
60.74000 130.226
60.75000 127.104
60.76000 128.974
60.77000 132.625
60.78000 136.167
60.79000 138.739
60.80000 141.080
60.81000 143.102
60.82000 141.781
60.83000 140.228
60.84000 138.284
60.85000 134.939
60.86000 131.469
60.87000 129.094
60.88000 129.364
60.89000 129.750
60.90000 129.990
60.91000 129.068
60.92000 128.393
60.93000 128.824
60.94000 130.425
60.95000 132.009
60.96000 131.589
60.97000 129.804
60.98000 128.060
60.99000 132.666
61.00000 139.846
61.01000 146.298
61.02000 143.311
61.03000 137.423
61.04000 132.288
61.05000 132.720
61.06000 134.281
61.07000 135.593
61.08000 132.505
61.09000 129.468
61.10000 127.260
61.11000 127.612
61.12000 128.146
61.13000 128.568
61.14000 128.760
61.15000 128.943
61.16000 129.051
61.17000 133.638
61.18000 136.882
61.19000 138.270
61.20000 138.003
61.21000 137.746
61.22000 138.056
61.23000 138.698
61.24000 139.319
61.25000 140.327
61.26000 141.421
61.27000 142.074
61.28000 138.151
61.29000 133.021
61.30000 128.460
61.31000 127.419
61.32000 126.982
61.33000 126.626
61.34000 131.532
61.35000 135.986
61.36000 139.578
61.37000 140.868
61.38000 142.033
61.39000 141.714
61.40000 138.729
61.41000 135.691
61.42000 134.043
61.43000 136.988
61.44000 139.008
61.45000 140.168
61.46000 140.674
61.47000 141.133
61.48000 139.794
61.49000 137.549
61.50000 135.407
61.51000 142.861
61.52000 152.805
61.53000 162.331
61.54000 168.338
61.55000 173.549
61.56000 179.216
61.57000 187.254
61.58000 195.633
61.59000 202.232
61.60000 208.041
61.61000 212.643
61.62000 218.997
61.63000 229.380
61.64000 239.924
61.65000 247.296
61.66000 249.773
61.67000 252.195
61.68000 253.407
61.69000 248.877
61.70000 245.921
61.71000 248.754
61.72000 255.346
61.73000 261.558
61.74000 258.163
61.75000 250.584
61.76000 243.463
61.77000 231.641
61.78000 219.594
61.79000 208.549
61.80000 204.487
61.81000 201.768
61.82000 197.334
61.83000 185.302
61.84000 172.366
61.85000 162.556
61.86000 161.829
61.87000 161.723
61.88000 159.569
61.89000 153.345
61.90000 147.009
61.91000 144.493
61.92000 147.021
61.93000 149.571
61.94000 146.374
61.95000 138.333
61.96000 130.434
61.97000 129.687
61.98000 132.932
61.99000 136.085
62.00000 137.524
62.01000 138.320
62.02000 139.055
62.03000 140.399
62.04000 141.742
62.05000 142.390
62.06000 138.968
62.07000 134.887
62.08000 132.445
62.09000 136.223
62.10000 140.604
62.11000 143.790
62.12000 143.689
62.13000 143.486
62.14000 141.948
62.15000 138.125
62.16000 134.262
62.17000 132.558
62.18000 133.278
62.19000 133.997
62.20000 138.393
62.21000 145.378
62.22000 152.176
62.23000 152.911
62.24000 150.727
62.25000 148.383
62.26000 143.770
62.27000 138.419
62.28000 133.573
62.29000 131.835
62.30000 130.892
62.31000 130.784
62.32000 134.801
62.33000 139.378
62.34000 142.351
62.35000 140.096
62.36000 137.437
62.37000 135.590
62.38000 136.526
62.39000 137.306
62.40000 138.189
62.41000 139.223
62.42000 140.259
62.43000 140.748
62.44000 140.721
62.45000 140.694
62.46000 142.444
62.47000 145.239
62.48000 147.834
62.49000 145.860
62.50000 141.987
62.51000 138.160
62.52000 134.855
62.53000 131.695
62.54000 128.895
62.55000 131.064
62.56000 133.726
62.57000 136.708
62.58000 141.039
62.59000 145.521
62.60000 147.884
62.61000 144.291
62.62000 140.342
62.63000 137.736
62.64000 143.364
62.65000 147.657
62.66000 148.392
62.67000 144.662
62.68000 140.927
62.69000 140.616
62.70000 143.057
62.71000 145.461
62.72000 143.861
62.73000 140.242
62.74000 136.803
62.75000 136.415
62.76000 137.121
62.77000 138.007
62.78000 140.514
62.79000 143.409
62.80000 145.912
62.81000 143.624
62.82000 141.055
62.83000 140.303
62.84000 146.107
62.85000 152.505
62.86000 155.022
62.87000 148.126
62.88000 140.810
62.89000 136.251
62.90000 138.741
62.91000 140.608
62.92000 141.754
62.93000 142.134
62.94000 142.528
62.95000 144.635
62.96000 147.918
62.97000 151.124
62.98000 148.902
62.99000 144.390
63.00000 140.181
63.01000 139.943
63.02000 140.934
63.03000 142.222
63.04000 145.732
63.05000 149.695
63.06000 153.028
63.07000 150.565
63.08000 147.895
63.09000 145.731
63.10000 145.139
63.11000 144.659
63.12000 143.473
63.13000 140.806
63.14000 138.092
63.15000 136.506
63.16000 142.795
63.17000 147.255
63.18000 146.267
63.19000 140.388
63.20000 134.573
63.21000 132.719
63.22000 133.197
63.23000 133.660
63.24000 135.637
63.25000 138.067
63.26000 140.313
63.27000 140.632
63.28000 140.438
63.29000 140.150
63.30000 139.269
63.31000 138.286
63.32000 137.484
63.33000 139.871
63.34000 142.097
63.35000 145.700
63.36000 152.995
63.37000 160.493
63.38000 163.980
63.39000 160.225
63.40000 156.321
63.41000 154.197
63.42000 152.607
63.43000 151.519
63.44000 150.711
63.45000 150.117
63.46000 149.533
63.47000 149.320
63.48000 149.295
63.49000 149.272
63.50000 147.447
63.51000 145.181
63.52000 143.363
63.53000 145.346
63.54000 148.195
63.55000 150.166
63.56000 147.528
63.57000 144.222
63.58000 141.616
63.59000 139.367
63.60000 137.588
63.61000 137.145
63.62000 139.794
63.63000 142.568
63.64000 143.072
63.65000 140.053
63.66000 136.994
63.67000 135.458
63.68000 143.581
63.69000 148.971
63.70000 151.344
63.71000 151.746
63.72000 152.177
63.73000 153.356
63.74000 154.861
63.75000 156.277
63.76000 151.110
63.77000 144.618
63.78000 139.518
63.79000 144.195
63.80000 150.764
63.81000 156.374
63.82000 157.702
63.83000 158.516
63.84000 159.134
63.85000 152.110
63.86000 146.192
63.87000 144.349
63.88000 150.647
63.89000 157.172
63.90000 160.675
63.91000 160.162
63.92000 159.629
63.93000 157.427
63.94000 153.811
63.95000 150.251
63.96000 149.597
63.97000 150.574
63.98000 151.494
63.99000 151.339
64.00000 150.778
64.01000 150.260
64.02000 150.078
64.03000 149.991
64.04000 150.018
64.05000 150.719
64.06000 151.529
64.07000 152.325
64.08000 153.063
64.09000 153.795
64.10000 154.329
64.11000 159.507
64.12000 163.674
64.13000 165.488
64.14000 163.251
64.15000 160.943
64.16000 159.677
64.17000 159.590
64.18000 159.504
64.19000 159.910
64.20000 160.667
64.21000 161.302
64.22000 157.944
64.23000 152.651
64.24000 147.943
64.25000 151.595
64.26000 157.977
64.27000 163.762
64.28000 160.792
64.29000 156.503
64.30000 152.819
64.31000 152.145
64.32000 151.882
64.33000 152.158
64.34000 154.203
64.35000 156.386
64.36000 157.906
64.37000 154.057
64.38000 151.008
64.39000 150.426
64.40000 153.491
64.41000 156.588
64.42000 159.388
64.43000 161.905
64.44000 164.401
64.45000 166.258
64.46000 167.690
64.47000 168.959
64.48000 166.458
64.49000 162.381
64.50000 158.688
64.51000 159.320
64.52000 161.166
64.53000 162.804
64.54000 162.663
64.55000 162.259
64.56000 162.056
64.57000 162.712
64.58000 163.464
64.59000 164.069
64.60000 164.254
64.61000 164.414
64.62000 164.520
64.63000 166.246
64.64000 167.548
64.65000 166.295
64.66000 161.811
64.67000 157.329
64.68000 157.022
64.69000 160.092
64.70000 163.117
64.71000 166.893
64.72000 170.949
64.73000 175.148
64.74000 181.791
64.75000 189.316
64.76000 195.724
64.77000 191.931
64.78000 185.681
64.79000 180.272
64.80000 179.296
64.81000 179.050
64.82000 179.233
64.83000 180.977
64.84000 182.865
64.85000 183.903
64.86000 182.872
64.87000 181.747
64.88000 181.044
64.89000 172.908
64.90000 166.961
64.91000 168.647
64.92000 178.516
64.93000 188.321
64.94000 190.004
64.95000 186.077
64.96000 182.241
64.97000 181.383
64.98000 181.879
64.99000 182.291
65.00000 181.579
65.01000 180.517
65.02000 179.279
65.03000 176.710
65.04000 173.869
65.05000 171.477
65.06000 180.819
65.07000 189.872
65.08000 196.536
65.09000 195.727
65.10000 194.379
65.11000 192.892
65.12000 191.112
65.13000 189.322
65.14000 188.272
65.15000 196.304
65.16000 202.003
65.17000 202.611
65.18000 198.615
65.19000 194.705
65.20000 196.079
65.21000 200.586
65.22000 204.944
65.23000 207.446
65.24000 209.108
65.25000 211.163
65.26000 217.349
65.27000 224.640
65.28000 230.563
65.29000 227.914
65.30000 223.774
65.31000 220.393
65.32000 229.272
65.33000 237.597
65.34000 245.544
65.35000 252.470
65.36000 259.340
65.37000 262.742
65.38000 259.843
65.39000 256.813
65.40000 255.159
65.41000 267.877
65.42000 276.621
65.43000 282.414
65.44000 285.941
65.45000 289.440
65.46000 291.896
65.47000 293.819
65.48000 295.655
65.49000 293.940
65.50000 291.211
65.51000 289.580
65.52000 297.344
65.53000 307.261
65.54000 315.888
65.55000 317.707
65.56000 318.533
65.57000 319.185
65.58000 325.048
65.59000 330.108
65.60000 333.816
65.61000 334.373
65.62000 334.801
65.63000 338.221
65.64000 346.315
65.65000 354.465
65.66000 358.570
65.67000 387.600
65.68000 407.018
65.69000 428.026
65.70000 450.080
65.71000 472.576
65.72000 506.569
65.73000 545.629
65.74000 582.378
65.75000 618.244
65.76000 650.781
65.77000 684.587
65.78000 727.371
65.79000 771.906
65.80000 813.039
65.81000 838.901
65.82000 862.917
65.83000 881.187
65.84000 892.101
65.85000 900.301
65.86000 901.681
65.87000 889.357
65.88000 876.646
65.89000 867.267
65.90000 862.346
65.91000 857.452
65.92000 851.709
65.93000 845.252
65.94000 838.294
65.95000 805.086
65.96000 757.046
65.97000 709.001
65.98000 660.863
65.99000 612.689
66.00000 568.127
66.01000 522.280
66.02000 480.799
66.03000 439.853
66.04000 402.075
66.05000 364.817
66.06000 334.011
66.07000 327.977
66.08000 324.385
66.09000 321.764
66.10000 309.206
66.11000 299.139
66.12000 292.162
66.13000 290.536
66.14000 289.005
66.15000 286.525
66.16000 282.963
66.17000 279.412
66.18000 276.541
66.19000 274.186
66.20000 272.072
66.21000 277.982
66.22000 287.802
66.23000 296.905
66.24000 295.639
66.25000 290.970
66.26000 286.734
66.27000 290.950
66.28000 296.296
66.29000 302.375
66.30000 312.125
66.31000 322.380
66.32000 333.279
66.33000 346.303
66.34000 359.495
66.35000 368.692
66.36000 374.590
66.37000 378.951
66.38000 382.638
66.39000 385.322
66.40000 387.996
66.41000 385.800
66.42000 378.923
66.43000 372.101
66.44000 373.492
66.45000 379.909
66.46000 386.088
66.47000 386.701
66.48000 384.973
66.49000 383.037
66.50000 378.728
66.51000 373.750
66.52000 369.329
66.53000 361.421
66.54000 354.007
66.55000 346.237
66.56000 336.945
66.57000 327.480
66.58000 318.791
66.59000 312.310
66.60000 305.964
66.61000 301.759
66.62000 306.972
66.63000 310.994
66.64000 309.096
66.65000 299.671
66.66000 290.231
66.67000 285.248
66.68000 283.891
66.69000 282.554
66.70000 281.210
66.71000 279.900
66.72000 278.766
66.73000 280.670
66.74000 283.677
66.75000 287.023
66.76000 293.486
66.77000 300.705
66.78000 306.959
66.79000 311.332
66.80000 314.804
66.81000 316.308
66.82000 310.615
66.83000 304.260
66.84000 301.524
66.85000 307.672
66.86000 314.228
66.87000 318.332
66.88000 315.440
66.89000 313.276
66.90000 311.960
66.91000 311.559
66.92000 311.198
66.93000 315.989
66.94000 324.359
66.95000 332.540
66.96000 330.588
66.97000 324.204
66.98000 318.192
66.99000 317.141
67.00000 317.642
67.01000 318.420
67.02000 321.287
67.03000 324.586
67.04000 327.367
67.05000 326.194
67.06000 324.788
67.07000 324.026
67.08000 325.295
67.09000 326.711
67.10000 328.280
67.11000 330.176
67.12000 332.083
67.13000 333.203
67.14000 335.717
67.15000 337.496
67.16000 339.388
67.17000 341.383
67.18000 343.344
67.19000 343.131
67.20000 341.620
67.21000 340.158
67.22000 341.578
67.23000 344.010
67.24000 346.897
67.25000 354.614
67.26000 363.631
67.27000 371.053
67.28000 368.412
67.29000 364.009
67.30000 360.408
67.31000 362.946
67.32000 365.560
67.33000 366.394
67.34000 362.401
67.35000 358.137
67.36000 358.236
67.37000 366.306
67.38000 374.547
67.39000 379.059
67.40000 374.700
67.41000 371.697
67.42000 370.604
67.43000 370.987
67.44000 371.306
67.45000 369.157
67.46000 365.739
67.47000 362.475
67.48000 374.560
67.49000 390.738
67.50000 405.749
67.51000 410.682
67.52000 413.292
67.53000 414.824
67.54000 410.619
67.55000 405.572
67.56000 401.580
67.57000 402.580
67.58000 403.726
67.59000 407.172
67.60000 416.004
67.61000 425.058
67.62000 428.872
67.63000 424.449
67.64000 419.926
67.65000 417.640
67.66000 416.493
67.67000 415.721
67.68000 414.547
67.69000 413.107
67.70000 411.769
67.71000 413.138
67.72000 415.706
67.73000 418.124
67.74000 423.887
67.75000 430.071
67.76000 436.232
67.77000 442.238
67.78000 448.214
67.79000 452.527
67.80000 449.326
67.81000 445.210
67.82000 442.074
67.83000 445.408
67.84000 448.376
67.85000 452.958
67.86000 460.805
67.87000 468.745
67.88000 474.178
67.89000 476.236
67.90000 478.275
67.91000 479.990
67.92000 481.424
67.93000 482.819
67.94000 482.136
67.95000 480.272
67.96000 478.575
67.97000 480.088
67.98000 482.829
67.99000 485.367
68.00000 480.479
68.01000 474.374
68.02000 470.274
68.03000 478.133
68.04000 487.975
68.05000 497.904
68.06000 508.169
68.07000 518.468
68.08000 525.998
68.09000 524.856
68.10000 523.633
68.11000 525.573
68.12000 533.024
68.13000 540.575
68.14000 546.219
68.15000 549.677
68.16000 553.121
68.17000 555.398
68.18000 556.806
68.19000 558.112
68.20000 556.001
68.21000 552.216
68.22000 548.549
68.23000 546.615
68.24000 545.254
68.25000 544.018
68.26000 555.894
68.27000 568.920
68.28000 580.234
68.29000 582.910
68.30000 584.388
68.31000 588.072
68.32000 599.077
68.33000 610.664
68.34000 618.758
68.35000 627.613
68.36000 634.323
68.37000 639.886
68.38000 643.730
68.39000 647.557
68.40000 652.564
68.41000 658.712
68.42000 664.812
68.43000 671.771
68.44000 679.142
68.45000 686.142
68.46000 684.363
68.47000 678.869
68.48000 674.102
68.49000 677.693
68.50000 683.659
68.51000 688.961
68.52000 709.038
68.53000 728.838
68.54000 747.360
68.55000 760.389
68.56000 772.790
68.57000 791.743
68.58000 829.437
68.59000 868.292
68.60000 894.092
68.61000 908.634
68.62000 919.175
68.63000 949.987
68.64000 1006.743
68.65000 1063.572
68.66000 1110.653
68.67000 1149.748
68.68000 1188.294
68.69000 1222.628
68.70000 1253.769
68.71000 1285.495
68.72000 1327.472
68.73000 1373.193
68.74000 1417.842
68.75000 1452.557
68.76000 1484.848
68.77000 1512.854
68.78000 1567.275
68.79000 1617.142
68.80000 1667.930
68.81000 1722.105
68.82000 1776.595
68.83000 1836.417
68.84000 1909.404
68.85000 1983.001
68.86000 2029.194
68.87000 2190.277
68.88000 2307.955
68.89000 2526.834
68.90000 2855.689
68.91000 3187.209
68.92000 3859.958
68.93000 4771.344
68.94000 5662.495
68.95000 7558.349
68.96000 9826.429
68.97000 12183.874
68.98000 15747.358
68.99000 19690.619
69.00000 23655.041
69.01000 27780.814
69.02000 31940.164
69.03000 35450.879
69.04000 39036.793
69.05000 42041.590
69.06000 44620.656
69.07000 45852.551
69.08000 46985.199
69.09000 47861.012
69.10000 48189.316
69.11000 48499.539
69.12000 48682.379
69.13000 48913.680
69.14000 49077.297
69.15000 49455.355
69.16000 50029.957
69.17000 50599.277
69.18000 50825.527
69.19000 50845.895
69.20000 50865.605
69.21000 49500.070
69.22000 47681.430
69.23000 45788.301
69.24000 43096.914
69.25000 40189.355
69.26000 37354.992
69.27000 34985.711
69.28000 32698.430
69.29000 30825.229
69.30000 29111.420
69.31000 27720.510
69.32000 26507.352
69.33000 25779.211
69.34000 25078.588
69.35000 24420.971
69.36000 23842.420
69.37000 23265.586
69.38000 22948.760
69.39000 21267.266
69.40000 20106.014
69.41000 18502.004
69.42000 16553.371
69.43000 14602.416
69.44000 12559.939
69.45000 10470.160
69.46000 8472.688
69.47000 6962.372
69.48000 5715.228
69.49000 4521.145
69.50000 3788.666
69.51000 3163.250
69.52000 2587.735
69.53000 2279.345
69.54000 2010.496
69.55000 1797.566
69.56000 1633.626
69.57000 1505.242
69.58000 1397.445
69.59000 1338.146
69.60000 1280.881
69.61000 1228.803
69.62000 1184.932
69.63000 1141.163
69.64000 1118.961
69.65000 1084.107
69.66000 1060.727
69.67000 1034.157
69.68000 1005.464
69.69000 977.292
69.70000 963.042
69.71000 955.003
69.72000 947.429
69.73000 916.663
69.74000 882.139
69.75000 849.898
69.76000 834.064
69.77000 821.470
69.78000 808.623
69.79000 794.622
69.80000 780.479
69.81000 769.685
69.82000 763.565
69.83000 758.993
69.84000 750.890
69.85000 735.604
69.86000 720.110
69.87000 708.578
69.88000 702.417
69.89000 696.290
69.90000 693.794
69.91000 694.452
69.92000 694.918
69.93000 684.897
69.94000 668.878
69.95000 653.430
69.96000 649.066
69.97000 648.970
69.98000 648.882
69.99000 638.818
70.00000 627.451
