20.00000 539.649
20.01000 542.084
20.02000 544.867
20.03000 548.044
20.04000 552.751
20.05000 557.612
20.06000 561.171
20.07000 559.833
20.08000 558.605
20.09000 555.822
20.10000 550.316
20.11000 544.760
20.12000 548.514
20.13000 562.997
20.14000 577.446
20.15000 580.605
20.16000 575.461
20.17000 570.426
20.18000 569.164
20.19000 569.760
20.20000 570.317
20.21000 570.291
20.22000 570.071
20.23000 569.872
20.24000 566.173
20.25000 562.222
20.26000 557.628
20.27000 549.772
20.28000 541.461
20.29000 535.184
20.30000 535.689
20.31000 536.738
20.32000 537.472
20.33000 544.233
20.34000 549.515
20.35000 554.627
20.36000 559.484
20.37000 564.338
20.38000 563.364
20.39000 556.719
20.40000 550.124
20.41000 550.887
20.42000 556.216
20.43000 561.351
20.44000 561.830
20.45000 560.330
20.46000 558.779
20.47000 556.640
20.48000 554.334
20.49000 552.283
20.50000 548.915
20.51000 545.778
20.52000 542.975
20.53000 541.611
20.54000 540.413
20.55000 541.257
20.56000 547.972
20.57000 555.053
20.58000 559.763
20.59000 557.305
20.60000 555.351
20.61000 551.726
20.62000 545.950
20.63000 540.171
20.64000 536.964
20.65000 535.875
20.66000 534.801
20.67000 537.810
20.68000 542.895
20.69000 547.713
20.70000 547.803
20.71000 546.160
20.72000 544.876
20.73000 546.958
20.74000 549.865
20.75000 552.389
20.76000 549.209
20.77000 545.734
20.78000 543.580
20.79000 546.310
20.80000 549.497
20.81000 550.216
20.82000 544.812
20.83000 539.120
20.84000 535.542
20.85000 543.733
20.86000 549.789
20.87000 550.325
20.88000 544.832
20.89000 539.370
20.90000 538.633
20.91000 541.218
20.92000 543.745
20.93000 548.687
20.94000 554.517
20.95000 559.641
20.96000 555.183
20.97000 547.693
20.98000 541.542
20.99000 545.670
21.00000 551.947
21.01000 557.250
21.02000 552.754
21.03000 547.917
21.04000 544.678
21.05000 546.517
21.06000 548.733
21.07000 551.494
21.08000 555.423
21.09000 559.391
21.10000 561.735
21.11000 556.735
21.12000 553.164
21.13000 552.167
21.14000 553.542
21.15000 554.779
21.16000 546.990
21.17000 533.757
21.18000 520.946
21.19000 521.525
21.20000 527.205
21.21000 532.977
21.22000 539.735
21.23000 546.762
21.24000 552.662
21.25000 551.359
21.26000 548.778
21.27000 546.663
21.28000 553.078
21.29000 559.095
21.30000 561.241
21.31000 552.771
21.32000 543.693
21.33000 539.140
21.34000 542.944
21.35000 546.932
21.36000 549.128
21.37000 537.594
21.38000 529.655
21.39000 529.782
21.40000 536.217
21.41000 542.500
21.42000 542.666
21.43000 539.656
21.44000 536.777
21.45000 538.197
21.46000 540.920
21.47000 542.997
21.48000 539.420
21.49000 534.526
21.50000 531.663
21.51000 539.729
21.52000 549.422
21.53000 557.108
21.54000 555.921
21.55000 554.346
21.56000 555.151
21.57000 561.594
21.58000 568.275
21.59000 572.137
21.60000 571.516
21.61000 570.837
21.62000 570.492
21.63000 555.206
21.64000 545.110
21.65000 550.945
21.66000 567.437
21.67000 583.474
21.68000 587.200
21.69000 585.409
21.70000 583.722
21.71000 588.420
21.72000 594.485
21.73000 600.006
21.74000 601.599
21.75000 602.413
21.76000 606.644
21.77000 626.501
21.78000 648.288
21.79000 664.936
21.80000 666.465
21.81000 666.853
21.82000 670.265
21.83000 679.854
21.84000 689.626
21.85000 702.702
21.86000 720.278
21.87000 737.870
21.88000 754.656
21.89000 770.713
21.90000 786.655
21.91000 796.296
21.92000 802.316
21.93000 808.767
21.94000 823.690
21.95000 841.890
21.96000 858.760
21.97000 865.228
21.98000 868.624
21.99000 874.404
22.00000 894.579
22.01000 917.170
22.02000 931.453
22.03000 913.269
22.04000 891.806
22.05000 876.063
22.06000 871.329
22.07000 868.117
22.08000 862.204
22.09000 851.535
22.10000 840.778
22.11000 825.825
22.12000 806.007
22.13000 786.242
22.14000 776.088
22.15000 773.103
22.16000 769.583
22.17000 747.332
22.18000 715.803
22.19000 685.425
22.20000 672.162
22.21000 664.614
22.22000 657.749
22.23000 638.870
22.24000 619.818
22.25000 602.338
22.26000 592.877
22.27000 584.543
22.28000 577.563
22.29000 575.126
22.30000 573.057
22.31000 571.606
22.32000 574.153
22.33000 576.196
22.34000 574.297
22.35000 566.432
22.36000 558.506
22.37000 554.536
22.38000 554.441
22.39000 554.348
22.40000 552.737
22.41000 550.201
22.42000 547.795
22.43000 548.525
22.44000 550.596
22.45000 551.938
22.46000 544.764
22.47000 535.142
22.48000 526.577
22.49000 524.580
22.50000 523.919
22.51000 524.106
22.52000 527.980
22.53000 532.281
22.54000 534.186
22.55000 529.163
22.56000 523.703
22.57000 520.064
22.58000 520.584
22.59000 521.049
22.60000 523.609
22.61000 528.882
22.62000 534.155
22.63000 534.805
22.64000 531.621
22.65000 528.480
22.66000 525.059
22.67000 521.582
22.68000 518.492
22.69000 522.310
22.70000 528.679
22.71000 534.967
22.72000 540.490
22.73000 545.825
22.74000 550.461
22.75000 545.376
22.76000 539.725
22.77000 533.814
22.78000 526.938
22.79000 519.971
22.80000 514.084
22.81000 510.895
22.82000 507.833
22.83000 505.903
22.84000 523.860
22.85000 537.088
22.86000 540.222
22.87000 532.255
22.88000 524.296
22.89000 518.391
22.90000 513.937
22.91000 509.580
22.92000 507.702
22.93000 507.025
22.94000 506.825
22.95000 513.193
22.96000 521.651
22.97000 528.216
22.98000 520.141
22.99000 508.983
23.00000 499.546
23.01000 489.037
23.02000 480.123
23.03000 474.815
23.04000 481.037
23.05000 488.123
23.06000 494.086
23.07000 497.629
23.08000 501.089
23.09000 503.139
23.10000 506.632
23.11000 509.110
23.12000 509.146
23.13000 506.918
23.14000 504.732
23.15000 505.486
23.16000 508.023
23.17000 510.481
23.18000 516.416
23.19000 523.374
23.20000 528.994
23.21000 520.050
23.22000 507.120
23.23000 495.403
23.24000 491.503
23.25000 488.997
23.26000 486.940
23.27000 496.242
23.28000 504.892
23.29000 510.355
23.30000 507.027
23.31000 503.191
23.32000 503.570
23.33000 511.784
23.34000 520.173
23.35000 524.806
23.36000 516.327
23.37000 510.472
23.38000 509.231
23.39000 511.624
23.40000 513.883
23.41000 510.693
23.42000 504.656
23.43000 498.880
23.44000 501.120
23.45000 505.835
23.46000 509.968
23.47000 508.962
23.48000 506.752
23.49000 504.502
23.50000 502.040
23.51000 499.547
23.52000 497.567
23.53000 497.119
23.54000 496.866
23.55000 493.755
23.56000 483.835
23.57000 473.623
23.58000 470.390
23.59000 478.318
23.60000 486.393
23.61000 490.514
23.62000 510.984
23.63000 524.567
23.64000 521.186
23.65000 506.386
23.66000 492.048
23.67000 490.350
23.68000 494.350
23.69000 498.122
23.70000 505.341
23.71000 512.914
23.72000 518.407
23.73000 508.764
23.74000 496.095
23.75000 486.094
23.76000 488.363
23.77000 492.160
23.78000 495.065
23.79000 499.386
23.80000 502.872
23.81000 504.475
23.82000 502.204
23.83000 499.817
23.84000 497.616
23.85000 495.670
23.86000 493.727
23.87000 491.363
23.88000 488.633
23.89000 485.961
23.90000 486.571
23.91000 489.078
23.92000 491.420
23.93000 490.499
23.94000 488.308
23.95000 486.276
23.96000 493.431
23.97000 502.033
23.98000 508.080
23.99000 498.576
24.00000 486.444
24.01000 478.853
24.02000 489.117
24.03000 501.201
24.04000 510.079
24.05000 500.365
24.06000 492.093
24.07000 485.979
24.08000 483.687
24.09000 481.469
24.10000 479.089
24.11000 476.522
24.12000 473.962
24.13000 480.415
24.14000 493.520
24.15000 506.228
24.16000 504.849
24.17000 496.451
24.18000 488.601
24.19000 488.991
24.20000 492.149
24.21000 495.023
24.22000 495.692
24.23000 495.850
24.24000 495.525
24.25000 492.723
24.26000 489.570
24.27000 485.987
24.28000 480.952
24.29000 475.799
24.30000 472.180
24.31000 480.693
24.32000 487.494
24.33000 489.945
24.34000 485.773
24.35000 481.532
24.36000 478.056
24.37000 475.337
24.38000 472.637
24.39000 480.254
24.40000 494.255
24.41000 507.549
24.42000 503.483
24.43000 491.951
24.44000 481.429
24.45000 482.834
24.46000 487.687
24.47000 492.011
24.48000 495.405
24.49000 498.202
24.50000 499.464
24.51000 494.015
24.52000 487.781
24.53000 482.215
24.54000 478.591
24.55000 475.090
24.56000 472.752
24.57000 476.945
24.58000 480.180
24.59000 483.963
24.60000 488.462
24.61000 492.944
24.62000 487.727
24.63000 474.417
24.64000 461.282
24.65000 468.099
24.66000 485.431
24.67000 501.828
24.68000 501.327
24.69000 494.552
24.70000 487.914
24.71000 482.580
24.72000 477.569
24.73000 473.211
24.74000 468.519
24.75000 464.469
24.76000 463.109
24.77000 471.819
24.78000 481.487
24.79000 487.143
24.80000 482.729
24.81000 477.830
24.82000 474.735
24.83000 477.231
24.84000 479.105
24.85000 481.792
24.86000 485.380
24.87000 488.924
24.88000 486.158
24.89000 478.899
24.90000 471.795
24.91000 468.866
24.92000 467.959
24.93000 467.480
24.94000 472.935
24.95000 480.292
24.96000 485.818
24.97000 477.089
24.98000 465.339
24.99000 455.390
25.00000 462.910
25.01000 471.159
25.02000 477.430
25.03000 477.340
25.04000 476.768
25.05000 476.160
25.06000 475.473
25.07000 474.784
25.08000 474.375
25.09000 479.429
25.10000 483.036
25.11000 481.572
25.12000 475.371
25.13000 469.290
25.14000 471.594
25.15000 479.017
25.16000 486.210
25.17000 484.574
25.18000 479.597
25.19000 475.740
25.20000 484.189
25.21000 496.029
25.22000 505.464
25.23000 499.308
25.24000 490.351
25.25000 482.989
25.26000 477.298
25.27000 472.773
25.28000 469.535
25.29000 469.868
25.30000 470.409
25.31000 471.029
25.32000 471.794
25.33000 472.563
25.34000 472.988
25.35000 473.602
25.36000 474.025
25.37000 474.146
25.38000 474.028
25.39000 473.899
25.40000 473.289
25.41000 472.428
25.42000 471.604
25.43000 471.027
25.44000 470.572
25.45000 470.945
25.46000 478.690
25.47000 488.176
25.48000 494.402
25.49000 482.850
25.50000 468.612
25.51000 457.291
25.52000 459.648
25.53000 462.524
25.54000 464.600
25.55000 464.760
25.56000 464.836
25.57000 466.522
25.58000 470.795
25.59000 475.104
25.60000 477.310
25.61000 468.232
25.62000 462.169
25.63000 460.371
25.64000 461.462
25.65000 462.604
25.66000 465.194
25.67000 468.440
25.68000 471.503
25.69000 467.038
25.70000 460.838
25.71000 455.026
25.72000 452.069
25.73000 449.687
25.74000 448.427
25.75000 452.371
25.76000 456.967
25.77000 460.490
25.78000 456.359
25.79000 452.675
25.80000 451.438
25.81000 455.263
25.82000 459.243
25.83000 464.282
25.84000 470.782
25.85000 477.287
25.86000 477.125
25.87000 471.067
25.88000 465.125
25.89000 465.863
25.90000 470.487
25.91000 474.713
25.92000 470.946
25.93000 464.051
25.94000 457.650
25.95000 455.095
25.96000 453.702
25.97000 452.745
25.98000 454.458
25.99000 456.624
26.00000 457.720
26.01000 454.579
26.02000 451.002
26.03000 448.370
26.04000 451.990
26.05000 455.050
26.06000 455.175
26.07000 450.071
26.08000 444.864
26.09000 441.421
26.10000 440.053
26.11000 438.692
26.12000 441.694
26.13000 447.939
26.14000 454.043
26.15000 455.036
26.16000 453.466
26.17000 452.310
26.18000 457.423
26.19000 464.656
26.20000 471.244
26.21000 472.158
26.22000 471.840
26.23000 470.723
26.24000 465.475
26.25000 459.638
26.26000 455.623
26.27000 457.797
26.28000 460.481
26.29000 462.369
26.30000 456.996
26.31000 452.709
26.32000 452.043
26.33000 456.928
26.34000 461.873
26.35000 463.997
26.36000 463.319
26.37000 462.646
26.38000 459.189
26.39000 454.018
26.40000 449.226
26.41000 453.867
26.42000 462.590
26.43000 470.802
26.44000 472.926
26.45000 473.280
26.46000 473.595
26.47000 469.984
26.48000 466.190
26.49000 461.312
26.50000 451.664
26.51000 441.454
26.52000 433.806
26.53000 433.654
26.54000 433.986
26.55000 434.208
26.56000 446.952
26.57000 456.653
26.58000 462.709
26.59000 463.983
26.60000 465.223
26.61000 459.155
26.62000 446.949
26.63000 434.901
26.64000 432.871
26.65000 436.302
26.66000 439.853
26.67000 445.580
26.68000 452.121
26.69000 458.154
26.70000 459.325
26.71000 459.284
26.72000 459.247
26.73000 455.348
26.74000 451.488
26.75000 448.370
26.76000 448.048
26.77000 447.995
26.78000 449.345
26.79000 454.240
26.80000 459.307
26.81000 462.517
26.82000 461.237
26.83000 460.255
26.84000 459.465
26.85000 458.891
26.86000 458.299
26.87000 454.987
26.88000 449.725
26.89000 444.573
26.90000 444.727
26.91000 447.311
26.92000 449.538
26.93000 446.777
26.94000 442.408
26.95000 438.285
26.96000 436.089
26.97000 434.304
26.98000 432.791
26.99000 429.382
27.00000 426.311
27.01000 426.444
27.02000 436.947
27.03000 448.242
27.04000 453.294
27.05000 444.733
27.06000 435.696
27.07000 430.316
27.08000 436.400
27.09000 440.780
27.10000 445.157
27.11000 449.532
27.12000 453.837
27.13000 453.174
27.14000 449.458
27.15000 445.856
27.16000 440.076
27.17000 433.751
27.18000 428.267
27.19000 432.112
27.20000 438.543
27.21000 444.555
27.22000 447.834
27.23000 450.617
27.24000 452.908
27.25000 455.151
27.26000 456.991
27.27000 456.878
27.28000 451.310
27.29000 445.420
27.30000 441.377
27.31000 440.809
27.32000 440.322
27.33000 440.051
27.34000 436.590
27.35000 434.197
27.36000 433.488
27.37000 434.123
27.38000 434.804
27.39000 437.451
27.40000 441.136
27.41000 444.666
27.42000 452.118
27.43000 460.372
27.44000 467.070
27.45000 459.819
27.46000 449.254
27.47000 440.315
27.48000 440.309
27.49000 441.663
27.50000 442.740
27.51000 439.900
27.52000 437.327
27.53000 434.326
27.54000 430.293
27.55000 426.214
27.56000 427.164
27.57000 436.258
27.58000 445.464
27.59000 450.194
27.60000 454.405
27.61000 457.178
27.62000 452.984
27.63000 444.044
27.64000 435.296
27.65000 431.976
27.66000 431.131
27.67000 430.334
27.68000 434.770
27.69000 440.315
27.70000 445.022
27.71000 443.545
27.72000 440.816
27.73000 438.302
27.74000 436.797
27.75000 435.420
27.76000 434.362
27.77000 430.563
27.78000 427.407
27.79000 429.513
27.80000 442.562
27.81000 455.950
27.82000 460.668
27.83000 453.351
27.84000 445.960
27.85000 438.872
27.86000 432.064
27.87000 425.424
27.88000 428.750
27.89000 437.908
27.90000 446.729
27.91000 448.698
27.92000 447.968
27.93000 447.291
27.94000 445.559
27.95000 443.746
27.96000 441.786
27.97000 438.928
27.98000 435.915
27.99000 433.612
28.00000 434.134
28.01000 434.949
28.02000 435.550
28.03000 438.029
28.04000 440.028
28.05000 440.990
28.06000 440.091
28.07000 439.155
28.08000 438.220
28.09000 437.285
28.10000 436.353
28.11000 429.431
28.12000 418.044
28.13000 407.066
28.14000 411.099
28.15000 422.702
28.16000 434.128
28.17000 442.831
28.18000 450.608
28.19000 457.699
28.20000 452.104
28.21000 444.606
28.22000 438.712
28.23000 441.175
28.24000 444.838
28.25000 446.421
28.26000 440.898
28.27000 434.782
28.28000 430.471
28.29000 434.377
28.30000 437.587
28.31000 438.713
28.32000 436.626
28.33000 434.504
28.34000 434.262
28.35000 435.903
28.36000 437.532
28.37000 430.573
28.38000 418.232
28.39000 406.397
28.40000 407.307
28.41000 413.765
28.42000 420.223
28.43000 426.679
28.44000 433.134
28.45000 438.896
28.46000 434.861
28.47000 429.710
28.48000 426.700
28.49000 433.174
28.50000 440.775
28.51000 443.320
28.52000 430.980
28.53000 417.670
28.54000 408.741
28.55000 415.383
28.56000 420.629
28.57000 424.500
28.58000 426.557
28.59000 428.604
28.60000 429.367
28.61000 429.045
28.62000 428.727
28.63000 432.621
28.64000 438.700
28.65000 444.454
28.66000 444.188
28.67000 441.658
28.68000 438.543
28.69000 429.770
28.70000 419.575
28.71000 410.689
28.72000 404.465
28.73000 399.514
28.74000 396.795
28.75000 402.529
28.76000 409.081
28.77000 415.361
28.78000 420.948
28.79000 426.502
28.80000 430.027
28.81000 436.354
28.82000 440.982
28.83000 437.301
28.84000 424.292
28.85000 411.333
28.86000 407.137
28.87000 409.256
28.88000 411.331
28.89000 419.769
28.90000 430.824
28.91000 441.035
28.92000 439.309
28.93000 433.714
28.94000 428.788
28.95000 429.154
28.96000 430.655
28.97000 431.929
28.98000 429.932
28.99000 427.887
29.00000 426.049
29.01000 424.891
29.02000 423.786
29.03000 422.175
29.04000 419.456
29.05000 416.697
29.06000 415.050
29.07000 421.295
29.08000 425.772
29.09000 426.926
29.10000 424.933
29.11000 422.969
29.12000 423.126
29.13000 424.593
29.14000 426.016
29.15000 426.109
29.16000 425.674
29.17000 425.006
29.18000 421.741
29.19000 417.751
29.20000 414.097
29.21000 412.651
29.22000 411.608
29.23000 410.748
29.24000 412.390
29.25000 413.971
29.26000 416.688
29.27000 422.595
29.28000 428.694
29.29000 431.421
29.30000 427.768
29.31000 423.964
29.32000 421.845
29.33000 426.458
29.34000 429.650
29.35000 428.601
29.36000 424.146
29.37000 419.782
29.38000 419.331
29.39000 420.962
29.40000 422.524
29.41000 421.184
29.42000 418.963
29.43000 416.489
29.44000 411.732
29.45000 406.429
29.46000 402.733
29.47000 407.921
29.48000 414.470
29.49000 419.692
29.50000 419.794
29.51000 419.504
29.52000 419.019
29.53000 418.065
29.54000 417.089
29.55000 419.455
29.56000 427.264
29.57000 435.149
29.58000 439.214
29.59000 428.139
29.60000 420.708
29.61000 416.963
29.62000 415.745
29.63000 414.655
29.64000 417.223
29.65000 421.470
29.66000 425.483
29.67000 428.506
29.68000 431.001
29.69000 433.201
29.70000 433.210
29.71000 432.772
29.72000 433.372
29.73000 438.837
29.74000 444.923
29.75000 449.603
29.76000 449.278
29.77000 448.738
29.78000 448.134
29.79000 447.394
29.80000 446.650
29.81000 444.283
29.82000 439.649
29.83000 435.002
29.84000 431.938
29.85000 430.298
29.86000 428.755
29.87000 433.133
29.88000 440.997
29.89000 448.487
29.90000 448.279
29.91000 445.020
29.92000 441.991
29.93000 446.336
29.94000 452.026
29.95000 457.055
29.96000 457.982
29.97000 458.201
29.98000 457.977
29.99000 455.974
30.00000 453.785
30.01000 452.169
30.02000 450.793
30.03000 449.737
30.04000 445.919
30.05000 437.118
30.06000 428.216
30.07000 425.907
30.08000 431.452
30.09000 436.997
30.10000 440.714
30.11000 443.022
30.12000 445.335
30.13000 447.862
30.14000 450.497
30.15000 452.702
30.16000 448.230
30.17000 441.475
30.18000 435.311
30.19000 437.610
30.20000 441.354
30.21000 444.600
30.22000 445.230
30.23000 445.482
30.24000 445.863
30.25000 446.688
30.26000 447.551
30.27000 448.160
30.28000 447.250
30.29000 446.513
30.30000 445.511
30.31000 444.097
30.32000 442.679
30.33000 441.341
30.34000 440.083
30.35000 438.834
30.36000 442.440
30.37000 449.114
30.38000 455.283
30.39000 448.527
30.40000 436.113
30.41000 424.923
30.42000 428.593
30.43000 436.641
30.44000 443.829
30.45000 447.816
30.46000 450.749
30.47000 452.115
30.48000 446.498
30.49000 440.044
30.50000 436.376
30.51000 440.957
30.52000 446.082
30.53000 449.527
30.54000 445.385
30.55000 442.152
30.56000 442.261
30.57000 446.808
30.58000 451.371
30.59000 452.135
30.60000 449.663
30.61000 447.222
30.62000 446.579
30.63000 446.935
30.64000 447.140
30.65000 444.503
30.66000 440.791
30.67000 437.615
30.68000 439.659
30.69000 443.021
30.70000 445.955
30.71000 448.450
30.72000 450.522
30.73000 453.496
30.74000 459.908
30.75000 466.655
30.76000 472.367
30.77000 475.433
30.78000 478.367
30.79000 480.234
30.80000 486.806
30.81000 491.640
30.82000 492.196
30.83000 487.918
30.84000 483.678
30.85000 486.398
30.86000 494.166
30.87000 501.777
30.88000 504.917
30.89000 505.856
30.90000 507.469
30.91000 518.708
30.92000 533.085
30.93000 547.172
30.94000 558.934
30.95000 570.194
30.96000 579.761
30.97000 588.638
30.98000 596.009
30.99000 608.304
31.00000 636.734
31.01000 666.421
31.02000 699.062
31.03000 738.220
31.04000 777.612
31.05000 801.188
31.06000 854.996
31.07000 893.387
31.08000 943.894
31.09000 1005.952
31.10000 1068.384
31.11000 1158.756
31.12000 1266.499
31.13000 1371.038
31.14000 1486.035
31.15000 1599.223
31.16000 1713.916
31.17000 1845.591
31.18000 1982.032
31.19000 2122.341
31.20000 2288.263
31.21000 2458.884
31.22000 2599.646
31.23000 2794.760
31.24000 2960.465
31.25000 3123.202
31.26000 3277.559
31.27000 3431.408
31.28000 3567.223
31.29000 3668.710
31.30000 3769.369
31.31000 3825.616
31.32000 3912.205
31.33000 3972.181
31.34000 4012.686
31.35000 4037.458
31.36000 4060.902
31.37000 4026.202
31.38000 3960.390
31.39000 3897.290
31.40000 3810.672
31.41000 3721.873
31.42000 3626.140
31.43000 3467.170
31.44000 3292.986
31.45000 3119.817
31.46000 2952.292
31.47000 2785.639
31.48000 2652.571
31.49000 2456.578
31.50000 2293.666
31.51000 2131.244
31.52000 1970.018
31.53000 1808.845
31.54000 1657.386
31.55000 1521.843
31.56000 1386.531
31.57000 1316.543
31.58000 1188.787
31.59000 1102.693
31.60000 1024.081
31.61000 950.632
31.62000 878.026
31.63000 829.913
31.64000 793.105
31.65000 758.306
31.66000 716.183
31.67000 675.393
31.68000 637.131
31.69000 617.840
31.70000 602.440
31.71000 586.791
31.72000 569.960
31.73000 552.977
31.74000 539.899
31.75000 526.406
31.76000 515.699
31.77000 506.301
31.78000 499.657
31.79000 493.101
31.80000 488.781
31.81000 487.602
31.82000 486.445
31.83000 482.507
31.84000 476.061
31.85000 469.652
31.86000 465.561
31.87000 462.842
31.88000 460.106
31.89000 457.014
31.90000 453.781
31.91000 450.774
31.92000 451.950
31.93000 454.022
31.94000 454.297
31.95000 443.327
31.96000 430.403
31.97000 421.159
31.98000 426.751
31.99000 433.905
32.00000 439.198
32.01000 424.454
32.02000 412.155
32.03000 408.134
32.04000 419.137
32.05000 430.452
32.06000 435.141
32.07000 431.888
32.08000 428.627
32.09000 424.000
32.10000 418.358
32.11000 412.864
32.12000 412.997
32.13000 416.000
32.14000 419.067
32.15000 423.113
32.16000 427.495
32.17000 431.497
32.18000 426.046
32.19000 419.287
32.20000 413.171
32.21000 410.440
32.22000 408.202
32.23000 405.764
32.24000 402.631
32.25000 399.440
32.26000 397.181
32.27000 399.309
32.28000 401.061
32.29000 400.563
32.30000 396.551
32.31000 392.497
32.32000 394.089
32.33000 401.407
32.34000 408.679
32.35000 408.814
32.36000 404.327
32.37000 399.810
32.38000 394.546
32.39000 388.952
32.40000 384.050
32.41000 387.622
32.42000 393.705
32.43000 399.143
32.44000 389.310
32.45000 378.146
32.46000 369.149
32.47000 369.879
32.48000 371.782
32.49000 373.008
32.50000 372.211
32.51000 371.279
32.52000 370.652
32.53000 375.643
32.54000 379.473
32.55000 380.382
32.56000 377.388
32.57000 374.379
32.58000 374.786
32.59000 378.119
32.60000 381.412
32.61000 377.439
32.62000 369.567
32.63000 361.850
32.64000 357.080
32.65000 353.432
32.66000 350.852
32.67000 358.769
32.68000 369.357
32.69000 378.604
32.70000 383.853
32.71000 387.783
32.72000 389.925
32.73000 385.203
32.74000 379.805
32.75000 375.158
32.76000 372.438
32.77000 369.816
32.78000 368.144
32.79000 362.678
32.80000 358.654
32.81000 360.886
32.82000 370.234
32.83000 379.527
32.84000 378.366
32.85000 369.576
32.86000 360.960
32.87000 363.580
32.88000 371.367
32.89000 378.410
32.90000 374.719
32.91000 367.507
32.92000 361.030
32.93000 360.467
32.94000 361.190
32.95000 361.804
32.96000 361.795
32.97000 361.715
32.98000 361.345
32.99000 360.023
33.00000 358.626
33.01000 355.904
33.02000 350.239
33.03000 344.467
33.04000 341.003
33.05000 342.019
33.06000 342.771
33.07000 345.722
33.08000 350.786
33.09000 355.810
33.10000 357.858
33.11000 358.044
33.12000 358.225
33.13000 354.715
33.14000 349.915
33.15000 345.683
33.16000 347.935
33.17000 352.018
33.18000 356.213
33.19000 361.167
33.20000 366.260
33.21000 370.467
33.22000 367.189
33.23000 363.789
33.24000 360.316
33.25000 356.636
33.26000 352.944
33.27000 349.930
33.28000 348.217
33.29000 346.535
33.30000 345.592
33.31000 340.547
33.32000 337.059
33.33000 341.224
33.34000 351.611
33.35000 361.797
33.36000 362.981
33.37000 359.319
33.38000 355.807
33.39000 352.109
33.40000 348.591
33.41000 345.950
33.42000 351.374
33.43000 358.751
33.44000 364.587
33.45000 361.779
33.46000 357.628
33.47000 354.309
33.48000 347.839
33.49000 342.376
33.50000 337.909
33.51000 335.883
33.52000 333.970
33.53000 334.943
33.54000 340.675
33.55000 346.477
33.56000 349.488
33.57000 351.039
33.58000 352.094
33.59000 354.242
33.60000 357.148
33.61000 359.781
33.62000 354.342
33.63000 345.156
33.64000 336.467
33.65000 337.317
33.66000 340.842
33.67000 343.283
33.68000 337.535
33.69000 330.094
33.70000 325.150
33.71000 332.064
33.72000 340.512
33.73000 347.028
33.74000 345.064
33.75000 343.018
33.76000 342.078
33.77000 343.480
33.78000 344.958
33.79000 343.249
33.80000 337.030
33.81000 330.780
33.82000 330.936
33.83000 336.914
33.84000 342.827
33.85000 344.667
33.86000 344.080
33.87000 343.443
33.88000 341.771
33.89000 339.685
33.90000 337.742
33.91000 332.973
33.92000 327.974
33.93000 324.680
33.94000 332.123
33.95000 341.445
33.96000 347.868
33.97000 342.535
33.98000 335.953
33.99000 331.075
34.00000 338.315
34.01000 344.463
34.02000 345.064
34.03000 335.533
34.04000 325.787
34.05000 320.873
34.06000 321.789
34.07000 322.717
34.08000 324.747
34.09000 327.613
34.10000 330.445
34.11000 331.968
34.12000 332.818
34.13000 333.426
34.14000 330.202
34.15000 325.652
34.16000 321.494
34.17000 324.210
34.18000 328.028
34.19000 330.334
34.20000 324.603
34.21000 317.692
34.22000 314.070
34.23000 321.899
34.24000 330.708
34.25000 336.953
34.26000 338.906
34.27000 340.256
34.28000 339.897
34.29000 336.852
34.30000 333.775
34.31000 333.861
34.32000 337.178
34.33000 340.476
34.34000 339.289
34.35000 335.198
34.36000 331.054
34.37000 325.527
34.38000 319.387
34.39000 314.120
34.40000 319.641
34.41000 328.378
34.42000 336.197
34.43000 328.923
34.44000 319.996
34.45000 314.067
34.46000 321.671
34.47000 330.923
34.48000 336.205
34.49000 329.586
34.50000 322.167
34.51000 317.159
34.52000 325.389
34.53000 331.797
34.54000 334.149
34.55000 331.046
34.56000 327.916
34.57000 326.802
34.58000 327.428
34.59000 328.046
34.60000 327.946
34.61000 327.451
34.62000 326.931
34.63000 325.924
34.64000 324.732
34.65000 323.640
34.66000 323.551
34.67000 323.718
34.68000 323.865
34.69000 330.835
34.70000 337.773
34.71000 343.043
34.72000 341.869
34.73000 340.055
34.74000 336.944
34.75000 330.480
34.76000 323.844
34.77000 319.601
34.78000 320.803
34.79000 321.749
34.80000 320.980
34.81000 318.245
34.82000 315.539
34.83000 318.355
34.84000 325.227
34.85000 331.966
34.86000 330.106
34.87000 324.261
34.88000 318.758
34.89000 318.237
34.90000 319.361
34.91000 320.761
34.92000 324.395
34.93000 328.519
34.94000 332.031
34.95000 321.821
34.96000 311.642
34.97000 304.359
34.98000 306.684
34.99000 309.773
35.00000 313.855
35.01000 320.156
35.02000 326.539
35.03000 330.379
35.04000 332.337
35.05000 333.717
35.06000 333.309
35.07000 331.172
35.08000 329.028
35.09000 326.347
35.10000 323.327
35.11000 320.394
35.12000 316.103
35.13000 311.483
35.14000 307.413
35.15000 309.644
35.16000 313.667
35.17000 317.414
35.18000 319.316
35.19000 320.876
35.20000 322.165
35.21000 315.214
35.22000 308.704
35.23000 305.529
35.24000 311.884
35.25000 318.828
35.26000 322.848
35.27000 321.232
35.28000 319.476
35.29000 318.489
35.30000 306.593
35.31000 298.330
35.32000 297.718
35.33000 303.371
35.34000 308.920
35.35000 309.760
35.36000 308.048
35.37000 306.406
35.38000 300.912
35.39000 294.463
35.40000 289.049
35.41000 293.240
35.42000 299.771
35.43000 306.096
35.44000 311.257
35.45000 316.235
35.46000 320.221
35.47000 322.395
35.48000 324.017
35.49000 323.707
35.50000 318.632
35.51000 313.336
35.52000 311.115
35.53000 313.996
35.54000 316.953
35.55000 318.493
35.56000 308.795
35.57000 302.278
35.58000 301.010
35.59000 303.408
35.60000 305.868
35.61000 310.159
35.62000 315.304
35.63000 320.175
35.64000 317.681
35.65000 313.255
35.66000 309.467
35.67000 310.540
35.68000 312.622
35.69000 313.983
35.70000 311.887
35.71000 309.341
35.72000 307.375
35.73000 298.700
35.74000 291.430
35.75000 288.031
35.76000 292.878
35.77000 297.997
35.78000 305.556
35.79000 316.590
35.80000 327.647
35.81000 332.990
35.82000 333.102
35.83000 333.121
35.84000 327.096
35.85000 317.448
35.86000 308.072
35.87000 304.508
35.88000 303.288
35.89000 302.151
35.90000 302.330
35.91000 302.813
35.92000 303.437
35.93000 304.951
35.94000 306.623
35.95000 307.510
35.96000 305.197
35.97000 302.542
35.98000 300.570
35.99000 309.443
36.00000 316.815
36.01000 320.753
36.02000 318.383
36.03000 315.876
36.04000 312.592
36.05000 308.365
36.06000 304.145
36.07000 300.104
36.08000 296.224
36.09000 292.428
36.10000 291.928
36.11000 293.131
36.12000 294.575
36.13000 299.882
36.14000 306.534
36.15000 312.617
36.16000 310.356
36.17000 306.627
36.18000 302.922
36.19000 299.340
36.20000 295.777
36.21000 294.757
36.22000 302.646
36.23000 311.303
36.24000 317.453
36.25000 308.351
36.26000 300.939
36.27000 296.475
36.28000 296.672
36.29000 296.927
36.30000 297.436
36.31000 298.207
36.32000 298.973
36.33000 296.337
36.34000 291.505
36.35000 286.840
36.36000 286.641
36.37000 288.432
36.38000 290.320
36.39000 293.420
36.40000 296.884
36.41000 299.987
36.42000 295.040
36.43000 289.334
36.44000 286.458
36.45000 296.444
36.46000 308.007
36.47000 314.554
36.48000 305.974
36.49000 296.366
36.50000 289.867
36.51000 295.825
36.52000 300.533
36.53000 302.348
36.54000 300.243
36.55000 298.119
36.56000 297.681
36.57000 298.708
36.58000 299.722
36.59000 299.054
36.60000 297.462
36.61000 296.085
36.62000 298.846
36.63000 303.199
36.64000 306.789
36.65000 302.759
36.66000 296.766
36.67000 291.522
36.68000 290.910
36.69000 291.047
36.70000 292.105
36.71000 296.740
36.72000 301.734
36.73000 303.402
36.74000 296.424
36.75000 288.998
36.76000 284.240
36.77000 285.532
36.78000 286.555
36.79000 289.087
36.80000 293.359
36.81000 297.596
36.82000 295.135
36.83000 287.721
36.84000 280.448
36.85000 286.366
36.86000 298.328
36.87000 309.329
36.88000 306.178
36.89000 298.328
36.90000 291.552
36.91000 293.545
36.92000 297.469
36.93000 300.814
36.94000 303.187
36.95000 305.070
36.96000 304.738
36.97000 297.015
36.98000 288.699
36.99000 284.253
37.00000 288.499
37.01000 293.072
37.02000 295.830
37.03000 303.788
37.04000 309.489
37.05000 310.944
37.06000 308.267
37.07000 305.641
37.08000 307.197
37.09000 311.401
37.10000 315.485
37.11000 312.208
37.12000 306.122
37.13000 300.490
37.14000 300.131
37.15000 301.278
37.16000 302.378
37.17000 303.153
37.18000 303.868
37.19000 304.460
37.20000 303.746
37.21000 303.032
37.22000 302.644
37.23000 303.191
37.24000 303.796
37.25000 303.074
37.26000 299.781
37.27000 296.422
37.28000 294.528
37.29000 289.992
37.30000 286.836
37.31000 284.814
37.32000 283.726
37.33000 282.664
37.34000 282.825
37.35000 283.652
37.36000 284.446
37.37000 289.136
37.38000 294.862
37.39000 299.642
37.40000 295.575
37.41000 289.339
37.42000 284.432
37.43000 287.076
37.44000 290.911
37.45000 293.985
37.46000 287.466
37.47000 281.462
37.48000 277.680
37.49000 279.409
37.50000 281.398
37.51000 283.240
37.52000 284.838
37.53000 286.432
37.54000 287.265
37.55000 293.090
37.56000 297.014
37.57000 298.493
37.58000 298.251
37.59000 298.024
37.60000 298.222
37.61000 298.619
37.62000 298.995
37.63000 294.633
37.64000 289.237
37.65000 284.898
37.66000 288.678
37.67000 294.156
37.68000 298.820
37.69000 299.561
37.70000 299.788
37.71000 299.963
37.72000 303.916
37.73000 307.277
37.74000 306.809
37.75000 298.139
37.76000 289.194
37.77000 284.796
37.78000 286.910
37.79000 289.074
37.80000 289.876
37.81000 289.420
37.82000 288.976
37.83000 289.231
37.84000 289.909
37.85000 290.594
37.86000 291.424
37.87000 292.312
37.88000 293.141
37.89000 294.156
37.90000 295.121
37.91000 295.896
37.92000 295.454
37.93000 294.796
37.94000 293.907
37.95000 292.066
37.96000 290.122
37.97000 288.677
37.98000 287.156
37.99000 285.970
38.00000 285.933
38.01000 288.019
38.02000 290.151
38.03000 289.296
38.04000 284.788
38.05000 280.280
38.06000 283.655
38.07000 293.150
38.08000 302.496
38.09000 305.896
38.10000 306.207
38.11000 306.474
38.12000 306.022
38.13000 305.318
38.14000 304.674
38.15000 298.281
38.16000 291.402
38.17000 286.411
38.18000 291.590
38.19000 298.284
38.20000 303.495
38.21000 303.487
38.22000 303.023
38.23000 302.693
38.24000 313.769
38.25000 322.574
38.26000 327.287
38.27000 325.494
38.28000 323.618
38.29000 321.954
38.30000 320.511
38.31000 319.077
38.32000 317.735
38.33000 316.473
38.34000 315.441
38.35000 320.632
38.36000 328.612
38.37000 336.817
38.38000 347.857
38.39000 359.753
38.40000 370.418
38.41000 372.753
38.42000 373.347
38.43000 374.891
38.44000 380.776
38.45000 387.198
38.46000 395.816
38.47000 411.099
38.48000 426.839
38.49000 437.509
38.50000 459.424
38.51000 476.013
38.52000 491.338
38.53000 504.944
38.54000 518.539
38.55000 532.404
38.56000 546.505
38.57000 560.446
38.58000 569.234
38.59000 574.921
38.60000 580.649
38.61000 587.164
38.62000 593.983
38.63000 600.973
38.64000 609.680
38.65000 618.832
38.66000 626.849
38.67000 621.250
38.68000 614.485
38.69000 609.431
38.70000 611.063
38.71000 613.370
38.72000 610.825
38.73000 595.583
38.74000 579.677
38.75000 569.461
38.76000 558.692
38.77000 550.831
38.78000 539.838
38.79000 525.210
38.80000 510.552
38.81000 491.203
38.82000 468.362
38.83000 445.950
38.84000 439.246
38.85000 440.285
38.86000 440.548
38.87000 429.254
38.88000 414.101
38.89000 399.057
38.90000 384.910
38.91000 370.961
38.92000 359.057
38.93000 354.005
38.94000 350.561
38.95000 345.773
38.96000 336.470
38.97000 326.801
38.98000 317.754
38.99000 310.110
39.00000 302.519
39.01000 297.929
39.02000 297.923
39.03000 297.952
39.04000 299.862
39.05000 303.615
39.06000 307.360
39.07000 310.411
39.08000 313.019
39.09000 315.554
39.10000 310.563
39.11000 302.761
39.12000 295.365
39.13000 292.726
39.14000 291.456
39.15000 289.891
39.16000 286.320
39.17000 282.370
39.18000 279.096
39.19000 277.134
39.20000 275.639
39.21000 274.996
39.22000 276.817
39.23000 278.793
39.24000 281.529
39.25000 285.745
39.26000 289.999
39.27000 292.403
39.28000 284.086
39.29000 278.283
39.30000 277.621
39.31000 281.224
39.32000 284.749
39.33000 284.644
39.34000 282.549
39.35000 280.537
39.36000 280.533
39.37000 281.224
39.38000 281.571
39.39000 278.680
39.40000 274.990
39.41000 272.007
39.42000 273.068
39.43000 274.771
39.44000 276.138
39.45000 278.076
39.46000 279.691
39.47000 279.613
39.48000 275.313
39.49000 270.812
39.50000 267.855
39.51000 267.492
39.52000 267.170
39.53000 267.001
39.54000 266.875
39.55000 266.793
39.56000 267.240
39.57000 268.059
39.58000 268.984
39.59000 273.191
39.60000 278.947
39.61000 284.403
39.62000 281.863
39.63000 277.178
39.64000 272.833
39.65000 271.110
39.66000 269.940
39.67000 268.830
39.68000 268.011
39.69000 267.231
39.70000 266.626
39.71000 263.236
39.72000 260.376
39.73000 259.077
39.74000 261.141
39.75000 263.319
39.76000 265.228
39.77000 266.749
39.78000 268.266
39.79000 268.133
39.80000 266.470
39.81000 264.778
39.82000 261.114
39.83000 256.252
39.84000 251.733
39.85000 254.700
39.86000 260.722
39.87000 266.340
39.88000 265.214
39.89000 262.521
39.90000 260.084
39.91000 259.296
39.92000 258.801
39.93000 259.402
39.94000 264.531
39.95000 270.153
39.96000 274.341
39.97000 274.522
39.98000 274.482
39.99000 272.898
40.00000 268.443
40.01000 263.923
40.02000 260.270
40.03000 257.684
40.04000 255.105
40.05000 252.305
40.06000 249.345
40.07000 246.463
40.08000 246.747
40.09000 248.685
40.10000 250.676
40.11000 253.532
40.12000 256.692
40.13000 259.587
40.14000 264.543
40.15000 269.384
40.16000 272.732
40.17000 267.983
40.18000 262.019
40.19000 256.782
40.20000 254.124
40.21000 251.692
40.22000 249.958
40.23000 251.467
40.24000 252.724
40.25000 256.672
40.26000 264.925
40.27000 273.234
40.28000 275.204
40.29000 270.563
40.30000 265.947
40.31000 265.173
40.32000 266.962
40.33000 268.426
40.34000 260.960
40.35000 249.469
40.36000 239.228
40.37000 244.909
40.38000 255.424
40.39000 264.860
40.40000 261.770
40.41000 256.879
40.42000 253.565
40.43000 257.511
40.44000 262.361
40.45000 264.606
40.46000 258.902
40.47000 252.646
40.48000 248.397
40.49000 256.389
40.50000 262.629
40.51000 263.219
40.52000 256.063
40.53000 248.863
40.54000 244.060
40.55000 241.364
40.56000 238.698
40.57000 241.810
40.58000 248.113
40.59000 254.109
40.60000 254.021
40.61000 251.564
40.62000 249.647
40.63000 253.220
40.64000 258.226
40.65000 262.615
40.66000 258.212
40.67000 253.156
40.68000 249.268
40.69000 249.973
40.70000 251.147
40.71000 252.296
40.72000 253.380
40.73000 254.462
40.74000 255.158
40.75000 253.062
40.76000 251.493
40.77000 251.084
40.78000 252.029
40.79000 252.961
40.80000 250.923
40.81000 246.661
40.82000 242.478
40.83000 245.631
40.84000 252.199
40.85000 258.345
40.86000 258.140
40.87000 255.802
40.88000 253.292
40.89000 249.365
40.90000 245.121
40.91000 241.495
40.92000 242.161
40.93000 243.234
40.94000 243.765
40.95000 242.461
40.96000 241.007
40.97000 240.843
40.98000 243.613
40.99000 246.496
41.00000 248.244
41.01000 247.676
41.02000 247.253
41.03000 247.823
41.04000 249.372
41.05000 250.894
41.06000 250.122
41.07000 247.880
41.08000 245.700
41.09000 249.272
41.10000 255.022
41.11000 260.110
41.12000 257.371
41.13000 252.366
41.14000 247.806
41.15000 246.302
41.16000 245.378
41.17000 244.610
41.18000 248.548
41.19000 252.259
41.20000 254.516
41.21000 252.542
41.22000 250.297
41.23000 246.510
41.24000 239.699
41.25000 232.807
41.26000 228.900
41.27000 237.767
41.28000 243.969
41.29000 246.092
41.30000 244.809
41.31000 243.548
41.32000 243.264
41.33000 243.521
41.34000 243.767
41.35000 240.947
41.36000 237.239
41.37000 233.824
41.38000 233.201
41.39000 233.272
41.40000 233.358
41.41000 233.533
41.42000 233.724
41.43000 233.877
41.44000 232.078
41.45000 230.470
41.46000 230.601
41.47000 235.103
41.48000 239.815
41.49000 245.049
41.50000 251.162
41.51000 257.289
41.52000 260.510
41.53000 258.276
41.54000 256.763
41.55000 255.848
41.56000 255.359
41.57000 254.835
41.58000 253.238
41.59000 251.130
41.60000 249.131
41.61000 249.272
41.62000 250.035
41.63000 250.712
41.64000 250.730
41.65000 250.608
41.66000 249.943
41.67000 246.626
41.68000 242.956
41.69000 240.108
41.70000 241.569
41.71000 242.990
41.72000 242.358
41.73000 237.276
41.74000 232.039
41.75000 232.084
41.76000 239.788
41.77000 247.555
41.78000 248.619
41.79000 243.421
41.80000 238.286
41.81000 237.507
41.82000 239.387
41.83000 241.208
41.84000 241.716
41.85000 241.684
41.86000 241.655
41.87000 242.582
41.88000 243.662
41.89000 244.587
41.90000 244.508
41.91000 244.248
41.92000 245.133
41.93000 250.779
41.94000 256.948
41.95000 261.550
41.96000 250.204
41.97000 240.638
41.98000 235.101
41.99000 237.101
42.00000 239.274
42.01000 242.219
42.02000 246.120
42.03000 250.018
42.04000 249.344
42.05000 245.068
42.06000 240.832
42.07000 238.272
42.08000 236.593
42.09000 234.973
42.10000 234.317
42.11000 234.003
42.12000 233.714
42.13000 238.113
42.14000 243.016
42.15000 246.273
42.16000 240.540
42.17000 233.450
42.18000 227.380
42.19000 224.952
42.20000 222.847
42.21000 221.344
42.22000 227.178
42.23000 231.874
42.24000 233.862
42.25000 231.490
42.26000 229.060
42.27000 228.036
42.28000 228.487
42.29000 228.936
42.30000 231.555
42.31000 235.592
42.32000 239.488
42.33000 239.454
42.34000 237.638
42.35000 235.792
42.36000 233.558
42.37000 231.206
42.38000 229.093
42.39000 233.481
42.40000 238.466
42.41000 241.913
42.42000 238.235
42.43000 233.662
42.44000 230.352
42.45000 230.920
42.46000 231.760
42.47000 232.332
42.48000 231.575
42.49000 230.979
42.50000 231.553
42.51000 233.742
42.52000 235.937
42.53000 235.146
42.54000 231.709
42.55000 228.309
42.56000 231.718
42.57000 238.921
42.58000 245.835
42.59000 246.942
42.60000 245.775
42.61000 244.312
42.62000 239.824
42.63000 234.541
42.64000 229.904
42.65000 231.368
42.66000 233.519
42.67000 234.327
42.68000 229.824
42.69000 224.775
42.70000 221.936
42.71000 224.950
42.72000 228.277
42.73000 230.424
42.74000 229.660
42.75000 229.061
42.76000 228.213
42.77000 227.073
42.78000 225.941
42.79000 226.419
42.80000 228.110
42.81000 229.771
42.82000 230.562
42.83000 230.905
42.84000 231.246
42.85000 231.578
42.86000 231.908
42.87000 232.064
42.88000 230.781
42.89000 229.173
42.90000 227.799
42.91000 224.505
42.92000 221.497
42.93000 220.548
42.94000 226.598
42.95000 233.226
42.96000 238.607
42.97000 241.137
42.98000 243.556
42.99000 245.026
43.00000 237.259
43.01000 231.643
43.02000 229.616
43.03000 231.156
43.04000 232.683
43.05000 233.121
43.06000 232.856
43.07000 232.597
43.08000 229.605
43.09000 225.631
43.10000 222.149
43.11000 224.518
43.12000 228.591
43.13000 232.273
43.14000 233.249
43.15000 233.709
43.16000 234.091
43.17000 227.512
43.18000 221.390
43.19000 218.045
43.20000 222.832
43.21000 228.143
43.22000 230.065
43.23000 225.299
43.24000 220.354
43.25000 217.542
43.26000 223.455
43.27000 227.600
43.28000 230.942
43.29000 233.608
43.30000 236.162
43.31000 233.193
43.32000 227.162
43.33000 221.361
43.34000 219.850
43.35000 219.937
43.36000 220.616
43.37000 226.966
43.38000 234.733
43.39000 240.200
43.40000 232.319
43.41000 222.288
43.42000 214.213
43.43000 218.879
43.44000 223.657
43.45000 227.748
43.46000 230.104
43.47000 232.376
43.48000 232.620
43.49000 229.418
43.50000 226.159
43.51000 224.440
43.52000 226.224
43.53000 227.439
43.54000 228.958
43.55000 230.696
43.56000 232.300
43.57000 229.650
43.58000 224.965
43.59000 220.520
43.60000 222.819
43.61000 226.945
43.62000 230.454
43.63000 229.121
43.64000 226.756
43.65000 224.703
43.66000 224.182
43.67000 223.867
43.68000 223.622
43.69000 216.931
43.70000 211.216
43.71000 208.612
43.72000 212.796
43.73000 217.217
43.74000 220.682
43.75000 222.751
43.76000 224.808
43.77000 226.321
43.78000 227.322
43.79000 228.308
43.80000 228.228
43.81000 227.492
43.82000 226.725
43.83000 225.247
43.84000 223.476
43.85000 221.822
43.86000 223.119
43.87000 225.037
43.88000 226.457
43.89000 224.621
43.90000 222.195
43.91000 220.457
43.92000 221.593
43.93000 223.048
43.94000 224.135
43.95000 227.028
43.96000 229.368
43.97000 230.519
43.98000 229.433
43.99000 228.296
44.00000 228.237
44.01000 229.522
44.02000 230.809
44.03000 230.428
44.04000 228.723
44.05000 227.073
44.06000 227.697
44.07000 229.524
44.08000 231.089
44.09000 228.275
44.10000 223.901
44.11000 219.888
44.12000 220.104
44.13000 221.192
44.14000 221.997
44.15000 221.247
44.16000 220.260
44.17000 220.517
44.18000 225.237
44.19000 230.357
44.20000 234.021
44.21000 225.237
44.22000 218.110
44.23000 215.124
44.24000 218.846
44.25000 222.660
44.26000 225.570
44.27000 227.523
44.28000 229.466
44.29000 230.276
44.30000 230.312
44.31000 230.290
44.32000 228.638
44.33000 226.242
44.34000 224.168
44.35000 226.286
44.36000 229.691
44.37000 232.752
44.38000 234.013
44.39000 234.797
44.40000 235.179
44.41000 233.685
44.42000 231.953
44.43000 230.437
44.44000 229.588
44.45000 228.787
44.46000 228.240
44.47000 236.349
44.48000 242.612
44.49000 245.211
44.50000 242.722
44.51000 240.202
44.52000 238.503
44.53000 237.538
44.54000 236.583
44.55000 237.455
44.56000 239.354
44.57000 241.171
44.58000 241.343
44.59000 240.866
44.60000 240.985
44.61000 247.259
44.62000 255.160
44.63000 262.100
44.64000 262.147
44.65000 261.172
44.66000 261.776
44.67000 268.670
44.68000 276.215
44.69000 283.540
44.70000 290.277
44.71000 296.983
44.72000 301.318
44.73000 306.338
44.74000 310.018
44.75000 318.372
44.76000 332.256
44.77000 346.130
44.78000 355.510
44.79000 361.484
44.80000 367.351
44.81000 379.358
44.82000 393.943
44.83000 408.408
44.84000 421.033
44.85000 433.032
44.86000 445.045
44.87000 457.166
44.88000 469.312
44.89000 479.713
44.90000 493.127
44.91000 504.811
44.92000 515.862
44.93000 524.742
44.94000 533.441
44.95000 538.996
44.96000 537.321
44.97000 535.358
44.98000 534.162
44.99000 545.298
45.00000 553.355
45.01000 557.292
45.02000 557.109
45.03000 556.875
45.04000 552.187
45.05000 544.607
45.06000 537.231
45.07000 526.478
45.08000 514.840
45.09000 503.372
45.10000 493.957
45.11000 485.142
45.12000 476.280
45.13000 467.084
45.14000 457.824
45.15000 450.118
45.16000 433.586
45.17000 419.029
45.18000 405.946
45.19000 397.204
45.20000 388.746
45.21000 377.380
45.22000 360.240
45.23000 342.942
45.24000 333.080
45.25000 341.327
45.26000 347.116
45.27000 340.366
45.28000 323.006
45.29000 305.859
45.30000 299.369
45.31000 298.827
45.32000 298.304
45.33000 298.807
45.34000 299.640
45.35000 299.383
45.36000 288.593
45.37000 275.156
45.38000 263.365
45.39000 261.194
45.40000 260.584
45.41000 260.092
45.42000 261.026
45.43000 261.896
45.44000 259.913
45.45000 250.679
45.46000 241.088
45.47000 234.930
45.48000 234.645
45.49000 234.459
45.50000 234.360
45.51000 240.422
45.52000 244.499
45.53000 241.663
45.54000 233.842
45.55000 226.200
45.56000 224.367
45.57000 225.329
45.58000 226.242
45.59000 222.245
45.60000 217.087
45.61000 212.621
45.62000 213.646
45.63000 215.850
45.64000 217.678
45.65000 217.647
45.66000 217.364
45.67000 217.145
45.68000 217.585
45.69000 217.975
45.70000 217.723
45.71000 216.058
45.72000 214.343
45.73000 215.278
45.74000 220.104
45.75000 224.964
45.76000 225.905
45.77000 223.135
45.78000 220.342
45.79000 215.875
45.80000 210.373
45.81000 205.133
45.82000 205.833
45.83000 209.000
45.84000 211.961
45.85000 217.856
45.86000 223.950
45.87000 228.622
45.88000 223.941
45.89000 217.556
45.90000 212.336
45.91000 212.024
45.92000 212.260
45.93000 212.437
45.94000 213.282
45.95000 213.973
45.96000 215.408
45.97000 218.250
45.98000 221.127
45.99000 222.434
46.00000 221.773
46.01000 221.107
46.02000 220.213
46.03000 219.139
46.04000 218.070
46.05000 217.216
46.06000 216.477
46.07000 215.756
46.08000 215.348
46.09000 215.052
46.10000 214.780
46.11000 210.524
46.12000 205.878
46.13000 202.369
46.14000 205.146
46.15000 208.888
46.16000 211.480
46.17000 209.925
46.18000 207.995
46.19000 206.611
46.20000 201.136
46.21000 196.812
46.22000 197.875
46.23000 207.718
46.24000 217.685
46.25000 221.098
46.26000 217.535
46.27000 213.988
46.28000 213.022
46.29000 213.817
46.30000 214.619
46.31000 215.618
46.32000 216.707
46.33000 217.171
46.34000 209.441
46.35000 199.177
46.36000 189.943
46.37000 196.178
46.38000 204.407
46.39000 211.480
46.40000 213.134
46.41000 214.096
46.42000 213.833
46.43000 209.762
46.44000 205.419
46.45000 202.451
46.46000 206.418
46.47000 209.550
46.48000 208.834
46.49000 202.740
46.50000 196.611
46.51000 191.673
46.52000 187.805
46.53000 183.977
46.54000 189.162
46.55000 199.425
46.56000 209.209
46.57000 209.128
46.58000 205.137
46.59000 201.419
46.60000 200.550
46.61000 200.438
46.62000 200.340
46.63000 203.134
46.64000 205.967
46.65000 207.086
46.66000 201.329
46.67000 194.854
46.68000 190.236
46.69000 190.593
46.70000 191.222
46.71000 191.630
46.72000 199.567
46.73000 205.490
46.74000 206.612
46.75000 202.015
46.76000 197.424
46.77000 196.458
46.78000 198.259
46.79000 200.030
46.80000 201.952
46.81000 203.883
46.82000 205.520
46.83000 202.576
46.84000 198.064
46.85000 194.465
46.86000 198.603
46.87000 204.502
46.88000 209.559
46.89000 206.511
46.90000 202.947
46.91000 199.501
46.92000 196.462
46.93000 193.458
46.94000 192.783
46.95000 197.498
46.96000 202.430
46.97000 205.443
46.98000 197.294
46.99000 191.373
47.00000 188.514
47.01000 188.740
47.02000 188.971
47.03000 189.617
47.04000 190.533
47.05000 191.425
47.06000 193.898
47.07000 196.913
47.08000 199.394
47.09000 195.394
47.10000 189.483
47.11000 184.598
47.12000 186.915
47.13000 190.625
47.14000 193.717
47.15000 196.124
47.16000 198.051
47.17000 199.351
47.18000 198.794
47.19000 198.115
47.20000 198.697
47.21000 201.797
47.22000 204.967
47.23000 206.780
47.24000 198.110
47.25000 192.030
47.26000 191.791
47.27000 196.526
47.28000 201.112
47.29000 198.119
47.30000 190.871
47.31000 183.893
47.32000 183.855
47.33000 186.282
47.34000 188.570
47.35000 189.497
47.36000 190.080
47.37000 191.015
47.38000 194.021
47.39000 197.365
47.40000 200.065
47.41000 189.805
47.42000 180.437
47.43000 176.779
47.44000 187.717
47.45000 199.383
47.46000 204.400
47.47000 197.974
47.48000 191.350
47.49000 187.833
47.50000 187.907
47.51000 187.955
47.52000 187.332
47.53000 186.221
47.54000 185.154
47.55000 185.512
47.56000 186.560
47.57000 187.556
47.58000 186.924
47.59000 185.851
47.60000 184.927
47.61000 185.198
47.62000 185.727
47.63000 186.408
47.64000 187.847
47.65000 189.389
47.66000 190.591
47.67000 190.227
47.68000 189.839
47.69000 189.135
47.70000 187.732
47.71000 186.304
47.72000 185.812
47.73000 186.704
47.74000 187.608
47.75000 187.255
47.76000 185.703
47.77000 184.174
47.78000 184.337
47.79000 185.552
47.80000 186.753
47.81000 187.641
47.82000 188.397
47.83000 189.104
47.84000 192.887
47.85000 197.108
47.86000 200.313
47.87000 196.794
47.88000 192.040
47.89000 187.759
47.90000 185.477
47.91000 183.421
47.92000 181.879
47.93000 182.903
47.94000 183.823
47.95000 185.670
47.96000 189.282
47.97000 192.936
47.98000 193.693
47.99000 190.789
48.00000 187.878
48.01000 189.409
48.02000 194.511
48.03000 199.380
48.04000 194.069
48.05000 183.308
48.06000 173.178
48.07000 173.841
48.08000 178.397
48.09000 182.584
48.10000 180.197
48.11000 176.654
48.12000 174.281
48.13000 178.427
48.14000 183.580
48.15000 187.942
48.16000 189.433
48.17000 190.662
48.18000 191.545
48.19000 188.203
48.20000 185.500
48.21000 186.097
48.22000 192.106
48.23000 198.192
48.24000 199.758
48.25000 196.480
48.26000 193.216
48.27000 190.471
48.28000 188.112
48.29000 185.864
48.30000 186.839
48.31000 189.300
48.32000 191.805
48.33000 194.873
48.34000 198.117
48.35000 201.037
48.36000 194.290
48.37000 186.633
48.38000 180.370
48.39000 180.689
48.40000 181.854
48.41000 182.017
48.42000 179.043
48.43000 175.844
48.44000 173.653
48.45000 179.819
48.46000 184.637
48.47000 183.700
48.48000 174.669
48.49000 165.586
48.50000 164.382
48.51000 170.299
48.52000 176.156
48.53000 180.532
48.54000 183.954
48.55000 187.017
48.56000 182.583
48.57000 175.161
48.58000 168.836
48.59000 174.057
48.60000 182.365
48.61000 189.678
48.62000 191.583
48.63000 192.414
48.64000 192.590
48.65000 190.121
48.66000 187.373
48.67000 185.786
48.68000 187.328
48.69000 189.043
48.70000 190.158
48.71000 188.710
48.72000 187.611
48.73000 186.744
48.74000 186.155
48.75000 185.562
48.76000 183.856
48.77000 181.296
48.78000 178.780
48.79000 175.036
48.80000 170.812
48.81000 167.085
48.82000 171.151
48.83000 177.899
48.84000 183.865
48.85000 183.136
48.86000 180.875
48.87000 178.935
48.88000 175.834
48.89000 173.070
48.90000 170.772
48.91000 170.082
48.92000 169.529
48.93000 170.674
48.94000 175.770
48.95000 181.027
48.96000 184.247
48.97000 183.957
48.98000 183.720
48.99000 184.256
49.00000 185.577
49.01000 186.879
49.02000 186.459
49.03000 184.906
49.04000 183.393
49.05000 182.182
49.06000 181.152
49.07000 180.226
49.08000 180.564
49.09000 181.276
49.10000 181.732
49.11000 180.378
49.12000 178.672
49.13000 177.248
49.14000 179.199
49.15000 181.155
49.16000 182.719
49.17000 183.119
49.18000 183.442
49.19000 182.442
49.20000 178.785
49.21000 175.053
49.22000 172.913
49.23000 174.157
49.24000 175.039
49.25000 176.703
49.26000 179.036
49.27000 181.365
49.28000 183.422
49.29000 185.327
49.30000 187.161
49.31000 183.365
49.32000 177.790
49.33000 172.853
49.34000 174.197
49.35000 177.140
49.36000 179.648
49.37000 179.584
49.38000 179.098
49.39000 178.705
49.40000 178.164
49.41000 177.713
49.42000 178.959
49.43000 184.568
49.44000 190.399
49.45000 192.804
49.46000 189.281
49.47000 185.654
49.48000 183.722
49.49000 187.765
49.50000 190.501
49.51000 189.640
49.52000 186.152
49.53000 182.744
49.54000 182.003
49.55000 182.560
49.56000 183.090
49.57000 184.774
49.58000 186.680
49.59000 187.466
49.60000 179.240
49.61000 169.054
49.62000 161.535
49.63000 167.377
49.64000 175.056
49.65000 181.051
49.66000 182.348
49.67000 183.089
49.68000 184.848
49.69000 188.871
49.70000 192.976
49.71000 194.226
49.72000 191.228
49.73000 188.190
49.74000 185.902
49.75000 184.334
49.76000 182.749
49.77000 179.932
49.78000 176.345
49.79000 172.817
49.80000 170.685
49.81000 169.141
49.82000 167.696
49.83000 174.183
49.84000 182.116
49.85000 188.620
49.86000 185.588
49.87000 180.793
49.88000 175.930
49.89000 170.775
49.90000 165.587
49.91000 161.691
49.92000 163.875
49.93000 165.874
49.94000 168.199
49.95000 171.149
49.96000 174.114
49.97000 176.364
49.98000 177.706
49.99000 179.042
50.00000 178.313
50.01000 175.911
50.02000 173.547
50.03000 172.860
50.04000 173.077
50.05000 173.408
50.06000 175.722
50.07000 178.756
50.08000 181.546
50.09000 181.562
50.10000 180.977
50.11000 180.892
50.12000 183.615
50.13000 186.774
50.14000 189.202
50.15000 188.955
50.16000 188.462
50.17000 188.108
50.18000 183.141
50.19000 179.177
50.20000 178.466
50.21000 183.121
50.22000 187.854
50.23000 188.027
50.24000 183.279
50.25000 178.552
50.26000 178.447
50.27000 181.520
50.28000 184.515
50.29000 185.234
50.30000 184.896
50.31000 185.076
50.32000 192.191
50.33000 201.476
50.34000 209.843
50.35000 211.068
50.36000 210.848
50.37000 210.635
50.38000 210.462
50.39000 210.293
50.40000 212.329
50.41000 221.297
50.42000 230.771
50.43000 237.272
50.44000 232.675
50.45000 228.960
50.46000 231.844
50.47000 244.066
50.48000 256.354
50.49000 263.565
50.50000 266.157
50.51000 268.723
50.52000 272.320
50.53000 276.442
50.54000 280.513
50.55000 283.477
50.56000 285.998
50.57000 288.583
50.58000 291.862
50.59000 295.328
50.60000 298.381
50.61000 301.498
50.62000 304.194
50.63000 305.133
50.64000 298.943
50.65000 291.996
50.66000 287.464
50.67000 289.481
50.68000 291.865
50.69000 293.417
50.70000 290.152
50.71000 287.683
50.72000 286.319
50.73000 286.288
50.74000 286.253
50.75000 284.351
50.76000 281.005
50.77000 277.716
50.78000 274.594
50.79000 271.659
50.80000 268.444
50.81000 260.780
50.82000 251.577
50.83000 243.140
50.84000 241.305
50.85000 240.991
50.86000 240.721
50.87000 233.284
50.88000 226.103
50.89000 221.048
50.90000 223.392
50.91000 226.369
50.92000 226.928
50.93000 221.826
50.94000 216.489
50.95000 213.212
50.96000 210.676
50.97000 208.865
50.98000 202.875
50.99000 192.615
51.00000 182.445
51.01000 181.125
51.02000 185.656
51.03000 190.071
51.04000 194.441
51.05000 198.591
51.06000 202.341
51.07000 201.135
51.08000 198.451
51.09000 195.143
51.10000 187.391
51.11000 178.768
51.12000 171.566
51.13000 170.621
51.14000 170.469
51.15000 170.732
51.16000 172.239
51.17000 173.828
51.18000 172.952
51.19000 167.093
51.20000 161.090
51.21000 157.639
51.22000 168.940
51.23000 176.894
51.24000 179.445
51.25000 177.334
51.26000 175.182
51.27000 170.811
51.28000 165.180
51.29000 159.752
51.30000 159.825
51.31000 161.871
51.32000 163.761
51.33000 164.107
51.34000 164.057
51.35000 164.528
51.36000 168.102
51.37000 172.189
51.38000 175.498
51.39000 170.766
51.40000 166.264
51.41000 164.282
51.42000 168.816
51.43000 173.684
51.44000 174.083
51.45000 166.700
51.46000 159.177
51.47000 155.158
51.48000 160.389
51.49000 163.957
51.50000 166.414
51.51000 168.056
51.52000 169.550
51.53000 166.033
51.54000 160.061
51.55000 154.382
51.56000 157.602
51.57000 163.297
51.58000 167.966
51.59000 164.327
51.60000 158.869
51.61000 154.804
51.62000 157.764
51.63000 161.696
51.64000 164.770
51.65000 162.962
51.66000 161.210
51.67000 159.533
51.68000 158.026
51.69000 156.526
51.70000 157.369
51.71000 161.719
51.72000 166.104
51.73000 168.092
51.74000 167.764
51.75000 167.464
51.76000 169.435
51.77000 172.834
51.78000 176.069
51.79000 175.395
51.80000 173.069
51.81000 170.890
51.82000 171.870
51.83000 173.577
51.84000 174.555
51.85000 170.636
51.86000 165.806
51.87000 162.222
51.88000 163.985
51.89000 166.359
51.90000 168.145
51.91000 168.007
51.92000 167.807
51.93000 165.956
51.94000 160.924
51.95000 155.813
51.96000 154.139
51.97000 156.861
51.98000 159.596
51.99000 159.683
52.00000 157.607
52.01000 155.632
52.02000 158.211
52.03000 163.258
52.04000 168.144
52.05000 170.214
52.06000 171.255
52.07000 172.214
52.08000 165.075
52.09000 156.928
52.10000 150.350
52.11000 152.624
52.12000 156.286
52.13000 159.610
52.14000 161.696
52.15000 163.667
52.16000 165.088
52.17000 167.662
52.18000 169.676
52.19000 170.259
52.20000 168.469
52.21000 166.644
52.22000 165.947
52.23000 166.476
52.24000 167.003
52.25000 167.089
52.26000 166.869
52.27000 166.616
52.28000 165.367
52.29000 163.653
52.30000 161.739
52.31000 157.124
52.32000 151.658
52.33000 146.728
52.34000 151.835
52.35000 158.154
52.36000 164.047
52.37000 167.904
52.38000 171.495
52.39000 174.349
52.40000 174.867
52.41000 175.213
52.42000 175.451
52.43000 170.272
52.44000 166.253
52.45000 162.579
52.46000 159.398
52.47000 156.223
52.48000 156.848
52.49000 160.955
52.50000 165.022
52.51000 166.503
52.52000 166.434
52.53000 166.150
52.54000 161.293
52.55000 154.591
52.56000 148.947
52.57000 154.641
52.58000 163.404
52.59000 171.132
52.60000 170.109
52.61000 167.896
52.62000 165.794
52.63000 164.142
52.64000 162.538
52.65000 160.700
52.66000 158.222
52.67000 155.708
52.68000 154.068
52.69000 162.611
52.70000 169.043
52.71000 169.431
52.72000 162.473
52.73000 155.525
52.74000 155.587
52.75000 161.102
52.76000 166.527
52.77000 166.855
52.78000 164.625
52.79000 162.547
52.80000 162.904
52.81000 164.108
52.82000 164.912
52.83000 162.235
52.84000 158.750
52.85000 155.753
52.86000 158.335
52.87000 161.220
52.88000 162.869
52.89000 160.189
52.90000 157.135
52.91000 155.678
52.92000 157.981
52.93000 160.441
52.94000 161.956
52.95000 157.894
52.96000 154.931
52.97000 153.924
52.98000 154.931
52.99000 155.922
53.00000 155.305
53.01000 153.620
53.02000 151.977
53.03000 154.917
53.04000 159.673
53.05000 163.974
53.06000 162.581
53.07000 159.479
53.08000 156.797
53.09000 157.124
53.10000 158.044
53.11000 158.814
53.12000 161.193
53.13000 163.333
53.14000 164.940
53.15000 164.941
53.16000 164.833
53.17000 164.105
53.18000 162.115
53.19000 160.088
53.20000 158.919
53.21000 162.209
53.22000 164.528
53.23000 165.188
53.24000 164.407
53.25000 163.636
53.26000 163.356
53.27000 163.358
53.28000 163.360
53.29000 160.535
53.30000 156.856
53.31000 154.054
53.32000 160.033
53.33000 168.275
53.34000 174.441
53.35000 168.143
53.36000 159.766
53.37000 152.976
53.38000 159.215
53.39000 165.361
53.40000 167.869
53.41000 160.907
53.42000 153.455
53.43000 149.358
53.44000 151.140
53.45000 153.031
53.46000 154.044
53.47000 158.621
53.48000 161.731
53.49000 161.871
53.50000 159.816
53.51000 157.804
53.52000 157.299
53.53000 157.537
53.54000 157.763
53.55000 157.312
53.56000 156.686
53.57000 156.553
53.58000 160.442
53.59000 165.217
53.60000 168.549
53.61000 164.553
53.62000 159.535
53.63000 155.606
53.64000 154.873
53.65000 154.492
53.66000 156.372
53.67000 163.335
53.68000 170.488
53.69000 171.937
53.70000 164.798
53.71000 157.573
53.72000 154.110
53.73000 154.310
53.74000 154.555
53.75000 158.475
53.76000 164.722
53.77000 170.591
53.78000 167.417
53.79000 160.396
53.80000 153.815
53.81000 151.790
53.82000 151.133
53.83000 150.892
53.84000 153.482
53.85000 156.601
53.86000 158.783
53.87000 156.916
53.88000 154.584
53.89000 152.826
53.90000 150.299
53.91000 148.284
53.92000 149.331
53.93000 156.315
53.94000 163.450
53.95000 165.433
53.96000 160.782
53.97000 156.111
53.98000 155.711
53.99000 158.824
54.00000 161.882
54.01000 162.444
54.02000 161.644
54.03000 160.743
54.04000 158.046
54.05000 154.689
54.06000 151.598
54.07000 151.223
54.08000 151.482
54.09000 151.319
54.10000 148.746
54.11000 145.794
54.12000 144.321
54.13000 148.323
54.14000 152.837
54.15000 156.096
54.16000 160.777
54.17000 164.418
54.18000 164.989
54.19000 160.434
54.20000 155.799
54.21000 154.662
54.22000 157.351
54.23000 160.030
54.24000 163.009
54.25000 166.166
54.26000 169.272
54.27000 170.830
54.28000 171.660
54.29000 172.149
54.30000 167.972
54.31000 162.319
54.32000 157.215
54.33000 157.373
54.34000 158.479
54.35000 158.525
54.36000 153.464
54.37000 147.732
54.38000 144.128
54.39000 147.292
54.40000 150.959
54.41000 153.486
54.42000 155.459
54.43000 156.926
54.44000 157.525
54.45000 156.880
54.46000 156.225
54.47000 155.455
54.48000 154.580
54.49000 153.713
54.50000 151.761
54.51000 149.206
54.52000 146.801
54.53000 147.655
54.54000 149.830
54.55000 151.820
54.56000 151.804
54.57000 151.242
54.58000 150.746
54.59000 153.400
54.60000 156.172
54.61000 158.108
54.62000 156.605
54.63000 154.730
54.64000 153.757
54.65000 155.256
54.66000 156.897
54.67000 157.970
54.68000 152.500
54.69000 148.376
54.70000 149.231
54.71000 156.175
54.72000 163.112
54.73000 163.551
54.74000 158.904
54.75000 154.331
54.76000 150.238
54.77000 146.517
54.78000 143.295
54.79000 148.168
54.80000 155.875
54.81000 162.587
54.82000 160.572
54.83000 156.522
54.84000 153.034
54.85000 153.979
54.86000 155.339
54.87000 156.402
54.88000 156.423
54.89000 156.353
54.90000 156.970
54.91000 159.214
54.92000 161.527
54.93000 162.954
54.94000 158.920
54.95000 155.973
54.96000 155.856
54.97000 158.670
54.98000 161.484
54.99000 164.310
55.00000 167.144
55.01000 169.907
55.02000 168.143
55.03000 164.519
55.04000 161.010
55.05000 158.955
55.06000 157.339
55.07000 155.658
55.08000 153.506
55.09000 151.261
55.10000 149.380
55.11000 155.357
55.12000 161.132
55.13000 164.613
55.14000 161.133
55.15000 157.175
55.16000 155.792
55.17000 159.674
55.18000 163.712
55.19000 166.047
55.20000 165.724
55.21000 165.488
55.22000 166.390
55.23000 168.287
55.24000 170.148
55.25000 170.010
55.26000 168.721
55.27000 167.479
55.28000 168.970
55.29000 171.368
55.30000 173.779
55.31000 176.318
55.32000 178.891
55.33000 180.898
55.34000 179.487
55.35000 177.502
55.36000 175.892
55.37000 177.360
55.38000 178.811
55.39000 181.196
55.40000 186.026
55.41000 190.983
55.42000 197.619
55.43000 207.211
55.44000 216.860
55.45000 222.047
55.46000 214.002
55.47000 208.520
55.48000 208.242
55.49000 211.835
55.50000 215.579
55.51000 224.612
55.52000 236.266
55.53000 247.362
55.54000 258.283
55.55000 268.341
55.56000 277.958
55.57000 283.937
55.58000 289.110
55.59000 294.747
55.60000 302.759
55.61000 311.105
55.62000 317.649
55.63000 340.028
55.64000 358.943
55.65000 376.400
55.66000 390.562
55.67000 404.598
55.68000 422.286
55.69000 445.507
55.70000 468.785
55.71000 483.552
55.72000 489.975
55.73000 496.501
55.74000 511.501
55.75000 531.904
55.76000 552.145
55.77000 568.456
55.78000 583.084
55.79000 596.803
55.80000 609.518
55.81000 620.836
55.82000 631.906
55.83000 641.287
55.84000 650.349
55.85000 659.224
55.86000 667.283
55.87000 675.247
55.88000 681.258
55.89000 671.776
55.90000 663.580
55.91000 652.673
55.92000 636.479
55.93000 620.148
55.94000 606.707
55.95000 597.012
55.96000 587.343
55.97000 578.572
55.98000 570.571
55.99000 562.584
56.00000 555.245
56.01000 548.262
56.02000 540.628
56.03000 521.344
56.04000 497.757
56.05000 476.018
56.06000 448.123
56.07000 421.790
56.08000 398.000
56.09000 388.759
56.10000 381.830
56.11000 373.357
56.12000 359.137
56.13000 344.375
56.14000 333.694
56.15000 322.741
56.16000 314.324
56.17000 304.668
56.18000 292.932
56.19000 281.163
56.20000 269.457
56.21000 257.821
56.22000 246.234
56.23000 237.322
56.24000 230.373
56.25000 223.431
56.26000 216.695
56.27000 210.058
56.28000 204.015
56.29000 206.157
56.30000 210.907
56.31000 215.198
56.32000 204.918
56.33000 193.178
56.34000 183.770
56.35000 185.671
56.36000 189.070
56.37000 190.547
56.38000 185.870
56.39000 180.732
56.40000 177.184
56.41000 172.411
56.42000 168.793
56.43000 166.909
56.44000 167.527
56.45000 168.165
56.46000 168.928
56.47000 169.806
56.48000 170.677
56.49000 168.899
56.50000 165.580
56.51000 162.226
56.52000 158.087
56.53000 153.629
56.54000 149.977
56.55000 155.112
56.56000 162.656
56.57000 169.322
56.58000 164.751
56.59000 159.070
56.60000 154.262
56.61000 153.064
56.62000 152.259
56.63000 152.615
56.64000 156.178
56.65000 159.927
56.66000 162.384
56.67000 161.528
56.68000 160.844
56.69000 159.838
56.70000 158.437
56.71000 157.042
56.72000 157.854
56.73000 160.406
56.74000 162.918
56.75000 161.293
56.76000 157.624
56.77000 154.124
56.78000 153.372
56.79000 153.590
56.80000 153.680
56.81000 152.641
56.82000 151.336
56.83000 150.212
56.84000 153.604
56.85000 157.054
56.86000 160.302
56.87000 162.836
56.88000 165.306
56.89000 164.311
56.90000 155.055
56.91000 145.445
56.92000 139.500
56.93000 143.341
56.94000 146.193
56.95000 148.513
56.96000 150.277
56.97000 152.019
56.98000 151.486
56.99000 149.421
57.00000 147.405
57.01000 144.708
57.02000 141.838
57.03000 139.209
57.04000 139.664
57.05000 141.055
57.06000 142.805
57.07000 147.163
57.08000 152.043
57.09000 156.133
57.10000 156.194
57.11000 155.826
57.12000 154.882
57.13000 152.179
57.14000 149.354
57.15000 148.093
57.16000 150.050
57.17000 152.104
57.18000 153.296
57.19000 153.339
57.20000 153.363
57.21000 151.845
57.22000 148.972
57.23000 146.110
57.24000 143.925
57.25000 142.132
57.26000 140.401
57.27000 144.277
57.28000 149.981
57.29000 154.930
57.30000 152.188
57.31000 147.439
57.32000 143.395
57.33000 143.642
57.34000 144.616
57.35000 145.407
57.36000 142.841
57.37000 140.467
57.38000 140.305
57.39000 145.966
57.40000 151.934
57.41000 155.758
57.42000 155.776
57.43000 155.721
57.44000 155.692
57.45000 144.170
57.46000 136.318
57.47000 136.525
57.48000 142.768
57.49000 148.880
57.50000 150.308
57.51000 149.401
57.52000 148.537
57.53000 146.467
57.54000 144.172
57.55000 142.063
57.56000 141.492
57.57000 141.265
57.58000 141.541
57.59000 144.408
57.60000 147.643
57.61000 150.182
57.62000 151.844
57.63000 153.117
57.64000 153.006
57.65000 149.752
57.66000 146.376
57.67000 145.956
57.68000 150.040
57.69000 154.172
57.70000 152.945
57.71000 146.428
57.72000 139.974
57.73000 138.957
57.74000 141.425
57.75000 143.815
57.76000 144.262
57.77000 143.872
57.78000 143.506
57.79000 141.988
57.80000 140.299
57.81000 138.899
57.82000 139.474
57.83000 140.424
57.84000 141.388
57.85000 142.407
57.86000 143.433
57.87000 144.208
57.88000 148.541
57.89000 152.117
57.90000 153.968
57.91000 152.436
57.92000 150.814
57.93000 149.812
57.94000 149.615
57.95000 149.423
57.96000 147.734
57.97000 144.804
57.98000 141.877
57.99000 139.111
58.00000 136.434
58.01000 134.201
58.02000 140.019
58.03000 148.829
58.04000 156.955
58.05000 153.738
58.06000 148.333
58.07000 144.017
58.08000 145.972
58.09000 148.931
58.10000 151.173
58.11000 150.730
58.12000 150.031
58.13000 149.525
58.14000 147.428
58.15000 145.758
58.16000 145.200
58.17000 146.521
58.18000 147.874
58.19000 147.574
58.20000 145.444
58.21000 143.321
58.22000 142.753
58.23000 143.289
58.24000 143.803
58.25000 143.627
58.26000 143.124
58.27000 142.683
58.28000 143.111
58.29000 143.817
58.30000 144.456
58.31000 140.497
58.32000 136.154
58.33000 133.269
58.34000 137.499
58.35000 142.679
58.36000 147.230
58.37000 149.755
58.38000 152.127
58.39000 153.767
58.40000 144.191
58.41000 136.697
58.42000 132.718
58.43000 133.839
58.44000 135.002
58.45000 135.365
58.46000 134.979
58.47000 134.597
58.48000 134.559
58.49000 134.729
58.50000 134.936
58.51000 135.973
58.52000 137.350
58.53000 138.548
58.54000 137.775
58.55000 136.458
58.56000 135.293
58.57000 138.543
58.58000 142.038
58.59000 144.636
58.60000 143.501
58.61000 141.957
58.62000 140.407
58.63000 138.842
58.64000 137.276
58.65000 136.248
58.66000 136.437
58.67000 136.597
58.68000 139.747
58.69000 146.604
58.70000 153.441
58.71000 151.475
58.72000 142.525
58.73000 133.713
58.74000 130.413
58.75000 130.023
58.76000 129.642
58.77000 129.391
58.78000 129.187
58.79000 129.504
58.80000 134.463
58.81000 140.520
58.82000 145.746
58.83000 139.145
58.84000 132.029
58.85000 126.944
58.86000 129.109
58.87000 131.918
58.88000 134.592
58.89000 136.944
58.90000 139.281
58.91000 140.730
58.92000 139.457
58.93000 138.514
58.94000 137.931
58.95000 137.725
58.96000 137.515
58.97000 136.893
58.98000 135.993
58.99000 135.114
59.00000 135.195
59.01000 135.689
59.02000 136.126
59.03000 135.838
59.04000 135.329
59.05000 134.744
59.06000 133.606
59.07000 132.357
59.08000 131.310
59.09000 128.084
59.10000 125.172
59.11000 123.589
59.12000 126.088
59.13000 128.873
59.14000 130.778
59.15000 130.858
59.16000 130.883
59.17000 130.898
59.18000 131.135
59.19000 131.303
59.20000 133.129
59.21000 136.424
59.22000 139.696
59.23000 141.647
59.24000 142.830
59.25000 143.972
59.26000 144.364
59.27000 144.456
59.28000 144.092
59.29000 139.039
59.30000 132.755
59.31000 127.181
59.32000 125.956
59.33000 125.473
59.34000 125.079
59.35000 125.343
59.36000 125.613
59.37000 126.965
59.38000 131.183
59.39000 135.554
59.40000 138.276
59.41000 138.053
59.42000 137.772
59.43000 137.620
59.44000 136.220
59.45000 135.263
59.46000 134.814
59.47000 134.749
59.48000 134.644
59.49000 133.082
59.50000 130.791
59.51000 128.606
59.52000 128.611
59.53000 129.302
59.54000 129.984
59.55000 130.588
59.56000 131.175
59.57000 131.814
59.58000 132.727
59.59000 133.678
59.60000 134.426
59.61000 138.419
59.62000 141.830
59.63000 144.712
59.64000 146.382
59.65000 148.005
59.66000 145.900
59.67000 138.075
59.68000 130.188
59.69000 127.820
59.70000 130.940
59.71000 134.022
59.72000 133.823
59.73000 131.507
59.74000 129.281
59.75000 129.287
59.76000 130.260
59.77000 131.174
59.78000 135.690
59.79000 140.765
59.80000 144.563
59.81000 139.526
59.82000 132.802
59.83000 127.630
59.84000 129.295
59.85000 131.768
59.86000 133.640
59.87000 130.798
59.88000 128.328
59.89000 127.559
59.90000 130.146
59.91000 132.823
59.92000 133.414
59.93000 131.267
59.94000 129.110
59.95000 129.124
59.96000 130.961
59.97000 132.827
59.98000 136.195
59.99000 140.395
60.00000 144.162
60.01000 140.018
60.02000 132.917
60.03000 126.362
60.04000 130.182
60.05000 135.931
60.06000 140.324
60.07000 136.850
60.08000 132.107
60.09000 128.677
60.10000 130.191
60.11000 132.180
60.12000 133.624
60.13000 130.286
60.14000 127.541
60.15000 128.397
60.16000 135.378
60.17000 142.460
60.18000 144.900
60.19000 142.161
60.20000 139.429
60.21000 137.123
60.22000 135.141
60.23000 133.343
60.24000 137.373
60.25000 144.192
60.26000 150.354
60.27000 147.289
60.28000 141.249
60.29000 135.783
60.30000 132.636
60.31000 130.301
60.32000 128.182
60.33000 127.129
60.34000 126.218
60.35000 126.029
60.36000 128.180
60.37000 130.509
60.38000 132.123
60.39000 132.469
60.40000 132.696
60.41000 133.753
60.42000 136.020
60.43000 138.296
60.44000 136.481
60.45000 130.815
60.46000 125.197
60.47000 124.359
60.48000 126.420
60.49000 128.402
60.50000 128.631
60.51000 128.135
60.52000 127.790
60.53000 129.112
60.54000 130.897
60.55000 132.477
60.56000 132.144
60.57000 131.556
60.58000 131.050
60.59000 130.884
60.60000 130.757
60.61000 130.597
60.62000 130.350
60.63000 130.097
60.64000 129.931
60.65000 127.651
60.66000 125.935
60.67000 127.343
60.68000 132.647
60.69000 137.947
60.70000 138.527
60.71000 135.339
60.72000 132.199
60.73000 132.338
60.74000 134.154
60.75000 135.937
60.76000 137.153
60.77000 138.167
60.78000 138.640
60.79000 134.248
60.80000 128.700
60.81000 123.909
60.82000 128.407
60.83000 133.428
60.84000 137.230
60.85000 136.657
60.86000 135.693
60.87000 135.286
60.88000 136.225
60.89000 137.222
60.90000 137.843
60.91000 132.566
60.92000 128.709
60.93000 129.434
60.94000 135.004
60.95000 140.532
60.96000 141.096
60.97000 138.274
60.98000 135.519
60.99000 134.926
61.00000 135.304
61.01000 135.771
61.02000 137.397
61.03000 139.379
61.04000 140.939
61.05000 139.380
61.06000 137.189
61.07000 135.349
61.08000 138.669
61.09000 141.980
61.10000 144.526
61.11000 144.711
61.12000 144.728
61.13000 144.022
61.14000 141.811
61.15000 139.553
61.16000 138.237
61.17000 129.183
61.18000 122.788
61.19000 123.100
61.20000 129.396
61.21000 135.625
61.22000 137.874
61.23000 137.791
61.24000 137.711
61.25000 134.098
61.26000 129.381
61.27000 125.298
61.28000 127.787
61.29000 132.012
61.30000 135.625
61.31000 135.461
61.32000 134.650
61.33000 133.989
61.34000 141.462
61.35000 148.258
61.36000 151.487
61.37000 145.214
61.38000 138.425
61.39000 136.615
61.40000 143.742
61.41000 151.048
61.42000 155.013
61.43000 145.645
61.44000 139.240
61.45000 139.482
61.46000 144.768
61.47000 150.053
61.48000 155.313
61.49000 160.561
61.50000 165.566
61.51000 172.544
61.52000 179.642
61.53000 187.772
61.54000 204.592
61.55000 223.377
61.56000 241.151
61.57000 253.660
61.58000 265.411
61.59000 274.666
61.60000 294.139
61.61000 310.426
61.62000 321.695
61.63000 321.419
61.64000 320.685
61.65000 322.670
61.66000 328.851
61.67000 335.079
61.68000 338.195
61.69000 340.337
61.70000 341.738
61.71000 340.669
61.72000 337.996
61.73000 335.196
61.74000 329.198
61.75000 321.808
61.76000 314.863
61.77000 295.710
61.78000 274.966
61.79000 255.213
61.80000 242.365
61.81000 230.845
61.82000 218.977
61.83000 205.568
61.84000 191.976
61.85000 181.668
61.86000 170.228
61.87000 161.184
61.88000 155.009
61.89000 154.530
61.90000 154.207
61.91000 151.303
61.92000 144.991
61.93000 138.669
61.94000 137.628
61.95000 141.048
61.96000 144.462
61.97000 147.577
61.98000 150.523
61.99000 153.245
62.00000 151.817
62.01000 148.829
62.02000 146.068
62.03000 144.348
62.04000 143.039
62.05000 142.168
62.06000 143.849
62.07000 145.943
62.08000 147.665
62.09000 147.973
62.10000 148.143
62.11000 148.266
62.12000 146.282
62.13000 144.675
62.14000 142.475
62.15000 139.262
62.16000 136.031
62.17000 134.717
62.18000 135.557
62.19000 136.395
62.20000 137.788
62.21000 139.564
62.22000 141.282
62.23000 141.094
62.24000 139.988
62.25000 139.052
62.26000 140.532
62.27000 142.795
62.28000 144.845
62.29000 145.783
62.30000 146.398
62.31000 146.881
62.32000 146.707
62.33000 146.443
62.34000 145.495
62.35000 142.315
62.36000 138.963
62.37000 136.634
62.38000 135.621
62.39000 134.893
62.40000 136.114
62.41000 140.198
62.42000 144.307
62.43000 146.450
62.44000 146.728
62.45000 147.004
62.46000 147.022
62.47000 146.881
62.48000 146.695
62.49000 145.456
62.50000 143.780
62.51000 141.905
62.52000 137.804
62.53000 133.082
62.54000 128.898
62.55000 136.569
62.56000 145.079
62.57000 150.786
62.58000 144.680
62.59000 137.255
62.60000 132.996
62.61000 137.630
62.62000 142.798
62.63000 146.207
62.64000 149.901
62.65000 152.629
62.66000 152.406
62.67000 148.478
62.68000 144.543
62.69000 142.131
62.70000 140.942
62.71000 139.771
62.72000 140.147
62.73000 141.311
62.74000 142.516
62.75000 144.416
62.76000 146.565
62.77000 148.427
62.78000 147.700
62.79000 146.353
62.80000 145.189
62.81000 144.813
62.82000 144.597
62.83000 143.542
62.84000 139.463
62.85000 135.109
62.86000 132.149
62.87000 132.565
62.88000 133.133
62.89000 133.487
62.90000 139.926
62.91000 144.628
62.92000 146.907
62.93000 146.605
62.94000 146.312
62.95000 147.060
62.96000 148.522
62.97000 149.950
62.98000 149.461
62.99000 148.151
63.00000 146.904
63.01000 146.487
63.02000 146.327
63.03000 146.193
63.04000 146.252
63.05000 146.352
63.06000 146.435
63.07000 144.053
63.08000 141.804
63.09000 140.598
63.10000 142.634
63.11000 144.901
63.12000 147.473
63.13000 150.686
63.14000 153.918
63.15000 155.808
63.16000 149.626
63.17000 145.240
63.18000 145.334
63.19000 149.451
63.20000 153.458
63.21000 150.776
63.22000 144.153
63.23000 137.753
63.24000 138.658
63.25000 142.244
63.26000 145.711
63.27000 147.933
63.28000 149.824
63.29000 151.044
63.30000 148.086
63.31000 144.407
63.32000 141.406
63.33000 147.276
63.34000 152.837
63.35000 154.747
63.36000 146.873
63.37000 138.463
63.38000 134.340
63.39000 137.959
63.40000 141.736
63.41000 143.792
63.42000 150.700
63.43000 155.428
63.44000 155.791
63.45000 152.823
63.46000 149.997
63.47000 152.487
63.48000 157.678
63.49000 162.630
63.50000 161.755
63.51000 159.091
63.52000 156.498
63.53000 154.511
63.54000 152.663
63.55000 150.496
63.56000 146.654
63.57000 142.571
63.58000 139.350
63.59000 142.129
63.60000 144.762
63.61000 147.612
63.62000 150.963
63.63000 154.335
63.64000 156.109
63.65000 155.402
63.66000 154.666
63.67000 154.297
63.68000 150.362
63.69000 147.791
63.70000 150.470
63.71000 156.578
63.72000 162.438
63.73000 161.955
63.74000 158.693
63.75000 155.626
63.76000 156.942
63.77000 159.325
63.78000 161.226
63.79000 159.742
63.80000 157.603
63.81000 155.504
63.82000 153.585
63.83000 151.687
63.84000 150.246
63.85000 153.676
63.86000 156.624
63.87000 159.880
63.88000 163.750
63.89000 167.637
63.90000 166.570
63.91000 158.919
63.92000 151.242
63.93000 151.051
63.94000 157.226
63.95000 163.238
63.96000 160.905
63.97000 153.886
63.98000 147.219
63.99000 147.157
64.00000 149.594
64.01000 151.846
64.02000 155.694
64.03000 159.511
64.04000 162.165
64.05000 157.971
64.06000 152.658
64.07000 148.628
64.08000 149.496
64.09000 150.843
64.10000 151.824
64.11000 150.607
64.12000 149.584
64.13000 149.310
64.14000 150.321
64.15000 151.356
64.16000 155.073
64.17000 161.826
64.18000 168.557
64.19000 171.002
64.20000 170.340
64.21000 169.657
64.22000 168.248
64.23000 166.487
64.24000 164.799
64.25000 164.163
64.26000 163.870
64.27000 163.605
64.28000 162.844
64.29000 162.077
64.30000 160.984
64.31000 158.267
64.32000 155.327
64.33000 153.740
64.34000 156.586
64.35000 159.778
64.36000 161.999
64.37000 162.221
64.38000 162.334
64.39000 162.772
64.40000 163.688
64.41000 164.609
64.42000 164.366
64.43000 163.011
64.44000 161.668
64.45000 166.068
64.46000 173.897
64.47000 181.415
64.48000 181.735
64.49000 179.046
64.50000 176.544
64.51000 176.151
64.52000 176.351
64.53000 176.528
64.54000 174.998
64.55000 173.402
64.56000 172.143
64.57000 172.317
64.58000 172.653
64.59000 172.964
64.60000 173.207
64.61000 173.445
64.62000 173.603
64.63000 175.000
64.64000 176.053
64.65000 177.206
64.66000 178.484
64.67000 179.761
64.68000 180.113
64.69000 179.717
64.70000 179.327
64.71000 176.688
64.72000 172.957
64.73000 169.608
64.74000 172.785
64.75000 178.316
64.76000 183.573
64.77000 186.333
64.78000 188.491
64.79000 190.358
64.80000 190.190
64.81000 189.780
64.82000 189.261
64.83000 188.349
64.84000 187.401
64.85000 185.916
64.86000 183.118
64.87000 180.262
64.88000 178.478
64.89000 184.462
64.90000 188.859
64.91000 192.409
64.92000 195.049
64.93000 197.682
64.94000 199.468
64.95000 200.669
64.96000 201.843
64.97000 205.746
64.98000 210.691
64.99000 215.070
65.00000 211.949
65.01000 206.495
65.02000 201.943
65.03000 204.161
65.04000 207.770
65.05000 210.809
65.06000 218.996
65.07000 226.380
65.08000 233.455
65.09000 239.565
65.10000 245.605
65.11000 249.053
65.12000 247.040
65.13000 244.852
65.14000 243.570
65.15000 248.325
65.16000 251.706
65.17000 257.072
65.18000 264.233
65.19000 271.403
65.20000 279.134
65.21000 287.198
65.22000 294.994
65.23000 298.475
65.24000 300.137
65.25000 302.419
65.26000 311.243
65.27000 321.816
65.28000 331.863
65.29000 338.620
65.30000 344.804
65.31000 349.856
65.32000 356.265
65.33000 361.627
65.34000 366.864
65.35000 371.762
65.36000 376.641
65.37000 384.035
65.38000 395.998
65.39000 408.056
65.40000 414.639
65.41000 433.100
65.42000 445.762
65.43000 450.145
65.44000 448.165
65.45000 446.291
65.46000 448.437
65.47000 452.637
65.48000 456.646
65.49000 465.155
65.50000 474.500
65.51000 482.580
65.52000 479.836
65.53000 474.612
65.54000 470.671
65.55000 473.506
65.56000 477.330
65.57000 480.350
65.58000 484.670
65.59000 488.227
65.60000 492.961
65.61000 500.435
65.62000 508.021
65.63000 514.110
65.64000 517.858
65.65000 521.579
65.66000 523.454
65.67000 580.530
65.68000 618.663
65.69000 655.490
65.70000 691.459
65.71000 728.183
65.72000 784.525
65.73000 849.515
65.74000 910.659
65.75000 990.947
65.76000 1069.509
65.77000 1143.019
65.78000 1180.785
65.79000 1211.584
65.80000 1244.937
65.81000 1289.755
65.82000 1335.959
65.83000 1371.110
65.84000 1390.110
65.85000 1404.212
65.86000 1415.635
65.87000 1421.677
65.88000 1427.567
65.89000 1420.918
65.90000 1397.492
65.91000 1373.999
65.92000 1333.786
65.93000 1279.351
65.94000 1224.638
65.95000 1155.384
65.96000 1077.914
65.97000 1000.316
65.98000 920.297
65.99000 839.357
66.00000 764.484
66.01000 687.082
66.02000 616.968
66.03000 551.721
66.04000 515.312
66.05000 483.648
66.06000 451.638
66.07000 418.300
66.08000 384.831
66.09000 360.401
66.10000 362.487
66.11000 365.128
66.12000 362.306
66.13000 350.022
66.14000 337.570
66.15000 330.881
66.16000 330.751
66.17000 330.629
66.18000 329.819
66.19000 328.517
66.20000 327.358
66.21000 330.973
66.22000 336.913
66.23000 343.020
66.24000 351.548
66.25000 360.870
66.26000 369.328
66.27000 376.470
66.28000 382.520
66.29000 391.165
66.30000 412.809
66.31000 436.241
66.32000 455.762
66.33000 462.379
66.34000 467.979
66.35000 471.883
66.36000 480.730
66.37000 487.543
66.38000 492.927
66.39000 496.186
66.40000 499.424
66.41000 503.341
66.42000 507.909
66.43000 512.441
66.44000 512.998
66.45000 511.102
66.46000 509.242
66.47000 508.247
66.48000 507.616
66.49000 506.434
66.50000 498.969
66.51000 489.729
66.52000 481.526
66.53000 456.990
66.54000 433.105
66.55000 411.476
66.56000 399.472
66.57000 388.561
66.58000 377.209
66.59000 364.606
66.60000 351.926
66.61000 343.524
66.62000 346.869
66.63000 349.553
66.64000 348.060
66.65000 341.256
66.66000 334.451
66.67000 335.034
66.68000 341.632
66.69000 348.135
66.70000 349.562
66.71000 348.292
66.72000 347.217
66.73000 349.508
66.74000 353.021
66.75000 355.922
66.76000 353.190
66.77000 349.092
66.78000 345.542
66.79000 342.223
66.80000 339.428
66.81000 337.543
66.82000 338.981
66.83000 340.725
66.84000 342.449
66.85000 344.125
66.86000 345.799
66.87000 346.847
66.88000 350.219
66.89000 352.679
66.90000 359.075
66.91000 369.720
66.92000 380.257
66.93000 376.968
66.94000 364.070
66.95000 351.463
66.96000 355.099
66.97000 365.816
66.98000 375.945
66.99000 378.216
67.00000 378.027
67.01000 378.260
67.02000 381.685
67.03000 385.770
67.04000 389.214
67.05000 389.622
67.06000 389.636
67.07000 388.579
67.08000 384.158
67.09000 379.492
67.10000 379.279
67.11000 388.501
67.12000 398.029
67.13000 403.630
67.14000 413.852
67.15000 421.079
67.16000 421.130
67.17000 414.647
67.18000 408.285
67.19000 409.543
67.20000 415.346
67.21000 420.960
67.22000 418.788
67.23000 413.786
67.24000 409.690
67.25000 415.213
67.26000 423.325
67.27000 430.209
67.28000 429.340
67.29000 427.115
67.30000 425.294
67.31000 428.000
67.32000 430.610
67.33000 432.729
67.34000 433.512
67.35000 434.220
67.36000 436.421
67.37000 441.352
67.38000 446.340
67.39000 449.071
67.40000 458.571
67.41000 465.074
67.42000 462.024
67.43000 451.585
67.44000 441.450
67.45000 443.093
67.46000 450.787
67.47000 458.137
67.48000 465.839
67.49000 473.113
67.50000 479.553
67.51000 478.798
67.52000 476.385
67.53000 475.768
67.54000 484.704
67.55000 495.043
67.56000 503.221
67.57000 499.483
67.58000 495.661
67.59000 492.911
67.60000 492.673
67.61000 492.539
67.62000 493.046
67.63000 494.563
67.64000 496.092
67.65000 496.865
67.66000 496.793
67.67000 496.790
67.68000 501.138
67.69000 508.365
67.70000 515.413
67.71000 517.737
67.72000 517.967
67.73000 518.183
67.74000 517.630
67.75000 516.914
67.76000 516.763
67.77000 520.644
67.78000 525.316
67.79000 530.366
67.80000 537.120
67.81000 544.083
67.82000 549.388
67.83000 551.935
67.84000 553.795
67.85000 552.458
67.86000 544.661
67.87000 536.678
67.88000 536.620
67.89000 547.234
67.90000 557.897
67.91000 564.678
67.92000 568.100
67.93000 571.543
67.94000 576.059
67.95000 581.186
67.96000 586.112
67.97000 587.194
67.98000 586.803
67.99000 586.441
68.00000 587.744
68.01000 589.298
68.02000 591.028
68.03000 593.811
68.04000 596.768
68.05000 600.424
68.06000 606.780
68.07000 613.405
68.08000 618.249
68.09000 629.558
68.10000 638.538
68.11000 643.791
68.12000 642.553
68.13000 641.198
68.14000 641.922
68.15000 645.029
68.16000 648.130
68.17000 649.117
68.18000 648.555
68.19000 648.235
68.20000 656.142
68.21000 668.080
68.22000 679.471
68.23000 682.855
68.24000 683.596
68.25000 684.268
68.26000 700.441
68.27000 717.725
68.28000 731.635
68.29000 728.522
68.30000 723.050
68.31000 724.395
68.32000 748.367
68.33000 774.139
68.34000 792.142
68.35000 781.245
68.36000 772.203
68.37000 769.348
68.38000 775.753
68.39000 782.249
68.40000 793.600
68.41000 809.650
68.42000 825.576
68.43000 831.460
68.44000 831.028
68.45000 830.935
68.46000 838.874
68.47000 850.212
68.48000 861.959
68.49000 878.419
68.50000 896.218
68.51000 912.035
68.52000 929.722
68.53000 945.367
68.54000 962.705
68.55000 987.321
68.56000 1012.769
68.57000 1044.438
68.58000 1093.904
68.59000 1144.471
68.60000 1178.049
68.61000 1262.690
68.62000 1326.203
68.63000 1386.940
68.64000 1444.125
68.65000 1501.305
68.66000 1562.319
68.67000 1626.475
68.68000 1689.731
68.69000 1770.596
68.70000 1858.436
68.71000 1945.198
68.72000 2013.064
68.73000 2074.030
68.74000 2136.593
68.75000 2213.979
68.76000 2294.979
68.77000 2365.228
68.78000 2435.261
68.79000 2494.869
68.80000 2574.201
68.81000 2726.104
68.82000 2884.745
68.83000 3058.915
68.84000 3271.426
68.85000 3485.718
68.86000 3620.216
68.87000 4227.011
68.88000 4670.735
68.89000 5373.214
68.90000 6356.889
68.91000 7347.396
68.92000 9212.714
68.93000 11689.825
68.94000 14111.939
68.95000 18318.383
68.96000 23151.316
68.97000 28085.322
68.98000 34383.375
68.99000 41110.961
69.00000 47812.555
69.01000 54315.977
69.02000 60778.160
69.03000 66232.586
69.04000 71339.602
69.05000 75569.398
69.06000 79193.953
69.07000 80903.281
69.08000 82471.523
69.09000 83696.617
69.10000 84190.219
69.11000 84659.664
69.12000 84936.344
69.13000 85981.094
69.14000 86722.469
69.15000 87243.000
69.16000 87561.109
69.17000 87864.359
69.18000 87202.063
69.19000 85960.336
69.20000 84758.648
69.21000 81738.695
69.22000 78191.609
69.23000 74609.836
69.24000 70656.359
69.25000 66602.219
69.26000 62575.641
69.27000 58724.242
69.28000 54903.727
69.29000 51774.859
69.30000 49073.633
69.31000 46896.848
69.32000 44983.395
69.33000 43788.465
69.34000 42634.301
69.35000 41370.824
69.36000 39906.363
69.37000 38437.543
69.38000 37630.793
69.39000 33818.719
69.40000 31188.777
69.41000 28226.914
69.42000 25006.699
69.43000 21791.863
69.44000 18789.168
69.45000 15896.117
69.46000 13130.854
69.47000 10842.341
69.48000 8867.886
69.49000 6977.917
69.50000 5822.952
69.51000 4838.459
69.52000 3929.550
69.53000 3425.240
69.54000 2980.819
69.55000 2628.836
69.56000 2371.243
69.57000 2170.727
69.58000 1999.591
69.59000 1897.667
69.60000 1798.645
69.61000 1711.594
69.62000 1643.478
69.63000 1575.599
69.64000 1541.168
69.65000 1461.984
69.66000 1409.089
69.67000 1371.340
69.68000 1343.672
69.69000 1315.617
69.70000 1277.199
69.71000 1234.161
69.72000 1193.616
69.73000 1164.812
69.74000 1141.677
69.75000 1118.427
69.76000 1094.347
69.77000 1070.104
69.78000 1046.389
69.79000 1025.079
69.80000 1004.063
69.81000 988.025
69.82000 983.596
69.83000 980.729
69.84000 968.540
69.85000 937.396
69.86000 905.699
69.87000 890.642
69.88000 898.133
69.89000 905.744
69.90000 902.398
69.91000 889.551
69.92000 876.748
69.93000 866.282
69.94000 857.155
69.95000 847.993
69.96000 838.175
69.97000 828.104
69.98000 818.774
69.99000 809.156
70.00000 800.437
