20.00000 548.822
20.01000 548.458
20.02000 548.041
20.03000 547.346
20.04000 545.565
20.05000 543.677
20.06000 542.294
20.07000 544.368
20.08000 546.106
20.09000 546.295
20.10000 543.769
20.11000 541.193
20.12000 538.821
20.13000 536.682
20.14000 534.551
20.15000 532.132
20.16000 529.522
20.17000 527.117
20.18000 531.794
20.19000 539.957
20.20000 547.730
20.21000 549.759
20.22000 549.881
20.23000 549.993
20.24000 549.650
20.25000 549.258
20.26000 549.116
20.27000 550.242
20.28000 551.545
20.29000 553.291
20.30000 556.515
20.31000 559.858
20.32000 562.196
20.33000 561.345
20.34000 560.612
20.35000 557.198
20.36000 549.753
20.37000 542.269
20.38000 541.838
20.39000 548.270
20.40000 554.653
20.41000 557.747
20.42000 558.742
20.43000 559.715
20.44000 560.172
20.45000 560.410
20.46000 559.880
20.47000 550.442
20.48000 538.460
20.49000 527.804
20.50000 532.890
20.51000 539.860
20.52000 545.425
20.53000 544.922
20.54000 543.720
20.55000 542.831
20.56000 542.837
20.57000 542.899
20.58000 542.940
20.59000 546.249
20.60000 548.757
20.61000 549.906
20.62000 549.305
20.63000 548.709
20.64000 553.034
20.65000 561.411
20.66000 569.673
20.67000 567.459
20.68000 559.762
20.69000 552.125
20.70000 545.525
20.71000 539.307
20.72000 533.261
20.73000 528.833
20.74000 524.800
20.75000 521.301
20.76000 519.963
20.77000 519.114
20.78000 519.229
20.79000 522.909
20.80000 526.923
20.81000 534.029
20.82000 548.809
20.83000 563.948
20.84000 573.469
20.85000 553.559
20.86000 538.830
20.87000 531.245
20.88000 531.465
20.89000 531.664
20.90000 528.565
20.91000 523.147
20.92000 517.847
20.93000 521.979
20.94000 530.193
20.95000 537.864
20.96000 538.162
20.97000 536.128
20.98000 533.607
20.99000 527.341
21.00000 520.293
21.01000 514.338
21.02000 520.749
21.03000 527.469
21.04000 533.005
21.05000 534.781
21.06000 536.278
21.07000 537.462
21.08000 537.976
21.09000 538.469
21.10000 538.759
21.11000 535.964
21.12000 533.975
21.13000 536.874
21.14000 544.278
21.15000 551.456
21.16000 543.709
21.17000 526.961
21.18000 510.747
21.19000 513.603
21.20000 523.614
21.21000 532.210
21.22000 525.533
21.23000 514.700
21.24000 506.347
21.25000 513.838
21.26000 524.138
21.27000 532.581
21.28000 534.406
21.29000 535.317
21.30000 535.599
21.31000 534.153
21.32000 532.609
21.33000 533.913
21.34000 540.479
21.35000 547.162
21.36000 550.841
21.37000 547.435
21.38000 545.065
21.39000 539.271
21.40000 530.797
21.41000 522.381
21.42000 516.279
21.43000 511.379
21.44000 506.693
21.45000 514.999
21.46000 526.962
21.47000 538.141
21.48000 542.450
21.49000 545.158
21.50000 546.685
21.51000 541.859
21.52000 536.088
21.53000 531.512
21.54000 540.395
21.55000 548.484
21.56000 553.738
21.57000 552.284
21.58000 550.545
21.59000 547.121
21.60000 541.018
21.61000 534.880
21.62000 531.758
21.63000 527.192
21.64000 524.128
21.65000 520.761
21.66000 517.192
21.67000 514.038
21.68000 522.143
21.69000 535.292
21.70000 547.684
21.71000 548.298
21.72000 545.606
21.73000 542.737
21.74000 538.586
21.75000 534.181
21.76000 531.275
21.77000 535.221
21.78000 540.013
21.79000 543.675
21.80000 558.694
21.81000 571.151
21.82000 581.315
21.83000 586.797
21.84000 592.140
21.85000 596.862
21.86000 600.737
21.87000 604.605
21.88000 602.112
21.89000 594.073
21.90000 586.109
21.91000 582.222
21.92000 580.679
21.93000 579.786
21.94000 591.643
21.95000 608.433
21.96000 623.995
21.97000 626.090
21.98000 624.834
21.99000 624.230
22.00000 627.561
22.01000 631.554
22.02000 635.313
22.03000 638.161
22.04000 640.916
22.05000 642.937
22.06000 646.347
22.07000 649.038
22.08000 648.793
22.09000 643.379
22.10000 637.867
22.11000 636.545
22.12000 640.081
22.13000 643.613
22.14000 645.418
22.15000 645.933
22.16000 646.347
22.17000 643.247
22.18000 638.407
22.19000 633.005
22.20000 619.239
22.21000 602.682
22.22000 587.625
22.23000 590.255
22.24000 596.049
22.25000 599.081
22.26000 588.021
22.27000 574.982
22.28000 563.712
22.29000 558.380
22.30000 553.528
22.31000 550.128
22.32000 555.079
22.33000 559.065
22.34000 558.982
22.35000 552.738
22.36000 546.431
22.37000 539.354
22.38000 531.523
22.39000 523.749
22.40000 524.792
22.41000 531.342
22.42000 537.688
22.43000 539.112
22.44000 538.431
22.45000 537.027
22.46000 527.167
22.47000 514.876
22.48000 503.936
22.49000 511.239
22.50000 520.566
22.51000 528.278
22.52000 528.975
22.53000 528.857
22.54000 528.627
22.55000 528.071
22.56000 527.494
22.57000 527.109
22.58000 518.629
22.59000 512.196
22.60000 508.568
22.61000 508.574
22.62000 508.593
22.63000 508.195
22.64000 507.452
22.65000 506.718
22.66000 509.416
22.67000 513.868
22.68000 518.141
22.69000 519.226
22.70000 519.134
22.71000 518.748
22.72000 515.590
22.73000 511.749
22.74000 508.411
22.75000 509.739
22.76000 511.502
22.77000 511.900
22.78000 507.217
22.79000 502.055
22.80000 498.577
22.81000 499.299
22.82000 500.222
22.83000 500.803
22.84000 513.591
22.85000 522.989
22.86000 522.987
22.87000 512.646
22.88000 502.339
22.89000 497.662
22.90000 496.966
22.91000 496.284
22.92000 493.479
22.93000 489.823
22.94000 486.501
22.95000 487.773
22.96000 490.507
22.97000 493.536
22.98000 498.846
22.99000 504.636
23.00000 509.534
23.01000 505.986
23.02000 502.082
23.03000 500.914
23.04000 508.498
23.05000 516.737
23.06000 520.191
23.07000 513.332
23.08000 506.123
23.09000 501.854
23.10000 504.325
23.11000 506.110
23.12000 506.052
23.13000 504.284
23.14000 502.547
23.15000 502.889
23.16000 504.492
23.17000 506.045
23.18000 508.571
23.19000 511.336
23.20000 513.275
23.21000 506.215
23.22000 496.692
23.23000 489.142
23.24000 494.291
23.25000 501.708
23.26000 507.796
23.27000 497.161
23.28000 486.936
23.29000 481.303
23.30000 488.331
23.31000 496.092
23.32000 497.789
23.33000 488.216
23.34000 478.390
23.35000 472.964
23.36000 484.098
23.37000 491.793
23.38000 496.039
23.39000 497.567
23.40000 499.116
23.41000 501.537
23.42000 504.412
23.43000 507.163
23.44000 504.139
23.45000 499.428
23.46000 495.471
23.47000 498.164
23.48000 502.418
23.49000 506.288
23.50000 508.086
23.51000 509.572
23.52000 510.753
23.53000 499.793
23.54000 490.111
23.55000 484.622
23.56000 489.114
23.57000 494.034
23.58000 494.538
23.59000 487.979
23.60000 481.327
23.61000 477.932
23.62000 490.906
23.63000 499.505
23.64000 496.214
23.65000 484.920
23.66000 474.064
23.67000 475.223
23.68000 481.796
23.69000 487.996
23.70000 487.324
23.71000 484.798
23.72000 482.552
23.73000 482.342
23.74000 482.539
23.75000 481.687
23.76000 476.007
23.77000 469.725
23.78000 464.918
23.79000 482.316
23.80000 497.259
23.81000 506.183
23.82000 502.736
23.83000 498.917
23.84000 497.023
23.85000 497.764
23.86000 498.522
23.87000 497.678
23.88000 495.428
23.89000 493.153
23.90000 489.402
23.91000 484.798
23.92000 480.443
23.93000 481.032
23.94000 483.545
23.95000 485.876
23.96000 487.970
23.97000 489.800
23.98000 490.481
23.99000 484.172
24.00000 476.681
24.01000 471.674
24.02000 476.433
24.03000 482.186
24.04000 486.414
24.05000 480.635
24.06000 475.758
24.07000 473.893
24.08000 477.364
24.09000 480.937
24.10000 484.435
24.11000 487.845
24.12000 491.245
24.13000 490.695
24.14000 487.216
24.15000 483.796
24.16000 482.500
24.17000 482.264
24.18000 481.997
24.19000 481.285
24.20000 480.423
24.21000 479.638
24.22000 476.364
24.23000 472.975
24.24000 470.732
24.25000 474.372
24.26000 478.845
24.27000 482.885
24.28000 485.460
24.29000 487.915
24.30000 489.640
24.31000 465.846
24.32000 447.083
24.33000 441.741
24.34000 456.839
24.35000 472.152
24.36000 480.114
24.37000 480.826
24.38000 481.533
24.39000 483.558
24.40000 486.381
24.41000 489.038
24.42000 487.621
24.43000 484.451
24.44000 481.863
24.45000 486.146
24.46000 492.417
24.47000 498.004
24.48000 491.757
24.49000 484.377
24.50000 477.283
24.51000 471.438
24.52000 465.738
24.53000 462.388
24.54000 465.871
24.55000 469.790
24.56000 472.408
24.57000 468.373
24.58000 465.252
24.59000 463.633
24.60000 463.971
24.61000 464.314
24.62000 463.262
24.63000 461.046
24.64000 458.858
24.65000 464.701
24.66000 474.693
24.67000 484.187
24.68000 484.698
24.69000 481.873
24.70000 479.476
24.71000 481.146
24.72000 483.824
24.73000 486.153
24.74000 481.057
24.75000 475.696
24.76000 470.626
24.77000 466.649
24.78000 462.776
24.79000 461.613
24.80000 467.252
24.81000 473.217
24.82000 476.986
24.83000 467.992
24.84000 461.325
24.85000 460.097
24.86000 464.893
24.87000 469.671
24.88000 471.364
24.89000 470.862
24.90000 470.371
24.91000 466.951
24.92000 462.330
24.93000 458.404
24.94000 464.126
24.95000 472.938
24.96000 480.782
24.97000 481.085
24.98000 479.791
24.99000 478.694
25.00000 471.365
25.01000 464.532
25.02000 457.788
25.03000 451.335
25.04000 444.904
25.05000 443.308
25.06000 452.193
25.07000 461.439
25.08000 466.929
25.09000 466.396
25.10000 465.984
25.11000 464.949
25.12000 463.333
25.13000 461.713
25.14000 459.866
25.15000 457.881
25.16000 455.957
25.17000 461.259
25.18000 469.085
25.19000 475.977
25.20000 472.606
25.21000 466.407
25.22000 461.025
25.23000 460.935
25.24000 461.795
25.25000 462.502
25.26000 463.296
25.27000 463.957
25.28000 464.905
25.29000 466.650
25.30000 468.442
25.31000 467.676
25.32000 462.128
25.33000 456.470
25.34000 453.337
25.35000 447.856
25.36000 444.089
25.37000 446.596
25.38000 454.077
25.39000 461.469
25.40000 465.181
25.41000 466.959
25.42000 468.662
25.43000 467.715
25.44000 465.957
25.45000 463.795
25.46000 458.023
25.47000 451.398
25.48000 445.549
25.49000 443.926
25.50000 442.942
25.51000 442.159
25.52000 438.017
25.53000 434.440
25.54000 433.484
25.55000 438.805
25.56000 444.400
25.57000 448.759
25.58000 451.131
25.59000 453.477
25.60000 454.678
25.61000 457.753
25.62000 459.793
25.63000 458.880
25.64000 455.967
25.65000 453.175
25.66000 453.744
25.67000 455.838
25.68000 457.814
25.69000 463.446
25.70000 469.633
25.71000 474.148
25.72000 466.396
25.73000 456.177
25.74000 448.204
25.75000 450.632
25.76000 454.364
25.77000 457.226
25.78000 459.870
25.79000 461.946
25.80000 463.788
25.81000 465.144
25.82000 466.486
25.83000 462.271
25.84000 450.393
25.85000 438.472
25.86000 440.369
25.87000 454.481
25.88000 468.373
25.89000 469.595
25.90000 463.446
25.91000 457.543
25.92000 456.564
25.93000 457.513
25.94000 458.393
25.95000 459.838
25.96000 461.273
25.97000 462.326
25.98000 461.034
25.99000 459.343
26.00000 456.903
26.01000 451.498
26.02000 445.789
26.03000 441.587
26.04000 449.076
26.05000 455.356
26.06000 456.293
26.07000 447.703
26.08000 438.926
26.09000 437.191
26.10000 443.733
26.11000 450.270
26.12000 449.651
26.13000 443.683
26.14000 437.928
26.15000 439.869
26.16000 445.667
26.17000 451.260
26.18000 453.747
26.19000 455.184
26.20000 456.492
26.21000 455.106
26.22000 453.342
26.23000 451.235
26.24000 447.358
26.25000 443.227
26.26000 440.335
26.27000 441.651
26.28000 443.313
26.29000 444.482
26.30000 438.647
26.31000 434.017
26.32000 433.275
26.33000 438.490
26.34000 443.769
26.35000 446.490
26.36000 446.671
26.37000 446.851
26.38000 445.465
26.39000 443.107
26.40000 440.917
26.41000 442.913
26.42000 446.719
26.43000 449.962
26.44000 446.478
26.45000 441.036
26.46000 436.185
26.47000 442.786
26.48000 450.430
26.49000 456.786
26.50000 457.479
26.51000 457.505
26.52000 456.494
26.53000 452.452
26.54000 448.214
26.55000 445.377
26.56000 432.089
26.57000 422.027
26.58000 420.469
26.59000 430.066
26.60000 439.697
26.61000 441.064
26.62000 435.489
26.63000 429.987
26.64000 431.808
26.65000 437.533
26.66000 443.009
26.67000 443.919
26.68000 443.124
26.69000 442.171
26.70000 439.712
26.71000 436.876
26.72000 434.408
26.73000 432.608
26.74000 431.164
26.75000 430.746
26.76000 434.197
26.77000 438.019
26.78000 437.130
26.79000 424.343
26.80000 410.977
26.81000 402.512
26.82000 423.568
26.83000 439.193
26.84000 443.882
26.85000 436.377
26.86000 428.918
26.87000 429.528
26.88000 435.919
26.89000 442.176
26.90000 441.780
26.91000 438.343
26.92000 435.442
26.93000 440.068
26.94000 447.118
26.95000 452.656
26.96000 446.326
26.97000 437.465
26.98000 429.953
26.99000 428.147
27.00000 427.276
27.01000 426.753
27.02000 427.357
27.03000 428.048
27.04000 431.605
27.05000 441.413
27.06000 451.440
27.07000 457.409
27.08000 452.881
27.09000 449.610
27.10000 445.256
27.11000 439.885
27.12000 434.604
27.13000 435.751
27.14000 440.846
27.15000 445.785
27.16000 442.113
27.17000 435.270
27.18000 428.896
27.19000 427.737
27.20000 428.023
27.21000 428.703
27.22000 431.956
27.23000 435.676
27.24000 438.736
27.25000 427.288
27.26000 416.556
27.27000 409.514
27.28000 412.771
27.29000 416.637
27.30000 420.581
27.31000 424.672
27.32000 428.766
27.33000 431.041
27.34000 433.618
27.35000 435.387
27.36000 433.029
27.37000 427.378
27.38000 421.985
27.39000 427.500
27.40000 438.782
27.41000 449.587
27.42000 438.939
27.43000 421.880
27.44000 407.094
27.45000 412.692
27.46000 423.134
27.47000 432.923
27.48000 439.127
27.49000 444.786
27.50000 449.291
27.51000 441.068
27.52000 433.519
27.53000 427.824
27.54000 426.595
27.55000 425.562
27.56000 425.155
27.57000 425.763
27.58000 426.385
27.59000 426.704
27.60000 428.871
27.61000 430.325
27.62000 431.372
27.63000 432.142
27.64000 432.863
27.65000 432.209
27.66000 430.929
27.67000 429.720
27.68000 429.074
27.69000 428.640
27.70000 427.868
27.71000 424.602
27.72000 420.831
27.73000 418.544
27.74000 423.171
27.75000 428.673
27.76000 432.897
27.77000 436.837
27.78000 439.936
27.79000 439.992
27.80000 433.719
27.81000 427.251
27.82000 420.404
27.83000 413.031
27.84000 405.659
27.85000 404.815
27.86000 409.786
27.87000 414.740
27.88000 418.695
27.89000 422.066
27.90000 425.346
27.91000 426.769
27.92000 427.460
27.93000 428.102
27.94000 428.808
27.95000 429.460
27.96000 429.162
27.97000 423.002
27.98000 415.839
27.99000 409.860
28.00000 408.598
28.01000 407.825
28.02000 407.255
28.03000 416.137
28.04000 423.412
28.05000 426.270
28.06000 421.207
28.07000 415.985
28.08000 416.053
28.09000 422.380
28.10000 428.700
28.11000 425.787
28.12000 415.941
28.13000 406.328
28.14000 405.307
28.15000 408.617
28.16000 412.111
28.17000 418.420
28.18000 425.685
28.19000 432.308
28.20000 432.264
28.21000 430.890
28.22000 429.194
28.23000 425.822
28.24000 422.209
28.25000 418.423
28.26000 414.049
28.27000 409.625
28.28000 406.507
28.29000 407.238
28.30000 407.908
28.31000 412.667
28.32000 423.730
28.33000 434.863
28.34000 434.953
28.35000 423.996
28.36000 413.113
28.37000 409.776
28.38000 411.312
28.39000 412.941
28.40000 416.933
28.41000 421.953
28.42000 426.927
28.43000 431.339
28.44000 435.587
28.45000 439.379
28.46000 427.729
28.47000 415.006
28.48000 404.850
28.49000 406.070
28.50000 408.641
28.51000 410.822
28.52000 411.856
28.53000 412.815
28.54000 413.458
28.55000 406.369
28.56000 400.950
28.57000 401.171
28.58000 408.836
28.59000 416.534
28.60000 422.968
28.61000 428.334
28.62000 433.632
28.63000 432.547
28.64000 428.023
28.65000 423.692
28.66000 422.925
28.67000 423.499
28.68000 423.999
28.69000 423.799
28.70000 423.424
28.71000 423.096
28.72000 417.077
28.73000 411.145
28.74000 406.022
28.75000 403.968
28.76000 402.210
28.77000 402.434
28.78000 407.688
28.79000 413.191
28.80000 416.684
28.81000 408.225
28.82000 401.936
28.83000 403.255
28.84000 413.111
28.85000 422.938
28.86000 427.279
28.87000 427.665
28.88000 428.043
28.89000 420.225
28.90000 408.920
28.91000 398.498
28.92000 400.583
28.93000 406.721
28.94000 412.184
28.95000 412.306
28.96000 411.280
28.97000 410.410
28.98000 404.933
28.99000 399.816
29.00000 395.136
29.01000 391.881
29.02000 388.737
29.03000 388.276
29.04000 393.702
29.05000 399.337
29.06000 402.701
29.07000 404.116
29.08000 405.106
29.09000 402.968
29.10000 397.867
29.11000 392.872
29.12000 395.558
29.13000 402.990
29.14000 410.198
29.15000 411.100
29.16000 409.474
29.17000 408.345
29.18000 412.789
29.19000 418.786
29.20000 423.085
29.21000 416.213
29.22000 407.307
29.23000 399.969
29.24000 392.852
29.25000 387.017
29.26000 383.986
29.27000 388.825
29.28000 394.136
29.29000 398.689
29.30000 401.808
29.31000 404.894
29.32000 406.613
29.33000 402.253
29.34000 399.217
29.35000 394.038
29.36000 387.136
29.37000 380.504
29.38000 385.415
29.39000 396.465
29.40000 407.055
29.41000 409.030
29.42000 407.991
29.43000 406.877
29.44000 405.089
29.45000 403.139
29.46000 400.975
29.47000 397.633
29.48000 394.110
29.49000 391.301
29.50000 398.091
29.51000 404.269
29.52000 405.983
29.53000 396.878
29.54000 387.291
29.55000 387.337
29.56000 403.075
29.57000 419.034
29.58000 427.261
29.59000 408.136
29.60000 395.312
29.61000 389.737
29.62000 389.133
29.63000 388.530
29.64000 387.973
29.65000 387.437
29.66000 386.930
29.67000 383.268
29.68000 379.010
29.69000 376.007
29.70000 382.341
29.71000 390.580
29.72000 397.233
29.73000 396.446
29.74000 394.711
29.75000 393.377
29.76000 388.906
29.77000 385.192
29.78000 385.844
29.79000 395.629
29.80000 405.702
29.81000 409.033
29.82000 402.944
29.83000 396.795
29.84000 397.528
29.85000 404.431
29.86000 411.242
29.87000 412.561
29.88000 410.645
29.89000 408.645
29.90000 404.905
29.91000 400.476
29.92000 396.358
29.93000 404.104
29.94000 413.941
29.95000 422.386
29.96000 422.185
29.97000 420.492
29.98000 418.838
29.99000 417.341
30.00000 415.861
30.01000 414.768
30.02000 416.609
30.03000 418.161
30.04000 419.735
30.05000 421.348
30.06000 422.963
30.07000 420.380
30.08000 412.799
30.09000 405.227
30.10000 401.357
30.11000 400.316
30.12000 399.474
30.13000 406.045
30.14000 416.377
30.15000 426.029
30.16000 425.135
30.17000 420.635
30.18000 416.529
30.19000 412.597
30.20000 409.145
30.21000 405.384
30.22000 400.005
30.23000 394.390
30.24000 390.150
30.25000 390.631
30.26000 391.509
30.27000 392.129
30.28000 392.620
30.29000 392.988
30.30000 394.609
30.31000 398.174
30.32000 401.761
30.33000 404.428
30.34000 406.170
30.35000 407.900
30.36000 408.564
30.37000 408.532
30.38000 408.286
30.39000 402.571
30.40000 394.462
30.41000 386.765
30.42000 384.070
30.43000 382.847
30.44000 381.755
30.45000 389.522
30.46000 397.782
30.47000 403.782
30.48000 399.715
30.49000 394.442
30.50000 391.276
30.51000 394.351
30.52000 397.837
30.53000 400.180
30.54000 398.156
30.55000 396.563
30.56000 396.418
30.57000 398.195
30.58000 399.983
30.59000 402.919
30.60000 406.830
30.61000 410.692
30.62000 409.406
30.63000 405.337
30.64000 401.506
30.65000 402.133
30.66000 404.444
30.67000 406.655
30.68000 407.880
30.69000 408.857
30.70000 409.709
30.71000 406.378
30.72000 402.945
30.73000 400.733
30.74000 403.177
30.75000 406.076
30.76000 408.489
30.77000 409.659
30.78000 410.767
30.79000 411.472
30.80000 423.278
30.81000 431.995
30.82000 433.831
30.83000 427.892
30.84000 421.988
30.85000 422.844
30.86000 428.605
30.87000 434.250
30.88000 438.338
30.89000 441.545
30.90000 444.782
30.91000 448.438
30.92000 452.230
30.93000 455.912
30.94000 458.714
30.95000 461.327
30.96000 463.546
30.97000 472.474
30.98000 480.735
30.99000 489.837
31.00000 501.697
31.01000 513.771
31.02000 524.167
31.03000 530.860
31.04000 537.419
31.05000 541.345
31.06000 560.449
31.07000 574.108
31.08000 588.250
31.09000 602.852
31.10000 617.696
31.11000 650.567
31.12000 694.647
31.13000 737.416
31.14000 769.833
31.15000 796.473
31.16000 824.142
31.17000 863.435
31.18000 905.990
31.19000 952.061
31.20000 1021.416
31.21000 1095.041
31.22000 1155.781
31.23000 1227.245
31.24000 1287.086
31.25000 1345.823
31.26000 1401.439
31.27000 1456.866
31.28000 1526.611
31.29000 1623.612
31.30000 1721.272
31.31000 1775.843
31.32000 1870.135
31.33000 1935.481
31.34000 1986.815
31.35000 2026.826
31.36000 2067.132
31.37000 2120.337
31.38000 2180.445
31.39000 2238.076
31.40000 2262.341
31.41000 2273.765
31.42000 2282.256
31.43000 2264.005
31.44000 2239.321
31.45000 2210.538
31.46000 2158.945
31.47000 2103.830
31.48000 2059.823
31.49000 1999.990
31.50000 1950.506
31.51000 1890.067
31.52000 1802.924
31.53000 1714.574
31.54000 1626.273
31.55000 1538.052
31.56000 1449.833
31.57000 1404.202
31.58000 1291.634
31.59000 1215.752
31.60000 1144.122
31.61000 1075.427
31.62000 1006.804
31.63000 940.252
31.64000 874.656
31.65000 812.641
31.66000 765.982
31.67000 727.503
31.68000 688.730
31.69000 647.742
31.70000 606.300
31.71000 569.486
31.72000 554.517
31.73000 542.353
31.74000 532.987
31.75000 506.540
31.76000 484.626
31.77000 467.023
31.78000 458.491
31.79000 450.249
31.80000 443.502
31.81000 438.855
31.82000 434.225
31.83000 429.652
31.84000 425.136
31.85000 420.669
31.86000 419.281
31.87000 419.716
31.88000 420.004
31.89000 417.221
31.90000 413.214
31.91000 409.487
31.92000 407.054
31.93000 405.169
31.94000 402.927
31.95000 398.449
31.96000 393.584
31.97000 390.049
31.98000 391.878
31.99000 394.273
32.00000 396.044
32.01000 391.943
32.02000 388.508
32.03000 385.906
32.04000 384.814
32.05000 383.754
32.06000 382.422
32.07000 380.765
32.08000 379.111
32.09000 380.211
32.10000 383.406
32.11000 386.531
32.12000 386.991
32.13000 386.092
32.14000 384.778
32.15000 376.969
32.16000 366.925
32.17000 357.754
32.18000 353.752
32.19000 351.250
32.20000 349.638
32.21000 352.723
32.22000 356.492
32.23000 360.819
32.24000 367.076
32.25000 373.498
32.26000 378.042
32.27000 369.385
32.28000 362.400
32.29000 358.617
32.30000 359.836
32.31000 361.114
32.32000 361.385
32.33000 360.636
32.34000 359.892
32.35000 361.148
32.36000 363.680
32.37000 366.176
32.38000 367.720
32.39000 368.845
32.40000 370.172
32.41000 373.969
32.42000 378.497
32.43000 382.547
32.44000 374.803
32.45000 366.051
32.46000 357.934
32.47000 352.664
32.48000 347.738
32.49000 344.618
32.50000 346.879
32.51000 349.497
32.52000 351.261
32.53000 352.348
32.54000 353.141
32.55000 350.258
32.56000 342.458
32.57000 334.646
32.58000 335.671
32.59000 344.267
32.60000 352.758
32.61000 352.553
32.62000 347.565
32.63000 342.791
32.64000 342.056
32.65000 342.855
32.66000 343.801
32.67000 346.176
32.68000 348.915
32.69000 351.307
32.70000 348.627
32.71000 345.620
32.72000 343.091
32.73000 342.402
32.74000 341.895
32.75000 345.591
32.76000 360.091
32.77000 375.136
32.78000 384.732
32.79000 363.370
32.80000 347.436
32.81000 341.041
32.82000 345.495
32.83000 349.932
32.84000 349.550
32.85000 345.651
32.86000 341.829
32.87000 339.962
32.88000 339.081
32.89000 338.467
32.90000 341.697
32.91000 346.188
32.92000 349.789
32.93000 346.237
32.94000 341.129
32.95000 336.784
32.96000 334.782
32.97000 333.370
32.98000 333.641
32.99000 339.459
33.00000 345.714
33.01000 349.390
33.02000 347.345
33.03000 345.092
33.04000 343.739
33.05000 347.896
33.06000 350.885
33.07000 350.744
33.08000 347.599
33.09000 344.490
33.10000 344.138
33.11000 345.511
33.12000 346.843
33.13000 341.383
33.14000 333.494
33.15000 326.220
33.16000 325.938
33.17000 327.630
33.18000 329.934
33.19000 336.315
33.20000 343.450
33.21000 349.343
33.22000 354.436
33.23000 358.558
33.24000 359.899
33.25000 353.336
33.26000 346.291
33.27000 340.814
33.28000 338.343
33.29000 335.946
33.30000 334.602
33.31000 333.161
33.32000 332.168
33.33000 333.509
33.34000 336.749
33.35000 339.894
33.36000 338.805
33.37000 335.438
33.38000 332.207
33.39000 332.024
33.40000 332.886
33.41000 333.979
33.42000 337.188
33.43000 340.911
33.44000 344.050
33.45000 343.924
33.46000 343.291
33.47000 342.784
33.48000 338.619
33.49000 334.982
33.50000 331.890
33.51000 330.137
33.52000 328.445
33.53000 326.421
33.54000 323.851
33.55000 321.272
33.56000 319.934
33.57000 323.637
33.58000 326.133
33.59000 327.978
33.60000 329.372
33.61000 330.739
33.62000 331.305
33.63000 331.501
33.64000 331.685
33.65000 330.752
33.66000 329.572
33.67000 329.024
33.68000 333.250
33.69000 338.462
33.70000 341.752
33.71000 335.913
33.72000 328.891
33.73000 323.476
33.74000 325.635
33.75000 327.783
33.76000 328.956
33.77000 328.064
33.78000 327.105
33.79000 325.248
33.80000 322.123
33.81000 318.989
33.82000 323.001
33.83000 333.503
33.84000 343.801
33.85000 341.184
33.86000 330.871
33.87000 320.941
33.88000 319.085
33.89000 320.465
33.90000 321.750
33.91000 320.621
33.92000 319.014
33.93000 318.523
33.94000 325.068
33.95000 332.845
33.96000 338.709
33.97000 336.814
33.98000 334.095
33.99000 332.080
34.00000 331.666
34.01000 331.415
34.02000 331.718
34.03000 333.035
34.04000 334.373
34.05000 331.407
34.06000 323.247
34.07000 315.095
34.08000 314.248
34.09000 319.018
34.10000 323.553
34.11000 318.960
34.12000 309.683
34.13000 301.298
34.14000 307.061
34.15000 317.720
34.16000 327.461
34.17000 326.443
34.18000 323.339
34.19000 320.310
34.20000 317.683
34.21000 315.114
34.22000 312.495
34.23000 309.698
34.24000 306.886
34.25000 304.892
34.26000 311.461
34.27000 316.725
34.28000 320.510
34.29000 321.972
34.30000 323.405
34.31000 321.788
34.32000 317.055
34.33000 312.351
34.34000 313.022
34.35000 317.187
34.36000 321.013
34.37000 315.940
34.38000 306.925
34.39000 298.811
34.40000 301.848
34.41000 308.210
34.42000 313.904
34.43000 318.861
34.44000 323.059
34.45000 325.561
34.46000 320.399
34.47000 314.305
34.48000 310.352
34.49000 312.816
34.50000 315.712
34.51000 317.667
34.52000 321.953
34.53000 325.193
34.54000 327.003
34.55000 326.889
34.56000 326.757
34.57000 321.374
34.58000 311.462
34.59000 301.667
34.60000 304.722
34.61000 314.820
34.62000 324.203
34.63000 319.882
34.64000 310.320
34.65000 301.671
34.66000 302.071
34.67000 304.788
34.68000 307.163
34.69000 314.857
34.70000 322.203
34.71000 327.548
34.72000 325.169
34.73000 322.023
34.74000 319.744
34.75000 319.710
34.76000 319.790
34.77000 319.841
34.78000 317.112
34.79000 315.088
34.80000 314.321
34.81000 314.993
34.82000 315.646
34.83000 312.740
34.84000 307.219
34.85000 301.805
34.86000 304.223
34.87000 310.244
34.88000 316.051
34.89000 318.729
34.90000 320.374
34.91000 321.565
34.92000 319.079
34.93000 315.788
34.94000 312.986
34.95000 312.319
34.96000 312.006
34.97000 310.902
34.98000 307.172
34.99000 303.234
35.00000 299.362
35.01000 295.637
35.02000 291.917
35.03000 289.679
35.04000 298.706
35.05000 305.203
35.06000 305.538
35.07000 299.917
35.08000 294.412
35.09000 298.080
35.10000 307.521
35.11000 316.690
35.12000 316.259
35.13000 311.999
35.14000 307.907
35.15000 305.746
35.16000 304.135
35.17000 302.813
35.18000 303.437
35.19000 304.422
35.20000 305.236
35.21000 305.420
35.22000 305.513
35.23000 306.551
35.24000 310.294
35.25000 314.203
35.26000 316.728
35.27000 316.585
35.28000 316.375
35.29000 316.257
35.30000 311.677
35.31000 308.488
35.32000 305.282
35.33000 302.062
35.34000 299.010
35.35000 303.614
35.36000 312.363
35.37000 320.761
35.38000 318.132
35.39000 311.913
35.40000 306.502
35.41000 308.589
35.42000 312.502
35.43000 315.393
35.44000 312.508
35.45000 308.720
35.46000 305.687
35.47000 307.570
35.48000 309.462
35.49000 310.494
35.50000 309.402
35.51000 308.212
35.52000 308.375
35.53000 310.782
35.54000 313.222
35.55000 314.493
35.56000 323.724
35.57000 329.861
35.58000 322.583
35.59000 305.932
35.60000 289.712
35.61000 286.433
35.62000 289.199
35.63000 291.817
35.64000 293.653
35.65000 295.116
35.66000 296.030
35.67000 292.767
35.68000 288.635
35.69000 285.674
35.70000 288.311
35.71000 291.679
35.72000 294.281
35.73000 297.661
35.74000 300.387
35.75000 302.855
35.76000 304.773
35.77000 306.672
35.78000 305.340
35.79000 299.406
35.80000 293.439
35.81000 293.694
35.82000 299.642
35.83000 305.520
35.84000 306.819
35.85000 305.372
35.86000 303.849
35.87000 300.673
35.88000 296.830
35.89000 293.251
35.90000 291.385
35.91000 290.117
35.92000 289.468
35.93000 292.746
35.94000 296.716
35.95000 299.117
35.96000 295.117
35.97000 290.430
35.98000 286.951
35.99000 280.873
36.00000 276.035
36.01000 277.312
36.02000 289.825
36.03000 302.581
36.04000 308.351
36.05000 305.635
36.06000 302.907
36.07000 298.296
36.08000 292.256
36.09000 286.432
36.10000 289.113
36.11000 296.185
36.12000 302.974
36.13000 305.210
36.14000 305.863
36.15000 306.459
36.16000 298.067
36.17000 288.757
36.18000 281.060
36.19000 281.999
36.20000 284.214
36.21000 287.235
36.22000 293.083
36.23000 299.174
36.24000 303.501
36.25000 291.319
36.26000 281.523
36.27000 275.900
36.28000 276.875
36.29000 277.933
36.30000 282.649
36.31000 291.127
36.32000 299.556
36.33000 298.130
36.34000 290.259
36.35000 282.698
36.36000 283.385
36.37000 287.748
36.38000 291.513
36.39000 287.811
36.40000 281.869
36.41000 276.546
36.42000 284.261
36.43000 293.243
36.44000 300.058
36.45000 297.026
36.46000 292.786
36.47000 290.148
36.48000 292.343
36.49000 294.866
36.50000 296.573
36.51000 298.730
36.52000 300.346
36.53000 296.525
36.54000 285.340
36.55000 274.131
36.56000 276.083
36.57000 289.463
36.58000 302.688
36.59000 308.266
36.60000 309.446
36.61000 310.414
36.62000 307.270
36.63000 302.545
36.64000 298.235
36.65000 298.085
36.66000 299.005
36.67000 299.811
36.68000 300.933
36.69000 301.940
36.70000 301.046
36.71000 292.769
36.72000 283.751
36.73000 277.681
36.74000 279.275
36.75000 281.265
36.76000 282.541
36.77000 285.233
36.78000 287.214
36.79000 287.937
36.80000 287.209
36.81000 286.494
36.82000 288.524
36.83000 292.582
36.84000 296.562
36.85000 291.872
36.86000 283.239
36.87000 275.642
36.88000 283.327
36.89000 296.085
36.90000 307.015
36.91000 303.025
36.92000 295.749
36.93000 289.546
36.94000 290.149
36.95000 291.455
36.96000 292.169
36.97000 290.907
36.98000 289.487
36.99000 288.599
37.00000 288.906
37.01000 289.257
37.02000 289.469
37.03000 295.822
37.04000 300.387
37.05000 297.959
37.06000 288.724
37.07000 279.602
37.08000 279.589
37.09000 285.344
37.10000 290.935
37.11000 292.564
37.12000 292.511
37.13000 292.357
37.14000 291.028
37.15000 289.365
37.16000 287.687
37.17000 285.913
37.18000 284.122
37.19000 282.638
37.20000 281.788
37.21000 281.147
37.22000 281.366
37.23000 284.059
37.24000 286.906
37.25000 288.363
37.26000 287.127
37.27000 285.821
37.28000 285.085
37.29000 285.119
37.30000 285.143
37.31000 284.270
37.32000 282.658
37.33000 281.144
37.34000 284.147
37.35000 289.611
37.36000 294.857
37.37000 285.956
37.38000 272.769
37.39000 261.391
37.40000 266.909
37.41000 276.571
37.42000 284.767
37.43000 284.637
37.44000 283.193
37.45000 282.036
37.46000 281.656
37.47000 281.407
37.48000 281.347
37.49000 281.758
37.50000 282.191
37.51000 280.985
37.52000 277.046
37.53000 273.064
37.54000 270.984
37.55000 279.273
37.56000 284.856
37.57000 286.690
37.58000 285.888
37.59000 285.116
37.60000 285.282
37.61000 285.888
37.62000 286.462
37.63000 283.306
37.64000 279.315
37.65000 276.285
37.66000 280.635
37.67000 286.530
37.68000 290.861
37.69000 287.665
37.70000 283.480
37.71000 280.242
37.72000 281.627
37.73000 282.998
37.74000 282.181
37.75000 276.676
37.76000 271.014
37.77000 270.164
37.78000 276.207
37.79000 282.302
37.80000 283.683
37.81000 280.722
37.82000 277.867
37.83000 282.074
37.84000 290.541
37.85000 298.451
37.86000 294.315
37.87000 285.292
37.88000 276.881
37.89000 272.598
37.90000 269.739
37.91000 267.242
37.92000 267.066
37.93000 267.301
37.94000 268.272
37.95000 272.265
37.96000 276.585
37.97000 279.797
37.98000 269.637
37.99000 261.141
38.00000 257.664
38.01000 263.467
38.02000 269.473
38.03000 273.854
38.04000 276.247
38.05000 278.630
38.06000 282.296
38.07000 286.940
38.08000 291.430
38.09000 289.739
38.10000 284.836
38.11000 280.159
38.12000 279.155
38.13000 279.437
38.14000 279.695
38.15000 279.758
38.16000 279.774
38.17000 279.813
38.18000 279.979
38.19000 280.163
38.20000 280.933
38.21000 283.769
38.22000 286.784
38.23000 288.930
38.24000 276.936
38.25000 267.343
38.26000 265.089
38.27000 274.503
38.28000 284.067
38.29000 287.158
38.30000 283.546
38.31000 279.955
38.32000 282.039
38.33000 287.844
38.34000 293.471
38.35000 294.306
38.36000 292.991
38.37000 291.774
38.38000 291.782
38.39000 292.159
38.40000 292.498
38.41000 297.035
38.42000 301.727
38.43000 304.934
38.44000 301.347
38.45000 296.919
38.46000 294.813
38.47000 299.747
38.48000 305.163
38.49000 308.835
38.50000 315.448
38.51000 320.443
38.52000 323.725
38.53000 324.675
38.54000 325.612
38.55000 327.111
38.56000 329.101
38.57000 331.068
38.58000 337.407
38.59000 346.049
38.60000 354.432
38.61000 357.725
38.62000 359.047
38.63000 361.279
38.64000 372.673
38.65000 386.441
38.66000 398.502
38.67000 389.048
38.68000 377.840
38.69000 369.384
38.70000 371.690
38.71000 375.083
38.72000 379.788
38.73000 387.923
38.74000 396.239
38.75000 401.579
38.76000 406.988
38.77000 410.934
38.78000 408.518
38.79000 398.719
38.80000 388.921
38.81000 381.086
38.82000 374.712
38.83000 368.458
38.84000 364.783
38.85000 362.474
38.86000 360.069
38.87000 356.255
38.88000 351.968
38.89000 347.186
38.90000 338.321
38.91000 328.551
38.92000 320.212
38.93000 317.916
38.94000 316.699
38.95000 314.697
38.96000 310.063
38.97000 305.216
38.98000 300.549
38.99000 296.288
39.00000 292.042
39.01000 289.475
39.02000 289.129
39.03000 288.898
39.04000 291.358
39.05000 296.456
39.06000 301.459
39.07000 298.656
39.08000 290.878
39.09000 283.318
39.10000 276.539
39.11000 270.411
39.12000 264.556
39.13000 261.883
39.14000 260.125
39.15000 258.955
39.16000 261.797
39.17000 265.394
39.18000 268.377
39.19000 261.556
39.20000 254.982
39.21000 251.458
39.22000 256.753
39.23000 262.605
39.24000 265.073
39.25000 260.945
39.26000 256.646
39.27000 254.216
39.28000 259.448
39.29000 263.104
39.30000 265.423
39.31000 266.631
39.32000 267.735
39.33000 263.904
39.34000 257.368
39.35000 251.089
39.36000 250.796
39.37000 252.590
39.38000 254.376
39.39000 256.084
39.40000 257.771
39.41000 259.683
39.42000 262.876
39.43000 266.274
39.44000 269.001
39.45000 267.865
39.46000 266.649
39.47000 265.735
39.48000 265.574
39.49000 265.449
39.50000 265.570
39.51000 266.104
39.52000 266.644
39.53000 266.927
39.54000 270.609
39.55000 273.057
39.56000 268.855
39.57000 259.949
39.58000 251.286
39.59000 250.132
39.60000 252.528
39.61000 254.797
39.62000 255.137
39.63000 254.883
39.64000 254.496
39.65000 253.074
39.66000 251.433
39.67000 249.850
39.68000 248.548
39.69000 247.283
39.70000 246.303
39.71000 252.274
39.72000 257.431
39.73000 259.382
39.74000 254.421
39.75000 249.226
39.76000 247.165
39.77000 249.623
39.78000 252.117
39.79000 254.847
39.80000 257.796
39.81000 260.671
39.82000 258.460
39.83000 253.162
39.84000 248.236
39.85000 251.437
39.86000 257.955
39.87000 264.034
39.88000 262.641
39.89000 259.525
39.90000 256.434
39.91000 253.506
39.92000 250.607
39.93000 249.184
39.94000 253.862
39.95000 259.205
39.96000 263.185
39.97000 259.623
39.98000 256.511
39.99000 252.656
40.00000 247.420
40.01000 242.153
40.02000 240.986
40.03000 244.864
40.04000 248.748
40.05000 252.079
40.06000 254.961
40.07000 257.770
40.08000 257.604
40.09000 255.884
40.10000 254.080
40.11000 250.912
40.12000 247.263
40.13000 243.922
40.14000 246.947
40.15000 250.971
40.16000 254.389
40.17000 254.530
40.18000 254.178
40.19000 253.206
40.20000 250.032
40.21000 246.665
40.22000 244.265
40.23000 244.975
40.24000 245.619
40.25000 244.911
40.26000 242.042
40.27000 239.145
40.28000 238.790
40.29000 241.087
40.30000 243.372
40.31000 244.322
40.32000 244.373
40.33000 244.492
40.34000 246.455
40.35000 249.249
40.36000 252.041
40.37000 254.803
40.38000 257.557
40.39000 260.028
40.40000 261.005
40.41000 261.599
40.42000 261.022
40.43000 255.062
40.44000 248.430
40.45000 242.976
40.46000 241.114
40.47000 239.501
40.48000 238.405
40.49000 233.893
40.50000 230.450
40.51000 232.574
40.52000 242.334
40.53000 252.130
40.54000 252.854
40.55000 245.596
40.56000 238.419
40.57000 233.653
40.58000 230.361
40.59000 227.336
40.60000 229.630
40.61000 233.995
40.62000 238.302
40.63000 242.027
40.64000 245.600
40.65000 248.733
40.66000 248.831
40.67000 248.474
40.68000 249.009
40.69000 253.053
40.70000 257.454
40.71000 261.098
40.72000 262.747
40.73000 264.291
40.74000 265.285
40.75000 255.976
40.76000 249.036
40.77000 245.521
40.78000 246.009
40.79000 246.492
40.80000 245.076
40.81000 242.238
40.82000 239.453
40.83000 233.722
40.84000 226.779
40.85000 220.762
40.86000 228.690
40.87000 241.303
40.88000 252.179
40.89000 248.652
40.90000 241.912
40.91000 236.154
40.92000 238.101
40.93000 240.661
40.94000 243.503
40.95000 247.298
40.96000 251.171
40.97000 252.844
40.98000 249.516
40.99000 245.995
41.00000 243.861
41.01000 247.005
41.02000 249.288
41.03000 248.927
41.04000 245.958
41.05000 242.975
41.06000 238.837
41.07000 233.958
41.08000 229.213
41.09000 229.550
41.10000 231.948
41.11000 234.255
41.12000 235.480
41.13000 236.392
41.14000 237.207
41.15000 237.357
41.16000 237.380
41.17000 237.400
41.18000 241.396
41.19000 245.085
41.20000 248.170
41.21000 249.502
41.22000 250.722
41.23000 247.981
41.24000 237.472
41.25000 226.758
41.26000 220.684
41.27000 228.122
41.28000 233.333
41.29000 235.777
41.30000 235.912
41.31000 236.044
41.32000 236.017
41.33000 235.904
41.34000 235.796
41.35000 235.095
41.36000 234.234
41.37000 233.274
41.38000 231.379
41.39000 229.252
41.40000 228.196
41.41000 233.313
41.42000 239.418
41.43000 244.325
41.44000 248.169
41.45000 251.202
41.46000 251.550
41.47000 245.151
41.48000 238.427
41.49000 235.004
41.50000 237.155
41.51000 239.397
41.52000 240.576
41.53000 234.505
41.54000 230.406
41.55000 229.411
41.56000 230.624
41.57000 231.916
41.58000 235.646
41.59000 240.537
41.60000 245.174
41.61000 246.451
41.62000 246.635
41.63000 246.136
41.64000 240.314
41.65000 233.362
41.66000 227.965
41.67000 230.148
41.68000 233.343
41.69000 235.821
41.70000 233.901
41.71000 232.109
41.72000 229.796
41.73000 226.351
41.74000 222.867
41.75000 222.092
41.76000 225.246
41.77000 228.432
41.78000 232.225
41.79000 236.583
41.80000 240.839
41.81000 238.078
41.82000 231.031
41.83000 224.268
41.84000 223.811
41.85000 225.942
41.86000 227.932
41.87000 233.945
41.88000 240.401
41.89000 245.697
41.90000 243.470
41.91000 239.891
41.92000 236.658
41.93000 234.868
41.94000 233.236
41.95000 232.019
41.96000 231.757
41.97000 231.596
41.98000 232.160
41.99000 234.078
42.00000 236.026
42.01000 234.882
42.02000 229.908
42.03000 224.932
42.04000 222.824
42.05000 222.990
42.06000 223.274
42.07000 228.477
42.08000 236.266
42.09000 243.350
42.10000 238.773
42.11000 230.063
42.12000 222.079
42.13000 224.829
42.14000 229.537
42.15000 233.403
42.16000 232.669
42.17000 231.239
42.18000 229.881
42.19000 228.779
42.20000 227.699
42.21000 226.927
42.22000 231.945
42.23000 235.967
42.24000 236.410
42.25000 231.092
42.26000 225.698
42.27000 224.620
42.28000 228.073
42.29000 231.508
42.30000 231.669
42.31000 229.637
42.32000 227.674
42.33000 227.611
42.34000 228.411
42.35000 228.981
42.36000 226.596
42.37000 223.309
42.38000 220.356
42.39000 222.456
42.40000 225.182
42.41000 227.297
42.42000 226.578
42.43000 225.503
42.44000 225.098
42.45000 226.746
42.46000 228.539
42.47000 229.760
42.48000 224.865
42.49000 221.070
42.50000 220.525
42.51000 224.467
42.52000 228.432
42.53000 227.043
42.54000 220.910
42.55000 214.843
42.56000 212.881
42.57000 213.298
42.58000 213.937
42.59000 219.027
42.60000 225.860
42.61000 232.069
42.62000 231.881
42.63000 230.014
42.64000 228.376
42.65000 226.032
42.66000 223.916
42.67000 222.005
42.68000 220.906
42.69000 219.891
42.70000 220.767
42.71000 226.652
42.72000 232.805
42.73000 236.775
42.74000 239.522
42.75000 241.511
42.76000 239.939
42.77000 234.181
42.78000 228.422
42.79000 223.870
42.80000 220.226
42.81000 216.648
42.82000 216.802
42.83000 218.758
42.84000 220.686
42.85000 222.187
42.86000 223.544
42.87000 224.867
42.88000 225.905
42.89000 226.879
42.90000 227.712
42.91000 225.620
42.92000 223.504
42.93000 222.793
42.94000 226.858
42.95000 231.317
42.96000 232.303
42.97000 225.348
42.98000 218.083
42.99000 213.666
43.00000 218.465
43.01000 221.963
43.02000 224.800
43.03000 226.980
43.04000 229.151
43.05000 230.526
43.06000 231.388
43.07000 232.227
43.08000 232.711
43.09000 233.025
43.10000 233.157
43.11000 231.130
43.12000 228.474
43.13000 226.522
43.14000 229.442
43.15000 233.293
43.16000 236.494
43.17000 235.508
43.18000 234.283
43.19000 232.476
43.20000 228.964
43.21000 225.342
43.22000 222.769
43.23000 222.264
43.24000 221.815
43.25000 221.560
43.26000 215.184
43.27000 210.727
43.28000 208.970
43.29000 209.481
43.30000 210.080
43.31000 215.051
43.32000 222.446
43.33000 229.558
43.34000 228.158
43.35000 223.864
43.36000 219.797
43.37000 217.893
43.38000 216.530
43.39000 215.479
43.40000 216.246
43.41000 217.305
43.42000 218.157
43.43000 214.700
43.44000 211.559
43.45000 209.421
43.46000 209.817
43.47000 210.336
43.48000 211.476
43.49000 213.671
43.50000 215.884
43.51000 217.051
43.52000 209.552
43.53000 204.499
43.54000 205.671
43.55000 211.305
43.56000 216.787
43.57000 217.460
43.58000 215.834
43.59000 214.291
43.60000 221.456
43.61000 230.653
43.62000 238.530
43.63000 236.032
43.64000 231.320
43.65000 227.041
43.66000 224.891
43.67000 223.027
43.68000 221.579
43.69000 220.021
43.70000 218.775
43.71000 219.963
43.72000 226.463
43.73000 233.148
43.74000 234.094
43.75000 226.663
43.76000 219.162
43.77000 215.097
43.78000 214.267
43.79000 213.445
43.80000 213.237
43.81000 213.406
43.82000 213.585
43.83000 213.990
43.84000 214.488
43.85000 214.954
43.86000 214.696
43.87000 214.279
43.88000 213.651
43.89000 211.634
43.90000 209.365
43.91000 208.019
43.92000 210.535
43.93000 213.479
43.94000 215.678
43.95000 214.381
43.96000 213.207
43.97000 214.025
43.98000 218.586
43.99000 223.236
44.00000 223.063
44.01000 216.878
44.02000 210.687
44.03000 209.842
44.04000 213.250
44.05000 216.510
44.06000 213.518
44.07000 207.219
44.08000 201.605
44.09000 207.448
44.10000 217.375
44.11000 226.483
44.12000 222.421
44.13000 216.010
44.14000 210.390
44.15000 209.115
44.16000 208.501
44.17000 209.102
44.18000 214.059
44.19000 219.407
44.20000 223.234
44.21000 220.909
44.22000 218.927
44.23000 218.730
44.24000 221.425
44.25000 224.160
44.26000 224.165
44.27000 221.282
44.28000 218.414
44.29000 214.749
44.30000 210.591
44.31000 206.607
44.32000 207.514
44.33000 210.654
44.34000 213.661
44.35000 214.936
44.36000 215.679
44.37000 216.347
44.38000 214.693
44.39000 212.832
44.40000 211.374
44.41000 211.788
44.42000 212.440
44.43000 213.138
44.44000 213.977
44.45000 214.826
44.46000 215.405
44.47000 214.628
44.48000 214.016
44.49000 214.428
44.50000 216.263
44.51000 218.108
44.52000 220.789
44.53000 224.216
44.54000 227.606
44.55000 226.849
44.56000 223.734
44.57000 220.899
44.58000 223.743
44.59000 228.824
44.60000 233.377
44.61000 232.462
44.62000 230.104
44.63000 228.032
44.64000 229.674
44.65000 231.633
44.66000 232.296
44.67000 227.797
44.68000 222.763
44.69000 221.786
44.70000 231.615
44.71000 242.030
44.72000 248.764
44.73000 247.947
44.74000 247.238
44.75000 245.292
44.76000 241.881
44.77000 238.494
44.78000 240.864
44.79000 247.600
44.80000 254.216
44.81000 256.854
44.82000 257.465
44.83000 258.136
44.84000 259.740
44.85000 261.662
44.86000 263.634
44.87000 266.033
44.88000 268.527
44.89000 270.663
44.90000 275.414
44.91000 279.741
44.92000 284.699
44.93000 291.815
44.94000 299.112
44.95000 303.388
44.96000 300.717
44.97000 297.770
44.98000 295.975
44.99000 296.692
45.00000 297.225
45.01000 303.419
45.02000 315.278
45.03000 327.030
45.04000 329.246
45.05000 325.273
45.06000 321.406
45.07000 320.731
45.08000 321.411
45.09000 322.421
45.10000 327.403
45.11000 333.549
45.12000 338.312
45.13000 333.434
45.14000 326.702
45.15000 321.100
45.16000 318.415
45.17000 316.478
45.18000 313.993
45.19000 309.888
45.20000 305.679
45.21000 300.911
45.22000 295.035
45.23000 289.128
45.24000 285.761
45.25000 281.996
45.26000 279.369
45.27000 276.969
45.28000 274.762
45.29000 272.616
45.30000 273.566
45.31000 276.245
45.32000 278.822
45.33000 274.922
45.34000 268.981
45.35000 263.533
45.36000 262.855
45.37000 263.377
45.38000 263.086
45.39000 258.057
45.40000 252.258
45.41000 247.583
45.42000 239.644
45.43000 232.939
45.44000 230.436
45.45000 238.611
45.46000 247.311
45.47000 249.492
45.48000 240.523
45.49000 231.365
45.50000 226.519
45.51000 228.246
45.52000 229.421
45.53000 230.139
45.54000 230.529
45.55000 230.855
45.56000 229.139
45.57000 226.440
45.58000 223.878
45.59000 221.109
45.60000 218.491
45.61000 216.153
45.62000 216.032
45.63000 216.388
45.64000 216.867
45.65000 217.957
45.66000 219.129
45.67000 220.042
45.68000 216.622
45.69000 213.632
45.70000 210.902
45.71000 208.740
45.72000 206.600
45.73000 207.293
45.74000 212.149
45.75000 217.042
45.76000 219.127
45.77000 218.553
45.78000 217.936
45.79000 214.205
45.80000 208.549
45.81000 203.061
45.82000 201.388
45.83000 201.301
45.84000 201.220
45.85000 201.029
45.86000 200.828
45.87000 201.166
45.88000 205.045
45.89000 209.571
45.90000 211.771
45.91000 204.181
45.92000 195.497
45.93000 188.997
45.94000 191.255
45.95000 193.426
45.96000 195.952
45.97000 199.149
45.98000 202.363
45.99000 204.832
46.00000 206.366
46.01000 207.895
46.02000 206.529
46.03000 202.854
46.04000 199.269
46.05000 199.543
46.06000 201.871
46.07000 204.120
46.08000 205.027
46.09000 205.453
46.10000 205.844
46.11000 204.507
46.12000 202.946
46.13000 201.418
46.14000 200.072
46.15000 198.755
46.16000 198.566
46.17000 202.454
46.18000 206.710
46.19000 209.761
46.20000 207.807
46.21000 206.143
46.22000 203.599
46.23000 199.624
46.24000 195.629
46.25000 193.290
46.26000 192.715
46.27000 192.142
46.28000 191.926
46.29000 191.953
46.30000 192.041
46.31000 193.892
46.32000 196.551
46.33000 199.375
46.34000 204.362
46.35000 210.016
46.36000 215.104
46.37000 210.087
46.38000 203.886
46.39000 197.390
46.40000 189.513
46.41000 181.459
46.42000 176.058
46.43000 178.899
46.44000 182.328
46.45000 184.672
46.46000 191.517
46.47000 196.744
46.48000 197.726
46.49000 192.772
46.50000 187.782
46.51000 186.396
46.52000 188.247
46.53000 190.079
46.54000 192.463
46.55000 195.112
46.56000 197.744
46.57000 200.029
46.58000 202.177
46.59000 203.942
46.60000 201.716
46.61000 198.430
46.62000 195.540
46.63000 194.058
46.64000 192.991
46.65000 192.034
46.66000 191.516
46.67000 191.043
46.68000 191.001
46.69000 192.113
46.70000 193.288
46.71000 194.049
46.72000 193.705
46.73000 193.436
46.74000 192.131
46.75000 189.591
46.76000 187.058
46.77000 186.650
46.78000 187.864
46.79000 189.057
46.80000 188.408
46.81000 186.877
46.82000 185.655
46.83000 189.221
46.84000 194.424
46.85000 198.974
46.86000 197.971
46.87000 195.706
46.88000 193.764
46.89000 191.809
46.90000 190.156
46.91000 188.809
46.92000 188.516
46.93000 188.312
46.94000 189.117
46.95000 192.260
46.96000 195.496
46.97000 197.473
46.98000 186.145
46.99000 177.934
47.00000 174.844
47.01000 176.917
47.02000 178.980
47.03000 180.185
47.04000 180.831
47.05000 181.460
47.06000 184.930
47.07000 189.422
47.08000 193.435
47.09000 191.624
47.10000 188.097
47.11000 184.984
47.12000 184.783
47.13000 185.144
47.14000 185.445
47.15000 191.322
47.16000 196.746
47.17000 199.930
47.18000 196.478
47.19000 192.590
47.20000 189.549
47.21000 188.204
47.22000 186.906
47.23000 186.163
47.24000 186.098
47.25000 186.057
47.26000 188.066
47.27000 191.819
47.28000 195.483
47.29000 194.577
47.30000 191.104
47.31000 187.761
47.32000 188.918
47.33000 191.601
47.34000 193.709
47.35000 190.216
47.36000 185.308
47.37000 181.346
47.38000 182.949
47.39000 185.462
47.40000 187.490
47.41000 180.686
47.42000 174.456
47.43000 170.690
47.44000 173.226
47.45000 176.076
47.46000 176.940
47.47000 174.387
47.48000 171.775
47.49000 170.388
47.50000 174.410
47.51000 177.157
47.52000 181.241
47.53000 186.297
47.54000 191.072
47.55000 186.646
47.56000 177.765
47.57000 169.329
47.58000 171.905
47.59000 177.600
47.60000 182.402
47.61000 180.074
47.62000 176.205
47.63000 172.840
47.64000 171.986
47.65000 171.475
47.66000 171.076
47.67000 173.842
47.68000 176.242
47.69000 178.051
47.70000 178.556
47.71000 179.014
47.72000 179.071
47.73000 178.535
47.74000 177.994
47.75000 176.832
47.76000 175.078
47.77000 173.344
47.78000 173.091
47.79000 173.758
47.80000 174.440
47.81000 175.469
47.82000 176.642
47.83000 177.740
47.84000 182.384
47.85000 187.506
47.86000 191.268
47.87000 186.015
47.88000 179.109
47.89000 174.368
47.90000 178.811
47.91000 184.288
47.92000 188.394
47.93000 185.656
47.94000 183.194
47.95000 181.345
47.96000 180.663
47.97000 180.010
47.98000 176.924
47.99000 170.766
48.00000 164.608
48.01000 166.116
48.02000 173.793
48.03000 181.318
48.04000 182.228
48.05000 179.596
48.06000 177.037
48.07000 175.731
48.08000 174.877
48.09000 174.093
48.10000 171.636
48.11000 169.084
48.12000 167.670
48.13000 172.593
48.14000 178.494
48.15000 184.193
48.16000 189.153
48.17000 194.045
48.18000 197.560
48.19000 188.596
48.20000 181.308
48.21000 179.052
48.22000 185.046
48.23000 191.159
48.24000 191.103
48.25000 184.436
48.26000 177.800
48.27000 175.230
48.28000 175.466
48.29000 175.653
48.30000 174.412
48.31000 172.512
48.32000 171.072
48.33000 175.713
48.34000 182.245
48.35000 188.127
48.36000 183.942
48.37000 178.461
48.38000 174.288
48.39000 176.300
48.40000 179.107
48.41000 181.868
48.42000 184.487
48.43000 187.095
48.44000 188.882
48.45000 183.299
48.46000 178.942
48.47000 175.687
48.48000 173.982
48.49000 172.291
48.50000 175.012
48.51000 181.720
48.52000 188.361
48.53000 187.355
48.54000 181.936
48.55000 176.757
48.56000 176.569
48.57000 178.370
48.58000 179.646
48.59000 175.390
48.60000 169.656
48.61000 164.608
48.62000 170.277
48.63000 176.763
48.64000 181.675
48.65000 180.243
48.66000 178.142
48.67000 175.863
48.68000 173.102
48.69000 170.314
48.70000 168.503
48.71000 173.653
48.72000 177.533
48.73000 179.126
48.74000 177.977
48.75000 176.819
48.76000 174.954
48.77000 172.546
48.78000 170.180
48.79000 172.112
48.80000 176.102
48.81000 179.817
48.82000 179.221
48.83000 177.142
48.84000 175.177
48.85000 174.192
48.86000 173.431
48.87000 172.778
48.88000 171.729
48.89000 170.794
48.90000 170.298
48.91000 171.318
48.92000 172.467
48.93000 172.377
48.94000 169.400
48.95000 166.305
48.96000 164.410
48.97000 172.360
48.98000 178.135
48.99000 180.780
49.00000 180.250
49.01000 179.717
49.02000 178.896
49.03000 177.886
49.04000 176.903
49.05000 176.568
49.06000 176.522
49.07000 176.662
49.08000 179.098
49.09000 182.213
49.10000 184.823
49.11000 183.854
49.12000 182.188
49.13000 180.799
49.14000 178.779
49.15000 177.042
49.16000 175.226
49.17000 173.176
49.18000 171.111
49.19000 168.562
49.20000 165.040
49.21000 161.491
49.22000 159.456
49.23000 166.203
49.24000 170.948
49.25000 174.333
49.26000 176.554
49.27000 178.745
49.28000 179.416
49.29000 179.228
49.30000 179.048
49.31000 181.177
49.32000 184.000
49.33000 185.910
49.34000 178.837
49.35000 169.476
49.36000 161.966
49.37000 165.410
49.38000 170.656
49.39000 174.897
49.40000 175.016
49.41000 174.784
49.42000 175.436
49.43000 178.364
49.44000 181.407
49.45000 182.069
49.46000 178.612
49.47000 175.081
49.48000 173.201
49.49000 175.090
49.50000 176.374
49.51000 176.968
49.52000 177.058
49.53000 177.209
49.54000 179.404
49.55000 182.594
49.56000 185.626
49.57000 183.524
49.58000 180.025
49.59000 176.823
49.60000 176.015
49.61000 175.727
49.62000 175.254
49.63000 173.851
49.64000 172.321
49.65000 171.126
49.66000 166.787
49.67000 163.130
49.68000 161.909
49.69000 166.100
49.70000 170.488
49.71000 171.400
49.72000 167.145
49.73000 162.841
49.74000 164.385
49.75000 171.544
49.76000 178.593
49.77000 177.197
49.78000 170.518
49.79000 164.052
49.80000 162.593
49.81000 163.238
49.82000 163.842
49.83000 166.355
49.84000 169.130
49.85000 171.323
49.86000 169.635
49.87000 167.231
49.88000 166.387
49.89000 172.196
49.90000 178.760
49.91000 183.689
49.92000 182.208
49.93000 180.744
49.94000 179.266
49.95000 177.762
49.96000 176.258
49.97000 174.447
49.98000 172.247
49.99000 170.048
50.00000 170.390
50.01000 172.791
50.02000 175.200
50.03000 177.971
50.04000 180.936
50.05000 183.593
50.06000 180.917
50.07000 176.306
50.08000 172.066
50.09000 173.967
50.10000 176.995
50.11000 179.123
50.12000 176.214
50.13000 172.520
50.14000 169.330
50.15000 167.976
50.16000 166.790
50.17000 165.938
50.18000 168.686
50.19000 170.916
50.20000 172.572
50.21000 173.282
50.22000 173.979
50.23000 174.611
50.24000 175.174
50.25000 175.734
50.26000 175.911
50.27000 175.822
50.28000 175.719
50.29000 175.190
50.30000 174.463
50.31000 173.782
50.32000 173.721
50.33000 173.854
50.34000 173.974
50.35000 173.310
50.36000 172.585
50.37000 171.862
50.38000 171.149
50.39000 170.437
50.40000 171.015
50.41000 175.649
50.42000 180.579
50.43000 183.962
50.44000 187.857
50.45000 190.790
50.46000 193.635
50.47000 196.356
50.48000 199.074
50.49000 198.200
50.50000 194.058
50.51000 189.955
50.52000 187.674
50.53000 186.503
50.54000 185.651
50.55000 191.520
50.56000 200.084
50.57000 208.074
50.58000 209.957
50.59000 210.197
50.60000 210.409
50.61000 209.455
50.62000 208.457
50.63000 207.571
50.64000 207.142
50.65000 206.761
50.66000 206.043
50.67000 204.408
50.68000 202.721
50.69000 201.624
50.70000 215.277
50.71000 225.519
50.72000 227.833
50.73000 220.578
50.74000 213.309
50.75000 207.816
50.76000 203.694
50.77000 199.642
50.78000 200.568
50.79000 203.936
50.80000 207.149
50.81000 207.889
50.82000 207.775
50.83000 207.252
50.84000 203.214
50.85000 198.365
50.86000 194.200
50.87000 197.401
50.88000 201.023
50.89000 204.441
50.90000 207.146
50.91000 209.789
50.92000 209.929
50.93000 204.207
50.94000 198.243
50.95000 194.582
50.96000 194.616
50.97000 194.673
50.98000 195.550
50.99000 197.264
51.00000 198.885
51.01000 191.385
51.02000 177.854
51.03000 164.670
51.04000 164.190
51.05000 169.101
51.06000 173.922
51.07000 177.617
51.08000 180.976
51.09000 183.427
51.10000 179.399
51.11000 174.101
51.12000 169.676
51.13000 172.221
51.14000 175.038
51.15000 177.619
51.16000 179.495
51.17000 181.323
51.18000 180.418
51.19000 173.989
51.20000 167.402
51.21000 163.614
51.22000 163.776
51.23000 163.904
51.24000 163.839
51.25000 163.606
51.26000 163.426
51.27000 166.004
51.28000 170.151
51.29000 174.147
51.30000 173.180
51.31000 170.487
51.32000 168.023
51.33000 167.828
51.34000 168.215
51.35000 168.438
51.36000 167.684
51.37000 166.768
51.38000 166.027
51.39000 163.108
51.40000 160.556
51.41000 159.931
51.42000 164.287
51.43000 168.898
51.44000 171.919
51.45000 172.171
51.46000 172.374
51.47000 172.482
51.48000 172.749
51.49000 172.908
51.50000 168.949
51.51000 161.962
51.52000 155.160
51.53000 154.588
51.54000 157.067
51.55000 159.425
51.56000 162.998
51.57000 166.673
51.58000 169.675
51.59000 167.231
51.60000 163.595
51.61000 160.712
51.62000 161.627
51.63000 163.069
51.64000 164.196
51.65000 162.772
51.66000 161.473
51.67000 160.728
51.68000 161.218
51.69000 161.754
51.70000 162.160
51.71000 162.370
51.72000 162.578
51.73000 161.701
51.74000 159.774
51.75000 157.849
51.76000 156.046
51.77000 154.321
51.78000 152.764
51.79000 155.198
51.80000 159.320
51.81000 163.181
51.82000 159.147
51.83000 153.437
51.84000 149.178
51.85000 154.672
51.86000 161.981
51.87000 167.182
51.88000 163.328
51.89000 158.440
51.90000 154.763
51.91000 158.343
51.92000 161.494
51.93000 162.602
51.94000 159.772
51.95000 156.842
51.96000 157.023
51.97000 161.183
51.98000 165.352
51.99000 166.222
52.00000 164.397
52.01000 162.593
52.02000 161.732
52.03000 161.382
52.04000 160.967
52.05000 159.411
52.06000 157.438
52.07000 155.623
52.08000 155.875
52.09000 156.550
52.10000 157.559
52.11000 160.450
52.12000 163.636
52.13000 164.623
52.14000 157.524
52.15000 149.674
52.16000 144.016
52.17000 155.830
52.18000 165.504
52.19000 170.040
52.20000 166.050
52.21000 161.931
52.22000 159.361
52.23000 158.474
52.24000 157.591
52.25000 156.213
52.26000 154.508
52.27000 152.938
52.28000 155.455
52.29000 159.882
52.30000 163.874
52.31000 162.011
52.32000 158.305
52.33000 154.963
52.34000 154.717
52.35000 155.067
52.36000 155.829
52.37000 158.566
52.38000 161.561
52.39000 162.833
52.40000 158.659
52.41000 154.083
52.42000 150.937
52.43000 161.658
52.44000 170.044
52.45000 172.294
52.46000 165.804
52.47000 159.250
52.48000 155.286
52.49000 153.696
52.50000 152.121
52.51000 155.182
52.52000 160.903
52.53000 166.347
52.54000 165.852
52.55000 162.962
52.56000 160.453
52.57000 162.029
52.58000 164.711
52.59000 167.076
52.60000 165.310
52.61000 163.158
52.62000 162.109
52.63000 165.560
52.64000 169.494
52.65000 170.679
52.66000 164.366
52.67000 157.629
52.68000 153.232
52.69000 148.233
52.70000 144.554
52.71000 142.538
52.72000 142.542
52.73000 142.560
52.74000 144.820
52.75000 148.825
52.76000 152.764
52.77000 154.757
52.78000 155.714
52.79000 156.441
52.80000 153.506
52.81000 149.296
52.82000 145.761
52.83000 148.103
52.84000 151.807
52.85000 154.993
52.86000 150.195
52.87000 145.135
52.88000 141.708
52.89000 144.000
52.90000 146.787
52.91000 148.912
52.92000 149.476
52.93000 149.975
52.94000 150.283
52.95000 156.236
52.96000 160.557
52.97000 162.277
52.98000 161.322
52.99000 160.386
53.00000 161.374
53.01000 163.643
53.02000 165.854
53.03000 161.558
53.04000 154.690
53.05000 148.345
53.06000 148.534
53.07000 150.685
53.08000 152.899
53.09000 155.567
53.10000 158.326
53.11000 160.632
53.12000 164.253
53.13000 167.394
53.14000 168.463
53.15000 163.284
53.16000 157.679
53.17000 154.290
53.18000 155.404
53.19000 156.649
53.20000 157.367
53.21000 154.824
53.22000 153.031
53.23000 151.761
53.24000 150.946
53.25000 150.176
53.26000 151.869
53.27000 154.971
53.28000 157.961
53.29000 155.621
53.30000 151.491
53.31000 147.563
53.32000 145.651
53.33000 144.259
53.34000 143.378
53.35000 145.568
53.36000 148.271
53.37000 150.461
53.38000 150.653
53.39000 150.646
53.40000 150.351
53.41000 149.305
53.42000 148.219
53.43000 147.686
53.44000 148.120
53.45000 148.572
53.46000 148.814
53.47000 148.338
53.48000 148.016
53.49000 148.250
53.50000 148.896
53.51000 149.562
53.52000 150.931
53.53000 152.646
53.54000 154.278
53.55000 152.882
53.56000 150.659
53.57000 148.507
53.58000 146.930
53.59000 145.479
53.60000 145.404
53.61000 152.312
53.62000 160.195
53.63000 166.366
53.64000 164.930
53.65000 163.295
53.66000 160.949
53.67000 157.004
53.68000 152.999
53.69000 149.961
53.70000 148.378
53.71000 146.810
53.72000 149.052
53.73000 155.002
53.74000 160.887
53.75000 161.464
53.76000 158.679
53.77000 155.964
53.78000 154.952
53.79000 154.664
53.80000 154.394
53.81000 154.628
53.82000 154.973
53.83000 154.862
53.84000 151.662
53.85000 147.884
53.86000 145.395
53.87000 148.475
53.88000 152.197
53.89000 155.002
53.90000 156.837
53.91000 158.226
53.92000 157.552
53.93000 152.878
53.94000 148.101
53.95000 144.693
53.96000 143.045
53.97000 141.406
53.98000 140.598
53.99000 140.474
54.00000 140.410
54.01000 143.147
54.02000 147.410
54.03000 151.354
54.04000 149.650
54.05000 145.873
54.06000 142.394
54.07000 139.654
54.08000 137.365
54.09000 136.219
54.10000 141.570
54.11000 147.945
54.12000 152.613
54.13000 150.961
54.14000 148.716
54.15000 147.096
54.16000 146.306
54.17000 145.731
54.18000 145.942
54.19000 147.466
54.20000 149.011
54.21000 149.516
54.22000 148.884
54.23000 148.254
54.24000 150.171
54.25000 153.841
54.26000 157.352
54.27000 156.029
54.28000 152.434
54.29000 148.977
54.30000 147.404
54.31000 146.428
54.32000 145.546
54.33000 145.481
54.34000 145.575
54.35000 145.431
54.36000 144.140
54.37000 142.697
54.38000 143.470
54.39000 151.290
54.40000 159.634
54.41000 165.383
54.42000 156.606
54.43000 149.650
54.44000 145.458
54.45000 145.224
54.46000 145.020
54.47000 143.563
54.48000 140.951
54.49000 138.363
54.50000 139.043
54.51000 141.644
54.52000 144.272
54.53000 147.518
54.54000 151.014
54.55000 154.477
54.56000 157.577
54.57000 160.579
54.58000 163.229
54.59000 156.735
54.60000 149.730
54.61000 143.674
54.62000 141.519
54.63000 139.785
54.64000 139.436
54.65000 142.886
54.66000 146.555
54.67000 148.954
54.68000 154.071
54.69000 157.874
54.70000 155.809
54.71000 146.565
54.72000 137.341
54.73000 138.495
54.74000 147.777
54.75000 156.908
54.76000 156.529
54.77000 151.377
54.78000 146.353
54.79000 143.401
54.80000 141.176
54.81000 139.216
54.82000 139.594
54.83000 140.516
54.84000 141.310
54.85000 148.090
54.86000 154.589
54.87000 159.162
54.88000 156.947
54.89000 154.141
54.90000 152.370
54.91000 153.050
54.92000 153.834
54.93000 154.317
54.94000 151.054
54.95000 148.676
54.96000 149.126
54.97000 152.506
54.98000 155.850
54.99000 155.370
55.00000 152.329
55.01000 149.363
55.02000 148.257
55.03000 147.996
55.04000 147.808
55.05000 148.539
55.06000 149.547
55.07000 150.574
55.08000 151.745
55.09000 152.944
55.10000 153.948
55.11000 151.444
55.12000 149.002
55.13000 147.054
55.14000 146.601
55.15000 146.251
55.16000 146.097
55.17000 146.341
55.18000 146.597
55.19000 146.745
55.20000 149.817
55.21000 151.978
55.22000 150.850
55.23000 146.846
55.24000 142.932
55.25000 144.083
55.26000 148.147
55.27000 152.067
55.28000 155.461
55.29000 158.463
55.30000 161.137
55.31000 160.504
55.32000 159.015
55.33000 157.644
55.34000 156.988
55.35000 156.453
55.36000 156.018
55.37000 150.849
55.38000 146.244
55.39000 143.770
55.40000 146.874
55.41000 150.270
55.42000 152.898
55.43000 154.174
55.44000 155.424
55.45000 156.096
55.46000 146.943
55.47000 140.718
55.48000 141.628
55.49000 147.849
55.50000 154.044
55.51000 159.311
55.52000 164.119
55.53000 168.696
55.54000 169.701
55.55000 169.526
55.56000 169.738
55.57000 173.131
55.58000 177.229
55.59000 181.190
55.60000 184.454
55.61000 187.621
55.62000 190.103
55.63000 188.941
55.64000 187.776
55.65000 187.258
55.66000 188.199
55.67000 189.196
55.68000 191.203
55.69000 194.741
55.70000 198.294
55.71000 201.874
55.72000 205.481
55.73000 209.100
55.74000 213.746
55.75000 219.047
55.76000 224.384
55.77000 230.624
55.78000 237.251
55.79000 243.465
55.80000 245.975
55.81000 247.290
55.82000 248.359
55.83000 247.755
55.84000 246.835
55.85000 248.252
55.86000 259.830
55.87000 272.589
55.88000 282.218
55.89000 280.943
55.90000 279.405
55.91000 275.599
55.92000 267.373
55.93000 259.033
55.94000 256.828
55.95000 262.577
55.96000 268.351
55.97000 272.922
55.98000 276.485
55.99000 279.865
56.00000 274.636
56.01000 264.686
56.02000 255.270
56.03000 255.410
56.04000 259.080
56.05000 262.462
56.06000 256.478
56.07000 249.050
56.08000 241.922
56.09000 236.502
56.10000 231.355
56.11000 228.171
56.12000 232.303
56.13000 237.125
56.14000 240.614
56.15000 235.684
56.16000 231.593
56.17000 228.540
56.18000 227.234
56.19000 225.955
56.20000 222.840
56.21000 217.705
56.22000 212.590
56.23000 207.832
56.24000 203.374
56.25000 198.990
56.26000 196.912
56.27000 195.925
56.28000 194.918
56.29000 193.639
56.30000 192.275
56.31000 191.042
56.32000 186.790
56.33000 182.492
56.34000 177.989
56.35000 172.497
56.36000 166.873
56.37000 162.404
56.38000 161.630
56.39000 161.134
56.40000 160.792
56.41000 154.409
56.42000 149.458
56.43000 147.919
56.44000 151.302
56.45000 154.722
56.46000 155.701
56.47000 154.412
56.48000 153.135
56.49000 152.534
56.50000 152.348
56.51000 152.218
56.52000 153.316
56.53000 154.914
56.54000 156.244
56.55000 154.638
56.56000 152.227
56.57000 150.097
56.58000 143.057
56.59000 136.220
56.60000 131.229
56.61000 133.869
56.62000 137.341
56.63000 140.746
56.64000 143.966
56.65000 147.175
56.66000 149.278
56.67000 142.550
56.68000 137.457
56.69000 134.537
56.70000 134.291
56.71000 134.054
56.72000 134.460
56.73000 135.372
56.74000 136.270
56.75000 140.687
56.76000 146.748
56.77000 152.183
56.78000 147.367
56.79000 138.938
56.80000 131.605
56.81000 133.956
56.82000 138.581
56.83000 142.567
56.84000 142.982
56.85000 142.878
56.86000 142.953
56.87000 143.662
56.88000 144.427
56.89000 144.803
56.90000 144.254
56.91000 143.665
56.92000 143.301
56.93000 141.584
56.94000 140.337
56.95000 140.226
56.96000 141.301
56.97000 142.381
56.98000 144.113
56.99000 146.284
57.00000 148.402
57.01000 146.979
57.02000 144.092
57.03000 141.165
57.04000 137.735
57.05000 134.151
57.06000 131.233
57.07000 133.171
57.08000 136.079
57.09000 138.517
57.10000 139.725
57.11000 140.602
57.12000 141.137
57.13000 140.624
57.14000 140.038
57.15000 140.334
57.16000 142.445
57.17000 144.611
57.18000 145.867
57.19000 147.868
57.20000 149.272
57.21000 146.406
57.22000 139.783
57.23000 133.269
57.24000 132.985
57.25000 136.304
57.26000 139.508
57.27000 142.870
57.28000 146.094
57.29000 148.595
57.30000 143.752
57.31000 136.992
57.32000 131.431
57.33000 133.169
57.34000 136.142
57.35000 138.557
57.36000 134.564
57.37000 130.773
57.38000 128.353
57.39000 129.544
57.40000 130.925
57.41000 133.628
57.42000 138.673
57.43000 143.762
57.44000 146.507
57.45000 143.745
57.46000 141.854
57.47000 140.523
57.48000 139.612
57.49000 138.727
57.50000 138.757
57.51000 139.245
57.52000 139.709
57.53000 140.944
57.54000 142.328
57.55000 143.687
57.56000 144.828
57.57000 145.921
57.58000 146.531
57.59000 144.658
57.60000 142.432
57.61000 140.685
57.62000 139.844
57.63000 139.231
57.64000 138.032
57.65000 135.503
57.66000 132.922
57.67000 131.929
57.68000 133.357
57.69000 134.811
57.70000 134.567
57.71000 132.646
57.72000 130.730
57.73000 129.240
57.74000 128.024
57.75000 127.034
57.76000 131.609
57.77000 138.579
57.78000 145.119
57.79000 146.726
57.80000 146.889
57.81000 146.689
57.82000 143.991
57.83000 140.820
57.84000 138.507
57.85000 139.946
57.86000 141.824
57.87000 143.244
57.88000 142.106
57.89000 141.086
57.90000 139.695
57.91000 137.578
57.92000 135.441
57.93000 132.608
57.94000 128.867
57.95000 125.125
57.96000 126.624
57.97000 132.484
57.98000 138.271
57.99000 140.553
58.00000 140.902
58.01000 141.086
58.02000 138.297
58.03000 134.402
58.04000 130.809
58.05000 130.592
58.06000 131.149
58.07000 131.945
58.08000 134.118
58.09000 136.511
58.10000 138.043
58.11000 136.344
58.12000 134.338
58.13000 132.884
58.14000 134.495
58.15000 135.845
58.16000 136.871
58.17000 137.348
58.18000 137.815
58.19000 138.341
58.20000 138.930
58.21000 139.516
58.22000 136.233
58.23000 130.252
58.24000 124.545
58.25000 127.458
58.26000 134.472
58.27000 140.982
58.28000 140.493
58.29000 137.762
58.30000 135.292
58.31000 134.850
58.32000 134.839
58.33000 134.822
58.34000 134.769
58.35000 134.712
58.36000 134.764
58.37000 135.170
58.38000 135.603
58.39000 135.902
58.40000 135.466
58.41000 135.119
58.42000 133.991
58.43000 131.729
58.44000 129.458
58.45000 129.530
58.46000 131.790
58.47000 134.031
58.48000 134.037
58.49000 132.704
58.50000 131.434
58.51000 131.574
58.52000 132.292
58.53000 133.256
58.54000 136.925
58.55000 141.339
58.56000 145.244
58.57000 141.841
58.58000 137.765
58.59000 135.221
58.60000 139.054
58.61000 143.588
58.62000 145.433
58.63000 139.812
58.64000 133.754
58.65000 129.775
58.66000 132.386
58.67000 134.420
58.68000 135.322
58.69000 134.824
58.70000 134.319
58.71000 133.114
58.72000 131.352
58.73000 129.618
58.74000 129.201
58.75000 129.468
58.76000 129.833
58.77000 131.818
58.78000 134.377
58.79000 136.906
58.80000 139.162
58.81000 141.354
58.82000 143.244
58.83000 134.206
58.84000 125.136
58.85000 119.634
58.86000 126.868
58.87000 135.231
58.88000 141.501
58.89000 142.751
58.90000 143.782
58.91000 144.422
58.92000 139.062
58.93000 135.148
58.94000 133.943
58.95000 135.584
58.96000 137.205
58.97000 136.587
58.98000 134.451
58.99000 132.366
59.00000 133.993
59.01000 137.160
59.02000 140.153
59.03000 140.913
59.04000 140.990
59.05000 140.385
59.06000 134.772
59.07000 128.149
59.08000 122.592
59.09000 123.581
59.10000 125.088
59.11000 126.278
59.12000 126.493
59.13000 126.641
59.14000 127.376
59.15000 129.327
59.16000 131.315
59.17000 132.471
59.18000 137.956
59.19000 141.824
59.20000 142.752
59.21000 141.073
59.22000 139.379
59.23000 136.732
59.24000 133.532
59.25000 130.443
59.26000 129.184
59.27000 128.674
59.28000 128.203
59.29000 128.135
59.30000 128.173
59.31000 128.532
59.32000 130.860
59.33000 133.524
59.34000 135.691
59.35000 136.884
59.36000 137.777
59.37000 137.345
59.38000 133.406
59.39000 129.278
59.40000 125.854
59.41000 123.685
59.42000 121.541
59.43000 120.380
59.44000 131.295
59.45000 138.749
59.46000 139.693
59.47000 135.728
59.48000 131.777
59.49000 128.344
59.50000 125.170
59.51000 122.145
59.52000 123.894
59.53000 127.013
59.54000 130.037
59.55000 132.270
59.56000 134.324
59.57000 136.698
59.58000 140.723
59.59000 144.983
59.60000 148.333
59.61000 142.061
59.62000 136.402
59.63000 131.619
59.64000 128.840
59.65000 126.138
59.66000 124.261
59.67000 123.647
59.68000 123.048
59.69000 123.729
59.70000 125.683
59.71000 127.642
59.72000 129.918
59.73000 132.398
59.74000 134.789
59.75000 134.941
59.76000 134.123
59.77000 133.355
59.78000 133.738
59.79000 134.392
59.80000 134.995
59.81000 135.246
59.82000 135.430
59.83000 135.071
59.84000 132.325
59.85000 129.296
59.86000 127.004
59.87000 125.961
59.88000 125.206
59.89000 126.210
59.90000 130.689
59.91000 135.261
59.92000 138.116
59.93000 138.719
59.94000 139.311
59.95000 138.034
59.96000 135.195
59.97000 132.415
59.98000 132.577
59.99000 134.373
60.00000 136.196
60.01000 138.503
60.02000 140.992
60.03000 143.289
60.04000 142.235
60.05000 140.539
60.06000 139.174
60.07000 139.730
60.08000 140.595
60.09000 140.621
60.10000 137.487
60.11000 134.050
60.12000 131.554
60.13000 131.452
60.14000 131.464
60.15000 131.574
60.16000 131.849
60.17000 132.127
60.18000 131.976
60.19000 131.346
60.20000 130.718
60.21000 132.335
60.22000 135.532
60.23000 138.617
60.24000 138.175
60.25000 136.044
60.26000 134.083
60.27000 134.493
60.28000 135.668
60.29000 136.732
60.30000 132.172
60.31000 127.099
60.32000 123.440
60.33000 126.728
60.34000 130.951
60.35000 134.278
60.36000 134.704
60.37000 134.907
60.38000 135.047
60.39000 131.576
60.40000 128.867
60.41000 128.639
60.42000 132.032
60.43000 135.455
60.44000 135.021
60.45000 130.954
60.46000 126.923
60.47000 127.081
60.48000 129.762
60.49000 132.394
60.50000 133.947
60.51000 135.054
60.52000 136.179
60.53000 137.516
60.54000 138.911
60.55000 140.146
60.56000 135.147
60.57000 129.846
60.58000 125.198
60.59000 123.284
60.60000 121.672
60.61000 123.026
60.62000 132.662
60.63000 142.789
60.64000 149.455
60.65000 141.501
60.66000 135.391
60.67000 133.576
60.68000 137.120
60.69000 140.659
60.70000 137.877
60.71000 130.048
60.72000 122.339
60.73000 121.998
60.74000 125.449
60.75000 128.677
60.76000 128.169
60.77000 126.328
60.78000 125.063
60.79000 128.970
60.80000 134.106
60.81000 138.543
60.82000 140.427
60.83000 141.697
60.84000 142.258
60.85000 140.272
60.86000 138.058
60.87000 135.177
60.88000 130.690
60.89000 126.133
60.90000 123.300
60.91000 126.518
60.92000 128.896
60.93000 132.035
60.94000 135.982
60.95000 139.894
60.96000 139.950
60.97000 137.376
60.98000 134.862
60.99000 134.211
61.00000 134.401
61.01000 134.616
61.02000 135.149
61.03000 135.781
61.04000 136.119
61.05000 134.288
61.06000 132.017
61.07000 130.109
61.08000 130.239
61.09000 130.562
61.10000 130.658
61.11000 130.048
61.12000 129.389
61.13000 129.778
61.14000 132.349
61.15000 134.988
61.16000 136.526
61.17000 135.653
61.18000 135.028
61.19000 133.131
61.20000 130.100
61.21000 127.201
61.22000 132.127
61.23000 141.635
61.24000 150.819
61.25000 148.847
61.26000 142.842
61.27000 137.431
61.28000 138.150
61.29000 140.489
61.30000 142.031
61.31000 138.654
61.32000 134.432
61.33000 130.993
61.34000 132.771
61.35000 134.666
61.36000 136.522
61.37000 138.274
61.38000 140.020
61.39000 141.109
61.40000 141.018
61.41000 140.904
61.42000 140.841
61.43000 138.119
61.44000 136.262
61.45000 136.999
61.46000 139.705
61.47000 142.460
61.48000 147.012
61.49000 152.471
61.50000 157.678
61.51000 162.332
61.52000 166.476
61.53000 171.181
61.54000 180.617
61.55000 191.121
61.56000 201.679
61.57000 212.509
61.58000 223.379
61.59000 231.939
61.60000 238.227
61.61000 243.114
61.62000 250.310
61.63000 262.818
61.64000 275.536
61.65000 284.140
61.66000 286.393
61.67000 288.576
61.68000 289.668
61.69000 292.638
61.70000 294.563
61.71000 291.533
61.72000 285.286
61.73000 279.073
61.74000 273.760
61.75000 268.838
61.76000 264.212
61.77000 261.647
61.78000 259.856
61.79000 255.843
61.80000 236.337
61.81000 213.851
61.82000 193.742
61.83000 184.168
61.84000 175.848
61.85000 169.538
61.86000 166.422
61.87000 164.139
61.88000 161.527
61.89000 158.266
61.90000 154.987
61.91000 153.949
61.92000 155.873
61.93000 157.809
61.94000 155.982
61.95000 150.981
61.96000 146.025
61.97000 143.263
61.98000 141.727
61.99000 140.301
62.00000 140.918
62.01000 142.303
62.02000 143.583
62.03000 142.578
62.04000 141.161
62.05000 139.801
62.06000 138.769
62.07000 137.791
62.08000 137.001
62.09000 136.929
62.10000 136.927
62.11000 136.925
62.12000 141.365
62.13000 144.950
62.14000 146.190
62.15000 143.418
62.16000 140.577
62.17000 140.502
62.18000 143.533
62.19000 146.556
62.20000 145.038
62.21000 140.288
62.22000 135.729
62.23000 137.332
62.24000 141.900
62.25000 146.155
62.26000 145.946
62.27000 144.291
62.28000 142.791
62.29000 142.021
62.30000 141.480
62.31000 140.536
62.32000 137.597
62.33000 134.389
62.34000 133.079
62.35000 137.960
62.36000 143.319
62.37000 147.041
62.38000 140.308
62.39000 134.955
62.40000 132.504
62.41000 134.318
62.42000 136.169
62.43000 138.686
62.44000 141.833
62.45000 144.955
62.46000 141.611
62.47000 134.404
62.48000 127.612
62.49000 130.249
62.50000 136.804
62.51000 143.122
62.52000 146.768
62.53000 149.668
62.54000 152.239
62.55000 148.848
62.56000 144.973
62.57000 141.644
62.58000 140.622
62.59000 139.856
62.60000 139.638
62.61000 140.957
62.62000 142.368
62.63000 143.298
62.64000 146.372
62.65000 148.675
62.66000 149.777
62.67000 149.371
62.68000 148.963
62.69000 149.259
62.70000 150.121
62.71000 150.971
62.72000 147.764
62.73000 142.559
62.74000 137.611
62.75000 137.036
62.76000 138.028
62.77000 139.127
62.78000 141.192
62.79000 143.489
62.80000 145.474
62.81000 144.449
62.82000 143.187
62.83000 143.044
62.84000 146.949
62.85000 151.219
62.86000 152.732
62.87000 147.558
62.88000 142.085
62.89000 138.674
62.90000 141.708
62.91000 143.959
62.92000 144.869
62.93000 144.350
62.94000 143.849
62.95000 145.463
62.96000 148.529
62.97000 151.523
62.98000 148.623
62.99000 143.256
63.00000 138.333
63.01000 139.216
63.02000 141.895
63.03000 143.802
63.04000 139.959
63.05000 134.943
63.06000 130.724
63.07000 137.267
63.08000 143.866
63.09000 148.824
63.10000 148.680
63.11000 148.171
63.12000 146.438
63.13000 142.142
63.14000 137.764
63.15000 135.205
63.16000 141.001
63.17000 145.120
63.18000 148.884
63.19000 152.329
63.20000 155.720
63.21000 155.874
63.22000 154.120
63.23000 152.425
63.24000 151.153
63.25000 150.112
63.26000 148.898
63.27000 145.880
63.28000 142.383
63.29000 139.769
63.30000 142.650
63.31000 146.480
63.32000 149.604
63.33000 151.748
63.34000 153.417
63.35000 153.133
63.36000 147.611
63.37000 141.803
63.38000 139.728
63.39000 144.396
63.40000 149.202
63.41000 151.818
63.42000 153.226
63.43000 154.186
63.44000 154.010
63.45000 152.968
63.46000 151.903
63.47000 149.965
63.48000 147.583
63.49000 145.310
63.50000 147.851
63.51000 151.740
63.52000 154.951
63.53000 152.414
63.54000 148.570
63.55000 145.366
63.56000 145.525
63.57000 146.172
63.58000 146.681
63.59000 147.485
63.60000 148.150
63.61000 148.515
63.62000 148.187
63.63000 147.831
63.64000 149.266
63.65000 153.479
63.66000 157.725
63.67000 159.856
63.68000 158.307
63.69000 157.282
63.70000 157.203
63.71000 157.742
63.72000 158.284
63.73000 158.901
63.74000 159.553
63.75000 160.165
63.76000 155.253
63.77000 149.280
63.78000 144.168
63.79000 145.097
63.80000 147.197
63.81000 148.897
63.82000 148.815
63.83000 148.519
63.84000 148.294
63.85000 149.759
63.86000 150.998
63.87000 152.697
63.88000 155.316
63.89000 157.961
63.90000 160.721
63.91000 163.632
63.92000 166.542
63.93000 166.492
63.94000 163.926
63.95000 161.355
63.96000 158.468
63.97000 155.406
63.98000 152.503
63.99000 152.607
64.00000 153.849
64.01000 154.997
64.02000 154.648
64.03000 153.994
64.04000 153.704
64.05000 155.549
64.06000 157.743
64.07000 159.576
64.08000 160.027
64.09000 160.344
64.10000 160.575
64.11000 158.712
64.12000 157.196
64.13000 157.838
64.14000 162.192
64.15000 166.612
64.16000 166.357
64.17000 160.817
64.18000 155.292
64.19000 155.094
64.20000 158.732
64.21000 162.265
64.22000 162.365
64.23000 160.803
64.24000 159.357
64.25000 159.565
64.26000 160.312
64.27000 160.989
64.28000 161.646
64.29000 162.221
64.30000 163.203
64.31000 166.204
64.32000 169.481
64.33000 171.754
64.34000 170.731
64.35000 169.451
64.36000 168.560
64.37000 161.934
64.38000 156.782
64.39000 156.715
64.40000 164.167
64.41000 171.688
64.42000 172.058
64.43000 165.607
64.44000 159.207
64.45000 157.777
64.46000 159.409
64.47000 161.083
64.48000 163.728
64.49000 166.778
64.50000 169.561
64.51000 169.311
64.52000 168.211
64.53000 167.234
64.54000 165.431
64.55000 163.738
64.56000 162.480
64.57000 163.074
64.58000 163.875
64.59000 164.705
64.60000 165.617
64.61000 166.533
64.62000 167.139
64.63000 174.103
64.64000 179.355
64.65000 180.263
64.66000 175.684
64.67000 171.094
64.68000 169.256
64.69000 169.644
64.70000 170.027
64.71000 169.084
64.72000 167.481
64.73000 165.981
64.74000 166.253
64.75000 167.165
64.76000 168.162
64.77000 169.935
64.78000 171.896
64.79000 173.593
64.80000 173.751
64.81000 173.682
64.82000 174.641
64.83000 179.333
64.84000 184.365
64.85000 186.195
64.86000 180.214
64.87000 173.879
64.88000 169.922
64.89000 173.625
64.90000 176.376
64.91000 179.558
64.92000 183.200
64.93000 186.825
64.94000 188.281
64.95000 188.240
64.96000 188.199
64.97000 187.931
64.98000 187.574
64.99000 186.879
65.00000 181.721
65.01000 175.175
65.02000 170.521
65.03000 180.075
65.04000 192.547
65.05000 203.049
65.06000 202.780
65.07000 201.401
65.08000 199.743
65.09000 197.218
65.10000 194.629
65.11000 194.207
65.12000 198.349
65.13000 202.637
65.14000 205.151
65.15000 212.130
65.16000 217.068
65.17000 221.879
65.18000 226.574
65.19000 231.221
65.20000 232.908
65.21000 232.839
65.22000 232.773
65.23000 231.739
65.24000 230.398
65.25000 229.496
65.26000 233.211
65.27000 238.160
65.28000 242.858
65.29000 245.985
65.30000 248.839
65.31000 251.170
65.32000 250.879
65.33000 250.415
65.34000 251.364
65.35000 256.126
65.36000 261.099
65.37000 266.342
65.38000 272.076
65.39000 277.820
65.40000 280.956
65.41000 281.129
65.42000 281.263
65.43000 286.138
65.44000 294.656
65.45000 303.072
65.46000 307.637
65.47000 310.233
65.48000 312.713
65.49000 318.243
65.50000 324.358
65.51000 329.872
65.52000 330.244
65.53000 329.439
65.54000 329.862
65.55000 336.765
65.56000 344.614
65.57000 350.812
65.58000 365.457
65.59000 377.787
65.60000 387.309
65.61000 390.298
65.62000 393.019
65.63000 398.527
65.64000 408.390
65.65000 418.303
65.66000 423.298
65.67000 447.610
65.68000 464.003
65.69000 494.137
65.70000 533.304
65.71000 572.434
65.72000 610.597
65.73000 648.334
65.74000 683.839
65.75000 740.183
65.76000 797.322
65.77000 855.102
65.78000 917.426
65.79000 980.634
65.80000 1036.912
65.81000 1062.070
65.82000 1083.467
65.83000 1099.745
65.84000 1104.849
65.85000 1108.280
65.86000 1109.748
65.87000 1107.273
65.88000 1104.687
65.89000 1094.834
65.90000 1075.259
65.91000 1055.650
65.92000 1035.631
65.93000 1015.304
65.94000 994.471
65.95000 947.222
65.96000 885.045
65.97000 822.964
65.98000 762.678
65.99000 703.077
66.00000 647.944
66.01000 593.937
66.02000 545.678
66.03000 499.216
66.04000 463.404
66.05000 429.344
66.06000 399.475
66.07000 385.706
66.08000 373.524
66.09000 364.632
66.10000 343.504
66.11000 326.741
66.12000 315.041
66.13000 312.105
66.14000 309.326
66.15000 304.469
66.16000 297.248
66.17000 290.049
66.18000 293.266
66.19000 304.003
66.20000 314.485
66.21000 316.472
66.22000 314.320
66.23000 312.334
66.24000 312.746
66.25000 313.945
66.26000 315.033
66.27000 322.316
66.28000 329.933
66.29000 340.042
66.30000 362.628
66.31000 386.930
66.32000 407.248
66.33000 414.417
66.34000 420.551
66.35000 424.828
66.36000 426.311
66.37000 427.354
66.38000 430.608
66.39000 437.153
66.40000 443.728
66.41000 448.746
66.42000 452.270
66.43000 455.765
66.44000 459.580
66.45000 463.524
66.46000 466.867
66.47000 456.141
66.48000 439.500
66.49000 423.937
66.50000 420.674
66.51000 420.885
66.52000 421.073
66.53000 404.564
66.54000 387.580
66.55000 371.561
66.56000 359.665
66.57000 348.235
66.58000 339.392
66.59000 337.901
66.60000 336.861
66.61000 336.171
66.62000 327.076
66.63000 320.206
66.64000 318.100
66.65000 322.050
66.66000 326.023
66.67000 330.659
66.68000 335.833
66.69000 340.934
66.70000 345.932
66.71000 350.732
66.72000 354.514
66.73000 340.663
66.74000 320.409
66.75000 303.284
66.76000 314.949
66.77000 333.590
66.78000 349.740
66.79000 348.250
66.80000 344.647
66.81000 342.037
66.82000 343.057
66.83000 344.410
66.84000 344.491
66.85000 341.449
66.86000 338.263
66.87000 336.269
66.88000 338.160
66.89000 339.568
66.90000 339.832
66.91000 338.862
66.92000 337.934
66.93000 342.174
66.94000 350.007
66.95000 357.663
66.96000 355.626
66.97000 349.357
66.98000 343.730
66.99000 346.695
67.00000 352.348
67.01000 356.799
67.02000 352.151
67.03000 345.623
67.04000 340.118
67.05000 348.112
67.06000 356.246
67.07000 362.885
67.08000 364.817
67.09000 366.407
67.10000 368.316
67.11000 370.906
67.12000 373.518
67.13000 375.053
67.14000 369.833
67.15000 366.119
67.16000 366.024
67.17000 369.222
67.18000 372.422
67.19000 375.690
67.20000 378.999
67.21000 382.200
67.22000 387.855
67.23000 394.126
67.24000 399.736
67.25000 398.330
67.26000 395.035
67.27000 391.483
67.28000 386.309
67.29000 380.849
67.30000 376.384
67.31000 384.344
67.32000 391.946
67.33000 398.015
67.34000 399.924
67.35000 401.600
67.36000 405.969
67.37000 415.260
67.38000 424.656
67.39000 429.801
67.40000 428.344
67.41000 427.330
67.42000 425.545
67.43000 423.165
67.44000 420.941
67.45000 424.790
67.46000 431.758
67.47000 438.415
67.48000 431.782
67.49000 421.336
67.50000 412.417
67.51000 416.671
67.52000 423.960
67.53000 431.719
67.54000 441.974
67.55000 452.595
67.56000 460.995
67.57000 460.126
67.58000 458.790
67.59000 459.139
67.60000 463.432
67.61000 467.888
67.62000 469.906
67.63000 468.091
67.64000 466.229
67.65000 465.288
67.66000 469.491
67.67000 472.298
67.68000 474.670
67.69000 476.754
67.70000 478.768
67.71000 478.974
67.72000 478.378
67.73000 477.817
67.74000 481.029
67.75000 484.997
67.76000 488.835
67.77000 491.754
67.78000 494.492
67.79000 496.746
67.80000 496.809
67.81000 496.606
67.82000 496.451
67.83000 508.742
67.84000 519.079
67.85000 526.030
67.86000 526.138
67.87000 526.050
67.88000 528.657
67.89000 534.892
67.90000 541.141
67.91000 545.449
67.92000 548.074
67.93000 550.656
67.94000 550.903
67.95000 549.822
67.96000 548.942
67.97000 551.921
67.98000 556.379
67.99000 560.505
68.00000 558.435
68.01000 555.147
68.02000 552.841
68.03000 556.391
68.04000 560.912
68.05000 564.781
68.06000 566.128
68.07000 567.223
68.08000 568.025
68.09000 574.090
68.10000 578.976
68.11000 583.452
68.12000 587.213
68.13000 590.961
68.14000 594.445
68.15000 597.629
68.16000 600.802
68.17000 600.135
68.18000 596.674
68.19000 593.593
68.20000 603.399
68.21000 619.520
68.22000 635.088
68.23000 642.585
68.24000 647.416
68.25000 651.803
68.26000 651.513
68.27000 650.352
68.28000 649.491
68.29000 650.144
68.30000 651.007
68.31000 654.739
68.32000 667.995
68.33000 682.008
68.34000 691.797
68.35000 702.927
68.36000 711.372
68.37000 714.562
68.38000 709.885
68.39000 705.132
68.40000 709.655
68.41000 723.151
68.42000 736.544
68.43000 745.420
68.44000 751.348
68.45000 757.654
68.46000 772.921
68.47000 791.979
68.48000 810.237
68.49000 819.279
68.50000 825.703
68.51000 831.410
68.52000 858.198
68.53000 884.837
68.54000 908.745
68.55000 920.919
68.56000 931.751
68.57000 947.483
68.58000 977.234
68.59000 1007.854
68.60000 1028.186
68.61000 1079.357
68.62000 1117.755
68.63000 1159.092
68.64000 1204.193
68.65000 1249.340
68.66000 1308.145
68.67000 1378.142
68.68000 1447.158
68.69000 1499.938
68.70000 1542.671
68.71000 1586.375
68.72000 1647.087
68.73000 1714.008
68.74000 1780.368
68.75000 1841.508
68.76000 1901.375
68.77000 1953.296
68.78000 2016.694
68.79000 2072.212
68.80000 2129.407
68.81000 2192.771
68.82000 2256.709
68.83000 2338.772
68.84000 2465.587
68.85000 2594.480
68.86000 2675.378
68.87000 2979.667
68.88000 3202.032
68.89000 3569.721
68.90000 4095.339
68.91000 4625.501
68.92000 5739.328
68.93000 7261.336
68.94000 8749.553
68.95000 11609.983
68.96000 14967.632
68.97000 18425.553
68.98000 23236.729
68.99000 28474.035
69.00000 33713.656
69.01000 38970.930
69.02000 44231.871
69.03000 48672.391
69.04000 52865.727
69.05000 56342.938
69.06000 59323.414
69.07000 60732.031
69.08000 62024.855
69.09000 62982.422
69.10000 63225.320
69.11000 63444.613
69.12000 63573.863
69.13000 64306.473
69.14000 64826.809
69.15000 65441.590
69.16000 66142.938
69.17000 66830.406
69.18000 66616.633
69.19000 65861.992
69.20000 65131.699
69.21000 63135.043
69.22000 60765.387
69.23000 58334.387
69.24000 55246.051
69.25000 51979.703
69.26000 48722.039
69.27000 45519.527
69.28000 42326.742
69.29000 39711.965
69.30000 37583.750
69.31000 35881.879
69.32000 34403.504
69.33000 33534.969
69.34000 32701.031
69.35000 31831.873
69.36000 30897.957
69.37000 29962.639
69.38000 29448.914
69.39000 26700.844
69.40000 24804.541
69.41000 22588.809
69.42000 20124.447
69.43000 17661.955
69.44000 15273.225
69.45000 12922.615
69.46000 10675.836
69.47000 8752.931
69.48000 7069.050
69.49000 5463.866
69.50000 4543.308
69.51000 3781.539
69.52000 3082.614
69.53000 2720.087
69.54000 2407.356
69.55000 2159.672
69.56000 1976.901
69.57000 1834.486
69.58000 1709.616
69.59000 1626.076
69.60000 1544.270
69.61000 1479.131
69.62000 1440.359
69.63000 1401.915
69.64000 1382.415
69.65000 1303.737
69.66000 1251.162
69.67000 1211.970
69.68000 1181.684
69.69000 1151.502
69.70000 1124.115
69.71000 1097.972
69.72000 1073.346
69.73000 1041.872
69.74000 1011.189
69.75000 982.176
69.76000 965.151
69.77000 950.495
69.78000 937.735
69.79000 933.598
69.80000 930.520
69.81000 928.170
69.82000 890.974
69.83000 859.796
69.84000 838.189
69.85000 836.044
69.86000 834.467
69.87000 824.298
69.88000 802.488
69.89000 780.626
69.90000 771.305
69.91000 772.878
69.92000 774.149
69.93000 758.900
69.94000 734.203
69.95000 710.797
69.96000 712.463
69.97000 723.784
69.98000 734.271
69.99000 730.075
70.00000 722.895
